Phone timestamp;sensor timestamp [ns];timestamp [ms];ecg [uV]
2024-04-19T14:43:13.195;599616190788227620;0.0;8856
2024-04-19T14:43:13.202;599616190795914672;7.687052;20330
2024-04-19T14:43:13.210;599616190803601724;15.374104;20330
2024-04-19T14:43:13.218;599616190811288776;23.061155;20330
2024-04-19T14:43:13.225;599616190818975828;30.748207;20330
2024-04-19T14:43:13.233;599616190826662880;38.43526;20330
2024-04-19T14:43:13.241;599616190834349932;46.12231;20330
2024-04-19T14:43:13.248;599616190842036984;53.809364;20330
2024-04-19T14:43:13.256;599616190849724036;61.496414;20330
2024-04-19T14:43:13.264;599616190857411088;69.18347;20330
2024-04-19T14:43:13.271;599616190865098140;76.87052;20330
2024-04-19T14:43:13.279;599616190872785192;84.55757;20330
2024-04-19T14:43:13.287;599616190880472244;92.24462;20330
2024-04-19T14:43:13.294;599616190888159296;99.93168;20330
2024-04-19T14:43:13.302;599616190895846348;107.61873;20330
2024-04-19T14:43:13.310;599616190903533400;115.30578;20330
2024-04-19T14:43:13.317;599616190911220452;122.99283;20330
2024-04-19T14:43:13.325;599616190918907504;130.67989;20330
2024-04-19T14:43:13.333;599616190926594556;138.36694;20330
2024-04-19T14:43:13.341;599616190934281608;146.05399;20330
2024-04-19T14:43:13.348;599616190941968660;153.74104;20330
2024-04-19T14:43:13.356;599616190949655712;161.4281;20330
2024-04-19T14:43:13.364;599616190957342764;169.11514;20330
2024-04-19T14:43:13.371;599616190965029816;176.80219;20330
2024-04-19T14:43:13.379;599616190972716868;184.48924;20330
2024-04-19T14:43:13.387;599616190980403920;192.1763;20330
2024-04-19T14:43:13.394;599616190988090972;199.86336;20330
2024-04-19T14:43:13.402;599616190995778024;207.5504;20330
2024-04-19T14:43:13.410;599616191003465076;215.23746;20330
2024-04-19T14:43:13.417;599616191011152128;222.92451;20330
2024-04-19T14:43:13.425;599616191018839180;230.61156;20330
2024-04-19T14:43:13.433;599616191026526232;238.29861;20330
2024-04-19T14:43:13.440;599616191034213284;245.98566;20330
2024-04-19T14:43:13.448;599616191041900336;253.67271;20330
2024-04-19T14:43:13.456;599616191049587388;261.35977;20330
2024-04-19T14:43:13.464;599616191057274440;269.0468;20330
2024-04-19T14:43:13.471;599616191064961492;276.7339;20330
2024-04-19T14:43:13.479;599616191072648544;284.42093;20330
2024-04-19T14:43:13.487;599616191080335596;292.10797;20330
2024-04-19T14:43:13.494;599616191088022648;299.79504;20330
2024-04-19T14:43:13.502;599616191095709700;307.4821;20330
2024-04-19T14:43:13.510;599616191103396752;315.16913;20330
2024-04-19T14:43:13.517;599616191111083804;322.8562;20330
2024-04-19T14:43:13.525;599616191118770856;330.54324;20330
2024-04-19T14:43:13.533;599616191126457908;338.2303;20330
2024-04-19T14:43:13.540;599616191134144960;345.91736;20330
2024-04-19T14:43:13.548;599616191141832012;353.60437;20330
2024-04-19T14:43:13.556;599616191149519064;361.29144;20330
2024-04-19T14:43:13.563;599616191157206116;368.9785;20330
2024-04-19T14:43:13.571;599616191164893168;376.66553;20330
2024-04-19T14:43:13.579;599616191172580220;384.3526;20330
2024-04-19T14:43:13.587;599616191180267272;392.03964;20330
2024-04-19T14:43:13.594;599616191187954324;399.7267;20330
2024-04-19T14:43:13.602;599616191195641376;407.41376;20330
2024-04-19T14:43:13.610;599616191203328428;415.1008;20330
2024-04-19T14:43:13.617;599616191211015480;422.78787;20330
2024-04-19T14:43:13.625;599616191218702532;430.4749;20330
2024-04-19T14:43:13.633;599616191226389584;438.16196;20330
2024-04-19T14:43:13.640;599616191234076636;445.84903;20330
2024-04-19T14:43:13.648;599616191241763688;453.53607;20330
2024-04-19T14:43:13.656;599616191249450740;461.2231;20330
2024-04-19T14:43:13.663;599616191257137792;468.9102;20330
2024-04-19T14:43:13.671;599616191264824844;476.59723;20330
2024-04-19T14:43:13.679;599616191272511896;484.2843;20330
2024-04-19T14:43:13.686;599616191280198948;491.9713;20330
2024-04-19T14:43:13.694;599616191287886000;499.65836;20330
2024-04-19T14:43:13.702;599616191295573052;507.34543;20330
2024-04-19T14:43:13.710;599616191303260104;515.0325;20330
2024-04-19T14:43:13.717;599616191310947156;522.71954;20330
2024-04-19T14:43:13.725;599616191318634208;530.4066;20330
2024-04-19T14:43:13.733;599616191326321260;538.0936;20330
2024-04-19T14:43:13.740;599616191334008312;545.7807;20330
2024-04-19T14:43:13.748;599616191341695364;553.4678;20330
2024-04-19T14:43:13.756;599616191349377462;561.14984;20330
2024-04-19T14:43:13.763;599616191357064583;568.837;20330
2024-04-19T14:43:13.771;599616191364751704;576.5241;20330
2024-04-19T14:43:13.779;599616191372438825;584.2112;20330
2024-04-19T14:43:13.786;599616191380125946;591.8983;20330
2024-04-19T14:43:13.794;599616191387813067;599.58545;20330
2024-04-19T14:43:13.802;599616191395500188;607.2726;20330
2024-04-19T14:43:13.809;599616191403187309;614.95966;20330
2024-04-19T14:43:13.817;599616191410874430;622.6468;20330
2024-04-19T14:43:13.825;599616191418561551;630.3339;20330
2024-04-19T14:43:13.833;599616191426248672;638.02106;20330
2024-04-19T14:43:13.840;599616191433935793;645.7081;20330
2024-04-19T14:43:13.848;599616191441622914;653.39526;20330
2024-04-19T14:43:13.856;599616191449310035;661.08246;20330
2024-04-19T14:43:13.863;599616191456997156;668.76953;20330
2024-04-19T14:43:13.871;599616191464684277;676.45667;20330
2024-04-19T14:43:13.879;599616191472371398;684.1438;20330
2024-04-19T14:43:13.886;599616191480058519;691.83093;20330
2024-04-19T14:43:13.894;599616191487745640;699.518;20330
2024-04-19T14:43:13.902;599616191495432761;707.20514;20330
2024-04-19T14:43:13.909;599616191503119882;714.8923;20330
2024-04-19T14:43:13.917;599616191510807003;722.5794;20330
2024-04-19T14:43:13.925;599616191518494124;730.2665;20330
2024-04-19T14:43:13.932;599616191526181245;737.9536;20330
2024-04-19T14:43:13.940;599616191533868366;745.64075;20330
2024-04-19T14:43:13.948;599616191541555487;753.3279;20330
2024-04-19T14:43:13.956;599616191549242608;761.01495;20330
2024-04-19T14:43:13.963;599616191556929729;768.7021;20330
2024-04-19T14:43:13.971;599616191564616850;776.3892;20330
2024-04-19T14:43:13.979;599616191572303971;784.07635;20330
2024-04-19T14:43:13.986;599616191579991092;791.7634;20330
2024-04-19T14:43:13.994;599616191587678213;799.4506;20330
2024-04-19T14:43:14.002;599616191595365334;807.13776;20330
2024-04-19T14:43:14.009;599616191603052455;814.8248;20330
2024-04-19T14:43:14.017;599616191610739576;822.51196;20330
2024-04-19T14:43:14.025;599616191618426697;830.1991;20330
2024-04-19T14:43:14.032;599616191626113818;837.8862;20330
2024-04-19T14:43:14.040;599616191633800939;845.5733;20330
2024-04-19T14:43:14.048;599616191641488060;853.26044;20330
2024-04-19T14:43:14.055;599616191649175181;860.9476;20330
2024-04-19T14:43:14.063;599616191656862302;868.6347;20330
2024-04-19T14:43:14.071;599616191664549423;876.3218;20330
2024-04-19T14:43:14.079;599616191672236544;884.0089;20330
2024-04-19T14:43:14.086;599616191679923665;891.69604;20330
2024-04-19T14:43:14.094;599616191687610786;899.3832;20330
2024-04-19T14:43:14.102;599616191695297907;907.07025;20330
2024-04-19T14:43:14.109;599616191702985028;914.7574;20330
2024-04-19T14:43:14.117;599616191710672149;922.4445;20330
2024-04-19T14:43:14.125;599616191718359270;930.13165;20330
2024-04-19T14:43:14.132;599616191726046391;937.8187;20330
2024-04-19T14:43:14.140;599616191733733512;945.5059;20330
2024-04-19T14:43:14.148;599616191741420633;953.19305;20330
2024-04-19T14:43:14.155;599616191749107754;960.8801;20330
2024-04-19T14:43:14.163;599616191756794875;968.56726;20330
2024-04-19T14:43:14.171;599616191764481996;976.2544;20330
2024-04-19T14:43:14.178;599616191772169117;983.9415;20330
2024-04-19T14:43:14.186;599616191779856238;991.6286;20330
2024-04-19T14:43:14.194;599616191787543359;999.31573;20330
2024-04-19T14:43:14.202;599616191795230480;1007.00287;20330
2024-04-19T14:43:14.209;599616191802917601;1014.69;20330
2024-04-19T14:43:14.217;599616191810604722;1022.3771;20330
2024-04-19T14:43:14.225;599616191818291843;1030.0642;20330
2024-04-19T14:43:14.232;599616191825978964;1037.7513;20330
2024-04-19T14:43:14.240;599616191833666085;1045.4385;20330
2024-04-19T14:43:14.248;599616191841353206;1053.1256;20330
2024-04-19T14:43:14.255;599616191849040327;1060.8127;20330
2024-04-19T14:43:14.263;599616191856727448;1068.4999;20330
2024-04-19T14:43:14.271;599616191864414569;1076.187;20330
2024-04-19T14:43:14.278;599616191872101690;1083.874;20330
2024-04-19T14:43:14.286;599616191879788811;1091.5612;20330
2024-04-19T14:43:14.294;599616191887475932;1099.2483;20330
2024-04-19T14:43:14.301;599616191895163053;1106.9354;20330
2024-04-19T14:43:14.309;599616191902850174;1114.6226;20330
2024-04-19T14:43:14.317;599616191910577463;1122.3499;20330
2024-04-19T14:43:14.325;599616191918264027;1130.0364;20330
2024-04-19T14:43:14.332;599616191925950591;1137.723;20330
2024-04-19T14:43:14.340;599616191933637155;1145.4095;20330
2024-04-19T14:43:14.348;599616191941323719;1153.0961;20330
2024-04-19T14:43:14.355;599616191949010283;1160.7827;20330
2024-04-19T14:43:14.363;599616191956696847;1168.4692;20330
2024-04-19T14:43:14.371;599616191964383411;1176.1558;20330
2024-04-19T14:43:14.378;599616191972069975;1183.8423;20330
2024-04-19T14:43:14.386;599616191979756539;1191.5289;20330
2024-04-19T14:43:14.394;599616191987443103;1199.2155;20330
2024-04-19T14:43:14.401;599616191995129667;1206.902;20330
2024-04-19T14:43:14.409;599616192002816231;1214.5886;20330
2024-04-19T14:43:14.417;599616192010502795;1222.2751;20330
2024-04-19T14:43:14.424;599616192018189359;1229.9617;20330
2024-04-19T14:43:14.432;599616192025875923;1237.6483;20330
2024-04-19T14:43:14.440;599616192033562487;1245.335;20330
2024-04-19T14:43:14.448;599616192041249051;1253.0215;20330
2024-04-19T14:43:14.455;599616192048935615;1260.708;20330
2024-04-19T14:43:14.463;599616192056622179;1268.3945;20330
2024-04-19T14:43:14.471;599616192064308743;1276.0812;20330
2024-04-19T14:43:14.478;599616192071995307;1283.7677;20330
2024-04-19T14:43:14.486;599616192079681871;1291.4542;20330
2024-04-19T14:43:14.494;599616192087368435;1299.1409;20330
2024-04-19T14:43:14.501;599616192095054999;1306.8274;20330
2024-04-19T14:43:14.509;599616192102741563;1314.5139;20330
2024-04-19T14:43:14.517;599616192110428127;1322.2004;20330
2024-04-19T14:43:14.524;599616192118114691;1329.8871;20330
2024-04-19T14:43:14.532;599616192125801255;1337.5736;20330
2024-04-19T14:43:14.540;599616192133487819;1345.2601;20330
2024-04-19T14:43:14.547;599616192141174383;1352.9468;20330
2024-04-19T14:43:14.555;599616192148860947;1360.6333;20330
2024-04-19T14:43:14.563;599616192156547511;1368.3198;20330
2024-04-19T14:43:14.571;599616192164234075;1376.0063;20330
2024-04-19T14:43:14.578;599616192171920639;1383.6931;20330
2024-04-19T14:43:14.586;599616192179607203;1391.3796;20330
2024-04-19T14:43:14.594;599616192187293767;1399.0662;20330
2024-04-19T14:43:14.601;599616192194980331;1406.7528;20330
2024-04-19T14:43:14.609;599616192202666895;1414.4393;20330
2024-04-19T14:43:14.617;599616192210353459;1422.1259;20330
2024-04-19T14:43:14.624;599616192218040023;1429.8124;20330
2024-04-19T14:43:14.632;599616192225726587;1437.499;20330
2024-04-19T14:43:14.640;599616192233413151;1445.1855;20221
2024-04-19T14:43:14.647;599616192241099715;1452.8721;20219
2024-04-19T14:43:14.655;599616192248786279;1460.5587;20306
2024-04-19T14:43:14.663;599616192256472843;1468.2452;20268
2024-04-19T14:43:14.670;599616192264159407;1475.9318;20062
2024-04-19T14:43:14.678;599616192271845971;1483.6183;19970
2024-04-19T14:43:14.686;599616192279532535;1491.3049;20236
2024-04-19T14:43:14.693;599616192287219099;1498.9915;20330
2024-04-19T14:43:14.701;599616192294905663;1506.678;19896
2024-04-19T14:43:14.709;599616192302592227;1514.3645;19576
2024-04-19T14:43:14.717;599616192310278791;1522.0511;19653
2024-04-19T14:43:14.724;599616192317965355;1529.7377;19670
2024-04-19T14:43:14.732;599616192325651919;1537.4243;19601
2024-04-19T14:43:14.740;599616192333338483;1545.111;19524
2024-04-19T14:43:14.747;599616192341025047;1552.7975;19419
2024-04-19T14:43:14.755;599616192348711611;1560.484;19385
2024-04-19T14:43:14.763;599616192356398175;1568.1705;19350
2024-04-19T14:43:14.770;599616192364084739;1575.8572;19226
2024-04-19T14:43:14.778;599616192371771303;1583.5437;19221
2024-04-19T14:43:14.786;599616192379457867;1591.2302;19295
2024-04-19T14:43:14.793;599616192387144431;1598.9169;19171
2024-04-19T14:43:14.801;599616192394830995;1606.6034;18985
2024-04-19T14:43:14.809;599616192402517559;1614.2899;18988
2024-04-19T14:43:14.816;599616192410204123;1621.9764;19042
2024-04-19T14:43:14.824;599616192417890687;1629.6631;18997
2024-04-19T14:43:14.832;599616192425577251;1637.3496;18898
2024-04-19T14:43:14.840;599616192433263815;1645.0361;18836
2024-04-19T14:43:14.847;599616192440950379;1652.7228;18836
2024-04-19T14:43:14.855;599616192448636943;1660.4093;18769
2024-04-19T14:43:14.863;599616192456323507;1668.0958;18657
2024-04-19T14:43:14.870;599616192464010071;1675.7823;18695
2024-04-19T14:43:14.878;599616192471676584;1683.449;18747
2024-04-19T14:43:14.886;599616192479363427;1691.1357;18583
2024-04-19T14:43:14.893;599616192487050270;1698.8226;18481
2024-04-19T14:43:14.901;599616192494737113;1706.5094;18667
2024-04-19T14:43:14.909;599616192502423956;1714.1964;18712
2024-04-19T14:43:14.916;599616192510110799;1721.8832;18456
2024-04-19T14:43:14.924;599616192517797642;1729.5701;18345
2024-04-19T14:43:14.932;599616192525484485;1737.2568;18481
2024-04-19T14:43:14.939;599616192533171328;1744.9437;18523
2024-04-19T14:43:14.947;599616192540858171;1752.6305;18258
2024-04-19T14:43:14.955;599616192548545014;1760.3174;18032
2024-04-19T14:43:14.963;599616192556231857;1768.0043;18149
2024-04-19T14:43:14.970;599616192563918700;1775.6912;18193
2024-04-19T14:43:14.978;599616192571605543;1783.3779;17957
2024-04-19T14:43:14.986;599616192579292386;1791.0647;17841
2024-04-19T14:43:14.993;599616192586979229;1798.7516;17923
2024-04-19T14:43:15.001;599616192594666072;1806.4384;17898
2024-04-19T14:43:15.009;599616192602352915;1814.1254;17786
2024-04-19T14:43:15.016;599616192610039758;1821.8121;17761
2024-04-19T14:43:15.024;599616192617726601;1829.499;17749
2024-04-19T14:43:15.032;599616192625413444;1837.1858;17660
2024-04-19T14:43:15.039;599616192633100287;1844.8727;17543
2024-04-19T14:43:15.047;599616192640787130;1852.5594;17511
2024-04-19T14:43:15.055;599616192648473973;1860.2465;17595
2024-04-19T14:43:15.062;599616192656160816;1867.9332;17580
2024-04-19T14:43:15.070;599616192663847659;1875.6201;17394
2024-04-19T14:43:15.078;599616192671534502;1883.3069;17322
2024-04-19T14:43:15.085;599616192679221345;1890.9937;17406
2024-04-19T14:43:15.093;599616192686908188;1898.6805;17397
2024-04-19T14:43:15.101;599616192694595031;1906.3673;17327
2024-04-19T14:43:15.109;599616192702281874;1914.0543;17322
2024-04-19T14:43:15.116;599616192709968717;1921.7411;17200
2024-04-19T14:43:15.124;599616192717655560;1929.428;16821
2024-04-19T14:43:15.132;599616192725342403;1937.1147;16510
2024-04-19T14:43:15.139;599616192733029246;1944.8016;16798
2024-04-19T14:43:15.147;599616192740716089;1952.4884;17262
2024-04-19T14:43:15.155;599616192748402932;1960.1754;16890
2024-04-19T14:43:15.162;599616192756089775;1967.8622;16012
2024-04-19T14:43:15.170;599616192763776618;1975.5491;15401
2024-04-19T14:43:15.178;599616192771463461;1983.2358;15014
2024-04-19T14:43:15.185;599616192779150304;1990.9226;15011
2024-04-19T14:43:15.193;599616192786837147;1998.6095;15719
2024-04-19T14:43:15.201;599616192794523990;2006.2963;16865
2024-04-19T14:43:15.208;599616192802210833;2013.9833;18223
2024-04-19T14:43:15.216;599616192809897676;2021.67;18898
2024-04-19T14:43:15.224;599616192817584519;2029.3569;17900
2024-04-19T14:43:15.232;599616192825271362;2037.0437;16774
2024-04-19T14:43:15.239;599616192832958205;2044.7306;16890
2024-04-19T14:43:15.247;599616192840645048;2052.4175;17136
2024-04-19T14:43:15.255;599616192848331891;2060.1042;17218
2024-04-19T14:43:15.262;599616192856018734;2067.791;18243
2024-04-19T14:43:15.270;599616192863705577;2075.478;19439
2024-04-19T14:43:15.278;599616192871392420;2083.1648;19414
2024-04-19T14:43:15.285;599616192879079263;2090.8516;18945
2024-04-19T14:43:15.293;599616192886766106;2098.5386;18491
2024-04-19T14:43:15.301;599616192894452949;2106.2253;17655
2024-04-19T14:43:15.308;599616192902139792;2113.912;17684
2024-04-19T14:43:15.316;599616192909826635;2121.5989;19467
2024-04-19T14:43:15.324;599616192917513478;2129.286;20330
2024-04-19T14:43:15.331;599616192925200321;2136.9727;20330
2024-04-19T14:43:15.339;599616192932887164;2144.6597;20330
2024-04-19T14:43:15.347;599616192940574007;2152.3464;20330
2024-04-19T14:43:15.355;599616192948260850;2160.0332;20330
2024-04-19T14:43:15.362;599616192955947693;2167.7202;20330
2024-04-19T14:43:15.370;599616192963634536;2175.4067;20330
2024-04-19T14:43:15.378;599616192971321379;2183.0938;20330
2024-04-19T14:43:15.385;599616192979008222;2190.7808;20330
2024-04-19T14:43:15.393;599616192986695065;2198.4673;20330
2024-04-19T14:43:15.401;599616192994381908;2206.1543;20330
2024-04-19T14:43:15.408;599616193002068751;2213.841;20330
2024-04-19T14:43:15.416;599616193009755594;2221.528;20330
2024-04-19T14:43:15.424;599616193017442437;2229.2146;20330
2024-04-19T14:43:15.431;599616193025129280;2236.9016;20330
2024-04-19T14:43:15.439;599616193032796117;2244.5686;20330
2024-04-19T14:43:15.447;599616193040483238;2252.2559;20330
2024-04-19T14:43:15.454;599616193048170359;2259.9426;20330
2024-04-19T14:43:15.462;599616193055857480;2267.63;20330
2024-04-19T14:43:15.470;599616193063544601;2275.317;20330
2024-04-19T14:43:15.478;599616193071231722;2283.0042;20330
2024-04-19T14:43:15.485;599616193078918843;2290.6914;20330
2024-04-19T14:43:15.493;599616193086605964;2298.3782;19777
2024-04-19T14:43:15.501;599616193094293085;2306.0654;19725
2024-04-19T14:43:15.508;599616193101980206;2313.7527;19769
2024-04-19T14:43:15.516;599616193109667327;2321.4397;19516
2024-04-19T14:43:15.524;599616193117354448;2329.127;19308
2024-04-19T14:43:15.531;599616193125041569;2336.8137;19194
2024-04-19T14:43:15.539;599616193132728690;2344.501;19040
2024-04-19T14:43:15.547;599616193140415811;2352.1882;18851
2024-04-19T14:43:15.554;599616193148102932;2359.8752;18682
2024-04-19T14:43:15.562;599616193155790053;2367.5625;18620
2024-04-19T14:43:15.570;599616193163477174;2375.2498;18491
2024-04-19T14:43:15.577;599616193171164295;2382.9365;18104
2024-04-19T14:43:15.585;599616193178851416;2390.6238;17724
2024-04-19T14:43:15.593;599616193186538537;2398.3108;17543
2024-04-19T14:43:15.600;599616193194225658;2405.998;17352
2024-04-19T14:43:15.608;599616193201912779;2413.6853;17128
2024-04-19T14:43:15.616;599616193209599900;2421.372;17027
2024-04-19T14:43:15.624;599616193217287021;2429.0593;17089
2024-04-19T14:43:15.631;599616193224974142;2436.7466;17193
2024-04-19T14:43:15.639;599616193232661263;2444.4336;17223
2024-04-19T14:43:15.647;599616193240348384;2452.1208;17287
2024-04-19T14:43:15.654;599616193248035505;2459.808;17399
2024-04-19T14:43:15.662;599616193255722626;2467.4949;17404
2024-04-19T14:43:15.670;599616193263409747;2475.1821;17290
2024-04-19T14:43:15.677;599616193271096868;2482.8691;17265
2024-04-19T14:43:15.685;599616193278783989;2490.5564;17367
2024-04-19T14:43:15.693;599616193286471110;2498.2437;17526
2024-04-19T14:43:15.700;599616193294158231;2505.9304;17687
2024-04-19T14:43:15.708;599616193301845352;2513.6177;17563
2024-04-19T14:43:15.716;599616193309532473;2521.305;17287
2024-04-19T14:43:15.723;599616193317219594;2528.992;17213
2024-04-19T14:43:15.731;599616193324906715;2536.6792;17166
2024-04-19T14:43:15.739;599616193332593836;2544.3665;17091
2024-04-19T14:43:15.747;599616193340280957;2552.0532;17148
2024-04-19T14:43:15.754;599616193347968078;2559.7405;17176
2024-04-19T14:43:15.762;599616193355655199;2567.4275;17091
2024-04-19T14:43:15.770;599616193363342320;2575.1147;17074
2024-04-19T14:43:15.777;599616193371029441;2582.802;17034
2024-04-19T14:43:15.785;599616193378716562;2590.4888;16808
2024-04-19T14:43:15.793;599616193386403683;2598.176;16689
2024-04-19T14:43:15.800;599616193394090804;2605.8633;16796
2024-04-19T14:43:15.808;599616193401777925;2613.5503;16774
2024-04-19T14:43:15.816;599616193409465046;2621.2375;16595
2024-04-19T14:43:15.823;599616193417152167;2628.9246;16515
2024-04-19T14:43:15.831;599616193424839288;2636.6116;16545
2024-04-19T14:43:15.839;599616193432526409;2644.2988;16572
2024-04-19T14:43:15.846;599616193440213530;2651.9858;16505
2024-04-19T14:43:15.854;599616193447900651;2659.673;16361
2024-04-19T14:43:15.862;599616193455587772;2667.3604;16319
2024-04-19T14:43:15.870;599616193463274893;2675.047;16319
2024-04-19T14:43:15.877;599616193470962014;2682.7344;16232
2024-04-19T14:43:15.885;599616193478649135;2690.4214;16272
2024-04-19T14:43:15.893;599616193486336256;2698.1086;16349
2024-04-19T14:43:15.900;599616193494023377;2705.796;16136
2024-04-19T14:43:15.908;599616193501710498;2713.4827;15880
2024-04-19T14:43:15.916;599616193509397619;2721.17;15833
2024-04-19T14:43:15.923;599616193517084740;2728.8572;15838
2024-04-19T14:43:15.931;599616193524771861;2736.5442;15803
2024-04-19T14:43:15.939;599616193532458982;2744.2314;15719
2024-04-19T14:43:15.946;599616193540146103;2751.9187;15617
2024-04-19T14:43:15.954;599616193547833224;2759.6055;15595
2024-04-19T14:43:15.962;599616193555520345;2767.2927;15580
2024-04-19T14:43:15.969;599616193563207466;2774.9797;15483
2024-04-19T14:43:15.977;599616193570894587;2782.667;15456
2024-04-19T14:43:15.985;599616193578581708;2790.3542;15515
2024-04-19T14:43:15.993;599616193586268829;2798.041;15433
2024-04-19T14:43:16.000;599616193593981070;2805.7534;15277
2024-04-19T14:43:16.008;599616193601667843;2813.4402;15267
2024-04-19T14:43:16.016;599616193609354616;2821.127;15314
2024-04-19T14:43:16.023;599616193617041389;2828.8137;15294
2024-04-19T14:43:16.031;599616193624728162;2836.5005;15227
2024-04-19T14:43:16.039;599616193632414935;2844.1875;15197
2024-04-19T14:43:16.046;599616193640101708;2851.874;15294
2024-04-19T14:43:16.054;599616193647788481;2859.561;15247
2024-04-19T14:43:16.062;599616193655475254;2867.2476;14989
2024-04-19T14:43:16.069;599616193663162027;2874.9346;14952
2024-04-19T14:43:16.077;599616193670848800;2882.621;15036
2024-04-19T14:43:16.085;599616193678535573;2890.3079;14875
2024-04-19T14:43:16.092;599616193686222346;2897.9949;14684
2024-04-19T14:43:16.100;599616193693909119;2905.6814;14694
2024-04-19T14:43:16.108;599616193701595892;2913.3684;14726
2024-04-19T14:43:16.116;599616193709282665;2921.055;14644
2024-04-19T14:43:16.123;599616193716969438;2928.742;14569
2024-04-19T14:43:16.131;599616193724656211;2936.4285;14584
2024-04-19T14:43:16.139;599616193732342984;2944.1155;14557
2024-04-19T14:43:16.146;599616193740029757;2951.802;14393
2024-04-19T14:43:16.154;599616193747716530;2959.489;14277
2024-04-19T14:43:16.162;599616193755403303;2967.1758;14324
2024-04-19T14:43:16.169;599616193763090076;2974.8623;14331
2024-04-19T14:43:16.177;599616193770776849;2982.5493;14162
2024-04-19T14:43:16.185;599616193778463622;2990.2358;14041
2024-04-19T14:43:16.192;599616193786150395;2997.9229;14085
2024-04-19T14:43:16.200;599616193793837168;3005.6094;14187
2024-04-19T14:43:16.208;599616193801523941;3013.2964;14150
2024-04-19T14:43:16.215;599616193809210714;3020.9832;13882
2024-04-19T14:43:16.223;599616193816897487;3028.67;13718
2024-04-19T14:43:16.231;599616193824584260;3036.3567;13721
2024-04-19T14:43:16.239;599616193832271033;3044.0435;13624
2024-04-19T14:43:16.246;599616193839957806;3051.7302;13542
2024-04-19T14:43:16.254;599616193847644579;3059.4167;13611
2024-04-19T14:43:16.262;599616193855331352;3067.1038;13611
2024-04-19T14:43:16.269;599616193863018125;3074.7903;13457
2024-04-19T14:43:16.277;599616193870704898;3082.4773;13346
2024-04-19T14:43:16.285;599616193878391671;3090.164;13371
2024-04-19T14:43:16.292;599616193886078444;3097.8508;13371
2024-04-19T14:43:16.300;599616193893765217;3105.5376;13338
2024-04-19T14:43:16.308;599616193901451990;3113.2244;13361
2024-04-19T14:43:16.315;599616193909138763;3120.9111;13331
2024-04-19T14:43:16.323;599616193916825536;3128.598;13217
2024-04-19T14:43:16.331;599616193924512309;3136.2847;13152
2024-04-19T14:43:16.338;599616193932199082;3143.9717;13219
2024-04-19T14:43:16.346;599616193939885855;3151.6582;13368
2024-04-19T14:43:16.354;599616193947572628;3159.345;13318
2024-04-19T14:43:16.362;599616193955259401;3167.0317;13018
2024-04-19T14:43:16.369;599616193962946174;3174.7185;12892
2024-04-19T14:43:16.377;599616193970632947;3182.4053;13035
2024-04-19T14:43:16.385;599616193978319720;3190.092;13075
2024-04-19T14:43:16.392;599616193986006493;3197.779;12926
2024-04-19T14:43:16.400;599616193993693266;3205.4656;12864
2024-04-19T14:43:16.408;599616194001380039;3213.1526;12879
2024-04-19T14:43:16.415;599616194009066812;3220.839;12767
2024-04-19T14:43:16.423;599616194016753585;3228.5261;12653
2024-04-19T14:43:16.431;599616194024440358;3236.2126;12673
2024-04-19T14:43:16.438;599616194032127131;3243.8994;12703
2024-04-19T14:43:16.446;599616194039813904;3251.5864;12614
2024-04-19T14:43:16.454;599616194047500677;3259.273;12465
2024-04-19T14:43:16.461;599616194055187450;3266.96;12415
2024-04-19T14:43:16.469;599616194062874223;3274.6465;12417
2024-04-19T14:43:16.477;599616194070560996;3282.3335;12316
2024-04-19T14:43:16.485;599616194078247769;3290.02;12244
2024-04-19T14:43:16.492;599616194085934542;3297.707;12264
2024-04-19T14:43:16.500;599616194093621315;3305.3936;12199
2024-04-19T14:43:16.508;599616194101308088;3313.0806;12065
2024-04-19T14:43:16.515;599616194108994861;3320.7673;11998
2024-04-19T14:43:16.523;599616194116681634;3328.4539;11991
2024-04-19T14:43:16.531;599616194124368407;3336.1409;11973
2024-04-19T14:43:16.538;599616194132055180;3343.8274;11884
2024-04-19T14:43:16.546;599616194139741953;3351.5144;11780
2024-04-19T14:43:16.554;599616194147428726;3359.201;11737
2024-04-19T14:43:16.561;599616194155095452;3366.8677;11700
2024-04-19T14:43:16.569;599616194162782504;3374.555;11608
2024-04-19T14:43:16.577;599616194170469556;3382.242;11571
2024-04-19T14:43:16.584;599616194178156608;3389.929;11663
2024-04-19T14:43:16.592;599616194185843660;3397.6162;11611
2024-04-19T14:43:16.600;599616194193530712;3405.303;11320
2024-04-19T14:43:16.607;599616194201217764;3412.9902;11169
2024-04-19T14:43:16.615;599616194208904816;3420.677;11201
2024-04-19T14:43:16.623;599616194216591868;3428.3643;11194
2024-04-19T14:43:16.631;599616194224278920;3436.0513;11099
2024-04-19T14:43:16.638;599616194231965972;3443.7383;10911
2024-04-19T14:43:16.646;599616194239653024;3451.4253;10772
2024-04-19T14:43:16.654;599616194247340076;3459.1125;10695
2024-04-19T14:43:16.661;599616194255027128;3466.7996;10566
2024-04-19T14:43:16.669;599616194262714180;3474.4866;10489
2024-04-19T14:43:16.677;599616194270401232;3482.1736;10449
2024-04-19T14:43:16.684;599616194278088284;3489.8606;10310
2024-04-19T14:43:16.692;599616194285775336;3497.5479;10169
2024-04-19T14:43:16.700;599616194293462388;3505.2346;10201
2024-04-19T14:43:16.707;599616194301149440;3512.9219;10218
2024-04-19T14:43:16.715;599616194308836492;3520.609;9987
2024-04-19T14:43:16.723;599616194316523544;3528.296;9769
2024-04-19T14:43:16.730;599616194324210596;3535.9832;9727
2024-04-19T14:43:16.738;599616194331897648;3543.67;9650
2024-04-19T14:43:16.746;599616194339584700;3551.3572;9526
2024-04-19T14:43:16.754;599616194347271752;3559.0442;9449
2024-04-19T14:43:16.761;599616194354958804;3566.7312;9436
2024-04-19T14:43:16.769;599616194362645856;3574.4182;9424
2024-04-19T14:43:16.777;599616194370332908;3582.1052;9320
2024-04-19T14:43:16.784;599616194378019960;3589.7922;9216
2024-04-19T14:43:16.792;599616194385707012;3597.4795;9208
2024-04-19T14:43:16.800;599616194393394064;3605.1663;9201
2024-04-19T14:43:16.807;599616194401081116;3612.8535;9149
2024-04-19T14:43:16.815;599616194408768168;3620.5408;9101
2024-04-19T14:43:16.823;599616194416455220;3628.2275;9074
2024-04-19T14:43:16.830;599616194424142272;3635.9148;9032
2024-04-19T14:43:16.838;599616194431829324;3643.6016;8952
2024-04-19T14:43:16.846;599616194439516376;3651.2888;8910
2024-04-19T14:43:16.853;599616194447203428;3658.9758;8933
2024-04-19T14:43:16.861;599616194454890480;3666.6628;8925
2024-04-19T14:43:16.869;599616194462577532;3674.3499;8885
2024-04-19T14:43:16.877;599616194470264584;3682.037;8848
2024-04-19T14:43:16.884;599616194477951636;3689.7239;8789
2024-04-19T14:43:16.892;599616194485638688;3697.4111;8749
2024-04-19T14:43:16.900;599616194493325740;3705.0981;8806
2024-04-19T14:43:16.907;599616194501012792;3712.7852;8908
2024-04-19T14:43:16.915;599616194508699844;3720.4724;8851
2024-04-19T14:43:16.923;599616194516386896;3728.1592;8610
2024-04-19T14:43:16.930;599616194524073948;3735.8464;8449
2024-04-19T14:43:16.938;599616194531761000;3743.5332;8511
2024-04-19T14:43:16.946;599616194539448052;3751.2205;8612
2024-04-19T14:43:16.953;599616194547135104;3758.9075;8583
2024-04-19T14:43:16.961;599616194554822156;3766.5945;8513
2024-04-19T14:43:16.969;599616194562509208;3774.2815;8521
2024-04-19T14:43:16.976;599616194570196260;3781.9688;8548
2024-04-19T14:43:16.984;599616194577883312;3789.6558;8526
2024-04-19T14:43:16.992;599616194585570364;3797.3428;8501
2024-04-19T14:43:17.000;599616194593257416;3805.0298;8503
2024-04-19T14:43:17.007;599616194600944468;3812.7168;8498
2024-04-19T14:43:17.015;599616194608631520;3820.404;8451
2024-04-19T14:43:17.023;599616194616318572;3828.0908;8409
2024-04-19T14:43:17.030;599616194624005624;3835.778;8419
2024-04-19T14:43:17.038;599616194631692676;3843.4648;8454
2024-04-19T14:43:17.046;599616194639379728;3851.152;8446
2024-04-19T14:43:17.053;599616194647066780;3858.839;8401
2024-04-19T14:43:17.061;599616194654753832;3866.5261;8399
2024-04-19T14:43:17.069;599616194662440884;3874.2134;8434
2024-04-19T14:43:17.076;599616194670127936;3881.9004;8424
2024-04-19T14:43:17.084;599616194677814988;3889.5874;8421
2024-04-19T14:43:17.092;599616194685502040;3897.2744;8476
2024-04-19T14:43:17.099;599616194693189092;3904.9614;8481
2024-04-19T14:43:17.107;599616194700876144;3912.6484;8439
2024-04-19T14:43:17.115;599616194708563196;3920.3357;8468
2024-04-19T14:43:17.123;599616194716230246;3928.0024;8548
2024-04-19T14:43:17.130;599616194723917576;3935.69;8533
2024-04-19T14:43:17.138;599616194731604906;3943.3774;8449
2024-04-19T14:43:17.146;599616194739292236;3951.0647;8416
2024-04-19T14:43:17.153;599616194746979566;3958.752;8434
2024-04-19T14:43:17.161;599616194754666896;3966.4392;8429
2024-04-19T14:43:17.169;599616194762354226;3974.1267;8394
2024-04-19T14:43:17.176;599616194770041556;3981.814;8414
2024-04-19T14:43:17.184;599616194777728886;3989.5012;8506
2024-04-19T14:43:17.192;599616194785416216;3997.1887;8516
2024-04-19T14:43:17.199;599616194793103546;4004.876;8461
2024-04-19T14:43:17.207;599616194800790876;4012.5632;8488
2024-04-19T14:43:17.215;599616194808478206;4020.2507;8476
2024-04-19T14:43:17.222;599616194816165536;4027.9377;8399
2024-04-19T14:43:17.230;599616194823852866;4035.6252;8374
2024-04-19T14:43:17.238;599616194831540196;4043.3127;8364
2024-04-19T14:43:17.245;599616194839227526;4050.9998;8359
2024-04-19T14:43:17.253;599616194846914856;4058.6873;8357
2024-04-19T14:43:17.261;599616194854602186;4066.3748;8322
2024-04-19T14:43:17.269;599616194862289516;4074.0618;8327
2024-04-19T14:43:17.276;599616194869976846;4081.7493;8369
2024-04-19T14:43:17.284;599616194877664176;4089.4368;8339
2024-04-19T14:43:17.292;599616194885351506;4097.124;8282
2024-04-19T14:43:17.299;599616194893038836;4104.811;8285
2024-04-19T14:43:17.307;599616194900726166;4112.4985;8312
2024-04-19T14:43:17.315;599616194908413496;4120.186;8305
2024-04-19T14:43:17.322;599616194916100826;4127.873;8277
2024-04-19T14:43:17.330;599616194923788156;4135.5605;8262
2024-04-19T14:43:17.338;599616194931475486;4143.248;8262
2024-04-19T14:43:17.345;599616194939162816;4150.935;8243
2024-04-19T14:43:17.353;599616194946850146;4158.6226;8218
2024-04-19T14:43:17.361;599616194954537476;4166.31;8262
2024-04-19T14:43:17.368;599616194962224806;4173.997;8307
2024-04-19T14:43:17.376;599616194969912136;4181.6846;8228
2024-04-19T14:43:17.384;599616194977599466;4189.372;8146
2024-04-19T14:43:17.392;599616194985286796;4197.059;8166
2024-04-19T14:43:17.399;599616194992974126;4204.7466;8183
2024-04-19T14:43:17.407;599616195000661456;4212.434;8163
2024-04-19T14:43:17.415;599616195008348786;4220.121;8156
2024-04-19T14:43:17.422;599616195016036116;4227.8086;8166
2024-04-19T14:43:17.430;599616195023723446;4235.496;8183
2024-04-19T14:43:17.438;599616195031410776;4243.183;8176
2024-04-19T14:43:17.445;599616195039098106;4250.8706;8178
2024-04-19T14:43:17.453;599616195046785436;4258.5576;8285
2024-04-19T14:43:17.461;599616195054472766;4266.245;8463
2024-04-19T14:43:17.468;599616195062160096;4273.9326;8545
2024-04-19T14:43:17.476;599616195069847426;4281.6196;8424
2024-04-19T14:43:17.484;599616195077534756;4289.307;8205
2024-04-19T14:43:17.491;599616195085222086;4296.994;8136
2024-04-19T14:43:17.499;599616195092909416;4304.682;8282
2024-04-19T14:43:17.507;599616195100596746;4312.369;8419
2024-04-19T14:43:17.515;599616195108284076;4320.056;8508
2024-04-19T14:43:17.522;599616195115971406;4327.744;8620
2024-04-19T14:43:17.530;599616195123658736;4335.431;8669
2024-04-19T14:43:17.538;599616195131346066;4343.118;8677
2024-04-19T14:43:17.545;599616195139033396;4350.806;8746
2024-04-19T14:43:17.553;599616195146720726;4358.493;8808
2024-04-19T14:43:17.561;599616195154408056;4366.18;8823
2024-04-19T14:43:17.568;599616195162095386;4373.8677;8858
2024-04-19T14:43:17.576;599616195169782716;4381.555;8908
2024-04-19T14:43:17.584;599616195177470046;4389.242;8908
2024-04-19T14:43:17.591;599616195185157376;4396.9297;8908
2024-04-19T14:43:17.599;599616195192844706;4404.617;8947
2024-04-19T14:43:17.607;599616195200532036;4412.304;8977
2024-04-19T14:43:17.614;599616195208219366;4419.9917;9010
2024-04-19T14:43:17.622;599616195215906696;4427.679;9034
2024-04-19T14:43:17.630;599616195223594026;4435.366;9012
2024-04-19T14:43:17.638;599616195231281356;4443.0537;8995
2024-04-19T14:43:17.645;599616195238968686;4450.741;8997
2024-04-19T14:43:17.653;599616195246656016;4458.428;8987
2024-04-19T14:43:17.661;599616195254343346;4466.1157;9002
2024-04-19T14:43:17.668;599616195262030676;4473.803;9047
2024-04-19T14:43:17.676;599616195269718006;4481.49;9049
2024-04-19T14:43:17.684;599616195277415412;4489.188;9039
2024-04-19T14:43:17.691;599616195285102603;4496.875;9059
2024-04-19T14:43:17.699;599616195292789794;4504.562;9114
2024-04-19T14:43:17.707;599616195300476985;4512.2495;9218
2024-04-19T14:43:17.714;599616195308164176;4519.9365;9275
2024-04-19T14:43:17.722;599616195315851367;4527.6235;9216
2024-04-19T14:43:17.730;599616195323538558;4535.311;9176
2024-04-19T14:43:17.737;599616195331225749;4542.998;9153
2024-04-19T14:43:17.745;599616195338912940;4550.685;9077
2024-04-19T14:43:17.753;599616195346600131;4558.3726;9119
2024-04-19T14:43:17.761;599616195354287322;4566.0596;9218
2024-04-19T14:43:17.768;599616195361974513;4573.7466;9109
2024-04-19T14:43:17.776;599616195369661704;4581.434;9002
2024-04-19T14:43:17.784;599616195377348895;4589.121;9077
2024-04-19T14:43:17.791;599616195385036086;4596.8086;9069
2024-04-19T14:43:17.799;599616195392723277;4604.496;8980
2024-04-19T14:43:17.807;599616195400410468;4612.183;8992
2024-04-19T14:43:17.814;599616195408097659;4619.87;9047
2024-04-19T14:43:17.822;599616195415784850;4627.5576;9064
2024-04-19T14:43:17.830;599616195423472041;4635.2446;9054
2024-04-19T14:43:17.837;599616195431159232;4642.9316;9057
2024-04-19T14:43:17.845;599616195438846423;4650.6187;9089
2024-04-19T14:43:17.853;599616195446533614;4658.306;9114
2024-04-19T14:43:17.860;599616195454220805;4665.993;9104
2024-04-19T14:43:17.868;599616195461907996;4673.68;9069
2024-04-19T14:43:17.876;599616195469595187;4681.3677;9064
2024-04-19T14:43:17.884;599616195477282378;4689.0547;9049
2024-04-19T14:43:17.891;599616195484969569;4696.7417;9010
2024-04-19T14:43:17.899;599616195492656760;4704.429;9037
2024-04-19T14:43:17.907;599616195500343951;4712.116;9086
2024-04-19T14:43:17.914;599616195508031142;4719.803;9086
2024-04-19T14:43:17.922;599616195515718333;4727.4907;9079
2024-04-19T14:43:17.930;599616195523405524;4735.1777;9084
2024-04-19T14:43:17.937;599616195531092715;4742.8647;9094
2024-04-19T14:43:17.945;599616195538779906;4750.5522;9086
2024-04-19T14:43:17.953;599616195546467097;4758.2393;9052
2024-04-19T14:43:17.960;599616195554154288;4765.927;9049
2024-04-19T14:43:17.968;599616195561841479;4773.6143;9054
2024-04-19T14:43:17.976;599616195569528670;4781.3013;8982
2024-04-19T14:43:17.983;599616195577215861;4788.9883;8900
2024-04-19T14:43:17.991;599616195584903052;4796.676;8890
2024-04-19T14:43:17.999;599616195592590243;4804.363;8920
2024-04-19T14:43:18.007;599616195600277434;4812.05;8910
2024-04-19T14:43:18.014;599616195607964625;4819.7373;8925
2024-04-19T14:43:18.022;599616195615651816;4827.4243;9029
2024-04-19T14:43:18.030;599616195623339007;4835.1113;9124
2024-04-19T14:43:18.037;599616195631026198;4842.799;9079
2024-04-19T14:43:18.045;599616195638713389;4850.486;8928
2024-04-19T14:43:18.053;599616195646400580;4858.173;8880
2024-04-19T14:43:18.060;599616195654087771;4865.86;8970
2024-04-19T14:43:18.068;599616195661774962;4873.5474;8965
2024-04-19T14:43:18.076;599616195669462153;4881.2344;8873
2024-04-19T14:43:18.083;599616195677149344;4888.9214;8851
2024-04-19T14:43:18.091;599616195684836535;4896.609;8851
2024-04-19T14:43:18.099;599616195692523726;4904.296;8868
2024-04-19T14:43:18.106;599616195700210917;4911.983;8905
2024-04-19T14:43:18.114;599616195707898108;4919.6704;8856
2024-04-19T14:43:18.122;599616195715585299;4927.3574;8741
2024-04-19T14:43:18.130;599616195723272490;4935.045;8674
2024-04-19T14:43:18.137;599616195730959681;4942.7324;8682
2024-04-19T14:43:18.145;599616195738646872;4950.4194;8704
2024-04-19T14:43:18.153;599616195746334063;4958.1064;8672
2024-04-19T14:43:18.160;599616195754021254;4965.794;8593
2024-04-19T14:43:18.168;599616195761708445;4973.481;8560
2024-04-19T14:43:18.176;599616195769395636;4981.168;8600
2024-04-19T14:43:18.183;599616195777082827;4988.8555;8620
2024-04-19T14:43:18.191;599616195784770018;4996.5425;8620
2024-04-19T14:43:18.199;599616195792457209;5004.2295;8664
2024-04-19T14:43:18.206;599616195800144400;5011.917;8689
2024-04-19T14:43:18.214;599616195807831591;5019.604;8687
2024-04-19T14:43:18.222;599616195815518782;5027.291;8674
2024-04-19T14:43:18.229;599616195823205973;5034.9785;8625
2024-04-19T14:43:18.237;599616195830893164;5042.6655;8622
2024-04-19T14:43:18.245;599616195838570388;5050.343;8640
2024-04-19T14:43:18.253;599616195846257718;5058.0303;8565
2024-04-19T14:43:18.260;599616195853945048;5065.7173;8506
2024-04-19T14:43:18.268;599616195861632378;5073.405;8506
2024-04-19T14:43:18.276;599616195869319708;5081.0923;8473
2024-04-19T14:43:18.283;599616195877007038;5088.7793;8454
2024-04-19T14:43:18.291;599616195884694368;5096.467;8543
2024-04-19T14:43:18.299;599616195892381698;5104.1543;8650
2024-04-19T14:43:18.306;599616195900069028;5111.8413;8612
2024-04-19T14:43:18.314;599616195907756358;5119.529;8535
2024-04-19T14:43:18.322;599616195915443688;5127.2163;8575
2024-04-19T14:43:18.329;599616195923131018;5134.9033;8620
2024-04-19T14:43:18.337;599616195930818348;5142.591;8568
2024-04-19T14:43:18.345;599616195938505678;5150.2783;8513
2024-04-19T14:43:18.352;599616195946193008;5157.9653;8521
2024-04-19T14:43:18.360;599616195953880338;5165.6523;8463
2024-04-19T14:43:18.368;599616195961567668;5173.3403;8302
2024-04-19T14:43:18.376;599616195969254998;5181.0273;8250
2024-04-19T14:43:18.383;599616195976942328;5188.7144;8327
2024-04-19T14:43:18.391;599616195984629658;5196.4023;8319
2024-04-19T14:43:18.399;599616195992316988;5204.0894;8243
2024-04-19T14:43:18.406;599616196000004318;5211.7764;8215
2024-04-19T14:43:18.414;599616196007691648;5219.4644;8225
2024-04-19T14:43:18.422;599616196015378978;5227.1514;8235
2024-04-19T14:43:18.429;599616196023066308;5234.8384;8218
2024-04-19T14:43:18.437;599616196030753638;5242.5264;8195
2024-04-19T14:43:18.445;599616196038440968;5250.2134;8195
2024-04-19T14:43:18.452;599616196046128298;5257.9004;8183
2024-04-19T14:43:18.460;599616196053815628;5265.5884;8138
2024-04-19T14:43:18.468;599616196061502958;5273.2754;8118
2024-04-19T14:43:18.475;599616196069190288;5280.9624;8131
2024-04-19T14:43:18.483;599616196076877618;5288.6504;8094
2024-04-19T14:43:18.491;599616196084564948;5296.3374;8017
2024-04-19T14:43:18.499;599616196092252278;5304.0244;8002
2024-04-19T14:43:18.506;599616196099939608;5311.712;8017
2024-04-19T14:43:18.514;599616196107626938;5319.3994;8004
2024-04-19T14:43:18.522;599616196115314268;5327.0864;7982
2024-04-19T14:43:18.529;599616196123001598;5334.774;7967
2024-04-19T14:43:18.537;599616196130688928;5342.4614;7970
2024-04-19T14:43:18.545;599616196138376258;5350.1484;7952
2024-04-19T14:43:18.552;599616196146063588;5357.836;7898
2024-04-19T14:43:18.560;599616196153750918;5365.5234;7880
2024-04-19T14:43:18.568;599616196161438248;5373.2104;7880
2024-04-19T14:43:18.575;599616196169125578;5380.898;7855
2024-04-19T14:43:18.583;599616196176812908;5388.5854;7870
2024-04-19T14:43:18.591;599616196184500238;5396.2725;7910
2024-04-19T14:43:18.598;599616196192187568;5403.96;7838
2024-04-19T14:43:18.606;599616196199874898;5411.6475;7644
2024-04-19T14:43:18.614;599616196207562228;5419.3345;7548
2024-04-19T14:43:18.622;599616196215249558;5427.022;7595
2024-04-19T14:43:18.629;599616196222936888;5434.7095;7575
2024-04-19T14:43:18.637;599616196230624218;5442.3965;7483
2024-04-19T14:43:18.645;599616196238311548;5450.084;7458
2024-04-19T14:43:18.652;599616196245998878;5457.771;7493
2024-04-19T14:43:18.660;599616196253686208;5465.4585;7503
2024-04-19T14:43:18.668;599616196261373538;5473.146;7461
2024-04-19T14:43:18.675;599616196269060868;5480.833;7421
2024-04-19T14:43:18.683;599616196276748198;5488.5205;7426
2024-04-19T14:43:18.691;599616196284435528;5496.208;7416
2024-04-19T14:43:18.698;599616196292122858;5503.895;7359
2024-04-19T14:43:18.706;599616196299810188;5511.5825;7297
2024-04-19T14:43:18.714;599616196307497518;5519.27;7275
2024-04-19T14:43:18.721;599616196315184848;5526.957;7307
2024-04-19T14:43:18.729;599616196322872178;5534.6445;7347
2024-04-19T14:43:18.737;599616196330559508;5542.332;7329
2024-04-19T14:43:18.745;599616196338246838;5550.019;7309
2024-04-19T14:43:18.752;599616196345934168;5557.7065;7339
2024-04-19T14:43:18.760;599616196353621498;5565.394;7354
2024-04-19T14:43:18.768;599616196361308828;5573.081;7319
2024-04-19T14:43:18.775;599616196368996158;5580.7686;7299
2024-04-19T14:43:18.783;599616196376683488;5588.456;7284
2024-04-19T14:43:18.791;599616196384370818;5596.143;7257
2024-04-19T14:43:18.798;599616196392058148;5603.8306;7265
2024-04-19T14:43:18.806;599616196399795655;5611.5684;7287
2024-04-19T14:43:18.814;599616196407482289;5619.255;7272
2024-04-19T14:43:18.821;599616196415168923;5626.9414;7247
2024-04-19T14:43:18.829;599616196422855557;5634.628;7242
2024-04-19T14:43:18.837;599616196430542191;5642.315;7277
2024-04-19T14:43:18.845;599616196438228825;5650.0015;7287
2024-04-19T14:43:18.852;599616196445915459;5657.688;7205
2024-04-19T14:43:18.860;599616196453602093;5665.3745;7178
2024-04-19T14:43:18.868;599616196461288727;5673.061;7265
2024-04-19T14:43:18.875;599616196468975361;5680.7476;7262
2024-04-19T14:43:18.883;599616196476661995;5688.434;7150
2024-04-19T14:43:18.891;599616196484348629;5696.1206;7108
2024-04-19T14:43:18.898;599616196492035263;5703.8076;7111
2024-04-19T14:43:18.906;599616196499721897;5711.494;7046
2024-04-19T14:43:18.914;599616196507408531;5719.1807;6987
2024-04-19T14:43:18.921;599616196515095165;5726.8677;6997
2024-04-19T14:43:18.929;599616196522781799;5734.554;7004
2024-04-19T14:43:18.937;599616196530468433;5742.2407;6972
2024-04-19T14:43:18.944;599616196538155067;5749.9272;6930
2024-04-19T14:43:18.952;599616196545841701;5757.6143;6912
2024-04-19T14:43:18.960;599616196553528335;5765.301;6912
2024-04-19T14:43:18.967;599616196561214969;5772.9873;6870
2024-04-19T14:43:18.975;599616196568901603;5780.674;6843
2024-04-19T14:43:18.983;599616196576588237;5788.361;6862
2024-04-19T14:43:18.991;599616196584274871;5796.0474;6845
2024-04-19T14:43:18.998;599616196591961505;5803.734;6803
2024-04-19T14:43:19.006;599616196599648139;5811.421;6786
2024-04-19T14:43:19.014;599616196607334773;5819.1074;6793
2024-04-19T14:43:19.021;599616196615021407;5826.794;6800
2024-04-19T14:43:19.029;599616196622708041;5834.4805;6771
2024-04-19T14:43:19.037;599616196630394675;5842.1675;6726
2024-04-19T14:43:19.044;599616196638081309;5849.8535;6716
2024-04-19T14:43:19.052;599616196645767943;5857.54;6706
2024-04-19T14:43:19.060;599616196653454577;5865.2266;6671
2024-04-19T14:43:19.067;599616196661141211;5872.9136;6656
2024-04-19T14:43:19.075;599616196668827845;5880.6;6669
2024-04-19T14:43:19.083;599616196676514479;5888.2866;6666
2024-04-19T14:43:19.090;599616196684201113;5895.973;6647
2024-04-19T14:43:19.098;599616196691887747;5903.66;6617
2024-04-19T14:43:19.106;599616196699574381;5911.3467;6577
2024-04-19T14:43:19.114;599616196707261015;5919.033;6547
2024-04-19T14:43:19.121;599616196714947649;5926.72;6520
2024-04-19T14:43:19.129;599616196722634283;5934.4067;6475
2024-04-19T14:43:19.137;599616196730320917;5942.0933;6473
2024-04-19T14:43:19.144;599616196738007551;5949.78;6520
2024-04-19T14:43:19.152;599616196745694185;5957.467;6572
2024-04-19T14:43:19.160;599616196753380819;5965.1533;6570
2024-04-19T14:43:19.167;599616196761067453;5972.84;6431
2024-04-19T14:43:19.175;599616196768754087;5980.5264;6274
2024-04-19T14:43:19.183;599616196776440721;5988.2134;6267
2024-04-19T14:43:19.190;599616196784127355;5995.9;6297
2024-04-19T14:43:19.198;599616196791813989;6003.5864;6264
2024-04-19T14:43:19.206;599616196799500623;6011.2734;6237
2024-04-19T14:43:19.213;599616196807187257;6018.96;6220
2024-04-19T14:43:19.221;599616196814873891;6026.646;6215
2024-04-19T14:43:19.229;599616196822560525;6034.3325;6237
2024-04-19T14:43:19.237;599616196830247159;6042.0195;6215
2024-04-19T14:43:19.244;599616196837933793;6049.706;6125
2024-04-19T14:43:19.252;599616196845620427;6057.3926;6093
2024-04-19T14:43:19.260;599616196853307061;6065.079;6115
2024-04-19T14:43:19.267;599616196860993695;6072.766;6073
2024-04-19T14:43:19.275;599616196868680329;6080.4526;6024
2024-04-19T14:43:19.283;599616196876366963;6088.139;6048
2024-04-19T14:43:19.290;599616196884053597;6095.8257;6073
2024-04-19T14:43:19.298;599616196891740231;6103.5127;6068
2024-04-19T14:43:19.306;599616196899426865;6111.199;6086
2024-04-19T14:43:19.313;599616196907113499;6118.8857;6115
2024-04-19T14:43:19.321;599616196914800133;6126.5728;6135
2024-04-19T14:43:19.329;599616196922486767;6134.2593;6150
2024-04-19T14:43:19.336;599616196930173401;6141.946;6187
2024-04-19T14:43:19.344;599616196937860035;6149.6323;6202
2024-04-19T14:43:19.352;599616196945546669;6157.3193;6172
2024-04-19T14:43:19.360;599616196953233303;6165.006;6133
2024-04-19T14:43:19.367;599616196960884882;6172.657;6093
2024-04-19T14:43:19.375;599616196968572003;6180.344;6058
2024-04-19T14:43:19.383;599616196976259124;6188.0312;6014
2024-04-19T14:43:19.390;599616196983946245;6195.7188;5949
2024-04-19T14:43:19.398;599616196991633366;6203.406;5917
2024-04-19T14:43:19.406;599616196999320487;6211.093;5927
2024-04-19T14:43:19.413;599616197007007608;6218.7803;5929
2024-04-19T14:43:19.421;599616197014694729;6226.4673;5909
2024-04-19T14:43:19.429;599616197022381850;6234.154;5919
2024-04-19T14:43:19.436;599616197030068971;6241.8413;5991
2024-04-19T14:43:19.444;599616197037756092;6249.5283;6036
2024-04-19T14:43:19.452;599616197045443213;6257.2153;5999
2024-04-19T14:43:19.459;599616197053130334;6264.903;5971
2024-04-19T14:43:19.467;599616197060817455;6272.59;5969
2024-04-19T14:43:19.475;599616197068504576;6280.277;5947
2024-04-19T14:43:19.482;599616197076191697;6287.9644;5924
2024-04-19T14:43:19.490;599616197083878818;6295.6514;5904
2024-04-19T14:43:19.498;599616197091565939;6303.3384;5880
2024-04-19T14:43:19.506;599616197099253060;6311.026;5857
2024-04-19T14:43:19.513;599616197106940181;6318.7124;5872
2024-04-19T14:43:19.521;599616197114627302;6326.3994;5929
2024-04-19T14:43:19.529;599616197122314423;6334.0864;5984
2024-04-19T14:43:19.536;599616197130001544;6341.774;6001
2024-04-19T14:43:19.544;599616197137688665;6349.461;5969
2024-04-19T14:43:19.552;599616197145375786;6357.148;5909
2024-04-19T14:43:19.559;599616197153062907;6364.8354;5870
2024-04-19T14:43:19.567;599616197160750028;6372.5225;5832
2024-04-19T14:43:19.575;599616197168437149;6380.2095;5805
2024-04-19T14:43:19.582;599616197176124270;6387.897;5810
2024-04-19T14:43:19.590;599616197183811391;6395.584;5775
2024-04-19T14:43:19.598;599616197191498512;6403.2705;5706
2024-04-19T14:43:19.605;599616197199185633;6410.958;5701
2024-04-19T14:43:19.613;599616197206872754;6418.645;5741
2024-04-19T14:43:19.621;599616197214559875;6426.332;5743
2024-04-19T14:43:19.629;599616197222246996;6434.0195;5706
2024-04-19T14:43:19.636;599616197229934117;6441.7065;5674
2024-04-19T14:43:19.644;599616197237621238;6449.3936;5671
2024-04-19T14:43:19.652;599616197245308359;6457.081;5674
2024-04-19T14:43:19.659;599616197252995480;6464.768;5659
2024-04-19T14:43:19.667;599616197260682601;6472.455;5649
2024-04-19T14:43:19.675;599616197268369722;6480.1426;5671
2024-04-19T14:43:19.682;599616197276056843;6487.829;5671
2024-04-19T14:43:19.690;599616197283743964;6495.516;5634
2024-04-19T14:43:19.698;599616197291431085;6503.203;5649
2024-04-19T14:43:19.705;599616197299118206;6510.8906;5743
2024-04-19T14:43:19.713;599616197306805327;6518.5776;5818
2024-04-19T14:43:19.721;599616197314492448;6526.2646;5758
2024-04-19T14:43:19.728;599616197322179569;6533.952;5607
2024-04-19T14:43:19.736;599616197329866690;6541.639;5535
2024-04-19T14:43:19.744;599616197337553811;6549.326;5542
2024-04-19T14:43:19.752;599616197345240932;6557.0137;5495
2024-04-19T14:43:19.759;599616197352928053;6564.7007;5463
2024-04-19T14:43:19.767;599616197360615174;6572.387;5497
2024-04-19T14:43:19.775;599616197368302295;6580.0747;5500
2024-04-19T14:43:19.782;599616197375989416;6587.7617;5468
2024-04-19T14:43:19.790;599616197383676537;6595.4487;5473
2024-04-19T14:43:19.798;599616197391363658;6603.136;5492
2024-04-19T14:43:19.805;599616197399050779;6610.823;5473
2024-04-19T14:43:19.813;599616197406737900;6618.5103;5440
2024-04-19T14:43:19.821;599616197414425021;6626.1973;5430
2024-04-19T14:43:19.828;599616197422112142;6633.885;5430
2024-04-19T14:43:19.836;599616197429799263;6641.572;5413
2024-04-19T14:43:19.844;599616197437486384;6649.259;5381
2024-04-19T14:43:19.851;599616197445173505;6656.946;5378
2024-04-19T14:43:19.859;599616197452860626;6664.633;5403
2024-04-19T14:43:19.867;599616197460547747;6672.32;5388
2024-04-19T14:43:19.875;599616197468234868;6680.0073;5361
2024-04-19T14:43:19.882;599616197475921989;6687.6943;5386
2024-04-19T14:43:19.890;599616197483609110;6695.3813;5418
2024-04-19T14:43:19.898;599616197491296231;6703.069;5428
2024-04-19T14:43:19.905;599616197498983352;6710.756;5425
2024-04-19T14:43:19.913;599616197506670473;6718.443;5425
2024-04-19T14:43:19.921;599616197514357594;6726.1304;5420
2024-04-19T14:43:19.928;599616197522064799;6733.8374;5403
2024-04-19T14:43:19.936;599616197529751642;6741.524;5401
2024-04-19T14:43:19.944;599616197537438485;6749.2104;5435
2024-04-19T14:43:19.951;599616197545125328;6756.898;5460
2024-04-19T14:43:19.959;599616197552812171;6764.5845;5425
2024-04-19T14:43:19.967;599616197560499014;6772.2715;5388
2024-04-19T14:43:19.974;599616197568185857;6779.9585;5415
2024-04-19T14:43:19.982;599616197575872700;6787.645;5448
2024-04-19T14:43:19.990;599616197583559543;6795.332;5403
2024-04-19T14:43:19.998;599616197591246386;6803.0186;5361
2024-04-19T14:43:20.005;599616197598933229;6810.7056;5358
2024-04-19T14:43:20.013;599616197606620072;6818.3926;5341
2024-04-19T14:43:20.021;599616197614306915;6826.079;5321
2024-04-19T14:43:20.028;599616197621993758;6833.766;5338
2024-04-19T14:43:20.036;599616197629680601;6841.453;5376
2024-04-19T14:43:20.044;599616197637367444;6849.1396;5381
2024-04-19T14:43:20.051;599616197645054287;6856.8267;5353
2024-04-19T14:43:20.059;599616197652741130;6864.5137;5351
2024-04-19T14:43:20.067;599616197660427973;6872.2;5381
2024-04-19T14:43:20.074;599616197668114816;6879.887;5403
2024-04-19T14:43:20.082;599616197675801659;6887.574;5396
2024-04-19T14:43:20.090;599616197683488502;6895.2607;5363
2024-04-19T14:43:20.097;599616197691175345;6902.9478;5329
2024-04-19T14:43:20.105;599616197698862188;6910.6343;5289
2024-04-19T14:43:20.113;599616197706549031;6918.322;5237
2024-04-19T14:43:20.121;599616197714235874;6926.0083;5202
2024-04-19T14:43:20.128;599616197721922717;6933.695;5182
2024-04-19T14:43:20.136;599616197729609560;6941.3823;5157
2024-04-19T14:43:20.144;599616197737296403;6949.069;5130
2024-04-19T14:43:20.151;599616197744983246;6956.7554;5120
2024-04-19T14:43:20.159;599616197752670089;6964.4424;5142
2024-04-19T14:43:20.167;599616197760356932;6972.1294;5125
2024-04-19T14:43:20.174;599616197768043775;6979.816;5073
2024-04-19T14:43:20.182;599616197775730618;6987.503;5048
2024-04-19T14:43:20.190;599616197783417461;6995.19;5041
2024-04-19T14:43:20.197;599616197791104304;7002.877;5041
2024-04-19T14:43:20.205;599616197798791147;7010.5635;5038
2024-04-19T14:43:20.213;599616197806477990;7018.25;5038
2024-04-19T14:43:20.220;599616197814164833;7025.9375;5051
2024-04-19T14:43:20.228;599616197821851676;7033.624;5058
2024-04-19T14:43:20.236;599616197829538519;7041.3105;5115
2024-04-19T14:43:20.243;599616197837225362;7048.998;5199
2024-04-19T14:43:20.251;599616197844912205;7056.6846;5204
2024-04-19T14:43:20.259;599616197852599048;7064.371;5100
2024-04-19T14:43:20.267;599616197860285891;7072.0586;4971
2024-04-19T14:43:20.274;599616197867972734;7079.745;4959
2024-04-19T14:43:20.282;599616197875659577;7087.432;5013
2024-04-19T14:43:20.290;599616197883346420;7095.1187;4996
2024-04-19T14:43:20.297;599616197891033263;7102.8057;4984
2024-04-19T14:43:20.305;599616197898720106;7110.4927;5011
2024-04-19T14:43:20.313;599616197906406949;7118.179;5006
2024-04-19T14:43:20.320;599616197914093792;7125.866;4998
2024-04-19T14:43:20.328;599616197921780635;7133.553;4986
2024-04-19T14:43:20.336;599616197929467478;7141.2397;4939
2024-04-19T14:43:20.343;599616197937154321;7148.9263;4894
2024-04-19T14:43:20.351;599616197944841164;7156.614;4859
2024-04-19T14:43:20.359;599616197952528007;7164.3003;4842
2024-04-19T14:43:20.366;599616197960214850;7171.9873;4835
2024-04-19T14:43:20.374;599616197967901693;7179.6743;4825
2024-04-19T14:43:20.382;599616197975588536;7187.361;4842
2024-04-19T14:43:20.390;599616197983275379;7195.048;4889
2024-04-19T14:43:20.397;599616197990962222;7202.7344;4961
2024-04-19T14:43:20.405;599616197998649065;7210.4214;5023
2024-04-19T14:43:20.413;599616198006335908;7218.1084;5048
2024-04-19T14:43:20.420;599616198014022751;7225.795;5065
2024-04-19T14:43:20.428;599616198021709594;7233.482;5075
2024-04-19T14:43:20.436;599616198029396437;7241.169;5085
2024-04-19T14:43:20.443;599616198037083280;7248.8555;5070
2024-04-19T14:43:20.451;599616198044770123;7256.5425;5038
2024-04-19T14:43:20.459;599616198052456966;7264.2295;5058
2024-04-19T14:43:20.466;599616198060143809;7271.916;5080
2024-04-19T14:43:20.474;599616198067830652;7279.603;5063
2024-04-19T14:43:20.482;599616198075517495;7287.29;5051
2024-04-19T14:43:20.489;599616198083194344;7294.967;5058
2024-04-19T14:43:20.497;599616198090881326;7302.654;5073
2024-04-19T14:43:20.505;599616198098568308;7310.341;5053
2024-04-19T14:43:20.513;599616198106255290;7318.028;5028
2024-04-19T14:43:20.520;599616198113942272;7325.7144;5046
2024-04-19T14:43:20.528;599616198121629254;7333.4014;5060
2024-04-19T14:43:20.536;599616198129316236;7341.089;5070
2024-04-19T14:43:20.543;599616198137003218;7348.7754;5120
2024-04-19T14:43:20.551;599616198144690200;7356.4624;5172
2024-04-19T14:43:20.559;599616198152377182;7364.15;5180
2024-04-19T14:43:20.566;599616198160064164;7371.8364;5187
2024-04-19T14:43:20.574;599616198167751146;7379.5234;5249
2024-04-19T14:43:20.582;599616198175438128;7387.211;5301
2024-04-19T14:43:20.589;599616198183125110;7394.8975;5284
2024-04-19T14:43:20.597;599616198190812092;7402.5845;5294
2024-04-19T14:43:20.605;599616198198499074;7410.271;5346
2024-04-19T14:43:20.612;599616198206186056;7417.9585;5343
2024-04-19T14:43:20.620;599616198213873038;7425.6455;5301
2024-04-19T14:43:20.628;599616198221560020;7433.332;5286
2024-04-19T14:43:20.636;599616198229247002;7441.0195;5316
2024-04-19T14:43:20.643;599616198236933984;7448.7065;5334
2024-04-19T14:43:20.651;599616198244620966;7456.393;5296
2024-04-19T14:43:20.659;599616198252307948;7464.0806;5269
2024-04-19T14:43:20.666;599616198259994930;7471.7676;5274
2024-04-19T14:43:20.674;599616198267681912;7479.454;5269
2024-04-19T14:43:20.682;599616198275368894;7487.1416;5254
2024-04-19T14:43:20.689;599616198283055876;7494.828;5247
2024-04-19T14:43:20.697;599616198290742858;7502.515;5252
2024-04-19T14:43:20.705;599616198298429840;7510.202;5234
2024-04-19T14:43:20.712;599616198306116822;7517.889;5202
2024-04-19T14:43:20.720;599616198313803804;7525.576;5204
2024-04-19T14:43:20.728;599616198321490786;7533.263;5244
2024-04-19T14:43:20.735;599616198329177768;7540.95;5296
2024-04-19T14:43:20.743;599616198336864750;7548.637;5311
2024-04-19T14:43:20.751;599616198344551732;7556.324;5242
2024-04-19T14:43:20.759;599616198352238714;7564.011;5182
2024-04-19T14:43:20.766;599616198359925696;7571.698;5162
2024-04-19T14:43:20.774;599616198367612678;7579.385;5167
2024-04-19T14:43:20.782;599616198375299660;7587.072;5242
2024-04-19T14:43:20.789;599616198382986642;7594.7593;5311
2024-04-19T14:43:20.797;599616198390673624;7602.446;5242
2024-04-19T14:43:20.805;599616198398360606;7610.133;5093
2024-04-19T14:43:20.812;599616198406047588;7617.8203;5070
2024-04-19T14:43:20.820;599616198413734570;7625.507;5165
2024-04-19T14:43:20.828;599616198421421552;7633.194;5150
2024-04-19T14:43:20.835;599616198429108534;7640.8813;5058
2024-04-19T14:43:20.843;599616198436795516;7648.568;5051
2024-04-19T14:43:20.851;599616198444482498;7656.255;5048
2024-04-19T14:43:20.858;599616198452169480;7663.9414;5008
2024-04-19T14:43:20.866;599616198459856462;7671.629;4976
2024-04-19T14:43:20.874;599616198467543444;7679.316;4954
2024-04-19T14:43:20.882;599616198475230426;7687.0024;4907
2024-04-19T14:43:20.889;599616198482917408;7694.69;4827
2024-04-19T14:43:20.897;599616198490604390;7702.377;4765
2024-04-19T14:43:20.905;599616198498291372;7710.0635;4725
2024-04-19T14:43:20.912;599616198505978354;7717.751;4683
2024-04-19T14:43:20.920;599616198513665336;7725.438;4651
2024-04-19T14:43:20.928;599616198521352318;7733.1245;4609
2024-04-19T14:43:20.935;599616198529039300;7740.812;4576
2024-04-19T14:43:20.943;599616198536726282;7748.4985;4564
2024-04-19T14:43:20.951;599616198544413264;7756.1855;4544
2024-04-19T14:43:20.958;599616198552100246;7763.8726;4547
2024-04-19T14:43:20.966;599616198559787228;7771.5596;4569
2024-04-19T14:43:20.974;599616198567474210;7779.2466;4547
2024-04-19T14:43:20.981;599616198575161192;7786.9336;4492
2024-04-19T14:43:20.989;599616198582848174;7794.6206;4447
2024-04-19T14:43:20.997;599616198590535156;7802.3076;4435
2024-04-19T14:43:21.004;599616198598222138;7809.9946;4418
2024-04-19T14:43:21.012;599616198605909120;7817.6816;4368
2024-04-19T14:43:21.020;599616198613596102;7825.3687;4323
2024-04-19T14:43:21.028;599616198621283084;7833.055;4281
2024-04-19T14:43:21.035;599616198628970066;7840.742;4231
2024-04-19T14:43:21.043;599616198636657048;7848.4297;4174
2024-04-19T14:43:21.051;599616198644344067;7856.116;4120
2024-04-19T14:43:21.058;599616198652031049;7863.803;4088
2024-04-19T14:43:21.066;599616198659718031;7871.4907;4058
2024-04-19T14:43:21.074;599616198667405013;7879.1772;4003
2024-04-19T14:43:21.081;599616198675091995;7886.8643;3956
2024-04-19T14:43:21.089;599616198682778977;7894.552;3929
2024-04-19T14:43:21.097;599616198690465959;7902.2383;3906
2024-04-19T14:43:21.104;599616198698152941;7909.9253;3872
2024-04-19T14:43:21.112;599616198705839923;7917.6123;3827
2024-04-19T14:43:21.120;599616198713526905;7925.2993;3792
2024-04-19T14:43:21.127;599616198721213887;7932.9863;3743
2024-04-19T14:43:21.135;599616198728900869;7940.673;3653
2024-04-19T14:43:21.143;599616198736587851;7948.3604;3579
2024-04-19T14:43:21.151;599616198744274833;7956.0474;3522
2024-04-19T14:43:21.158;599616198751961815;7963.734;3452
2024-04-19T14:43:21.166;599616198759648797;7971.4214;3370
2024-04-19T14:43:21.174;599616198767335779;7979.1084;3283
2024-04-19T14:43:21.181;599616198775022761;7986.795;3199
2024-04-19T14:43:21.189;599616198782709743;7994.482;3117
2024-04-19T14:43:21.197;599616198790396725;8002.1694;3050
2024-04-19T14:43:21.204;599616198798083707;8009.856;2995
2024-04-19T14:43:21.212;599616198805770689;8017.543;2936
2024-04-19T14:43:21.220;599616198813457671;8025.23;2894
2024-04-19T14:43:21.227;599616198821144653;8032.917;2849
2024-04-19T14:43:21.235;599616198828831635;8040.604;2804
2024-04-19T14:43:21.243;599616198836518617;8048.291;2777
2024-04-19T14:43:21.250;599616198844205599;8055.978;2752
2024-04-19T14:43:21.258;599616198851892581;8063.665;2715
2024-04-19T14:43:21.266;599616198859579563;8071.352;2670
2024-04-19T14:43:21.274;599616198867266545;8079.039;2635
2024-04-19T14:43:21.281;599616198874953527;8086.726;2613
2024-04-19T14:43:21.289;599616198882640509;8094.4126;2573
2024-04-19T14:43:21.297;599616198890327491;8102.1;2536
2024-04-19T14:43:21.304;599616198898014473;8109.7866;2499
2024-04-19T14:43:21.312;599616198905701455;8117.4736;2477
2024-04-19T14:43:21.320;599616198913388437;8125.161;2504
2024-04-19T14:43:21.327;599616198921075419;8132.8477;2544
2024-04-19T14:43:21.335;599616198928762401;8140.5347;2487
2024-04-19T14:43:21.343;599616198936449383;8148.222;2268
2024-04-19T14:43:21.350;599616198944136365;8155.9087;2032
2024-04-19T14:43:21.358;599616198951823347;8163.5957;1968
2024-04-19T14:43:21.366;599616198959510329;8171.2827;1965
2024-04-19T14:43:21.373;599616198967197311;8178.9697;1851
2024-04-19T14:43:21.381;599616198974884293;8186.6567;1707
2024-04-19T14:43:21.389;599616198982571275;8194.344;1628
2024-04-19T14:43:21.397;599616198990258257;8202.03;1573
2024-04-19T14:43:21.404;599616198997945239;8209.718;1486
2024-04-19T14:43:21.412;599616199005632221;8217.404;1377
2024-04-19T14:43:21.420;599616199013319203;8225.092;1273
2024-04-19T14:43:21.427;599616199021006185;8232.778;1174
2024-04-19T14:43:21.435;599616199028693167;8240.466;1079
2024-04-19T14:43:21.443;599616199036380149;8248.152;975
2024-04-19T14:43:21.450;599616199044067131;8255.84;846
2024-04-19T14:43:21.458;599616199051754113;8263.526;724
2024-04-19T14:43:21.466;599616199059441095;8271.214;590
2024-04-19T14:43:21.473;599616199067128077;8278.9;446
2024-04-19T14:43:21.481;599616199074815059;8286.587;369
2024-04-19T14:43:21.489;599616199082502041;8294.274;330
2024-04-19T14:43:21.496;599616199090189023;8301.961;277
2024-04-19T14:43:21.504;599616199097876005;8309.648;223
2024-04-19T14:43:21.512;599616199105562987;8317.336;173
2024-04-19T14:43:21.520;599616199113249969;8325.022;138
2024-04-19T14:43:21.527;599616199120936951;8332.709;106
2024-04-19T14:43:21.535;599616199128623933;8340.396;62
2024-04-19T14:43:21.543;599616199136310915;8348.083;19
2024-04-19T14:43:21.550;599616199143997897;8355.7705;-22
2024-04-19T14:43:21.558;599616199151684879;8363.457;-74
2024-04-19T14:43:21.566;599616199159371861;8371.145;-106
2024-04-19T14:43:21.573;599616199167058843;8378.831;-136
2024-04-19T14:43:21.581;599616199174745825;8386.518;-186
2024-04-19T14:43:21.589;599616199182432807;8394.205;-243
2024-04-19T14:43:21.596;599616199190119789;8401.893;-297
2024-04-19T14:43:21.604;599616199197806771;8409.579;-352
2024-04-19T14:43:21.612;599616199205503802;8417.276;-392
2024-04-19T14:43:21.619;599616199213190645;8424.963;-421
2024-04-19T14:43:21.627;599616199220877488;8432.649;-476
2024-04-19T14:43:21.635;599616199228564331;8440.337;-521
2024-04-19T14:43:21.643;599616199236251174;8448.023;-560
2024-04-19T14:43:21.650;599616199243938017;8455.71;-672
2024-04-19T14:43:21.658;599616199251624860;8463.397;-786
2024-04-19T14:43:21.666;599616199259311703;8471.084;-796
2024-04-19T14:43:21.673;599616199266998546;8478.7705;-814
2024-04-19T14:43:21.681;599616199274685389;8486.458;-915
2024-04-19T14:43:21.689;599616199282372232;8494.145;-997
2024-04-19T14:43:21.696;599616199290059075;8501.832;-1022
2024-04-19T14:43:21.704;599616199297745918;8509.519;-1057
2024-04-19T14:43:21.712;599616199305432761;8517.205;-1107
2024-04-19T14:43:21.719;599616199313119604;8524.893;-1134
2024-04-19T14:43:21.727;599616199320806447;8532.579;-1149
2024-04-19T14:43:21.735;599616199328493290;8540.266;-1176
2024-04-19T14:43:21.742;599616199336180133;8547.953;-1243
2024-04-19T14:43:21.750;599616199343866976;8555.64;-1310
2024-04-19T14:43:21.758;599616199351553819;8563.326;-1265
2024-04-19T14:43:21.766;599616199359240662;8571.013;-1208
2024-04-19T14:43:21.773;599616199366927505;8578.7;-1263
2024-04-19T14:43:21.781;599616199374614348;8586.387;-1290
2024-04-19T14:43:21.789;599616199382301191;8594.073;-1268
2024-04-19T14:43:21.796;599616199389988034;8601.761;-1303
2024-04-19T14:43:21.804;599616199397674877;8609.447;-1325
2024-04-19T14:43:21.812;599616199405361720;8617.134;-1260
2024-04-19T14:43:21.819;599616199413048563;8624.821;-1216
2024-04-19T14:43:21.827;599616199420735406;8632.508;-1228
2024-04-19T14:43:21.835;599616199428422249;8640.194;-1228
2024-04-19T14:43:21.842;599616199436109092;8647.882;-1191
2024-04-19T14:43:21.850;599616199443795935;8655.568;-1146
2024-04-19T14:43:21.858;599616199451482778;8663.255;-1099
2024-04-19T14:43:21.865;599616199459169621;8670.942;-1002
2024-04-19T14:43:21.873;599616199466856464;8678.628;-838
2024-04-19T14:43:21.881;599616199474543307;8686.315;-766
2024-04-19T14:43:21.889;599616199482230150;8694.003;-908
2024-04-19T14:43:21.896;599616199489916993;8701.689;-1044
2024-04-19T14:43:21.904;599616199497603836;8709.376;-958
2024-04-19T14:43:21.912;599616199505290679;8717.063;-831
2024-04-19T14:43:21.919;599616199512977522;8724.75;-826
2024-04-19T14:43:21.927;599616199520664365;8732.437;-829
2024-04-19T14:43:21.935;599616199528351208;8740.124;-754
2024-04-19T14:43:21.942;599616199536038051;8747.811;-677
2024-04-19T14:43:21.950;599616199543724894;8755.497;-655
2024-04-19T14:43:21.958;599616199551411737;8763.185;-627
2024-04-19T14:43:21.965;599616199559098580;8770.871;-570
2024-04-19T14:43:21.973;599616199566785423;8778.558;-528
2024-04-19T14:43:21.981;599616199574472266;8786.244;-501
2024-04-19T14:43:21.988;599616199582159109;8793.932;-454
2024-04-19T14:43:21.996;599616199589845952;8801.618;-382
2024-04-19T14:43:22.004;599616199597532795;8809.305;-320
2024-04-19T14:43:22.011;599616199605219638;8816.992;-275
2024-04-19T14:43:22.019;599616199612906481;8824.679;-210
2024-04-19T14:43:22.027;599616199620593324;8832.365;-116
2024-04-19T14:43:22.035;599616199628280167;8840.053;-24
2024-04-19T14:43:22.042;599616199635967010;8847.739;37
2024-04-19T14:43:22.050;599616199643653853;8855.426;109
2024-04-19T14:43:22.058;599616199651340696;8863.113;223
2024-04-19T14:43:22.065;599616199659027539;8870.801;312
2024-04-19T14:43:22.073;599616199666714382;8878.486;382
2024-04-19T14:43:22.081;599616199674401225;8886.174;521
2024-04-19T14:43:22.088;599616199682088068;8893.861;680
2024-04-19T14:43:22.096;599616199689774911;8901.547;769
2024-04-19T14:43:22.104;599616199697461754;8909.234;819
2024-04-19T14:43:22.111;599616199705148597;8916.921;881
2024-04-19T14:43:22.119;599616199712835440;8924.607;960
2024-04-19T14:43:22.127;599616199720522283;8932.295;1027
2024-04-19T14:43:22.134;599616199728209126;8939.981;1089
2024-04-19T14:43:22.142;599616199735895969;8947.668;1154
2024-04-19T14:43:22.150;599616199743582812;8955.355;1201
2024-04-19T14:43:22.158;599616199751269655;8963.042;1236
2024-04-19T14:43:22.165;599616199758956498;8970.729;1270
2024-04-19T14:43:22.173;599616199766623335;8978.396;1317
2024-04-19T14:43:22.181;599616199774310456;8986.083;1357
2024-04-19T14:43:22.188;599616199781997577;8993.77;1375
2024-04-19T14:43:22.196;599616199789684698;9001.457;1404
2024-04-19T14:43:22.204;599616199797371819;9009.144;1454
2024-04-19T14:43:22.211;599616199805058940;9016.831;1501
2024-04-19T14:43:22.219;599616199812746061;9024.519;1541
2024-04-19T14:43:22.227;599616199820433182;9032.205;1571
2024-04-19T14:43:22.234;599616199828120303;9039.893;1615
2024-04-19T14:43:22.242;599616199835807424;9047.58;1667
2024-04-19T14:43:22.250;599616199843494545;9055.267;1655
2024-04-19T14:43:22.257;599616199851181666;9062.954;1650
2024-04-19T14:43:22.265;599616199858868787;9070.642;1712
2024-04-19T14:43:22.273;599616199866555908;9078.328;1749
2024-04-19T14:43:22.281;599616199874243029;9086.016;1749
2024-04-19T14:43:22.288;599616199881930150;9093.703;1777
2024-04-19T14:43:22.296;599616199889617271;9101.39;1829
2024-04-19T14:43:22.304;599616199897304392;9109.077;1866
2024-04-19T14:43:22.311;599616199904991513;9116.764;1876
2024-04-19T14:43:22.319;599616199912678634;9124.451;1886
2024-04-19T14:43:22.327;599616199920365755;9132.139;1913
2024-04-19T14:43:22.334;599616199928052876;9139.825;1933
2024-04-19T14:43:22.342;599616199935739997;9147.513;1953
2024-04-19T14:43:22.350;599616199943427118;9155.2;1978
2024-04-19T14:43:22.357;599616199951114239;9162.886;2012
2024-04-19T14:43:22.365;599616199958801360;9170.573;2032
2024-04-19T14:43:22.373;599616199966488481;9178.261;2042
2024-04-19T14:43:22.380;599616199974175602;9185.947;2065
2024-04-19T14:43:22.388;599616199981862723;9193.635;2079
2024-04-19T14:43:22.396;599616199989549844;9201.322;2089
2024-04-19T14:43:22.404;599616199997236965;9209.009;2104
2024-04-19T14:43:22.411;599616200004924086;9216.696;2117
2024-04-19T14:43:22.419;599616200012611207;9224.384;2164
2024-04-19T14:43:22.427;599616200020298328;9232.07;2258
2024-04-19T14:43:22.434;599616200027985449;9239.758;2353
2024-04-19T14:43:22.442;599616200035672570;9247.445;2345
2024-04-19T14:43:22.450;599616200043359691;9255.132;2191
2024-04-19T14:43:22.457;599616200051046812;9262.819;2087
2024-04-19T14:43:22.465;599616200058733933;9270.507;2156
2024-04-19T14:43:22.473;599616200066421054;9278.193;2228
2024-04-19T14:43:22.480;599616200074108175;9285.881;2216
2024-04-19T14:43:22.488;599616200081795296;9293.568;2214
2024-04-19T14:43:22.496;599616200089482417;9301.255;2238
2024-04-19T14:43:22.503;599616200097169538;9308.942;2251
2024-04-19T14:43:22.511;599616200104856659;9316.63;2256
2024-04-19T14:43:22.519;599616200112543780;9324.316;2266
2024-04-19T14:43:22.527;599616200120230901;9332.003;2266
2024-04-19T14:43:22.534;599616200127918022;9339.69;2266
2024-04-19T14:43:22.542;599616200135605143;9347.377;2281
2024-04-19T14:43:22.550;599616200143292264;9355.064;2281
2024-04-19T14:43:22.557;599616200150979385;9362.752;2268
2024-04-19T14:43:22.565;599616200158666506;9370.438;2278
2024-04-19T14:43:22.573;599616200166353627;9378.126;2290
2024-04-19T14:43:22.580;599616200174040748;9385.813;2295
2024-04-19T14:43:22.588;599616200181727869;9393.5;2305
2024-04-19T14:43:22.596;599616200189414990;9401.1875;2320
2024-04-19T14:43:22.603;599616200197102111;9408.874;2345
2024-04-19T14:43:22.611;599616200204789232;9416.562;2362
2024-04-19T14:43:22.619;599616200212476353;9424.249;2380
2024-04-19T14:43:22.626;599616200220163474;9431.936;2397
2024-04-19T14:43:22.634;599616200227850595;9439.623;2415
2024-04-19T14:43:22.642;599616200235537716;9447.311;2425
2024-04-19T14:43:22.649;599616200243224837;9454.997;2434
2024-04-19T14:43:22.657;599616200250911958;9462.685;2454
2024-04-19T14:43:22.665;599616200258599079;9470.372;2459
2024-04-19T14:43:22.673;599616200266286200;9478.059;2449
2024-04-19T14:43:22.680;599616200273973321;9485.746;2457
2024-04-19T14:43:22.688;599616200281660442;9493.433;2459
2024-04-19T14:43:22.696;599616200289347563;9501.119;2449
2024-04-19T14:43:22.703;599616200297034684;9508.807;2454
2024-04-19T14:43:22.711;599616200304721805;9516.494;2459
2024-04-19T14:43:22.719;599616200312408926;9524.181;2467
2024-04-19T14:43:22.726;599616200320096047;9531.868;2464
2024-04-19T14:43:22.734;599616200327813332;9539.586;2457
2024-04-19T14:43:22.742;599616200335500035;9547.272;2462
2024-04-19T14:43:22.749;599616200343186738;9554.959;2464
2024-04-19T14:43:22.757;599616200350873441;9562.6455;2454
2024-04-19T14:43:22.765;599616200358560144;9570.333;2462
2024-04-19T14:43:22.773;599616200366246847;9578.019;2487
2024-04-19T14:43:22.780;599616200373933550;9585.706;2472
2024-04-19T14:43:22.788;599616200381620253;9593.393;2432
2024-04-19T14:43:22.796;599616200389306956;9601.079;2432
2024-04-19T14:43:22.803;599616200396993659;9608.767;2429
2024-04-19T14:43:22.811;599616200404680362;9616.452;2402
2024-04-19T14:43:22.819;599616200412367065;9624.14;2402
2024-04-19T14:43:22.826;599616200420053768;9631.826;2400
2024-04-19T14:43:22.834;599616200427740471;9639.513;2390
2024-04-19T14:43:22.842;599616200435427174;9647.199;2395
2024-04-19T14:43:22.849;599616200443113877;9654.887;2387
2024-04-19T14:43:22.857;599616200450800580;9662.572;2382
2024-04-19T14:43:22.865;599616200458487283;9670.26;2392
2024-04-19T14:43:22.872;599616200466173986;9677.946;2377
2024-04-19T14:43:22.880;599616200473860689;9685.633;2357
2024-04-19T14:43:22.888;599616200481547392;9693.32;2345
2024-04-19T14:43:22.896;599616200489234095;9701.006;2340
2024-04-19T14:43:22.903;599616200496920798;9708.693;2338
2024-04-19T14:43:22.911;599616200504607501;9716.38;2330
2024-04-19T14:43:22.919;599616200512294204;9724.066;2335
2024-04-19T14:43:22.926;599616200519980907;9731.753;2340
2024-04-19T14:43:22.934;599616200527667610;9739.44;2343
2024-04-19T14:43:22.942;599616200535354313;9747.126;2338
2024-04-19T14:43:22.949;599616200543041016;9754.813;2335
2024-04-19T14:43:22.957;599616200550727719;9762.501;2350
2024-04-19T14:43:22.965;599616200558414422;9770.187;2357
2024-04-19T14:43:22.972;599616200566101125;9777.874;2345
2024-04-19T14:43:22.980;599616200573787828;9785.561;2350
2024-04-19T14:43:22.988;599616200581474531;9793.247;2350
2024-04-19T14:43:22.995;599616200589161234;9800.934;2338
2024-04-19T14:43:23.003;599616200596847937;9808.62;2345
2024-04-19T14:43:23.011;599616200604534640;9816.307;2400
2024-04-19T14:43:23.018;599616200612221343;9823.994;2504
2024-04-19T14:43:23.026;599616200619908046;9831.68;2551
2024-04-19T14:43:23.034;599616200627594749;9839.367;2427
2024-04-19T14:43:23.042;599616200635281452;9847.055;2263
2024-04-19T14:43:23.049;599616200642968155;9854.74;2243
2024-04-19T14:43:23.057;599616200650654858;9862.428;2300
2024-04-19T14:43:23.065;599616200658341561;9870.114;2295
2024-04-19T14:43:23.072;599616200666028264;9877.801;2271
2024-04-19T14:43:23.080;599616200673714967;9885.487;2293
2024-04-19T14:43:23.088;599616200681401670;9893.174;2295
2024-04-19T14:43:23.095;599616200689088373;9900.86;2283
2024-04-19T14:43:23.103;599616200696775076;9908.548;2290
2024-04-19T14:43:23.111;599616200704461779;9916.233;2290
2024-04-19T14:43:23.118;599616200712148482;9923.921;2281
2024-04-19T14:43:23.126;599616200719835185;9931.608;2273
2024-04-19T14:43:23.134;599616200727521888;9939.294;2276
2024-04-19T14:43:23.141;599616200735208591;9946.981;2281
2024-04-19T14:43:23.149;599616200742895294;9954.668;2271
2024-04-19T14:43:23.157;599616200750581997;9962.3545;2268
2024-04-19T14:43:23.165;599616200758268700;9970.041;2281
2024-04-19T14:43:23.172;599616200765955403;9977.728;2276
2024-04-19T14:43:23.180;599616200773642106;9985.414;2278
2024-04-19T14:43:23.188;599616200781328809;9993.102;2298
2024-04-19T14:43:23.195;599616200789015512;10000.787;2310
2024-04-19T14:43:23.203;599616200796702215;10008.475;2303
2024-04-19T14:43:23.211;599616200804388918;10016.162;2278
2024-04-19T14:43:23.218;599616200812075621;10023.848;2266
2024-04-19T14:43:23.226;599616200819762324;10031.535;2268
2024-04-19T14:43:23.234;599616200827449027;10039.222;2271
2024-04-19T14:43:23.241;599616200835135730;10046.908;2261
2024-04-19T14:43:23.249;599616200842822433;10054.595;2241
2024-04-19T14:43:23.257;599616200850509136;10062.281;2221
2024-04-19T14:43:23.264;599616200858195839;10069.968;2201
2024-04-19T14:43:23.272;599616200865882542;10077.655;2191
2024-04-19T14:43:23.280;599616200873569245;10085.341;2179
2024-04-19T14:43:23.288;599616200881255948;10093.028;2151
2024-04-19T14:43:23.295;599616200888912615;10100.685;2124
2024-04-19T14:43:23.303;599616200896599736;10108.372;2099
2024-04-19T14:43:23.311;599616200904286857;10116.06;2072
2024-04-19T14:43:23.318;599616200911973978;10123.746;2047
2024-04-19T14:43:23.326;599616200919661099;10131.434;2005
2024-04-19T14:43:23.334;599616200927348220;10139.121;1938
2024-04-19T14:43:23.341;599616200935035341;10146.808;1901
2024-04-19T14:43:23.349;599616200942722462;10154.495;1869
2024-04-19T14:43:23.357;599616200950409583;10162.183;1782
2024-04-19T14:43:23.364;599616200958096704;10169.869;1700
2024-04-19T14:43:23.372;599616200965783825;10177.557;1670
2024-04-19T14:43:23.380;599616200973470946;10185.243;1628
2024-04-19T14:43:23.387;599616200981158067;10192.931;1548
2024-04-19T14:43:23.395;599616200988845188;10200.618;1486
2024-04-19T14:43:23.403;599616200996532309;10208.305;1464
2024-04-19T14:43:23.410;599616201004219430;10215.992;1456
2024-04-19T14:43:23.418;599616201011906551;10223.679;1459
2024-04-19T14:43:23.426;599616201019593672;10231.365;1464
2024-04-19T14:43:23.434;599616201027280793;10239.053;1464
2024-04-19T14:43:23.441;599616201034967914;10246.74;1456
2024-04-19T14:43:23.449;599616201042655035;10254.427;1429
2024-04-19T14:43:23.457;599616201050342156;10262.114;1407
2024-04-19T14:43:23.464;599616201058029277;10269.802;1414
2024-04-19T14:43:23.472;599616201065716398;10277.488;1417
2024-04-19T14:43:23.480;599616201073403519;10285.176;1399
2024-04-19T14:43:23.487;599616201081090640;10292.863;1385
2024-04-19T14:43:23.495;599616201088777761;10300.55;1377
2024-04-19T14:43:23.503;599616201096464882;10308.237;1372
2024-04-19T14:43:23.510;599616201104152003;10315.925;1355
2024-04-19T14:43:23.518;599616201111839124;10323.611;1322
2024-04-19T14:43:23.526;599616201119526245;10331.299;1290
2024-04-19T14:43:23.533;599616201127213366;10338.986;1283
2024-04-19T14:43:23.541;599616201134900487;10346.673;1258
2024-04-19T14:43:23.549;599616201142587608;10354.36;1216
2024-04-19T14:43:23.557;599616201150274729;10362.048;1206
2024-04-19T14:43:23.564;599616201157961850;10369.734;1183
2024-04-19T14:43:23.572;599616201165648971;10377.422;1131
2024-04-19T14:43:23.580;599616201173336092;10385.108;1107
2024-04-19T14:43:23.587;599616201181023213;10392.795;1097
2024-04-19T14:43:23.595;599616201188710334;10400.482;1069
2024-04-19T14:43:23.603;599616201196397455;10408.17;1039
2024-04-19T14:43:23.610;599616201204084576;10415.856;1042
2024-04-19T14:43:23.618;599616201211771697;10423.544;1102
2024-04-19T14:43:23.626;599616201219458818;10431.231;1171
2024-04-19T14:43:23.633;599616201227145939;10438.918;1116
2024-04-19T14:43:23.641;599616201234833060;10446.605;910
2024-04-19T14:43:23.649;599616201242520181;10454.292;752
2024-04-19T14:43:23.656;599616201250207302;10461.9795;759
2024-04-19T14:43:23.664;599616201257894423;10469.667;791
2024-04-19T14:43:23.672;599616201265581544;10477.354;739
2024-04-19T14:43:23.680;599616201273268665;10485.041;692
2024-04-19T14:43:23.687;599616201280955786;10492.729;662
2024-04-19T14:43:23.695;599616201288642907;10500.415;603
2024-04-19T14:43:23.703;599616201296330028;10508.103;536
2024-04-19T14:43:23.710;599616201304017149;10515.79;493
2024-04-19T14:43:23.718;599616201311704270;10523.477;431
2024-04-19T14:43:23.726;599616201319391391;10531.164;337
2024-04-19T14:43:23.733;599616201327078512;10538.852;290
2024-04-19T14:43:23.741;599616201334765633;10546.538;287
2024-04-19T14:43:23.749;599616201342452754;10554.225;255
2024-04-19T14:43:23.756;599616201350139875;10561.912;213
2024-04-19T14:43:23.764;599616201357826996;10569.599;178
2024-04-19T14:43:23.772;599616201365514117;10577.286;146
2024-04-19T14:43:23.779;599616201373201238;10584.974;168
2024-04-19T14:43:23.787;599616201380888359;10592.66;203
2024-04-19T14:43:23.795;599616201388575480;10600.348;208
2024-04-19T14:43:23.803;599616201396262601;10608.035;238
2024-04-19T14:43:23.810;599616201403949722;10615.722;268
2024-04-19T14:43:23.818;599616201411636843;10623.409;260
2024-04-19T14:43:23.826;599616201419323964;10631.097;265
2024-04-19T14:43:23.833;599616201427011085;10638.783;282
2024-04-19T14:43:23.841;599616201434698206;10646.471;270
2024-04-19T14:43:23.849;599616201442385327;10654.158;245
2024-04-19T14:43:23.856;599616201450087560;10661.86;238
2024-04-19T14:43:23.864;599616201457774472;10669.547;215
2024-04-19T14:43:23.872;599616201465461384;10677.233;183
2024-04-19T14:43:23.879;599616201473148296;10684.921;183
2024-04-19T14:43:23.887;599616201480835208;10692.608;201
2024-04-19T14:43:23.895;599616201488522120;10700.294;193
2024-04-19T14:43:23.902;599616201496209032;10707.981;186
2024-04-19T14:43:23.910;599616201503895944;10715.669;198
2024-04-19T14:43:23.918;599616201511582856;10723.355;233
2024-04-19T14:43:23.926;599616201519269768;10731.042;270
2024-04-19T14:43:23.933;599616201526956680;10738.729;258
2024-04-19T14:43:23.941;599616201534643592;10746.416;255
2024-04-19T14:43:23.949;599616201542330504;10754.104;315
2024-04-19T14:43:23.956;599616201550017416;10761.789;305
2024-04-19T14:43:23.964;599616201557704328;10769.477;243
2024-04-19T14:43:23.972;599616201565391240;10777.164;235
2024-04-19T14:43:23.979;599616201573078152;10784.851;233
2024-04-19T14:43:23.987;599616201580765064;10792.537;183
2024-04-19T14:43:23.995;599616201588451976;10800.225;114
2024-04-19T14:43:24.002;599616201596138888;10807.911;49
2024-04-19T14:43:24.010;599616201603825800;10815.599;12
2024-04-19T14:43:24.018;599616201611512712;10823.285;14
2024-04-19T14:43:24.025;599616201619199624;10830.972;34
2024-04-19T14:43:24.033;599616201626886536;10838.659;42
2024-04-19T14:43:24.041;599616201634573448;10846.347;37
2024-04-19T14:43:24.049;599616201642260360;10854.032;12
2024-04-19T14:43:24.056;599616201649947272;10861.72;-22
2024-04-19T14:43:24.064;599616201657634184;10869.406;-24
2024-04-19T14:43:24.072;599616201665321096;10877.094;-17
2024-04-19T14:43:24.079;599616201673008008;10884.78;-44
2024-04-19T14:43:24.087;599616201680694920;10892.467;-69
2024-04-19T14:43:24.095;599616201688381832;10900.154;-84
2024-04-19T14:43:24.102;599616201696068744;10907.842;-101
2024-04-19T14:43:24.110;599616201703755656;10915.527;-119
2024-04-19T14:43:24.118;599616201711442568;10923.215;-148
2024-04-19T14:43:24.125;599616201719129480;10930.902;-163
2024-04-19T14:43:24.133;599616201726816392;10938.589;-178
2024-04-19T14:43:24.141;599616201734503304;10946.275;-235
2024-04-19T14:43:24.148;599616201742190216;10953.963;-273
2024-04-19T14:43:24.156;599616201749877128;10961.649;-250
2024-04-19T14:43:24.164;599616201757564040;10969.337;-268
2024-04-19T14:43:24.172;599616201765250952;10977.023;-335
2024-04-19T14:43:24.179;599616201772937864;10984.71;-374
2024-04-19T14:43:24.187;599616201780624776;10992.397;-404
2024-04-19T14:43:24.195;599616201788311688;11000.085;-456
2024-04-19T14:43:24.202;599616201795998600;11007.7705;-506
2024-04-19T14:43:24.210;599616201803685512;11015.458;-560
2024-04-19T14:43:24.218;599616201811372424;11023.145;-618
2024-04-19T14:43:24.225;599616201819059336;11030.832;-613
2024-04-19T14:43:24.233;599616201826746248;11038.519;-543
2024-04-19T14:43:24.241;599616201834433160;11046.205;-555
2024-04-19T14:43:24.248;599616201842120072;11053.893;-742
2024-04-19T14:43:24.256;599616201849806984;11061.58;-968
2024-04-19T14:43:24.264;599616201857493896;11069.266;-1037
2024-04-19T14:43:24.271;599616201865180808;11076.953;-995
2024-04-19T14:43:24.279;599616201872867720;11084.641;-1052
2024-04-19T14:43:24.287;599616201880554632;11092.327;-1121
2024-04-19T14:43:24.295;599616201888241544;11100.014;-1089
2024-04-19T14:43:24.302;599616201895928456;11107.701;-1102
2024-04-19T14:43:24.310;599616201903615368;11115.388;-1141
2024-04-19T14:43:24.318;599616201911302280;11123.075;-1154
2024-04-19T14:43:24.325;599616201918989192;11130.761;-1213
2024-04-19T14:43:24.333;599616201926676104;11138.448;-1270
2024-04-19T14:43:24.341;599616201934363016;11146.136;-1280
2024-04-19T14:43:24.348;599616201942049928;11153.822;-1327
2024-04-19T14:43:24.356;599616201949736840;11161.509;-1432
2024-04-19T14:43:24.364;599616201957423752;11169.196;-1489
2024-04-19T14:43:24.371;599616201965110664;11176.883;-1519
2024-04-19T14:43:24.379;599616201972797576;11184.57;-1586
2024-04-19T14:43:24.387;599616201980484488;11192.257;-1643
2024-04-19T14:43:24.394;599616201988171400;11199.943;-1670
2024-04-19T14:43:24.402;599616201995858312;11207.631;-1710
2024-04-19T14:43:24.410;599616202003545224;11215.318;-1787
2024-04-19T14:43:24.418;599616202011232200;11223.004;-1849
2024-04-19T14:43:24.425;599616202018919112;11230.691;-1851
2024-04-19T14:43:24.433;599616202026606024;11238.379;-1851
2024-04-19T14:43:24.441;599616202034292936;11246.065;-1908
2024-04-19T14:43:24.448;599616202041979848;11253.752;-1963
2024-04-19T14:43:24.456;599616202049666760;11261.439;-1968
2024-04-19T14:43:24.464;599616202057353672;11269.126;-2005
2024-04-19T14:43:24.471;599616202065040584;11276.813;-2122
2024-04-19T14:43:24.479;599616202072727496;11284.499;-2209
2024-04-19T14:43:24.487;599616202080414408;11292.187;-2166
2024-04-19T14:43:24.494;599616202088101320;11299.874;-2142
2024-04-19T14:43:24.502;599616202095788232;11307.561;-2241
2024-04-19T14:43:24.510;599616202103475144;11315.247;-2325
2024-04-19T14:43:24.517;599616202111162056;11322.935;-2290
2024-04-19T14:43:24.525;599616202118848968;11330.621;-2251
2024-04-19T14:43:24.533;599616202126535880;11338.309;-2305
2024-04-19T14:43:24.540;599616202134222792;11345.995;-2355
2024-04-19T14:43:24.548;599616202141909704;11353.682;-2343
2024-04-19T14:43:24.556;599616202149596616;11361.369;-2380
2024-04-19T14:43:24.564;599616202157283528;11369.057;-2449
2024-04-19T14:43:24.571;599616202164970440;11376.742;-2447
2024-04-19T14:43:24.579;599616202172657352;11384.43;-2427
2024-04-19T14:43:24.587;599616202180344264;11392.117;-2459
2024-04-19T14:43:24.594;599616202188031176;11399.804;-2499
2024-04-19T14:43:24.602;599616202195718088;11407.49;-2516
2024-04-19T14:43:24.610;599616202203405000;11415.177;-2516
2024-04-19T14:43:24.617;599616202211091912;11422.864;-2519
2024-04-19T14:43:24.625;599616202218778824;11430.552;-2546
2024-04-19T14:43:24.633;599616202226465736;11438.237;-2561
2024-04-19T14:43:24.640;599616202234152648;11445.925;-2549
2024-04-19T14:43:24.648;599616202241839560;11453.612;-2573
2024-04-19T14:43:24.656;599616202249526472;11461.299;-2611
2024-04-19T14:43:24.663;599616202257213384;11468.985;-2593
2024-04-19T14:43:24.671;599616202264900296;11476.673;-2573
2024-04-19T14:43:24.679;599616202272587208;11484.359;-2603
2024-04-19T14:43:24.687;599616202280274120;11492.047;-2643
2024-04-19T14:43:24.694;599616202287961032;11499.733;-2655
2024-04-19T14:43:24.702;599616202295647944;11507.42;-2653
2024-04-19T14:43:24.710;599616202303334856;11515.107;-2665
2024-04-19T14:43:24.717;599616202311021768;11522.795;-2698
2024-04-19T14:43:24.725;599616202318708680;11530.48;-2703
2024-04-19T14:43:24.733;599616202326395592;11538.168;-2690
2024-04-19T14:43:24.740;599616202334082504;11545.8545;-2720
2024-04-19T14:43:24.748;599616202341769416;11553.542;-2784
2024-04-19T14:43:24.756;599616202349456328;11561.229;-2824
2024-04-19T14:43:24.763;599616202357143240;11568.915;-2809
2024-04-19T14:43:24.771;599616202364830152;11576.603;-2767
2024-04-19T14:43:24.779;599616202372517064;11584.29;-2740
2024-04-19T14:43:24.786;599616202380203976;11591.976;-2698
2024-04-19T14:43:24.794;599616202387890888;11599.663;-2658
2024-04-19T14:43:24.802;599616202395577800;11607.351;-2779
2024-04-19T14:43:24.810;599616202403264712;11615.037;-2963
2024-04-19T14:43:24.817;599616202410951624;11622.724;-2906
2024-04-19T14:43:24.825;599616202418638536;11630.411;-2789
2024-04-19T14:43:24.833;599616202426325448;11638.098;-2854
2024-04-19T14:43:24.840;599616202434012360;11645.785;-2886
2024-04-19T14:43:24.848;599616202441699272;11653.472;-2794
2024-04-19T14:43:24.856;599616202449386184;11661.158;-2767
2024-04-19T14:43:24.863;599616202457073096;11668.846;-2819
2024-04-19T14:43:24.871;599616202464760008;11676.533;-2829
2024-04-19T14:43:24.879;599616202472446920;11684.219;-2817
2024-04-19T14:43:24.886;599616202480133832;11691.906;-2834
2024-04-19T14:43:24.894;599616202487820744;11699.593;-2849
2024-04-19T14:43:24.902;599616202495507656;11707.28;-2832
2024-04-19T14:43:24.909;599616202503194568;11714.967;-2802
2024-04-19T14:43:24.917;599616202510881480;11722.653;-2789
2024-04-19T14:43:24.925;599616202518568392;11730.341;-2804
2024-04-19T14:43:24.933;599616202526255304;11738.028;-2792
2024-04-19T14:43:24.940;599616202533942216;11745.714;-2722
2024-04-19T14:43:24.948;599616202541629128;11753.401;-2678
2024-04-19T14:43:24.956;599616202549316040;11761.089;-2673
2024-04-19T14:43:24.963;599616202557002952;11768.775;-2628
2024-04-19T14:43:24.971;599616202564689864;11776.462;-2568
2024-04-19T14:43:24.979;599616202572366756;11784.139;-2554
2024-04-19T14:43:24.986;599616202580053808;11791.826;-2529
2024-04-19T14:43:24.994;599616202587740860;11799.513;-2499
2024-04-19T14:43:25.002;599616202595427912;11807.2;-2489
2024-04-19T14:43:25.009;599616202603114964;11814.888;-2449
2024-04-19T14:43:25.017;599616202610802016;11822.574;-2417
2024-04-19T14:43:25.025;599616202618489068;11830.262;-2405
2024-04-19T14:43:25.032;599616202626176120;11837.949;-2350
2024-04-19T14:43:25.040;599616202633863172;11845.635;-2348
2024-04-19T14:43:25.048;599616202641550224;11853.322;-2402
2024-04-19T14:43:25.056;599616202649237276;11861.01;-2353
2024-04-19T14:43:25.063;599616202656924328;11868.696;-2261
2024-04-19T14:43:25.071;599616202664611380;11876.384;-2263
2024-04-19T14:43:25.079;599616202672298432;11884.071;-2256
2024-04-19T14:43:25.086;599616202679985484;11891.758;-2184
2024-04-19T14:43:25.094;599616202687672536;11899.445;-2149
2024-04-19T14:43:25.102;599616202695359588;11907.133;-2161
2024-04-19T14:43:25.109;599616202703046640;11914.818;-2156
2024-04-19T14:43:25.117;599616202710733692;11922.506;-2122
2024-04-19T14:43:25.125;599616202718420744;11930.193;-2082
2024-04-19T14:43:25.132;599616202726107796;11937.88;-2077
2024-04-19T14:43:25.140;599616202733794848;11945.567;-2075
2024-04-19T14:43:25.148;599616202741481900;11953.255;-2037
2024-04-19T14:43:25.155;599616202749168952;11960.941;-2025
2024-04-19T14:43:25.163;599616202756856004;11968.629;-2037
2024-04-19T14:43:25.171;599616202764543056;11976.315;-1998
2024-04-19T14:43:25.179;599616202772230108;11984.002;-1936
2024-04-19T14:43:25.186;599616202779917160;11991.689;-1916
2024-04-19T14:43:25.194;599616202787604212;11999.376;-1921
2024-04-19T14:43:25.202;599616202795291264;12007.063;-1908
2024-04-19T14:43:25.209;599616202802978316;12014.751;-1869
2024-04-19T14:43:25.217;599616202810665368;12022.4375;-1834
2024-04-19T14:43:25.225;599616202818352420;12030.125;-1829
2024-04-19T14:43:25.232;599616202826039472;12037.8125;-1814
2024-04-19T14:43:25.240;599616202833726524;12045.499;-1794
2024-04-19T14:43:25.248;599616202841413576;12053.186;-1816
2024-04-19T14:43:25.255;599616202849100628;12060.873;-1799
2024-04-19T14:43:25.263;599616202856787680;12068.56;-1712
2024-04-19T14:43:25.271;599616202864474732;12076.247;-1667
2024-04-19T14:43:25.278;599616202872161784;12083.935;-1677
2024-04-19T14:43:25.286;599616202879848836;12091.621;-1707
2024-04-19T14:43:25.294;599616202887535888;12099.309;-1710
2024-04-19T14:43:25.301;599616202895222940;12106.996;-1618
2024-04-19T14:43:25.309;599616202902909992;12114.683;-1556
2024-04-19T14:43:25.317;599616202910597044;12122.369;-1583
2024-04-19T14:43:25.325;599616202918284096;12130.057;-1573
2024-04-19T14:43:25.332;599616202925971148;12137.743;-1504
2024-04-19T14:43:25.340;599616202933658200;12145.431;-1424
2024-04-19T14:43:25.348;599616202941345252;12153.118;-1283
2024-04-19T14:43:25.355;599616202949032304;12160.805;-1171
2024-04-19T14:43:25.363;599616202956719356;12168.492;-1310
2024-04-19T14:43:25.371;599616202964406408;12176.18;-1533
2024-04-19T14:43:25.378;599616202972093460;12183.865;-1514
2024-04-19T14:43:25.386;599616202979780512;12191.553;-1372
2024-04-19T14:43:25.394;599616202987467564;12199.239;-1350
2024-04-19T14:43:25.401;599616202995154616;12206.927;-1355
2024-04-19T14:43:25.409;599616203002841668;12214.614;-1298
2024-04-19T14:43:25.417;599616203010528720;12222.301;-1243
2024-04-19T14:43:25.424;599616203018215772;12229.988;-1216
2024-04-19T14:43:25.432;599616203025902824;12237.676;-1218
2024-04-19T14:43:25.440;599616203033589876;12245.362;-1208
2024-04-19T14:43:25.448;599616203041276928;12253.049;-1146
2024-04-19T14:43:25.455;599616203048963980;12260.736;-1102
2024-04-19T14:43:25.463;599616203056651032;12268.423;-1102
2024-04-19T14:43:25.471;599616203064338084;12276.11;-1074
2024-04-19T14:43:25.478;599616203072025136;12283.798;-1022
2024-04-19T14:43:25.486;599616203079712188;12291.484;-1007
2024-04-19T14:43:25.494;599616203087399240;12299.172;-995
2024-04-19T14:43:25.501;599616203095086292;12306.859;-920
2024-04-19T14:43:25.509;599616203102773344;12314.546;-824
2024-04-19T14:43:25.517;599616203110460396;12322.232;-774
2024-04-19T14:43:25.524;599616203118147448;12329.92;-747
2024-04-19T14:43:25.532;599616203125834500;12337.606;-685
2024-04-19T14:43:25.540;599616203133541658;12345.314;-600
2024-04-19T14:43:25.548;599616203141228431;12353.0;-558
2024-04-19T14:43:25.555;599616203148915204;12360.6875;-538
2024-04-19T14:43:25.563;599616203156601977;12368.375;-484
2024-04-19T14:43:25.571;599616203164288750;12376.061;-421
2024-04-19T14:43:25.578;599616203171975523;12383.748;-399
2024-04-19T14:43:25.586;599616203179662296;12391.435;-402
2024-04-19T14:43:25.594;599616203187349069;12399.121;-354
2024-04-19T14:43:25.601;599616203195035842;12406.809;-258
2024-04-19T14:43:25.609;599616203202722615;12414.495;-228
2024-04-19T14:43:25.617;599616203210409388;12422.182;-243
2024-04-19T14:43:25.624;599616203218096161;12429.868;-183
2024-04-19T14:43:25.632;599616203225782934;12437.556;-89
2024-04-19T14:43:25.640;599616203233469707;12445.242;-39
2024-04-19T14:43:25.647;599616203241156480;12452.929;4
2024-04-19T14:43:25.655;599616203248843253;12460.615;89
2024-04-19T14:43:25.663;599616203256530026;12468.303;168
2024-04-19T14:43:25.670;599616203264216799;12475.989;225
2024-04-19T14:43:25.678;599616203271903572;12483.676;312
2024-04-19T14:43:25.686;599616203279590345;12491.362;434
2024-04-19T14:43:25.694;599616203287277118;12499.05;541
2024-04-19T14:43:25.701;599616203294963891;12506.736;598
2024-04-19T14:43:25.709;599616203302650664;12514.423;637
2024-04-19T14:43:25.717;599616203310337437;12522.11;687
2024-04-19T14:43:25.724;599616203318024210;12529.796;722
2024-04-19T14:43:25.732;599616203325710983;12537.483;742
2024-04-19T14:43:25.740;599616203333397756;12545.171;769
2024-04-19T14:43:25.747;599616203341084529;12552.856;811
2024-04-19T14:43:25.755;599616203348771302;12560.544;838
2024-04-19T14:43:25.763;599616203356458075;12568.23;846
2024-04-19T14:43:25.770;599616203364144848;12575.917;878
2024-04-19T14:43:25.778;599616203371831621;12583.6045;928
2024-04-19T14:43:25.786;599616203379518394;12591.29;935
2024-04-19T14:43:25.793;599616203387205167;12598.978;935
2024-04-19T14:43:25.801;599616203394891940;12606.665;995
2024-04-19T14:43:25.809;599616203402578713;12614.351;1049
2024-04-19T14:43:25.817;599616203410265486;12622.038;1059
2024-04-19T14:43:25.824;599616203417952259;12629.725;1069
2024-04-19T14:43:25.832;599616203425639032;12637.411;1097
2024-04-19T14:43:25.840;599616203433325805;12645.099;1116
2024-04-19T14:43:25.847;599616203441012578;12652.784;1131
2024-04-19T14:43:25.855;599616203448699351;12660.472;1164
2024-04-19T14:43:25.863;599616203456386124;12668.159;1208
2024-04-19T14:43:25.870;599616203464072897;12675.845;1238
2024-04-19T14:43:25.878;599616203471759670;12683.532;1255
2024-04-19T14:43:25.886;599616203479446443;12691.219;1270
2024-04-19T14:43:25.893;599616203487133216;12698.905;1340
2024-04-19T14:43:25.901;599616203494819989;12706.593;1491
2024-04-19T14:43:25.909;599616203502506762;12714.279;1608
2024-04-19T14:43:25.916;599616203510193535;12721.966;1531
2024-04-19T14:43:25.924;599616203517880308;12729.652;1330
2024-04-19T14:43:25.932;599616203525567081;12737.34;1270
2024-04-19T14:43:25.940;599616203533253854;12745.026;1362
2024-04-19T14:43:25.947;599616203540940627;12752.713;1392
2024-04-19T14:43:25.955;599616203548627400;12760.399;1375
2024-04-19T14:43:25.963;599616203556314173;12768.087;1407
2024-04-19T14:43:25.970;599616203564000946;12775.773;1429
2024-04-19T14:43:25.978;599616203571687719;12783.46;1432
2024-04-19T14:43:25.986;599616203579374492;12791.146;1447
2024-04-19T14:43:25.993;599616203587061265;12798.834;1469
2024-04-19T14:43:26.001;599616203594748038;12806.5205;1479
2024-04-19T14:43:26.009;599616203602434811;12814.207;1474
2024-04-19T14:43:26.016;599616203610121584;12821.895;1484
2024-04-19T14:43:26.024;599616203617808357;12829.58;1504
2024-04-19T14:43:26.032;599616203625495130;12837.268;1509
2024-04-19T14:43:26.039;599616203633181903;12844.955;1526
2024-04-19T14:43:26.047;599616203640868676;12852.641;1556
2024-04-19T14:43:26.055;599616203648555449;12860.328;1566
2024-04-19T14:43:26.063;599616203656242222;12868.015;1571
2024-04-19T14:43:26.070;599616203663928995;12875.701;1593
2024-04-19T14:43:26.078;599616203671615768;12883.389;1623
2024-04-19T14:43:26.086;599616203679302541;12891.074;1638
2024-04-19T14:43:26.093;599616203686989314;12898.762;1650
2024-04-19T14:43:26.101;599616203694651064;12906.423;1670
2024-04-19T14:43:26.109;599616203702338185;12914.11;1692
2024-04-19T14:43:26.116;599616203710025306;12921.798;1710
2024-04-19T14:43:26.124;599616203717712427;12929.484;1717
2024-04-19T14:43:26.132;599616203725399548;12937.172;1730
2024-04-19T14:43:26.139;599616203733086669;12944.859;1742
2024-04-19T14:43:26.147;599616203740773790;12952.546;1737
2024-04-19T14:43:26.155;599616203748460911;12960.233;1720
2024-04-19T14:43:26.162;599616203756148032;12967.921;1727
2024-04-19T14:43:26.170;599616203763835153;12975.607;1747
2024-04-19T14:43:26.178;599616203771522274;12983.295;1739
2024-04-19T14:43:26.185;599616203779209395;12990.982;1737
2024-04-19T14:43:26.193;599616203786896516;12998.669;1762
2024-04-19T14:43:26.201;599616203794583637;13006.356;1774
2024-04-19T14:43:26.209;599616203802270758;13014.044;1757
2024-04-19T14:43:26.216;599616203809957879;13021.7295;1742
2024-04-19T14:43:26.224;599616203817645000;13029.417;1747
2024-04-19T14:43:26.232;599616203825332121;13037.1045;1752
2024-04-19T14:43:26.239;599616203833019242;13044.791;1754
2024-04-19T14:43:26.247;599616203840706363;13052.479;1747
2024-04-19T14:43:26.255;599616203848393484;13060.166;1742
2024-04-19T14:43:26.262;599616203856080605;13067.853;1747
2024-04-19T14:43:26.270;599616203863767726;13075.54;1754
2024-04-19T14:43:26.278;599616203871454847;13083.228;1757
2024-04-19T14:43:26.285;599616203879141968;13090.914;1759
2024-04-19T14:43:26.293;599616203886829089;13098.602;1742
2024-04-19T14:43:26.301;599616203894516210;13106.289;1734
2024-04-19T14:43:26.308;599616203902203331;13113.976;1747
2024-04-19T14:43:26.316;599616203909890452;13121.663;1747
2024-04-19T14:43:26.324;599616203917577573;13129.351;1744
2024-04-19T14:43:26.332;599616203925264694;13137.037;1739
2024-04-19T14:43:26.339;599616203932951815;13144.725;1730
2024-04-19T14:43:26.347;599616203940638936;13152.412;1742
2024-04-19T14:43:26.355;599616203948326057;13160.099;1744
2024-04-19T14:43:26.362;599616203956013178;13167.786;1732
2024-04-19T14:43:26.370;599616203963700299;13175.474;1732
2024-04-19T14:43:26.378;599616203971387420;13183.159;1739
2024-04-19T14:43:26.385;599616203979074541;13190.847;1722
2024-04-19T14:43:26.393;599616203986761662;13198.533;1707
2024-04-19T14:43:26.401;599616203994448783;13206.221;1717
2024-04-19T14:43:26.408;599616204002135904;13213.908;1717
2024-04-19T14:43:26.416;599616204009823025;13221.595;1710
2024-04-19T14:43:26.424;599616204017510146;13229.282;1710
2024-04-19T14:43:26.431;599616204025197267;13236.97;1702
2024-04-19T14:43:26.439;599616204032884388;13244.656;1685
2024-04-19T14:43:26.447;599616204040571509;13252.344;1687
2024-04-19T14:43:26.455;599616204048258630;13260.031;1742
2024-04-19T14:43:26.462;599616204055945751;13267.718;1864
2024-04-19T14:43:26.470;599616204063632872;13275.405;1936
2024-04-19T14:43:26.478;599616204071319993;13283.093;1806
2024-04-19T14:43:26.485;599616204079007114;13290.779;1605
2024-04-19T14:43:26.493;599616204086694235;13298.467;1581
2024-04-19T14:43:26.501;599616204094381356;13306.154;1667
2024-04-19T14:43:26.508;599616204102068477;13313.841;1672
2024-04-19T14:43:26.516;599616204109755598;13321.528;1643
2024-04-19T14:43:26.524;599616204117442719;13329.216;1665
2024-04-19T14:43:26.531;599616204125129840;13336.902;1677
2024-04-19T14:43:26.539;599616204132816961;13344.59;1663
2024-04-19T14:43:26.547;599616204140504082;13352.276;1665
2024-04-19T14:43:26.554;599616204148191203;13359.963;1677
2024-04-19T14:43:26.562;599616204155878324;13367.65;1675
2024-04-19T14:43:26.570;599616204163565445;13375.338;1667
2024-04-19T14:43:26.578;599616204171252566;13383.024;1667
2024-04-19T14:43:26.585;599616204178939687;13390.712;1672
2024-04-19T14:43:26.593;599616204186626808;13398.399;1677
2024-04-19T14:43:26.601;599616204194313929;13406.086;1685
2024-04-19T14:43:26.608;599616204202001050;13413.773;1687
2024-04-19T14:43:26.616;599616204209688171;13421.461;1692
2024-04-19T14:43:26.624;599616204217375292;13429.147;1700
2024-04-19T14:43:26.631;599616204225062413;13436.835;1707
2024-04-19T14:43:26.639;599616204232749534;13444.522;1722
2024-04-19T14:43:26.647;599616204240436655;13452.209;1737
2024-04-19T14:43:26.654;599616204248123776;13459.896;1730
2024-04-19T14:43:26.662;599616204255810965;13467.583;1722
2024-04-19T14:43:26.670;599616204263498086;13475.2705;1734
2024-04-19T14:43:26.677;599616204271185207;13482.958;1739
2024-04-19T14:43:26.685;599616204278872328;13490.645;1732
2024-04-19T14:43:26.693;599616204286559449;13498.332;1715
2024-04-19T14:43:26.701;599616204294246570;13506.02;1697
2024-04-19T14:43:26.708;599616204301933691;13513.706;1697
2024-04-19T14:43:26.716;599616204309620812;13521.394;1682
2024-04-19T14:43:26.724;599616204317307933;13529.08;1653
2024-04-19T14:43:26.731;599616204324995054;13536.767;1660
2024-04-19T14:43:26.739;599616204332682175;13544.454;1680
2024-04-19T14:43:26.747;599616204340369296;13552.142;1665
2024-04-19T14:43:26.754;599616204348056417;13559.828;1650
2024-04-19T14:43:26.762;599616204355743538;13567.516;1655
2024-04-19T14:43:26.770;599616204363430659;13575.203;1650
2024-04-19T14:43:26.777;599616204371117780;13582.89;1635
2024-04-19T14:43:26.785;599616204378804901;13590.577;1635
2024-04-19T14:43:26.793;599616204386492022;13598.265;1633
2024-04-19T14:43:26.800;599616204394179143;13605.951;1610
2024-04-19T14:43:26.808;599616204401866264;13613.639;1605
2024-04-19T14:43:26.816;599616204409553385;13621.326;1618
2024-04-19T14:43:26.824;599616204417240506;13629.013;1608
2024-04-19T14:43:26.831;599616204424927627;13636.7;1581
2024-04-19T14:43:26.839;599616204432614748;13644.388;1551
2024-04-19T14:43:26.847;599616204440301869;13652.074;1511
2024-04-19T14:43:26.854;599616204447988990;13659.762;1484
2024-04-19T14:43:26.862;599616204455676111;13667.449;1459
2024-04-19T14:43:26.870;599616204463363232;13675.136;1427
2024-04-19T14:43:26.877;599616204471050353;13682.823;1409
2024-04-19T14:43:26.885;599616204478737474;13690.511;1412
2024-04-19T14:43:26.893;599616204486424595;13698.196;1389
2024-04-19T14:43:26.900;599616204494111716;13705.884;1352
2024-04-19T14:43:26.908;599616204501798837;13713.571;1322
2024-04-19T14:43:26.916;599616204509485958;13721.258;1305
2024-04-19T14:43:26.923;599616204517173079;13728.945;1285
2024-04-19T14:43:26.931;599616204524860200;13736.632;1250
2024-04-19T14:43:26.939;599616204532547321;13744.319;1218
2024-04-19T14:43:26.947;599616204540234442;13752.007;1193
2024-04-19T14:43:26.954;599616204547921563;13759.693;1166
2024-04-19T14:43:26.962;599616204555608684;13767.381;1139
2024-04-19T14:43:26.970;599616204563295805;13775.068;1097
2024-04-19T14:43:26.977;599616204570982926;13782.755;1064
2024-04-19T14:43:26.985;599616204578670047;13790.442;1054
2024-04-19T14:43:26.993;599616204586357168;13798.13;1020
2024-04-19T14:43:27.000;599616204594044289;13805.816;968
2024-04-19T14:43:27.008;599616204601731410;13813.504;948
2024-04-19T14:43:27.016;599616204609418531;13821.191;925
2024-04-19T14:43:27.023;599616204617105652;13828.878;886
2024-04-19T14:43:27.031;599616204624792773;13836.565;888
2024-04-19T14:43:27.039;599616204632479894;13844.253;970
2024-04-19T14:43:27.046;599616204640167015;13851.939;1032
2024-04-19T14:43:27.054;599616204647854136;13859.627;915
2024-04-19T14:43:27.062;599616204655541257;13867.313;677
2024-04-19T14:43:27.070;599616204663228378;13875.0;568
2024-04-19T14:43:27.077;599616204670915499;13882.6875;605
2024-04-19T14:43:27.085;599616204678602620;13890.375;585
2024-04-19T14:43:27.093;599616204686289741;13898.062;506
2024-04-19T14:43:27.100;599616204693976862;13905.749;479
2024-04-19T14:43:27.108;599616204701663983;13913.437;464
2024-04-19T14:43:27.116;599616204709351104;13921.123;416
2024-04-19T14:43:27.123;599616204717038225;13928.811;387
2024-04-19T14:43:27.131;599616204724725346;13936.498;372
2024-04-19T14:43:27.139;599616204732412467;13944.185;322
2024-04-19T14:43:27.146;599616204740099588;13951.872;275
2024-04-19T14:43:27.154;599616204747786709;13959.56;260
2024-04-19T14:43:27.162;599616204755473830;13967.246;220
2024-04-19T14:43:27.169;599616204763160951;13974.934;156
2024-04-19T14:43:27.177;599616204770848072;13982.621;121
2024-04-19T14:43:27.185;599616204778535193;13990.308;111
2024-04-19T14:43:27.192;599616204786222314;13997.995;101
2024-04-19T14:43:27.200;599616204793909435;14005.683;91
2024-04-19T14:43:27.208;599616204801596556;14013.369;74
2024-04-19T14:43:27.216;599616204809283677;14021.057;52
2024-04-19T14:43:27.223;599616204816970862;14028.744;59
2024-04-19T14:43:27.231;599616204824657983;14036.431;71
2024-04-19T14:43:27.239;599616204832345104;14044.117;49
2024-04-19T14:43:27.246;599616204840032225;14051.804;47
2024-04-19T14:43:27.254;599616204847719346;14059.491;47
2024-04-19T14:43:27.262;599616204855406467;14067.179;0
2024-04-19T14:43:27.269;599616204863093588;14074.865;-37
2024-04-19T14:43:27.277;599616204870780709;14082.553;-49
2024-04-19T14:43:27.285;599616204878467830;14090.24;-79
2024-04-19T14:43:27.292;599616204886154951;14097.927;-119
2024-04-19T14:43:27.300;599616204893842072;14105.614;-171
2024-04-19T14:43:27.308;599616204901529193;14113.302;-215
2024-04-19T14:43:27.315;599616204909216314;14120.988;-210
2024-04-19T14:43:27.323;599616204916903435;14128.676;-268
2024-04-19T14:43:27.331;599616204924590556;14136.363;-327
2024-04-19T14:43:27.339;599616204932277677;14144.05;-270
2024-04-19T14:43:27.346;599616204939964798;14151.737;-265
2024-04-19T14:43:27.354;599616204947651919;14159.425;-357
2024-04-19T14:43:27.362;599616204955339040;14167.111;-389
2024-04-19T14:43:27.369;599616204963026161;14174.799;-377
2024-04-19T14:43:27.377;599616204970713282;14182.486;-412
2024-04-19T14:43:27.385;599616204978400403;14190.173;-459
2024-04-19T14:43:27.392;599616204986087524;14197.86;-516
2024-04-19T14:43:27.400;599616204993774645;14205.548;-570
2024-04-19T14:43:27.408;599616205001461766;14213.233;-583
2024-04-19T14:43:27.415;599616205009148887;14220.921;-623
2024-04-19T14:43:27.423;599616205016836008;14228.608;-672
2024-04-19T14:43:27.431;599616205024523129;14236.295;-677
2024-04-19T14:43:27.438;599616205032210250;14243.982;-697
2024-04-19T14:43:27.446;599616205039897371;14251.67;-742
2024-04-19T14:43:27.454;599616205047584492;14259.356;-779
2024-04-19T14:43:27.462;599616205055271613;14267.044;-831
2024-04-19T14:43:27.469;599616205062958734;14274.731;-861
2024-04-19T14:43:27.477;599616205070645855;14282.418;-853
2024-04-19T14:43:27.485;599616205078332976;14290.105;-861
2024-04-19T14:43:27.492;599616205086020097;14297.793;-883
2024-04-19T14:43:27.500;599616205093707218;14305.4795;-910
2024-04-19T14:43:27.508;599616205101394339;14313.167;-945
2024-04-19T14:43:27.515;599616205109081460;14320.8545;-958
2024-04-19T14:43:27.523;599616205116768581;14328.541;-945
2024-04-19T14:43:27.531;599616205124455702;14336.229;-975
2024-04-19T14:43:27.538;599616205132142823;14343.915;-1037
2024-04-19T14:43:27.546;599616205139829944;14351.603;-1049
2024-04-19T14:43:27.554;599616205147517065;14359.29;-1064
2024-04-19T14:43:27.561;599616205155204186;14366.977;-1124
2024-04-19T14:43:27.569;599616205162891307;14374.664;-1126
2024-04-19T14:43:27.577;599616205170578428;14382.351;-1107
2024-04-19T14:43:27.585;599616205178265549;14390.037;-1144
2024-04-19T14:43:27.592;599616205185952670;14397.725;-1198
2024-04-19T14:43:27.600;599616205193639791;14405.412;-1246
2024-04-19T14:43:27.608;599616205201326912;14413.099;-1263
2024-04-19T14:43:27.615;599616205209014033;14420.786;-1263
2024-04-19T14:43:27.623;599616205216701154;14428.474;-1293
2024-04-19T14:43:27.631;599616205224388275;14436.16;-1246
2024-04-19T14:43:27.638;599616205232075396;14443.848;-1102
2024-04-19T14:43:27.646;599616205239762517;14451.535;-1144
2024-04-19T14:43:27.654;599616205247449638;14459.222;-1429
2024-04-19T14:43:27.661;599616205255136759;14466.909;-1576
2024-04-19T14:43:27.669;599616205262823880;14474.597;-1484
2024-04-19T14:43:27.677;599616205270511001;14482.283;-1459
2024-04-19T14:43:27.684;599616205278198122;14489.971;-1551
2024-04-19T14:43:27.692;599616205285885243;14497.658;-1583
2024-04-19T14:43:27.700;599616205293572364;14505.345;-1578
2024-04-19T14:43:27.708;599616205301259485;14513.032;-1653
2024-04-19T14:43:27.715;599616205308946606;14520.72;-1742
2024-04-19T14:43:27.723;599616205316633727;14528.406;-1739
2024-04-19T14:43:27.731;599616205324320848;14536.094;-1732
2024-04-19T14:43:27.738;599616205332007969;14543.78;-1816
2024-04-19T14:43:27.746;599616205339695090;14551.467;-1901
2024-04-19T14:43:27.754;599616205347382211;14559.154;-1931
2024-04-19T14:43:27.761;599616205355069332;14566.842;-1960
2024-04-19T14:43:27.769;599616205362756453;14574.528;-2027
2024-04-19T14:43:27.777;599616205370443574;14582.216;-2109
2024-04-19T14:43:27.784;599616205378140767;14589.913;-2176
2024-04-19T14:43:27.792;599616205385827749;14597.601;-2209
2024-04-19T14:43:27.800;599616205393514731;14605.287;-2221
2024-04-19T14:43:27.807;599616205401201713;14612.975;-2286
2024-04-19T14:43:27.815;599616205408888695;14620.661;-2360
2024-04-19T14:43:27.823;599616205416575677;14628.348;-2308
2024-04-19T14:43:27.831;599616205424262659;14636.035;-2303
2024-04-19T14:43:27.838;599616205431949641;14643.723;-2415
2024-04-19T14:43:27.846;599616205439636623;14651.409;-2377
2024-04-19T14:43:27.854;599616205447323605;14659.096;-2273
2024-04-19T14:43:27.861;599616205455010587;14666.783;-2335
2024-04-19T14:43:27.869;599616205462697569;14674.47;-2407
2024-04-19T14:43:27.877;599616205470384551;14682.157;-2397
2024-04-19T14:43:27.884;599616205478071533;14689.844;-2415
2024-04-19T14:43:27.892;599616205485758515;14697.531;-2449
2024-04-19T14:43:27.900;599616205493445497;14705.218;-2447
2024-04-19T14:43:27.907;599616205501132479;14712.904;-2427
2024-04-19T14:43:27.915;599616205508819461;14720.592;-2425
2024-04-19T14:43:27.923;599616205516506443;14728.279;-2454
2024-04-19T14:43:27.930;599616205524193425;14735.966;-2464
2024-04-19T14:43:27.938;599616205531880407;14743.652;-2425
2024-04-19T14:43:27.946;599616205539567389;14751.34;-2422
2024-04-19T14:43:27.954;599616205547254371;14759.026;-2487
2024-04-19T14:43:27.961;599616205554941353;14766.714;-2489
2024-04-19T14:43:27.969;599616205562628335;14774.401;-2434
2024-04-19T14:43:27.977;599616205570315317;14782.088;-2439
2024-04-19T14:43:27.984;599616205578002299;14789.774;-2464
2024-04-19T14:43:27.992;599616205585689281;14797.462;-2434
2024-04-19T14:43:28.000;599616205593376263;14805.148;-2405
2024-04-19T14:43:28.007;599616205601063245;14812.836;-2417
2024-04-19T14:43:28.015;599616205608750227;14820.523;-2444
2024-04-19T14:43:28.023;599616205616437209;14828.209;-2434
2024-04-19T14:43:28.030;599616205624124191;14835.896;-2382
2024-04-19T14:43:28.038;599616205631811173;14843.583;-2365
2024-04-19T14:43:28.046;599616205639498155;14851.2705;-2382
2024-04-19T14:43:28.053;599616205647185137;14858.958;-2375
2024-04-19T14:43:28.061;599616205654872119;14866.645;-2375
2024-04-19T14:43:28.069;599616205662559101;14874.331;-2382
2024-04-19T14:43:28.077;599616205670246083;14882.019;-2335
2024-04-19T14:43:28.084;599616205677933065;14889.705;-2281
2024-04-19T14:43:28.092;599616205685620047;14897.393;-2253
2024-04-19T14:43:28.100;599616205693307029;14905.08;-2236
2024-04-19T14:43:28.107;599616205700994011;14912.766;-2238
2024-04-19T14:43:28.115;599616205708680993;14920.453;-2214
2024-04-19T14:43:28.123;599616205716367975;14928.141;-2144
2024-04-19T14:43:28.130;599616205724054957;14935.827;-2122
2024-04-19T14:43:28.138;599616205731741939;14943.515;-2151
2024-04-19T14:43:28.146;599616205739428921;14951.202;-2127
2024-04-19T14:43:28.153;599616205747115903;14958.888;-2082
2024-04-19T14:43:28.161;599616205754802885;14966.575;-2109
2024-04-19T14:43:28.169;599616205762489867;14974.263;-2097
2024-04-19T14:43:28.176;599616205770176849;14981.949;-2005
2024-04-19T14:43:28.184;599616205777863831;14989.637;-1965
2024-04-19T14:43:28.192;599616205785550813;14997.322;-1983
2024-04-19T14:43:28.200;599616205793237795;15005.01;-2000
2024-04-19T14:43:28.207;599616205800924777;15012.697;-1985
2024-04-19T14:43:28.215;599616205808611759;15020.384;-1891
2024-04-19T14:43:28.223;599616205816298741;15028.071;-1769
2024-04-19T14:43:28.230;599616205823985723;15035.759;-1638
2024-04-19T14:43:28.238;599616205831672705;15043.444;-1573
2024-04-19T14:43:28.246;599616205839359687;15051.132;-1749
2024-04-19T14:43:28.253;599616205847046669;15058.819;-1968
2024-04-19T14:43:28.261;599616205854733651;15066.506;-1906
2024-04-19T14:43:28.269;599616205862420633;15074.193;-1752
2024-04-19T14:43:28.276;599616205870107615;15081.88;-1762
2024-04-19T14:43:28.284;599616205877794597;15089.566;-1784
2024-04-19T14:43:28.292;599616205885481579;15097.254;-1734
2024-04-19T14:43:28.299;599616205893168561;15104.941;-1697
2024-04-19T14:43:28.307;599616205900855543;15112.628;-1672
2024-04-19T14:43:28.315;599616205908542525;15120.315;-1695
2024-04-19T14:43:28.323;599616205916229507;15128.002;-1722
2024-04-19T14:43:28.330;599616205923916489;15135.688;-1650
2024-04-19T14:43:28.338;599616205931603471;15143.376;-1595
2024-04-19T14:43:28.346;599616205939275446;15151.048;-1630
2024-04-19T14:43:28.353;599616205946962637;15158.734;-1605
2024-04-19T14:43:28.361;599616205954649828;15166.422;-1536
2024-04-19T14:43:28.369;599616205962337019;15174.109;-1524
2024-04-19T14:43:28.376;599616205970024210;15181.796;-1524
2024-04-19T14:43:28.384;599616205977711401;15189.483;-1489
2024-04-19T14:43:28.392;599616205985398592;15197.171;-1447
2024-04-19T14:43:28.399;599616205993085783;15204.857;-1422
2024-04-19T14:43:28.407;599616206000772974;15212.545;-1427
2024-04-19T14:43:28.415;599616206008460165;15220.232;-1387
2024-04-19T14:43:28.422;599616206016147356;15227.919;-1308
2024-04-19T14:43:28.430;599616206023834547;15235.606;-1315
2024-04-19T14:43:28.438;599616206031521738;15243.294;-1352
2024-04-19T14:43:28.445;599616206039208929;15250.98;-1317
2024-04-19T14:43:28.453;599616206046896120;15258.668;-1270
2024-04-19T14:43:28.461;599616206054583311;15266.355;-1246
2024-04-19T14:43:28.469;599616206062270502;15274.043;-1231
2024-04-19T14:43:28.476;599616206069957693;15281.73;-1213
2024-04-19T14:43:28.484;599616206077644884;15289.418;-1178
2024-04-19T14:43:28.492;599616206085332075;15297.1045;-1156
2024-04-19T14:43:28.499;599616206093019266;15304.792;-1146
2024-04-19T14:43:28.507;599616206100706457;15312.4795;-1109
2024-04-19T14:43:28.515;599616206108393648;15320.166;-1064
2024-04-19T14:43:28.522;599616206116080839;15327.854;-1059
2024-04-19T14:43:28.530;599616206123768030;15335.541;-1047
2024-04-19T14:43:28.538;599616206131455221;15343.228;-982
2024-04-19T14:43:28.545;599616206139142412;15350.915;-938
2024-04-19T14:43:28.553;599616206146829603;15358.603;-943
2024-04-19T14:43:28.561;599616206154516794;15366.289;-920
2024-04-19T14:43:28.568;599616206162203985;15373.977;-881
2024-04-19T14:43:28.576;599616206169891176;15381.664;-868
2024-04-19T14:43:28.584;599616206177578367;15389.351;-858
2024-04-19T14:43:28.592;599616206185265558;15397.038;-831
2024-04-19T14:43:28.599;599616206192952749;15404.726;-806
2024-04-19T14:43:28.607;599616206200639940;15412.412;-789
2024-04-19T14:43:28.615;599616206208327131;15420.1;-789
2024-04-19T14:43:28.622;599616206216014322;15427.787;-774
2024-04-19T14:43:28.630;599616206223701513;15435.474;-727
2024-04-19T14:43:28.638;599616206231388704;15443.161;-702
2024-04-19T14:43:28.645;599616206239075895;15450.849;-699
2024-04-19T14:43:28.653;599616206246763086;15458.535;-672
2024-04-19T14:43:28.661;599616206254450277;15466.223;-642
2024-04-19T14:43:28.668;599616206262137468;15473.91;-652
2024-04-19T14:43:28.676;599616206269824659;15481.597;-657
2024-04-19T14:43:28.684;599616206277511850;15489.284;-613
2024-04-19T14:43:28.691;599616206285199041;15496.972;-590
2024-04-19T14:43:28.699;599616206292886232;15504.658;-600
2024-04-19T14:43:28.707;599616206300573423;15512.346;-573
2024-04-19T14:43:28.715;599616206308260614;15520.033;-531
2024-04-19T14:43:28.722;599616206315947805;15527.72;-501
2024-04-19T14:43:28.730;599616206323634996;15535.407;-481
2024-04-19T14:43:28.738;599616206331322187;15543.095;-459
2024-04-19T14:43:28.745;599616206339009378;15550.781;-424
2024-04-19T14:43:28.753;599616206346696569;15558.469;-407
2024-04-19T14:43:28.761;599616206354383760;15566.156;-389
2024-04-19T14:43:28.768;599616206362070951;15573.843;-364
2024-04-19T14:43:28.776;599616206369758142;15581.53;-345
2024-04-19T14:43:28.784;599616206377445333;15589.217;-300
2024-04-19T14:43:28.791;599616206385132524;15596.904;-260
2024-04-19T14:43:28.799;599616206392819715;15604.592;-248
2024-04-19T14:43:28.807;599616206400506906;15612.278;-198
2024-04-19T14:43:28.814;599616206408194097;15619.967;-134
2024-04-19T14:43:28.822;599616206415881288;15627.654;-143
2024-04-19T14:43:28.830;599616206423568479;15635.342;-143
2024-04-19T14:43:28.838;599616206431255670;15643.028;-4
2024-04-19T14:43:28.845;599616206438942861;15650.716;168
2024-04-19T14:43:28.853;599616206446630052;15658.402;273
2024-04-19T14:43:28.861;599616206454317243;15666.09;248
2024-04-19T14:43:28.868;599616206462004434;15673.777;71
2024-04-19T14:43:28.876;599616206469691625;15681.464;-14
2024-04-19T14:43:28.884;599616206477378816;15689.151;109
2024-04-19T14:43:28.891;599616206485066007;15696.839;196
2024-04-19T14:43:28.899;599616206492753198;15704.525;193
2024-04-19T14:43:28.907;599616206500440430;15712.213;238
2024-04-19T14:43:28.914;599616206508127621;15719.9;268
2024-04-19T14:43:28.922;599616206515814812;15727.587;268
2024-04-19T14:43:28.930;599616206523502003;15735.274;300
2024-04-19T14:43:28.937;599616206531189194;15742.962;310
2024-04-19T14:43:28.945;599616206538876385;15750.648;287
2024-04-19T14:43:28.953;599616206546563576;15758.336;342
2024-04-19T14:43:28.961;599616206554250767;15766.023;426
2024-04-19T14:43:28.968;599616206561937958;15773.71;449
2024-04-19T14:43:28.976;599616206569625149;15781.397;484
2024-04-19T14:43:28.984;599616206577312340;15789.085;565
2024-04-19T14:43:28.991;599616206584999531;15796.771;610
2024-04-19T14:43:28.999;599616206592686722;15804.459;627
2024-04-19T14:43:29.007;599616206600373913;15812.146;670
2024-04-19T14:43:29.014;599616206608061104;15819.833;727
2024-04-19T14:43:29.022;599616206615748295;15827.5205;786
2024-04-19T14:43:29.030;599616206623435486;15835.208;831
2024-04-19T14:43:29.037;599616206631122677;15842.895;863
2024-04-19T14:43:29.045;599616206638809868;15850.582;910
2024-04-19T14:43:29.053;599616206646497059;15858.27;953
2024-04-19T14:43:29.060;599616206654184250;15865.956;972
2024-04-19T14:43:29.068;599616206661871441;15873.644;990
2024-04-19T14:43:29.076;599616206669558632;15881.331;1007
2024-04-19T14:43:29.084;599616206677245823;15889.018;1015
2024-04-19T14:43:29.091;599616206684933014;15896.705;1020
2024-04-19T14:43:29.099;599616206692620205;15904.393;1032
2024-04-19T14:43:29.107;599616206700307396;15912.079;1054
