Phone timestamp;sensor timestamp [ns];channel 0;channel 1;channel 2;ambient
2024-04-19T14:43:14.754;536731991150449495;158776;232576;120654;-172194;
2024-04-19T14:43:14.772;536731991168614702;159101;233625;120907;-172210;
2024-04-19T14:43:14.790;536731991186779909;159230;233646;120922;-172243;
2024-04-19T14:43:14.808;536731991204945116;159575;234589;121708;-172270;
2024-04-19T14:43:14.826;536731991223110323;160404;237145;123698;-172202;
2024-04-19T14:43:14.844;536731991241275530;161194;239231;125485;-172199;
2024-04-19T14:43:14.862;536731991259440737;162091;241032;127617;-172202;
2024-04-19T14:43:14.881;536731991277605944;162580;241708;129016;-172184;
2024-04-19T14:43:14.899;536731991295771151;162617;241724;129454;-172150;
2024-04-19T14:43:14.917;536731991313936358;162768;241593;129724;-172133;
2024-04-19T14:43:14.935;536731991332101565;162788;241660;129911;-172194;
2024-04-19T14:43:14.953;536731991350266772;162822;241906;130195;-172204;
2024-04-19T14:43:14.971;536731991368431979;163225;243297;131352;-172133;
2024-04-19T14:43:14.990;536731991386597186;163104;243070;131151;-172087;
2024-04-19T14:43:15.008;536731991404762393;162435;241676;130207;-172176;
2024-04-19T14:43:15.026;536731991422927600;161544;239373;128652;-172183;
2024-04-19T14:43:15.044;536731991441092807;160317;236270;126411;-172193;
2024-04-19T14:43:15.062;536731991459258014;159787;235092;125445;-172279;
2024-04-19T14:43:15.080;536731991477423221;159808;235178;125642;-172184;
2024-04-19T14:43:15.099;536731991495588428;160003;235761;126134;-172157;
2024-04-19T14:43:15.117;536731991513753635;160224;236883;126490;-172159;
2024-04-19T14:43:15.135;536731991531918842;160484;238011;126752;-172121;
2024-04-19T14:43:15.153;536731991550084049;160593;238645;126806;-172216;
2024-04-19T14:43:15.171;536731991568249256;160736;239021;126746;-172208;
2024-04-19T14:43:15.189;536731991586414463;160616;238844;126502;-172234;
2024-04-19T14:43:15.208;536731991604579670;160752;239040;126650;-172223;
2024-04-19T14:43:15.226;536731991622744877;160909;239585;127044;-172217;
2024-04-19T14:43:15.244;536731991640910084;160879;239708;127026;-172220;
2024-04-19T14:43:15.262;536731991659075319;160714;239241;126752;-172235;
2024-04-19T14:43:15.280;536731991677240526;160207;237797;125919;-172215;
2024-04-19T14:43:15.298;536731991695405733;159831;236436;125244;-172215;
2024-04-19T14:43:15.317;536731991713570940;159424;235320;124618;-172227;
2024-04-19T14:43:15.335;536731991731736147;159434;235219;124414;-172277;
2024-04-19T14:43:15.353;536731991749901354;159558;235705;124588;-172175;
2024-04-19T14:43:15.371;536731991768066561;159452;235709;124620;-172251;
2024-04-19T14:43:15.389;536731991786231768;159536;235999;125138;-172224;
2024-04-19T14:43:15.407;536731991804396975;159594;236396;125964;-172191;
2024-04-19T14:43:15.426;536731991822562182;159736;236919;126533;-172189;
2024-04-19T14:43:15.444;536731991840727389;160055;237980;127382;-172170;
2024-04-19T14:43:15.462;536731991858892596;160639;239733;128414;-172129;
2024-04-19T14:43:15.480;536731991877057803;161207;241487;129403;-172180;
2024-04-19T14:43:15.498;536731991895223010;161771;243107;130127;-172146;
2024-04-19T14:43:15.516;536731991913388217;162459;245079;131179;-172157;
2024-04-19T14:43:15.535;536731991931553424;163297;247318;132512;-172065;
2024-04-19T14:43:15.553;536731991949718631;163858;249033;133255;-172025;
2024-04-19T14:43:15.571;536731991967883838;164723;251800;134905;-172022;
2024-04-19T14:43:15.589;536731991986049045;165566;254263;136557;-171995;
2024-04-19T14:43:15.607;536731992004214252;166420;256588;138006;-171959;
2024-04-19T14:43:15.625;536731992022379459;166884;258566;139045;-171932;
2024-04-19T14:43:15.644;536731992040544666;167538;260880;140560;-171939;
2024-04-19T14:43:15.662;536731992058709873;168206;262919;142059;-171847;
2024-04-19T14:43:15.680;536731992076875080;168850;264458;143908;-171864;
2024-04-19T14:43:15.698;536731992095040287;170338;268371;147423;-171876;
2024-04-19T14:43:15.716;536731992113205494;172878;273462;151672;-171761;
2024-04-19T14:43:15.734;536731992131370701;175823;279234;156623;-171624;
2024-04-19T14:43:15.753;536731992149535908;178295;284449;160958;-171657;
2024-04-19T14:43:15.771;536731992167701115;180421;289533;164507;-171630;
2024-04-19T14:43:15.789;536731992185866796;182928;295700;168473;-171575;
2024-04-19T14:43:15.807;536731992204032459;185530;300628;171130;-171506;
2024-04-19T14:43:15.825;536731992222198122;187252;303909;172528;-171542;
2024-04-19T14:43:15.843;536731992240363785;189241;307084;174570;-171487;
2024-04-19T14:43:15.862;536731992258529448;190982;309470;176461;-171404;
2024-04-19T14:43:15.880;536731992276695111;193159;313233;178911;-171383;
2024-04-19T14:43:15.898;536731992294860774;194910;316767;180669;-171364;
2024-04-19T14:43:15.916;536731992313026437;195564;318082;180952;-171385;
2024-04-19T14:43:15.934;536731992331192100;196685;319812;181793;-171364;
2024-04-19T14:43:15.952;536731992349357763;197285;320341;182306;-171349;
2024-04-19T14:43:15.971;536731992367523426;197898;321372;183456;-171384;
2024-04-19T14:43:15.989;536731992385689089;197827;320849;183634;-171373;
2024-04-19T14:43:16.007;536731992403854752;197467;319268;183270;-171403;
2024-04-19T14:43:16.025;536731992422020415;198007;319580;184760;-171419;
2024-04-19T14:43:16.043;536731992440186078;198782;320062;186746;-171340;
2024-04-19T14:43:16.061;536731992458351741;198774;319638;187435;-171313;
2024-04-19T14:43:16.080;536731992476517404;197871;317729;186328;-171358;
2024-04-19T14:43:16.098;536731992494683067;197490;317154;185686;-171378;
2024-04-19T14:43:16.116;536731992512848730;197481;317526;185864;-171340;
2024-04-19T14:43:16.134;536731992531014393;197523;317848;186087;-171332;
2024-04-19T14:43:16.152;536731992549180056;197953;318793;186727;-171283;
2024-04-19T14:43:16.170;536731992567345719;199035;320844;188698;-171281;
2024-04-19T14:43:16.189;536731992585511382;200007;322792;190393;-171206;
2024-04-19T14:43:16.207;536731992603677045;200464;324030;191203;-171260;
2024-04-19T14:43:16.225;536731992621842708;200899;325613;192060;-171215;
2024-04-19T14:43:16.243;536731992640008371;202157;328282;193795;-171204;
2024-04-19T14:43:16.261;536731992658172696;202500;329431;194237;-171218;
2024-04-19T14:43:16.279;536731992676337009;203297;331748;195506;-171185;
2024-04-19T14:43:16.298;536731992694501322;203984;333384;196372;-171148;
2024-04-19T14:43:16.316;536731992712665635;205053;335654;197779;-171178;
2024-04-19T14:43:16.334;536731992730829948;205934;337292;198807;-171097;
2024-04-19T14:43:16.352;536731992748994261;206743;339000;199974;-171128;
2024-04-19T14:43:16.370;536731992767158574;207374;340118;200711;-171140;
2024-04-19T14:43:16.388;536731992785322887;207801;340917;200893;-171125;
2024-04-19T14:43:16.407;536731992803487200;208346;341967;201680;-171162;
2024-04-19T14:43:16.425;536731992821651513;208947;342717;202795;-171209;
2024-04-19T14:43:16.443;536731992839815826;209178;342609;203442;-171119;
2024-04-19T14:43:16.461;536731992857980139;209519;343147;204139;-171091;
2024-04-19T14:43:16.479;536731992876144452;209652;343210;204358;-171124;
2024-04-19T14:43:16.497;536731992894308765;209874;343478;204572;-171187;
2024-04-19T14:43:16.516;536731992912473078;209913;343465;204509;-171147;
2024-04-19T14:43:16.534;536731992930637391;209951;343583;204517;-171128;
2024-04-19T14:43:16.552;536731992948801704;210368;344356;205354;-171140;
2024-04-19T14:43:16.570;536731992966966017;210238;344327;205415;-171119;
2024-04-19T14:43:16.588;536731992985130330;210444;344720;205938;-171118;
2024-04-19T14:43:16.606;536731993003294643;210058;344184;205685;-171125;
2024-04-19T14:43:16.625;536731993021458956;209103;342978;204506;-171156;
2024-04-19T14:43:16.643;536731993039623269;207867;341708;202608;-171158;
2024-04-19T14:43:16.661;536731993057787582;206542;340171;200403;-171201;
2024-04-19T14:43:16.679;536731993075951895;205006;337787;197962;-171228;
2024-04-19T14:43:16.697;536731993094116208;203735;335589;195895;-171178;
2024-04-19T14:43:16.715;536731993112280521;202168;333169;193640;-171253;
2024-04-19T14:43:16.733;536731993130445736;201428;332158;192848;-171243;
2024-04-19T14:43:16.752;536731993148610929;200906;331356;192334;-171234;
2024-04-19T14:43:16.770;536731993166776122;199402;328523;190630;-171240;
2024-04-19T14:43:16.788;536731993184941315;197194;324802;188041;-171332;
2024-04-19T14:43:16.806;536731993203106508;194915;321511;184909;-171240;
2024-04-19T14:43:16.824;536731993221271701;191868;317284;181109;-171325;
2024-04-19T14:43:16.842;536731993239436894;190133;315341;178792;-171272;
2024-04-19T14:43:16.861;536731993257602087;188474;313075;176642;-171319;
2024-04-19T14:43:16.879;536731993275767280;187370;311496;175131;-171286;
2024-04-19T14:43:16.897;536731993293932473;186949;311589;174400;-171285;
2024-04-19T14:43:16.915;536731993312097666;187845;314414;174987;-171233;
2024-04-19T14:43:16.933;536731993330262859;187741;314990;174239;-171251;
2024-04-19T14:43:16.951;536731993348428052;185935;312217;171206;-171231;
2024-04-19T14:43:16.970;536731993366593245;184527;310081;169072;-171233;
2024-04-19T14:43:16.988;536731993384758438;187257;316035;172341;-171231;
2024-04-19T14:43:17.006;536731993402923631;189467;320949;174884;-171112;
2024-04-19T14:43:17.024;536731993421088824;187592;317089;171635;-171239;
2024-04-19T14:43:17.042;536731993439254017;185344;312578;168531;-171188;
2024-04-19T14:43:17.060;536731993457419210;182330;306641;165034;-171163;
2024-04-19T14:43:17.079;536731993475584403;177398;296092;160152;-171211;
2024-04-19T14:43:17.097;536731993493749596;171563;282692;153003;-171271;
2024-04-19T14:43:17.115;536731993511914789;168901;277368;150265;-171294;
2024-04-19T14:43:17.133;536731993530079982;165997;271455;146342;-171339;
2024-04-19T14:43:17.151;536731993548245175;162520;262970;139720;-171342;
2024-04-19T14:43:17.169;536731993566410368;160455;257655;134986;-171442;
2024-04-19T14:43:17.188;536731993584575561;159238;254675;132443;-171528;
2024-04-19T14:43:17.206;536731993602741420;156990;248683;128797;-171555;
2024-04-19T14:43:17.224;536731993620907259;154748;242341;125297;-171569;
2024-04-19T14:43:17.242;536731993639073098;153123;237629;122829;-171570;
2024-04-19T14:43:17.260;536731993657238937;151934;233646;122327;-171568;
2024-04-19T14:43:17.278;536731993675404776;150463;228550;121770;-171612;
2024-04-19T14:43:17.297;536731993693570615;148844;222815;119834;-171694;
2024-04-19T14:43:17.315;536731993711736454;144464;208556;111259;-171785;
2024-04-19T14:43:17.333;536731993729902293;139404;188705;99608;-172096;
2024-04-19T14:43:17.351;536731993748068132;139872;191529;101255;-172067;
2024-04-19T14:43:17.369;536731993766233971;141282;198453;105696;-171903;
2024-04-19T14:43:17.387;536731993784399810;140825;196553;103989;-171934;
2024-04-19T14:43:17.406;536731993802565649;141425;198994;105063;-171885;
2024-04-19T14:43:17.424;536731993820731488;142188;202529;106647;-171859;
2024-04-19T14:43:17.442;536731993838897327;142725;204754;107318;-171777;
2024-04-19T14:43:17.460;536731993857063166;141272;198697;103878;-171869;
2024-04-19T14:43:17.478;536731993875229005;140565;195787;102616;-171901;
2024-04-19T14:43:17.496;536731993893394844;142063;201766;106426;-171828;
2024-04-19T14:43:17.515;536731993911560683;144641;210641;112075;-171622;
2024-04-19T14:43:17.533;536731993929726522;144939;212364;112640;-171608;
2024-04-19T14:43:17.551;536731993947892361;142919;205159;107190;-171745;
2024-04-19T14:43:17.569;536731993966058200;136267;179209;93817;-172217;
2024-04-19T14:43:17.587;536731993984224039;133232;166008;87569;-172413;
2024-04-19T14:43:17.605;536731994002389878;131453;159454;84811;-172515;
2024-04-19T14:43:17.624;536731994020555717;130255;153935;83247;-172699;
2024-04-19T14:43:17.642;536731994038721556;129550;150395;82350;-172872;
2024-04-19T14:43:17.660;536731994056887272;129778;149775;81853;-173063;
2024-04-19T14:43:17.678;536731994075052972;130778;150777;81814;-173213;
2024-04-19T14:43:17.696;536731994093218672;131963;152034;82144;-173280;
2024-04-19T14:43:17.714;536731994111384372;133326;153168;82552;-173344;
2024-04-19T14:43:17.733;536731994129550072;135127;154526;82813;-173396;
2024-04-19T14:43:17.751;536731994147715772;136816;155831;82833;-173475;
2024-04-19T14:43:17.769;536731994165881472;138625;157046;82962;-173395;
2024-04-19T14:43:17.787;536731994184047172;139954;157958;83419;-173415;
2024-04-19T14:43:17.805;536731994202212872;141845;159210;84246;-173424;
2024-04-19T14:43:17.823;536731994220378572;143854;160807;85458;-173464;
2024-04-19T14:43:17.842;536731994238544272;145597;162217;87043;-173454;
2024-04-19T14:43:17.860;536731994256709972;147631;164296;89180;-173467;
2024-04-19T14:43:17.878;536731994274875672;150366;167104;91409;-173394;
2024-04-19T14:43:17.896;536731994293041372;153184;169954;92966;-173545;
2024-04-19T14:43:17.914;536731994311207072;156791;173365;94090;-173543;
2024-04-19T14:43:17.932;536731994329372772;163374;179280;93585;-173495;
2024-04-19T14:43:17.951;536731994347538472;202989;221676;95243;-173303;
2024-04-19T14:43:17.969;536731994365704172;787132;927941;764851;-165221;
2024-04-19T14:43:17.987;536731994383869872;1068645;1158939;1398188;-142881;
2024-04-19T14:43:18.005;536731994402035572;885285;1010648;1241445;-120762;
2024-04-19T14:43:18.023;536731994420201272;460101;522531;576332;-151904;
2024-04-19T14:43:18.041;536731994438366972;291346;333648;314837;-163660;
2024-04-19T14:43:18.060;536731994456531563;226308;263513;214651;-168564;
2024-04-19T14:43:18.078;536731994474696154;203346;239653;178669;-170428;
2024-04-19T14:43:18.096;536731994492860745;197329;232571;169523;-171082;
2024-04-19T14:43:18.114;536731994511025336;196741;231734;170752;-171354;
2024-04-19T14:43:18.132;536731994529189927;197578;232428;174233;-171372;
2024-04-19T14:43:18.150;536731994547354518;198815;233483;178270;-171470;
2024-04-19T14:43:18.169;536731994565519109;200124;234340;183065;-171549;
2024-04-19T14:43:18.187;536731994583683700;200603;235157;190163;-171730;
2024-04-19T14:43:18.205;536731994601848291;199195;235978;196697;-172001;
2024-04-19T14:43:18.223;536731994620012882;197469;237538;200138;-172228;
2024-04-19T14:43:18.241;536731994638177473;196692;240184;201778;-172383;
2024-04-19T14:43:18.259;536731994656342064;197098;242834;203407;-172457;
2024-04-19T14:43:18.278;536731994674506655;198621;245243;205264;-172521;
2024-04-19T14:43:18.296;536731994692671246;200648;247574;207292;-172546;
2024-04-19T14:43:18.314;536731994710835837;203101;250216;209771;-172514;
2024-04-19T14:43:18.332;536731994729000428;205815;252923;212501;-172484;
2024-04-19T14:43:18.350;536731994747165019;208689;255588;215439;-172501;
2024-04-19T14:43:18.368;536731994765329610;211653;258123;218564;-172456;
2024-04-19T14:43:18.387;536731994783494201;214701;260559;221892;-172345;
2024-04-19T14:43:18.405;536731994801658792;217889;262774;225383;-172302;
2024-04-19T14:43:18.423;536731994819823383;221117;264889;228751;-172129;
2024-04-19T14:43:18.441;536731994837987974;224196;266684;231710;-171979;
2024-04-19T14:43:18.459;536731994856153823;227026;268281;234221;-171774;
2024-04-19T14:43:18.477;536731994874319662;229541;269676;236231;-171486;
2024-04-19T14:43:18.496;536731994892485501;231433;271057;237815;-171167;
2024-04-19T14:43:18.514;536731994910651340;233060;272386;239068;-170807;
2024-04-19T14:43:18.532;536731994928817179;234358;273635;240405;-170368;
2024-04-19T14:43:18.550;536731994946983018;234951;274155;242004;-169533;
2024-04-19T14:43:18.568;536731994965148857;235125;274270;242949;-168888;
2024-04-19T14:43:18.586;536731994983314696;235136;274949;243704;-168295;
2024-04-19T14:43:18.605;536731995001480535;234933;275382;243962;-167920;
2024-04-19T14:43:18.623;536731995019646374;234833;275741;244511;-167515;
2024-04-19T14:43:18.641;536731995037812213;234536;275980;245051;-167210;
2024-04-19T14:43:18.659;536731995055978052;234423;276362;245548;-166928;
2024-04-19T14:43:18.677;536731995074143891;234991;277652;246053;-166557;
2024-04-19T14:43:18.695;536731995092309730;240943;286109;247646;-164828;
2024-04-19T14:43:18.714;536731995110475569;275393;331015;262485;-158982;
2024-04-19T14:43:18.732;536731995128641408;316812;378948;280896;-154837;
2024-04-19T14:43:18.750;536731995146807247;314751;370670;272545;-157211;
2024-04-19T14:43:18.768;536731995164973086;289527;325443;253548;-162456;
2024-04-19T14:43:18.786;536731995183138925;269181;293478;240979;-166286;
2024-04-19T14:43:18.804;536731995201304764;259879;277889;234852;-168450;
2024-04-19T14:43:18.823;536731995219470603;256491;273109;233429;-169634;
2024-04-19T14:43:18.841;536731995237636442;256109;273612;235310;-170340;
2024-04-19T14:43:18.859;536731995255802281;257192;275937;238457;-170657;
2024-04-19T14:43:18.877;536731995273968130;259579;277924;242918;-170888;
2024-04-19T14:43:18.895;536731995292133969;262043;278486;246967;-171180;
2024-04-19T14:43:18.913;536731995310299808;261037;278095;249857;-171441;
2024-04-19T14:43:18.932;536731995328465647;258445;273941;249829;-171790;
2024-04-19T14:43:18.950;536731995346631486;256895;266036;250686;-172229;
2024-04-19T14:43:18.968;536731995364797325;254278;251863;252394;-172579;
2024-04-19T14:43:18.986;536731995382963164;262185;238181;248272;-172905;
2024-04-19T14:43:19.004;536731995401129003;282551;221228;226573;-173187;
2024-04-19T14:43:19.022;536731995419294842;289843;223075;227073;-173405;
2024-04-19T14:43:19.041;536731995437460681;306136;223879;219972;-173439;
2024-04-19T14:43:19.059;536731995455626520;306444;205764;200379;-173365;
2024-04-19T14:43:19.077;536731995473792359;308606;190503;182094;-173166;
2024-04-19T14:43:19.095;536731995491958198;294422;183300;160971;-173124;
2024-04-19T14:43:19.113;536731995510124037;295301;189991;152260;-173045;
2024-04-19T14:43:19.131;536731995528289876;297151;197375;147872;-172924;
2024-04-19T14:43:19.150;536731995546455715;296558;198669;145982;-172887;
2024-04-19T14:43:19.168;536731995564621554;287765;194715;140095;-172965;
2024-04-19T14:43:19.186;536731995582787393;281061;191597;134767;-173044;
2024-04-19T14:43:19.204;536731995600953232;276296;185390;139955;-172909;
2024-04-19T14:43:19.222;536731995619119071;334534;253216;217813;-171473;
2024-04-19T14:43:19.240;536731995637284910;605892;557422;493374;-167536;
2024-04-19T14:43:19.259;536731995655450749;1011882;952602;869272;-163394;
2024-04-19T14:43:19.277;536731995673616588;1490990;1374274;1347586;-156124;
2024-04-19T14:43:19.295;536731995691781631;2096921;1940267;2057850;-139571;
2024-04-19T14:43:19.313;536731995709946671;2096921;2096921;2096921;-107453;
2024-04-19T14:43:19.331;536731995728111711;2096921;2096921;2096921;-70483;
2024-04-19T14:43:19.349;536731995746276751;2096921;2096921;2096921;-27436;
2024-04-19T14:43:19.367;536731995764441791;2096921;2096921;2096921;9295;
2024-04-19T14:43:19.386;536731995782606831;2096921;2096921;2096921;39057;
2024-04-19T14:43:19.404;536731995800771871;2080917;2096921;2096921;61755;
2024-04-19T14:43:19.422;536731995818936911;1771770;1910590;1835397;75574;
2024-04-19T14:43:19.440;536731995837101951;1596181;1723377;1641500;70686;
2024-04-19T14:43:19.458;536731995855266991;1894300;2053804;1929812;40207;
2024-04-19T14:43:19.476;536731995873432031;2096921;2096921;2096921;-22404;
2024-04-19T14:43:19.495;536731995891597071;2096921;2096921;2096921;-79123;
2024-04-19T14:43:19.513;536731995909762111;2096921;2096921;2096921;-113634;
2024-04-19T14:43:19.531;536731995927927151;2096921;2096921;2096921;-110911;
2024-04-19T14:43:19.549;536731995946092191;2096921;2096921;2096921;-85033;
2024-04-19T14:43:19.567;536731995964257231;2096921;2096921;2096921;-71838;
2024-04-19T14:43:19.585;536731995982422271;2096921;2096921;2096921;-86395;
2024-04-19T14:43:19.604;536731996000587311;2096921;2050357;2096921;-102959;
2024-04-19T14:43:19.622;536731996018752351;2096921;2096921;2096921;-98702;
2024-04-19T14:43:19.640;536731996036917391;2096921;2096921;2096921;-77215;
2024-04-19T14:43:19.658;536731996055082431;2096921;2096921;2096921;-59130;
2024-04-19T14:43:19.676;536731996073248368;2096921;2096921;2096921;-59297;
2024-04-19T14:43:19.694;536731996091414287;2096921;2096921;2096921;-74355;
2024-04-19T14:43:19.713;536731996109580206;2096921;1987017;2096921;-91035;
2024-04-19T14:43:19.731;536731996127746125;2096921;1910246;2096921;-100326;
2024-04-19T14:43:19.749;536731996145912044;2096921;1969568;2096921;-101429;
2024-04-19T14:43:19.767;536731996164077963;2096921;2046158;2096921;-100571;
2024-04-19T14:43:19.785;536731996182243882;2096921;2090023;2096921;-100257;
2024-04-19T14:43:19.803;536731996200409801;2096921;2096921;2096921;-99772;
2024-04-19T14:43:19.822;536731996218575720;2096921;2096921;2096921;-98944;
2024-04-19T14:43:19.840;536731996236741639;1934839;1624725;1817982;-676091;
2024-04-19T14:43:19.858;536731996254907558;1720868;1398817;1596489;-906180;
2024-04-19T14:43:19.876;536731996273073477;1617963;1266459;1484613;-999852;
2024-04-19T14:43:19.894;536731996291239396;1582011;1233637;1467570;-1041680;
2024-04-19T14:43:19.912;536731996309405315;1617400;1373949;1568634;-1068960;
2024-04-19T14:43:19.931;536731996327571234;1619885;1501625;1644995;-1086235;
2024-04-19T14:43:19.949;536731996345737153;1508060;1445598;1655458;-1093244;
2024-04-19T14:43:19.967;536731996363903072;1080644;962961;1317520;-1098966;
2024-04-19T14:43:19.985;536731996382068991;487693;438475;623276;-1108164;
2024-04-19T14:43:20.003;536731996400234910;557627;434517;815871;-1106069;
2024-04-19T14:43:20.021;536731996418401563;1128259;965001;1368862;-1092973;
2024-04-19T14:43:20.040;536731996436568205;1464816;1364497;1566462;-1079249;
2024-04-19T14:43:20.058;536731996454734847;1601863;1564491;1616113;-1067625;
2024-04-19T14:43:20.076;536731996472901489;1652495;1670056;1615297;-1061853;
2024-04-19T14:43:20.094;536731996491068131;1725812;1725874;1701808;-1062512;
2024-04-19T14:43:20.112;536731996509234773;1526594;1417002;1549544;-1080295;
2024-04-19T14:43:20.130;536731996527401415;189192;208966;183416;-1108293;
2024-04-19T14:43:20.149;536731996545568057;-258331;-141737;-284707;-1116370;
2024-04-19T14:43:20.167;536731996563734699;-519705;-449068;-592825;-1122454;
2024-04-19T14:43:20.185;536731996581901341;-637121;-606149;-735716;-1125459;
2024-04-19T14:43:20.203;536731996600067983;-690932;-684662;-798451;-1126820;
2024-04-19T14:43:20.221;536731996618234625;-716430;-734980;-827212;-1128049;
2024-04-19T14:43:20.239;536731996636401267;-726536;-757814;-836349;-1128796;
2024-04-19T14:43:20.258;536731996654567909;-728176;-766516;-837210;-1129197;
2024-04-19T14:43:20.276;536731996672734551;-725497;-768674;-834843;-1129390;
2024-04-19T14:43:20.294;536731996690901193;-720410;-767756;-831385;-1129482;
2024-04-19T14:43:20.312;536731996709067835;-714122;-764687;-827593;-1129525;
2024-04-19T14:43:20.330;536731996727234477;-706830;-759868;-823819;-1129434;
2024-04-19T14:43:20.348;536731996745401119;-699739;-754163;-819982;-1129377;
2024-04-19T14:43:20.367;536731996763566968;-693061;-748659;-816232;-1129274;
2024-04-19T14:43:20.385;536731996781732807;-687732;-743791;-813225;-1129310;
2024-04-19T14:43:20.403;536731996799898646;-683429;-739790;-810397;-1129310;
2024-04-19T14:43:20.421;536731996818064485;-679774;-736337;-807863;-1129330;
2024-04-19T14:43:20.439;536731996836230324;-676475;-733454;-805467;-1129248;
2024-04-19T14:43:20.457;536731996854396163;-674150;-731512;-803339;-1129250;
2024-04-19T14:43:20.476;536731996872562002;-673097;-730791;-801693;-1129281;
2024-04-19T14:43:20.494;536731996890727841;-672348;-730390;-800781;-1129341;
2024-04-19T14:43:20.512;536731996908893680;-671532;-729740;-800325;-1129424;
2024-04-19T14:43:20.530;536731996927059519;-670157;-728497;-799973;-1129515;
2024-04-19T14:43:20.548;536731996945225358;-668291;-726419;-798837;-1129404;
2024-04-19T14:43:20.566;536731996963391197;-466336;-506205;-557808;-789899;
2024-04-19T14:43:20.585;536731996981557036;-385843;-418723;-461859;-655010;
2024-04-19T14:43:20.603;536731996999722875;-353629;-383641;-423464;-601459;
2024-04-19T14:43:20.621;536731997017888714;-340360;-369304;-407762;-580218;
2024-04-19T14:43:20.639;536731997036054553;-334660;-363218;-401167;-571796;
2024-04-19T14:43:20.657;536731997054220392;-331895;-360366;-398310;-568377;
2024-04-19T14:43:20.675;536731997072386231;-330478;-358992;-397252;-567043;
2024-04-19T14:43:20.694;536731997090552070;-329481;-358262;-396964;-566506;
2024-04-19T14:43:20.712;536731997108717909;-328886;-357896;-397091;-566278;
2024-04-19T14:43:20.730;536731997126883748;-328508;-357532;-397321;-566165;
2024-04-19T14:43:20.748;536731997145049587;-328225;-357044;-397422;-566156;
2024-04-19T14:43:20.766;536731997163215426;-327850;-356516;-397449;-566131;
2024-04-19T14:43:20.784;536731997181380250;-327413;-356041;-397431;-566156;
2024-04-19T14:43:20.803;536731997199545072;-326842;-355435;-397028;-566200;
2024-04-19T14:43:20.821;536731997217709894;-325953;-354732;-396192;-566139;
2024-04-19T14:43:20.839;536731997235874716;-324801;-353900;-395076;-566132;
2024-04-19T14:43:20.857;536731997254039538;-323674;-353084;-393925;-566201;
2024-04-19T14:43:20.875;536731997272204360;-322476;-352198;-392818;-566121;
2024-04-19T14:43:20.893;536731997290369182;-320973;-351020;-391795;-566108;
2024-04-19T14:43:20.912;536731997308534004;-319424;-349740;-390984;-566119;
2024-04-19T14:43:20.930;536731997326698826;-318052;-348509;-390245;-566130;
2024-04-19T14:43:20.948;536731997344863648;-316584;-347260;-389672;-566096;
2024-04-19T14:43:20.966;536731997363028470;-315243;-346025;-389053;-566092;
2024-04-19T14:43:20.984;536731997381193292;-314025;-344884;-388499;-566062;
2024-04-19T14:43:21.002;536731997399358114;-312944;-343843;-387955;-566092;
2024-04-19T14:43:21.021;536731997417522936;-311970;-342860;-387532;-566074;
2024-04-19T14:43:21.039;536731997435687758;135893;106313;60244;-119433;
2024-04-19T14:43:21.057;536731997453852580;313165;283442;237112;57144;
2024-04-19T14:43:21.075;536731997472017402;383423;353595;307361;127249;
2024-04-19T14:43:21.093;536731997490182224;411422;381337;335414;155112;
2024-04-19T14:43:21.111;536731997508347046;422743;392539;346740;166227;
2024-04-19T14:43:21.130;536731997526511868;427660;397200;351514;170626;
2024-04-19T14:43:21.148;536731997544676690;429994;399492;353801;172369;
2024-04-19T14:43:21.166;536731997562841512;431660;401074;355205;173044;
2024-04-19T14:43:21.184;536731997581006334;433278;402585;356356;173352;
2024-04-19T14:43:21.202;536731997599171156;435137;404120;357469;173523;
2024-04-19T14:43:21.220;536731997617338569;436454;405023;358171;173568;
2024-04-19T14:43:21.239;536731997635505978;437138;405255;358429;173543;
2024-04-19T14:43:21.257;536731997653673387;437473;405491;359087;173565;
2024-04-19T14:43:21.275;536731997671840796;437542;405787;359700;173518;
2024-04-19T14:43:21.293;536731997690008205;437738;406263;360333;173518;
2024-04-19T14:43:21.311;536731997708175614;438127;406722;360997;173498;
2024-04-19T14:43:21.329;536731997726343023;438017;406301;361096;173572;
2024-04-19T14:43:21.348;536731997744510432;438012;406011;361431;173505;
2024-04-19T14:43:21.366;536731997762677841;438345;406370;362096;173472;
2024-04-19T14:43:21.384;536731997780845250;438887;407011;362967;173508;
2024-04-19T14:43:21.402;536731997799012659;439558;407772;363612;173485;
2024-04-19T14:43:21.420;536731997817180068;440213;408564;364088;173469;
2024-04-19T14:43:21.438;536731997835347477;440910;409392;364543;173416;
2024-04-19T14:43:21.457;536731997853514886;441341;409973;364989;173412;
2024-04-19T14:43:21.475;536731997871682295;441564;410334;365308;173484;
2024-04-19T14:43:21.493;536731997889849704;441563;410307;365297;173443;
2024-04-19T14:43:21.511;536731997908017113;440705;409622;364922;173418;
2024-04-19T14:43:21.529;536731997926184522;439262;408614;364457;173425;
2024-04-19T14:43:21.547;536731997944351931;437914;407836;364060;173443;
2024-04-19T14:43:21.566;536731997962519340;437033;407341;363836;173349;
2024-04-19T14:43:21.584;536731997980686749;436616;407360;363853;173377;
2024-04-19T14:43:21.602;536731997998854158;436350;407439;363860;173299;
2024-04-19T14:43:21.620;536731998017021567;436301;407695;363887;173364;
2024-04-19T14:43:21.638;536731998035188976;436456;407984;363850;173301;
2024-04-19T14:43:21.656;536731998053356385;436618;408380;363867;173297;
2024-04-19T14:43:21.675;536731998071523794;436922;408788;363984;173316;
2024-04-19T14:43:21.693;536731998089691203;437177;409163;364102;173348;
2024-04-19T14:43:21.711;536731998107858612;437393;409475;364238;173287;
2024-04-19T14:43:21.729;536731998126026021;437642;409796;364528;173335;
2024-04-19T14:43:21.747;536731998144193430;437829;410032;364654;173338;
2024-04-19T14:43:21.765;536731998162360839;438047;410333;365002;173283;
2024-04-19T14:43:21.784;536731998180528248;438280;410712;365480;173306;
2024-04-19T14:43:21.802;536731998198695657;438534;411125;366104;173344;
2024-04-19T14:43:21.820;536731998216863066;438750;411390;366628;173362;
2024-04-19T14:43:21.838;536731998235030475;439277;411685;367377;173394;
2024-04-19T14:43:21.856;536731998253195504;439899;412122;367942;173390;
2024-04-19T14:43:21.874;536731998271360533;440520;412525;368455;173457;
2024-04-19T14:43:21.893;536731998289525562;441042;412852;368944;173467;
2024-04-19T14:43:21.911;536731998307690591;441355;413146;369298;173457;
2024-04-19T14:43:21.929;536731998325855620;441646;413407;369704;173466;
2024-04-19T14:43:21.947;536731998344020649;441838;413660;370019;173458;
2024-04-19T14:43:21.965;536731998362185678;442167;413889;370332;173494;
2024-04-19T14:43:21.983;536731998380350707;441970;414013;370456;173459;
2024-04-19T14:43:22.002;536731998398515736;441587;413864;370208;173483;
2024-04-19T14:43:22.020;536731998416680765;441227;413701;369652;173457;
2024-04-19T14:43:22.038;536731998434845794;441127;413308;368737;173478;
2024-04-19T14:43:22.056;536731998453010823;440934;412662;367821;173441;
2024-04-19T14:43:22.074;536731998471175852;440593;412223;367156;173460;
2024-04-19T14:43:22.092;536731998489340881;440069;411738;366472;173406;
2024-04-19T14:43:22.111;536731998507505910;439342;411219;365845;173370;
2024-04-19T14:43:22.129;536731998525670939;438826;411080;365430;173413;
2024-04-19T14:43:22.147;536731998543835968;438723;411059;365227;173408;
2024-04-19T14:43:22.165;536731998562000997;438987;411297;365432;173373;
2024-04-19T14:43:22.183;536731998580166026;439158;411562;365592;173364;
2024-04-19T14:43:22.201;536731998598331055;439509;411845;365828;173393;
2024-04-19T14:43:22.220;536731998616496084;439846;412151;366144;173324;
2024-04-19T14:43:22.238;536731998634661113;440125;412413;366418;173344;
2024-04-19T14:43:22.256;536731998652826142;440504;412781;366776;173367;
2024-04-19T14:43:22.274;536731998670991171;441040;413130;367237;173350;
2024-04-19T14:43:22.292;536731998689156200;441430;413462;367653;173334;
2024-04-19T14:43:22.310;536731998707321229;441854;413689;368116;173327;
2024-04-19T14:43:22.329;536731998725486258;442209;413906;368509;173330;
2024-04-19T14:43:22.347;536731998743651287;442415;414079;368846;173332;
2024-04-19T14:43:22.365;536731998761816316;442673;414255;369133;173359;
2024-04-19T14:43:22.383;536731998779981345;442905;414367;369407;173303;
2024-04-19T14:43:22.401;536731998798146374;443223;414601;369695;173292;
2024-04-19T14:43:22.419;536731998816311403;443562;414798;369930;173307;
2024-04-19T14:43:22.438;536731998834477882;443865;415026;370168;173363;
2024-04-19T14:43:22.456;536731998852644357;444230;415290;370475;173311;
2024-04-19T14:43:22.474;536731998870810832;444656;415616;370816;173330;
2024-04-19T14:43:22.492;536731998888977307;444981;415899;371120;173329;
2024-04-19T14:43:22.510;536731998907143782;445434;416169;371465;173368;
2024-04-19T14:43:22.528;536731998925310257;715262;668624;596760;278705;
2024-04-19T14:43:22.547;536731998943476732;822557;768584;686059;320426;
2024-04-19T14:43:22.565;536731998961643207;865414;808131;721749;337018;
2024-04-19T14:43:22.583;536731998979809682;882417;823736;735982;343564;
2024-04-19T14:43:22.601;536731998997976157;889041;829847;741803;346168;
2024-04-19T14:43:22.619;536731999016142632;891578;832294;744219;347172;
2024-04-19T14:43:22.637;536731999034309107;892534;833311;745260;347564;
2024-04-19T14:43:22.656;536731999052475582;892957;833812;745784;347779;
2024-04-19T14:43:22.674;536731999070642057;893179;834087;746088;347791;
2024-04-19T14:43:22.692;536731999088808532;893383;834390;746459;347862;
2024-04-19T14:43:22.710;536731999106975007;893453;834659;746856;347844;
2024-04-19T14:43:22.728;536731999125141482;893654;834878;747273;347823;
2024-04-19T14:43:22.746;536731999143307957;893998;835279;747782;347879;
2024-04-19T14:43:22.765;536731999161474432;894389;835588;748353;347899;
2024-04-19T14:43:22.783;536731999179640907;894812;836018;748853;347894;
2024-04-19T14:43:22.801;536731999197807382;895378;836596;749515;347958;
2024-04-19T14:43:22.819;536731999215973857;896046;837124;750136;347884;
2024-04-19T14:43:22.837;536731999234140332;896629;837581;750606;347884;
2024-04-19T14:43:22.855;536731999252306807;897194;838094;751171;347960;
2024-04-19T14:43:22.874;536731999270472884;897663;838445;751745;347905;
2024-04-19T14:43:22.892;536731999288638941;898247;838934;752222;347911;
2024-04-19T14:43:22.910;536731999306804998;898785;839374;752662;347927;
2024-04-19T14:43:22.928;536731999324971055;899362;839912;753031;347957;
2024-04-19T14:43:22.946;536731999343137112;899936;840477;753503;347918;
2024-04-19T14:43:22.964;536731999361303169;900436;841049;753897;347894;
2024-04-19T14:43:22.983;536731999379469226;901034;841653;754300;347927;
2024-04-19T14:43:23.001;536731999397635283;901544;842134;754747;347899;
2024-04-19T14:43:23.019;536731999415801340;901867;842512;755135;347944;
2024-04-19T14:43:23.037;536731999433967397;902207;842940;755654;347942;
2024-04-19T14:43:23.055;536731999452133454;902525;843336;756183;347968;
2024-04-19T14:43:23.073;536731999470299511;902672;843668;756662;347890;
2024-04-19T14:43:23.092;536731999488465568;902935;844122;757237;347938;
2024-04-19T14:43:23.110;536731999506631625;903027;844360;757656;347866;
2024-04-19T14:43:23.128;536731999524797682;902962;844629;758025;347910;
2024-04-19T14:43:23.146;536731999542963739;902890;844721;758426;347945;
2024-04-19T14:43:23.164;536731999561129796;902612;844758;758958;347966;
2024-04-19T14:43:23.182;536731999579295853;902290;844762;759362;347961;
2024-04-19T14:43:23.201;536731999597461910;901898;844827;759581;347922;
2024-04-19T14:43:23.219;536731999615627967;901637;844923;759931;347956;
2024-04-19T14:43:23.237;536731999633794024;901664;845106;760383;347897;
2024-04-19T14:43:23.255;536731999651960081;901909;845396;760863;347885;
2024-04-19T14:43:23.273;536731999670126138;902098;845658;761409;347959;
2024-04-19T14:43:23.291;536731999688292195;902252;845878;762002;347854;
2024-04-19T14:43:23.310;536731999706458252;902557;846223;762549;347896;
2024-04-19T14:43:23.328;536731999724624309;902865;846488;763010;347928;
2024-04-19T14:43:23.346;536731999742790366;903250;846950;763498;347855;
2024-04-19T14:43:23.364;536731999760956423;903392;847269;763930;347891;
2024-04-19T14:43:23.382;536731999779122480;903460;847656;764271;347949;
2024-04-19T14:43:23.400;536731999797288537;903600;848053;764490;347911;
2024-04-19T14:43:23.419;536731999815454594;903800;848403;764778;347829;
2024-04-19T14:43:23.437;536731999833620651;904304;848855;765262;347878;
2024-04-19T14:43:23.455;536731999851786708;904706;849365;765767;347858;
2024-04-19T14:43:23.473;536731999869952765;905166;849805;766330;347905;
2024-04-19T14:43:23.491;536731999888118822;905552;850262;766915;347837;
2024-04-19T14:43:23.509;536731999906283147;905971;850766;767429;347787;
2024-04-19T14:43:23.527;536731999924447460;906483;851246;768076;347825;
2024-04-19T14:43:23.546;536731999942611773;906944;851818;768631;347803;
2024-04-19T14:43:23.564;536731999960776086;907513;852453;769168;347744;
2024-04-19T14:43:23.582;536731999978940399;908132;852992;769803;347829;
2024-04-19T14:43:23.600;536731999997104712;908777;853583;770320;347775;
2024-04-19T14:43:23.618;536732000015269025;909279;854173;770966;347727;
2024-04-19T14:43:23.636;536732000033433338;909782;854679;771571;347765;
2024-04-19T14:43:23.655;536732000051597651;910336;855168;772206;347776;
2024-04-19T14:43:23.673;536732000069761964;910716;855624;772750;347705;
2024-04-19T14:43:23.691;536732000087926277;911270;856227;773462;347721;
2024-04-19T14:43:23.709;536732000106090590;911780;856676;774075;347667;
2024-04-19T14:43:23.727;536732000124254903;912342;857241;774815;347717;
2024-04-19T14:43:23.745;536732000142419216;912771;857766;775493;347726;
2024-04-19T14:43:23.764;536732000160583529;913168;858155;776124;347763;
2024-04-19T14:43:23.782;536732000178747842;913492;858594;776686;347694;
2024-04-19T14:43:23.800;536732000196912155;913797;859007;777278;347742;
2024-04-19T14:43:23.818;536732000215076468;914152;859348;777695;347734;
2024-04-19T14:43:23.836;536732000233240781;914649;859826;778070;347809;
2024-04-19T14:43:23.854;536732000251405094;915067;860217;778340;347825;
2024-04-19T14:43:23.873;536732000269569407;915396;860525;778501;347777;
2024-04-19T14:43:23.891;536732000287733720;915887;860857;778784;347820;
2024-04-19T14:43:23.909;536732000305898033;916339;861004;778903;347822;
2024-04-19T14:43:23.927;536732000324062346;916798;861343;778995;347922;
2024-04-19T14:43:23.945;536732000342226659;917287;861441;778977;347975;
2024-04-19T14:43:23.963;536732000360390972;917792;861468;778907;348006;
2024-04-19T14:43:23.982;536732000378555285;918293;861384;778859;347998;
2024-04-19T14:43:24.000;536732000396719598;918775;861410;778948;348042;
2024-04-19T14:43:24.018;536732000414883911;919233;861330;779050;348057;
2024-04-19T14:43:24.036;536732000433048224;919570;861312;779181;348059;
2024-04-19T14:43:24.054;536732000451212537;919813;861341;779352;348094;
2024-04-19T14:43:24.072;536732000469376850;421369;361575;280725;-149959;
2024-04-19T14:43:24.091;536732000487539663;224310;164704;83812;-347453;
2024-04-19T14:43:24.109;536732000505702450;146214;87067;5942;-425861;
2024-04-19T14:43:24.127;536732000523865237;115320;56465;-24702;-457114;
2024-04-19T14:43:24.145;536732000542028024;103206;44425;-36646;-469461;
2024-04-19T14:43:24.163;536732000560190811;98525;39752;-41257;-474303;
2024-04-19T14:43:24.181;536732000578353598;96702;37978;-42956;-476298;
2024-04-19T14:43:24.200;536732000596516385;96153;37372;-43473;-477011;
2024-04-19T14:43:24.218;536732000614679172;95964;37086;-43509;-477358;
2024-04-19T14:43:24.236;536732000632841959;96054;37091;-43483;-477446;
2024-04-19T14:43:24.254;536732000651004746;96002;37076;-43304;-477504;
2024-04-19T14:43:24.272;536732000669167533;96034;37097;-42968;-477473;
2024-04-19T14:43:24.290;536732000687330320;96049;37190;-42631;-477511;
2024-04-19T14:43:24.309;536732000705493107;96131;37335;-42250;-477540;
2024-04-19T14:43:24.327;536732000723655894;96228;37422;-41899;-477518;
2024-04-19T14:43:24.345;536732000741818681;96360;37533;-41477;-477555;
2024-04-19T14:43:24.363;536732000759981468;96374;37613;-41136;-477527;
2024-04-19T14:43:24.381;536732000778144255;96189;37634;-40881;-477586;
2024-04-19T14:43:24.399;536732000796307042;96018;37571;-40651;-477604;
2024-04-19T14:43:24.418;536732000814469829;95906;37605;-40350;-477594;
2024-04-19T14:43:24.436;536732000832632616;95823;37576;-40178;-477565;
2024-04-19T14:43:24.454;536732000850795403;95582;37469;-40015;-477599;
2024-04-19T14:43:24.472;536732000868958190;95588;37545;-39708;-477655;
2024-04-19T14:43:24.490;536732000887120977;95507;37658;-39443;-477635;
2024-04-19T14:43:24.508;536732000905283764;95484;37768;-39151;-477636;
2024-04-19T14:43:24.526;536732000923446551;95501;37868;-38830;-477659;
2024-04-19T14:43:24.545;536732000941609338;95594;38136;-38446;-477661;
2024-04-19T14:43:24.563;536732000959772125;95695;38297;-38213;-477664;
2024-04-19T14:43:24.581;536732000977934912;95738;38508;-37833;-477707;
2024-04-19T14:43:24.599;536732000996097699;95857;38705;-37436;-477685;
2024-04-19T14:43:24.617;536732001014260486;95942;38810;-37180;-477696;
2024-04-19T14:43:24.635;536732001032423273;96029;38976;-36901;-477680;
2024-04-19T14:43:24.654;536732001050586060;95982;39086;-36628;-477723;
2024-04-19T14:43:24.672;536732001068748341;96067;39151;-36344;-477715;
2024-04-19T14:43:24.690;536732001086910620;96018;39240;-36165;-477681;
2024-04-19T14:43:24.708;536732001105072899;96158;39367;-35873;-477684;
2024-04-19T14:43:24.726;536732001123235178;96104;39391;-35614;-477744;
2024-04-19T14:43:24.744;536732001141397457;96189;39538;-35327;-477682;
2024-04-19T14:43:24.763;536732001159559736;96273;39670;-35038;-477764;
2024-04-19T14:43:24.781;536732001177722015;96320;39867;-34696;-477708;
2024-04-19T14:43:24.799;536732001195884294;96421;40106;-34261;-477747;
2024-04-19T14:43:24.817;536732001214046573;96511;40366;-33834;-477692;
2024-04-19T14:43:24.835;536732001232208852;96636;40628;-33458;-477635;
2024-04-19T14:43:24.853;536732001250371131;96696;40917;-33096;-477654;
2024-04-19T14:43:24.872;536732001268533410;96843;41197;-32677;-477660;
2024-04-19T14:43:24.890;536732001286695689;97035;41386;-32388;-477721;
2024-04-19T14:43:24.908;536732001304857968;97137;41574;-32142;-477774;
2024-04-19T14:43:24.926;536732001323020247;97265;41643;-31939;-477654;
2024-04-19T14:43:24.944;536732001341182526;97256;41659;-31915;-477690;
2024-04-19T14:43:24.962;536732001359344805;97220;41539;-31895;-477733;
2024-04-19T14:43:24.981;536732001377507084;97107;41336;-31879;-477703;
2024-04-19T14:43:24.999;536732001395669363;96933;41201;-31871;-477690;
2024-04-19T14:43:25.017;536732001413831642;96768;41053;-31875;-477771;
2024-04-19T14:43:25.035;536732001431993921;96694;40926;-31814;-477745;
2024-04-19T14:43:25.053;536732001450156200;96550;40905;-31637;-477789;
2024-04-19T14:43:25.071;536732001468318479;96525;40917;-31505;-477744;
2024-04-19T14:43:25.090;536732001486480758;96477;40876;-31370;-477741;
2024-04-19T14:43:25.108;536732001504643037;96522;40884;-31250;-477694;
2024-04-19T14:43:25.126;536732001522805316;96577;40943;-31137;-477687;
2024-04-19T14:43:25.144;536732001540967595;96693;40972;-30956;-477681;
2024-04-19T14:43:25.162;536732001559129874;96699;40866;-30888;-477680;
2024-04-19T14:43:25.180;536732001577292153;96725;40946;-30703;-477680;
2024-04-19T14:43:25.199;536732001595454432;96806;40868;-30678;-477644;
2024-04-19T14:43:25.217;536732001613616711;96835;40886;-30450;-477637;
2024-04-19T14:43:25.235;536732001631778990;96765;40891;-30387;-477681;
2024-04-19T14:43:25.253;536732001649941269;96611;40783;-30252;-477665;
2024-04-19T14:43:25.271;536732001668103548;96651;40819;-30086;-477729;
2024-04-19T14:43:25.289;536732001686265827;96661;40827;-29896;-477710;
2024-04-19T14:43:25.307;536732001704428106;96605;40851;-29822;-477721;
2024-04-19T14:43:25.326;536732001722590385;96530;40929;-29638;-477712;
2024-04-19T14:43:25.344;536732001740752664;96578;40896;-29386;-477706;
2024-04-19T14:43:25.362;536732001758914943;96605;40946;-29236;-477738;
2024-04-19T14:43:25.380;536732001777077222;96686;41041;-29016;-477712;
2024-04-19T14:43:25.398;536732001795239501;96696;41123;-28882;-477713;
2024-04-19T14:43:25.416;536732001813401780;96741;41210;-28812;-477740;
2024-04-19T14:43:25.435;536732001831564282;96787;41309;-28518;-477706;
2024-04-19T14:43:25.453;536732001849726764;96836;41278;-28444;-477763;
2024-04-19T14:43:25.471;536732001867889246;96821;41235;-28339;-477701;
2024-04-19T14:43:25.489;536732001886051728;96618;41049;-28317;-477742;
2024-04-19T14:43:25.507;536732001904214210;96386;40849;-28210;-477728;
2024-04-19T14:43:25.525;536732001922376692;96059;40611;-28303;-477742;
2024-04-19T14:43:25.544;536732001940539174;95735;40299;-28334;-477747;
2024-04-19T14:43:25.562;536732001958701656;95386;40105;-28370;-477766;
2024-04-19T14:43:25.580;536732001976864138;95142;39984;-28326;-477784;
2024-04-19T14:43:25.598;536732001995026620;95006;39888;-28310;-477759;
2024-04-19T14:43:25.616;536732002013189102;94802;39667;-28329;-477764;
2024-04-19T14:43:25.634;536732002031351584;94668;39507;-28251;-477733;
2024-04-19T14:43:25.653;536732002049514066;94619;39478;-28246;-477723;
2024-04-19T14:43:25.671;536732002067676548;94544;39372;-28166;-477756;
2024-04-19T14:43:25.689;536732002085839030;94516;39347;-28084;-477702;
2024-04-19T14:43:25.707;536732002104001512;94453;39333;-28049;-477748;
2024-04-19T14:43:25.725;536732002122163994;94427;39128;-28020;-477720;
2024-04-19T14:43:25.743;536732002140326476;94277;39130;-27970;-477702;
2024-04-19T14:43:25.762;536732002158488958;94170;38955;-27942;-477705;
2024-04-19T14:43:25.780;536732002176651440;94066;38807;-27934;-477770;
2024-04-19T14:43:25.798;536732002194813922;93882;38657;-27873;-477689;
2024-04-19T14:43:25.816;536732002212976404;93754;38445;-27885;-477709;
2024-04-19T14:43:25.834;536732002231138886;93527;38291;-27837;-477743;
2024-04-19T14:43:25.852;536732002249301368;93455;38267;-27808;-477713;
2024-04-19T14:43:25.871;536732002267463850;93344;38139;-27782;-477736;
2024-04-19T14:43:25.889;536732002285626332;93243;37995;-27829;-477698;
2024-04-19T14:43:25.907;536732002303788814;93169;37935;-27743;-477704;
2024-04-19T14:43:25.925;536732002321951296;93101;37819;-27748;-477731;
2024-04-19T14:43:25.943;536732002340113778;93033;37687;-27676;-477718;
2024-04-19T14:43:25.961;536732002358276260;93083;37774;-27553;-477678;
2024-04-19T14:43:25.979;536732002376438742;93017;37700;-27565;-477716;
2024-04-19T14:43:25.998;536732002394601224;93064;37666;-27527;-477732;
2024-04-19T14:43:26.016;536732002412763706;93013;37602;-27378;-477728;
2024-04-19T14:43:26.034;536732002430926188;92751;37347;-27433;-477677;
2024-04-19T14:43:26.052;536732002449088670;92449;37090;-27514;-477674;
2024-04-19T14:43:26.070;536732002467251152;92066;36651;-27663;-477694;
2024-04-19T14:43:26.088;536732002485413634;91557;36184;-27799;-477743;
2024-04-19T14:43:26.107;536732002503576116;91018;35806;-27998;-477682;
2024-04-19T14:43:26.125;536732002521738598;90562;35396;-28208;-477728;
2024-04-19T14:43:26.143;536732002539901080;90199;35182;-28317;-477695;
2024-04-19T14:43:26.161;536732002558063137;89876;34877;-28366;-477755;
2024-04-19T14:43:26.179;536732002576225181;89614;34668;-28486;-477735;
2024-04-19T14:43:26.197;536732002594387225;89415;34427;-28468;-477745;
2024-04-19T14:43:26.216;536732002612549269;89283;34278;-28527;-477729;
2024-04-19T14:43:26.234;536732002630711313;89232;34155;-28544;-477709;
2024-04-19T14:43:26.252;536732002648873357;89057;34025;-28501;-477710;
2024-04-19T14:43:26.270;536732002667035401;88974;33891;-28521;-477676;
2024-04-19T14:43:26.288;536732002685197445;88733;33751;-28562;-477724;
2024-04-19T14:43:26.306;536732002703359489;88522;33574;-28572;-477758;
2024-04-19T14:43:26.325;536732002721521533;88377;33348;-28623;-477704;
2024-04-19T14:43:26.343;536732002739683577;88138;33171;-28594;-477708;
2024-04-19T14:43:26.361;536732002757845621;87916;33006;-28643;-477735;
2024-04-19T14:43:26.379;536732002776007665;87797;32774;-28654;-477696;
2024-04-19T14:43:26.397;536732002794169709;87639;32585;-28654;-477725;
2024-04-19T14:43:26.415;536732002812331753;87562;32516;-28712;-477664;
2024-04-19T14:43:26.434;536732002830493797;87440;32346;-28767;-477670;
2024-04-19T14:43:26.452;536732002848655841;87309;32268;-28797;-477659;
2024-04-19T14:43:26.470;536732002866817885;87213;32188;-28826;-477643;
2024-04-19T14:43:26.488;536732002884979929;87072;32137;-28686;-477657;
2024-04-19T14:43:26.506;536732002903141973;87027;32024;-28608;-477682;
2024-04-19T14:43:26.524;536732002921304017;86886;31997;-28653;-477672;
2024-04-19T14:43:26.543;536732002939466061;86867;31909;-28590;-477746;
2024-04-19T14:43:26.561;536732002957628105;86773;31889;-28495;-477714;
2024-04-19T14:43:26.579;536732002975790149;86562;31692;-28538;-477780;
2024-04-19T14:43:26.597;536732002993952193;86382;31404;-28524;-477714;
2024-04-19T14:43:26.615;536732003012114237;85927;31040;-28723;-477703;
2024-04-19T14:43:26.633;536732003030276281;85321;30521;-28979;-477742;
2024-04-19T14:43:26.651;536732003048438325;84742;30044;-29318;-477729;
2024-04-19T14:43:26.670;536732003066600369;84329;29622;-29574;-477753;
2024-04-19T14:43:26.688;536732003084762413;83842;29303;-29820;-477730;
2024-04-19T14:43:26.706;536732003102924457;83423;28941;-29995;-477774;
2024-04-19T14:43:26.724;536732003121086501;83126;28720;-30087;-477773;
2024-04-19T14:43:26.742;536732003139248545;82885;28489;-30207;-477697;
2024-04-19T14:43:26.760;536732003157410589;82673;28353;-30230;-477747;
2024-04-19T14:43:26.779;536732003175572633;82570;28128;-30248;-477767;
2024-04-19T14:43:26.797;536732003193734677;82400;28104;-30286;-477715;
2024-04-19T14:43:26.815;536732003211896721;82230;27938;-30354;-477756;
2024-04-19T14:43:26.833;536732003230058765;82084;27769;-30422;-477748;
2024-04-19T14:43:26.851;536732003248220809;81918;27654;-30377;-477767;
2024-04-19T14:43:26.869;536732003266381248;81749;27433;-30448;-477726;
2024-04-19T14:43:26.888;536732003284541685;81541;27277;-30606;-477729;
2024-04-19T14:43:26.906;536732003302702122;81296;27138;-30681;-477742;
2024-04-19T14:43:26.924;536732003320862559;81067;26971;-30732;-477768;
2024-04-19T14:43:26.942;536732003339022996;80889;26781;-30798;-477740;
2024-04-19T14:43:26.960;536732003357183433;80688;26689;-30905;-477777;
2024-04-19T14:43:26.978;536732003375343870;80547;26577;-30931;-477779;
2024-04-19T14:43:26.997;536732003393504307;80420;26472;-30986;-477712;
2024-04-19T14:43:27.015;536732003411664744;80354;26382;-30984;-477718;
2024-04-19T14:43:27.033;536732003429825181;80283;26336;-30960;-477675;
2024-04-19T14:43:27.051;536732003447985618;80096;26249;-31077;-477672;
2024-04-19T14:43:27.069;536732003466146055;80101;26255;-30983;-477702;
2024-04-19T14:43:27.087;536732003484306492;79999;26106;-31019;-477765;
2024-04-19T14:43:27.106;536732003502466929;80052;26179;-30927;-477716;
2024-04-19T14:43:27.124;536732003520627366;79925;26105;-30944;-477714;
2024-04-19T14:43:27.142;536732003538787803;79899;26004;-30920;-477719;
2024-04-19T14:43:27.160;536732003556948240;79737;25853;-30932;-477730;
2024-04-19T14:43:27.178;536732003575108677;79386;25533;-30980;-477664;
2024-04-19T14:43:27.196;536732003593269114;78914;25189;-31288;-477670;
2024-04-19T14:43:27.214;536732003611429551;78397;24723;-31591;-477725;
2024-04-19T14:43:27.233;536732003629589988;77867;24265;-31919;-477720;
2024-04-19T14:43:27.251;536732003647750425;77389;23904;-32320;-477718;
2024-04-19T14:43:27.269;536732003665910862;76912;23452;-32612;-477736;
2024-04-19T14:43:27.287;536732003684071299;76523;23183;-32747;-477656;
2024-04-19T14:43:27.305;536732003702231736;76282;22964;-32940;-477688;
2024-04-19T14:43:27.323;536732003720392173;76071;22800;-33084;-477672;
2024-04-19T14:43:27.342;536732003738552610;75907;22619;-33217;-477665;
2024-04-19T14:43:27.360;536732003756713047;75780;22454;-33302;-477671;
2024-04-19T14:43:27.378;536732003774873484;75658;22330;-33385;-477655;
2024-04-19T14:43:27.396;536732003793033921;75446;22182;-33482;-477699;
2024-04-19T14:43:27.414;536732003811194358;75331;22083;-33519;-477664;
2024-04-19T14:43:27.432;536732003829354795;75201;21984;-33637;-477671;
2024-04-19T14:43:27.451;536732003847515232;74957;21748;-33813;-477676;
2024-04-19T14:43:27.469;536732003865675669;74761;21523;-33925;-477691;
2024-04-19T14:43:27.487;536732003883836106;74582;21403;-33923;-477662;
2024-04-19T14:43:27.505;536732003901996543;74360;21135;-34022;-477672;
2024-04-19T14:43:27.523;536732003920156980;74233;20997;-34124;-477685;
2024-04-19T14:43:27.541;536732003938318097;74064;20875;-34179;-477694;
2024-04-19T14:43:27.560;536732003956479206;73923;20740;-34332;-477730;
2024-04-19T14:43:27.578;536732003974640315;73856;20614;-34364;-477635;
2024-04-19T14:43:27.596;536732003992801424;73768;20573;-34403;-477628;
2024-04-19T14:43:27.614;536732004010962533;73712;20535;-34395;-477671;
2024-04-19T14:43:27.632;536732004029123642;73715;20510;-34344;-477657;
2024-04-19T14:43:27.650;536732004047284751;73643;20435;-34341;-477669;
2024-04-19T14:43:27.668;536732004065445860;73616;20399;-34271;-477624;
2024-04-19T14:43:27.687;536732004083606969;73667;20402;-34217;-477583;
2024-04-19T14:43:27.705;536732004101768078;73510;20318;-34181;-477657;
2024-04-19T14:43:27.723;536732004119929187;73501;20358;-34054;-477589;
2024-04-19T14:43:27.741;536732004138090296;73496;20308;-34045;-477665;
2024-04-19T14:43:27.759;536732004156251405;73319;20101;-34125;-477652;
2024-04-19T14:43:27.777;536732004174412514;72944;19850;-34303;-477653;
2024-04-19T14:43:27.796;536732004192573623;72639;19510;-34513;-477671;
2024-04-19T14:43:27.814;536732004210734732;72111;19031;-34854;-477676;
2024-04-19T14:43:27.832;536732004228895841;71607;18575;-35216;-477710;
2024-04-19T14:43:27.850;536732004247056950;71231;18313;-35430;-477711;
2024-04-19T14:43:27.868;536732004265218059;70951;18070;-35659;-477702;
2024-04-19T14:43:27.886;536732004283379168;70634;17823;-35882;-477662;
2024-04-19T14:43:27.905;536732004301540277;70440;17716;-36031;-477673;
2024-04-19T14:43:27.923;536732004319701386;70338;17602;-36004;-477678;
2024-04-19T14:43:27.941;536732004337862495;70237;17579;-35953;-477644;
2024-04-19T14:43:27.959;536732004356023604;70140;17479;-36034;-477725;
2024-04-19T14:43:27.977;536732004374184713;70122;17506;-36013;-477720;
2024-04-19T14:43:27.995;536732004392345822;70066;17508;-35979;-477738;
2024-04-19T14:43:28.014;536732004410506931;69960;17388;-35981;-477698;
2024-04-19T14:43:28.032;536732004428668040;69859;17295;-36103;-477690;
2024-04-19T14:43:28.050;536732004446829149;69829;17253;-36035;-477761;
2024-04-19T14:43:28.068;536732004464990258;69653;17072;-36114;-477715;
2024-04-19T14:43:28.086;536732004483151367;69608;17052;-36120;-477688;
2024-04-19T14:43:28.104;536732004501312476;69463;16897;-36224;-477662;
2024-04-19T14:43:28.123;536732004519473585;69332;16815;-36308;-477711;
2024-04-19T14:43:28.141;536732004537634694;69353;16742;-36313;-477707;
2024-04-19T14:43:28.159;536732004555795803;69329;16748;-36265;-477777;
2024-04-19T14:43:28.177;536732004573956912;69307;16745;-36265;-477740;
2024-04-19T14:43:28.195;536732004592118021;69285;16785;-36180;-477739;
2024-04-19T14:43:28.213;536732004610279130;69296;16791;-36113;-477744;
2024-04-19T14:43:28.231;536732004628440239;69333;16819;-36028;-477664;
2024-04-19T14:43:28.250;536732004646601348;69349;16826;-35919;-477720;
2024-04-19T14:43:28.268;536732004664764709;69414;16960;-35860;-477760;
2024-04-19T14:43:28.286;536732004682928028;69418;16917;-35831;-477791;
2024-04-19T14:43:28.304;536732004701091347;69504;16998;-35768;-477772;
2024-04-19T14:43:28.322;536732004719254666;69570;16991;-35722;-477746;
2024-04-19T14:43:28.340;536732004737417985;69550;16983;-35770;-477736;
2024-04-19T14:43:28.359;536732004755581304;69476;16819;-35823;-477714;
2024-04-19T14:43:28.377;536732004773744623;69285;16571;-36012;-477742;
2024-04-19T14:43:28.395;536732004791907942;68901;16316;-36210;-477768;
2024-04-19T14:43:28.413;536732004810071261;68585;15985;-36474;-477771;
2024-04-19T14:43:28.431;536732004828234580;68225;15653;-36768;-477774;
2024-04-19T14:43:28.449;536732004846397899;67923;15392;-37020;-477802;
2024-04-19T14:43:28.468;536732004864561218;67671;15229;-37196;-477811;
2024-04-19T14:43:28.486;536732004882724537;67482;15030;-37380;-477808;
2024-04-19T14:43:28.504;536732004900887856;67400;15007;-37459;-477746;
2024-04-19T14:43:28.522;536732004919051175;67407;14983;-37469;-477767;
2024-04-19T14:43:28.540;536732004937214494;67388;14917;-37544;-477789;
2024-04-19T14:43:28.558;536732004955377813;67416;14933;-37470;-477742;
2024-04-19T14:43:28.577;536732004973541132;67428;14862;-37565;-477753;
2024-04-19T14:43:28.595;536732004991704451;67525;14925;-37543;-477737;
2024-04-19T14:43:28.613;536732005009867770;67524;14875;-37585;-477780;
2024-04-19T14:43:28.631;536732005028031089;67463;14847;-37608;-477730;
2024-04-19T14:43:28.649;536732005046194408;67402;14732;-37683;-477727;
2024-04-19T14:43:28.667;536732005064357727;67286;14705;-37784;-477754;
2024-04-19T14:43:28.686;536732005082521046;67273;14639;-37813;-477711;
2024-04-19T14:43:28.704;536732005100684365;67178;14580;-37878;-477763;
2024-04-19T14:43:28.722;536732005118847684;67217;14574;-37957;-477741;
2024-04-19T14:43:28.740;536732005137011003;67188;14496;-37996;-477750;
2024-04-19T14:43:28.758;536732005155174322;67200;14544;-38048;-477773;
2024-04-19T14:43:28.776;536732005173337641;67195;14428;-38129;-477821;
2024-04-19T14:43:28.795;536732005191500960;67346;14537;-38028;-477787;
2024-04-19T14:43:28.813;536732005209664279;67374;14596;-38033;-477787;
2024-04-19T14:43:28.831;536732005227827598;67456;14608;-38007;-477755;
2024-04-19T14:43:28.849;536732005245990917;67512;14637;-37997;-477755;
2024-04-19T14:43:28.867;536732005264154236;67528;14677;-38026;-477762;
2024-04-19T14:43:28.885;536732005282317555;67533;14728;-37993;-477790;
2024-04-19T14:43:28.904;536732005300480874;67594;14721;-37963;-477773;
2024-04-19T14:43:28.922;536732005318644193;67691;14756;-37902;-477721;
2024-04-19T14:43:28.940;536732005336807512;67743;14804;-37976;-477759;
2024-04-19T14:43:28.958;536732005354970831;67818;14773;-37928;-477707;
2024-04-19T14:43:28.976;536732005373134150;67643;14614;-38083;-477735;
2024-04-19T14:43:28.994;536732005391297469;67398;14386;-38293;-477759;
2024-04-19T14:43:29.013;536732005409460788;67061;14085;-38616;-477790;
2024-04-19T14:43:29.031;536732005427624107;66580;13813;-38964;-477813;
2024-04-19T14:43:29.049;536732005445790234;66270;13605;-39381;-477742;
2024-04-19T14:43:29.067;536732005463956327;66050;13352;-39707;-477730;
2024-04-19T14:43:29.085;536732005482122420;65752;13108;-40053;-477756;
2024-04-19T14:43:29.103;536732005500288513;65522;13004;-40268;-477739;
2024-04-19T14:43:29.122;536732005518454606;65420;12956;-40478;-477727;
2024-04-19T14:43:29.140;536732005536620699;65313;12866;-40464;-477730;
2024-04-19T14:43:29.158;536732005554786792;65274;12811;-40555;-477764;
2024-04-19T14:43:29.176;536732005572952885;65339;12872;-40581;-477692;
2024-04-19T14:43:29.194;536732005591118978;65279;12879;-40612;-477712;
2024-04-19T14:43:29.212;536732005609285071;65334;12887;-40667;-477766;
2024-04-19T14:43:29.231;536732005627451164;65277;12804;-40767;-477724;
2024-04-19T14:43:29.249;536732005645617257;65164;12734;-40874;-477772;
2024-04-19T14:43:29.267;536732005663783350;65156;12683;-40892;-477712;
2024-04-19T14:43:29.285;536732005681949443;65044;12658;-41034;-477747;
2024-04-19T14:43:29.303;536732005700115536;65027;12614;-41065;-477708;
2024-04-19T14:43:29.321;536732005718281629;64931;12517;-41154;-477725;
2024-04-19T14:43:29.339;536732005736447722;64940;12496;-41171;-477745;
2024-04-19T14:43:29.358;536732005754613815;65016;12457;-41209;-477701;
2024-04-19T14:43:29.376;536732005772779908;64984;12426;-41297;-477745;
2024-04-19T14:43:29.394;536732005790946001;65035;12439;-41281;-477725;
2024-04-19T14:43:29.412;536732005809112094;65093;12516;-41270;-477758;
2024-04-19T14:43:29.430;536732005827278187;65179;12477;-41279;-477688;
2024-04-19T14:43:29.448;536732005845444280;65141;12511;-41401;-477680;
2024-04-19T14:43:29.467;536732005863610373;65258;12467;-41516;-477701;
2024-04-19T14:43:29.485;536732005881776466;65330;12444;-41584;-477654;
2024-04-19T14:43:29.503;536732005899942559;65445;12487;-41849;-477672;
2024-04-19T14:43:29.521;536732005918108652;65481;12395;-42108;-477679;
2024-04-19T14:43:29.539;536732005936274745;65552;12424;-42311;-477739;
2024-04-19T14:43:29.557;536732005954440838;65612;12381;-42413;-477668;
2024-04-19T14:43:29.576;536732005972606931;65597;12310;-42528;-477634;
2024-04-19T14:43:29.594;536732005990773024;65521;12322;-42440;-477640;
2024-04-19T14:43:29.612;536732006008939117;65384;12275;-42341;-477709;
2024-04-19T14:43:29.630;536732006027105210;65204;12238;-42331;-477693;
2024-04-19T14:43:29.648;536732006045271303;64880;12117;-42550;-477739;
2024-04-19T14:43:29.666;536732006063437396;64470;11853;-42941;-477747;
2024-04-19T14:43:29.685;536732006081603489;64057;11698;-43256;-477716;
2024-04-19T14:43:29.703;536732006099769582;63709;11417;-43552;-477729;
2024-04-19T14:43:29.721;536732006117935675;63414;11154;-43895;-477724;
2024-04-19T14:43:29.739;536732006136101768;63109;11003;-44012;-477690;
2024-04-19T14:43:29.757;536732006154267861;63057;10934;-44217;-477735;
2024-04-19T14:43:29.775;536732006172433954;63094;10857;-44439;-477659;
2024-04-19T14:43:29.794;536732006190600047;63158;10794;-44709;-477653;
2024-04-19T14:43:29.812;536732006208764768;63183;10690;-44942;-477622;
2024-04-19T14:43:29.830;536732006226929481;63248;10461;-45209;-477557;
2024-04-19T14:43:29.848;536732006245094194;63256;10309;-45506;-477556;
2024-04-19T14:43:29.866;536732006263258907;63211;9931;-45875;-477561;
2024-04-19T14:43:29.884;536732006281423620;63295;9641;-46097;-477491;
2024-04-19T14:43:29.903;536732006299588333;63154;9151;-46503;-477522;
2024-04-19T14:43:29.921;536732006317753046;62979;8720;-46873;-477527;
2024-04-19T14:43:29.939;536732006335917759;62855;8588;-47056;-477455;
2024-04-19T14:43:29.957;536732006354082472;62660;8405;-47177;-477540;
2024-04-19T14:43:29.975;536732006372247185;62615;8312;-47249;-477508;
2024-04-19T14:43:29.993;536732006390411898;62438;8256;-47237;-477514;
2024-04-19T14:43:30.012;536732006408576611;62410;8259;-47124;-477575;
2024-04-19T14:43:30.030;536732006426741324;62334;8288;-47027;-477602;
2024-04-19T14:43:30.048;536732006444906037;62302;8340;-46936;-477620;
2024-04-19T14:43:30.066;536732006463070750;62356;8368;-46890;-477639;
2024-04-19T14:43:30.084;536732006481235463;62471;8361;-46829;-477628;
2024-04-19T14:43:30.102;536732006499400176;62463;8316;-46862;-477679;
2024-04-19T14:43:30.121;536732006517564889;62671;8386;-46774;-477685;
2024-04-19T14:43:30.139;536732006535729602;62916;8437;-46819;-477702;
2024-04-19T14:43:30.157;536732006553894315;63116;8634;-46783;-477658;
2024-04-19T14:43:30.175;536732006572059028;63325;8670;-46761;-477622;
2024-04-19T14:43:30.193;536732006590223741;63417;8745;-46721;-477596;
2024-04-19T14:43:30.211;536732006608388454;63579;8916;-46552;-477701;
2024-04-19T14:43:30.230;536732006626553167;63706;9034;-46385;-477680;
2024-04-19T14:43:30.248;536732006644717880;63985;9253;-46265;-477658;
2024-04-19T14:43:30.266;536732006662882593;64082;9284;-46237;-477662;
2024-04-19T14:43:30.284;536732006681047306;64265;9374;-46126;-477690;
2024-04-19T14:43:30.302;536732006699212019;64384;9530;-46118;-477690;
2024-04-19T14:43:30.320;536732006717376732;64459;9494;-46112;-477688;
2024-04-19T14:43:30.339;536732006735541445;64565;9500;-46169;-477724;
2024-04-19T14:43:30.357;536732006753706158;64519;9480;-46285;-477655;
2024-04-19T14:43:30.375;536732006771870871;64374;9325;-46551;-477672;
2024-04-19T14:43:30.393;536732006790035584;64208;9185;-46782;-477699;
2024-04-19T14:43:30.411;536732006808200297;64042;9063;-47000;-477703;
2024-04-19T14:43:30.429;536732006826365010;63938;9013;-47211;-477633;
2024-04-19T14:43:30.448;536732006844529723;63874;9005;-47361;-477624;
2024-04-19T14:43:30.466;536732006862694436;63853;9069;-47459;-477672;
2024-04-19T14:43:30.484;536732006880859149;63902;9214;-47534;-477696;
2024-04-19T14:43:30.502;536732006899023862;64061;9308;-47588;-477688;
2024-04-19T14:43:30.520;536732006917188575;64193;9411;-47500;-477668;
2024-04-19T14:43:30.538;536732006935353288;64323;9617;-47506;-477737;
2024-04-19T14:43:30.557;536732006953518001;64465;9734;-47454;-477687;
2024-04-19T14:43:30.575;536732006971683535;64559;9901;-47437;-477742;
2024-04-19T14:43:30.593;536732006989849047;64743;10144;-47405;-477694;
2024-04-19T14:43:30.611;536732007008014559;64851;10324;-47362;-477707;
2024-04-19T14:43:30.629;536732007026180071;65116;10380;-47353;-477660;
2024-04-19T14:43:30.647;536732007044345583;65200;10472;-47339;-477695;
2024-04-19T14:43:30.666;536732007062511095;65242;10529;-47385;-477706;
2024-04-19T14:43:30.684;536732007080676607;65325;10573;-47368;-477722;
2024-04-19T14:43:30.702;536732007098842119;65402;10541;-47345;-477721;
2024-04-19T14:43:30.720;536732007117007631;65361;10601;-47440;-477681;
2024-04-19T14:43:30.738;536732007135173143;65495;10585;-47468;-477640;
2024-04-19T14:43:30.756;536732007153338655;65420;10451;-47578;-477730;
2024-04-19T14:43:30.775;536732007171504167;65459;10376;-47526;-477766;
2024-04-19T14:43:30.793;536732007189669679;65568;10398;-47651;-477715;
2024-04-19T14:43:30.811;536732007207835191;65585;10261;-47696;-477667;
2024-04-19T14:43:30.829;536732007226000703;65698;10240;-47783;-477686;
2024-04-19T14:43:30.847;536732007244166215;65713;10186;-47768;-477639;
2024-04-19T14:43:30.865;536732007262331727;65753;10121;-47754;-477678;
2024-04-19T14:43:30.884;536732007280497239;65833;10152;-47771;-477639;
2024-04-19T14:43:30.902;536732007298662751;65909;10187;-47729;-477619;
2024-04-19T14:43:30.920;536732007316828263;65892;10292;-47705;-477677;
2024-04-19T14:43:30.938;536732007334993775;66011;10266;-47715;-477713;
2024-04-19T14:43:30.956;536732007353159287;66208;10381;-47597;-477662;
2024-04-19T14:43:30.974;536732007371324799;66325;10403;-47628;-477707;
2024-04-19T14:43:30.993;536732007389490311;66460;10506;-47636;-477664;
2024-04-19T14:43:31.011;536732007407655823;66518;10549;-47771;-477730;
2024-04-19T14:43:31.029;536732007425821335;66553;10592;-48024;-477702;
2024-04-19T14:43:31.047;536732007443986847;66495;10619;-48356;-477698;
2024-04-19T14:43:31.065;536732007462152359;66486;10684;-48725;-477732;
2024-04-19T14:43:31.083;536732007480317871;66430;10689;-49105;-477742;
2024-04-19T14:43:31.102;536732007498483383;66404;10603;-49382;-477744;
2024-04-19T14:43:31.120;536732007516648895;66381;10659;-49590;-477747;
2024-04-19T14:43:31.138;536732007534814407;66290;10614;-49788;-477789;
2024-04-19T14:43:31.156;536732007552979919;66307;10726;-49839;-477750;
2024-04-19T14:43:31.174;536732007571145431;66453;10784;-49857;-477729;
2024-04-19T14:43:31.192;536732007589310943;66572;10922;-49800;-477759;
2024-04-19T14:43:31.211;536732007607476455;66794;11090;-49644;-477787;
2024-04-19T14:43:31.229;536732007625641967;67005;11329;-49503;-477706;
2024-04-19T14:43:31.247;536732007643807479;67206;11483;-49400;-477738;
2024-04-19T14:43:31.265;536732007661972991;67359;11696;-49277;-477760;
2024-04-19T14:43:31.283;536732007680138503;67527;11813;-49249;-477738;
2024-04-19T14:43:31.301;536732007698304015;67657;12073;-49149;-477699;
2024-04-19T14:43:31.320;536732007716469527;67817;12160;-49247;-477745;
2024-04-19T14:43:31.338;536732007734633378;68045;12205;-49413;-477744;
2024-04-19T14:43:31.356;536732007752797219;68206;12203;-49611;-477753;
2024-04-19T14:43:31.374;536732007770961060;68333;12036;-49693;-477766;
2024-04-19T14:43:31.392;536732007789124901;68449;11966;-49778;-477690;
2024-04-19T14:43:31.410;536732007807288742;68512;11880;-49840;-477690;
2024-04-19T14:43:31.429;536732007825452583;68514;11766;-49951;-477707;
2024-04-19T14:43:31.447;536732007843616424;68804;11853;-49854;-477697;
2024-04-19T14:43:31.465;536732007861780265;69011;11792;-49850;-477728;
2024-04-19T14:43:31.483;536732007879944106;69326;11904;-49735;-477640;
2024-04-19T14:43:31.501;536732007898107947;69655;11960;-49699;-477644;
2024-04-19T14:43:31.519;536732007916271788;69956;12000;-49711;-477678;
2024-04-19T14:43:31.537;536732007934435629;70253;12026;-49678;-477684;
2024-04-19T14:43:31.556;536732007952599470;70533;11981;-49637;-477621;
2024-04-19T14:43:31.574;536732007970763311;70763;12020;-49589;-477613;
2024-04-19T14:43:31.592;536732007988927152;71074;12067;-49564;-477654;
2024-04-19T14:43:31.610;536732008007090993;71397;12161;-49507;-477619;
2024-04-19T14:43:31.628;536732008025254834;71707;12425;-49374;-477578;
2024-04-19T14:43:31.646;536732008043418675;71768;12355;-49356;-477622;
2024-04-19T14:43:31.665;536732008061582516;71762;12220;-49424;-477587;
2024-04-19T14:43:31.683;536732008079746357;71543;12026;-49634;-477646;
2024-04-19T14:43:31.701;536732008097910198;71308;11818;-49797;-477635;
2024-04-19T14:43:31.719;536732008116074039;71049;11621;-50040;-477647;
2024-04-19T14:43:31.737;536732008134237880;70732;11403;-50238;-477596;
2024-04-19T14:43:31.755;536732008152401721;70477;11180;-50540;-477650;
2024-04-19T14:43:31.774;536732008170565562;70384;11114;-50785;-477626;
2024-04-19T14:43:31.792;536732008188729403;70255;10972;-51036;-477640;
2024-04-19T14:43:31.810;536732008206893244;70225;10917;-51150;-477586;
2024-04-19T14:43:31.828;536732008225057085;70274;10961;-51210;-477619;
2024-04-19T14:43:31.846;536732008243220926;70369;10974;-51334;-477560;
2024-04-19T14:43:31.864;536732008261384767;70447;11065;-51453;-477604;
2024-04-19T14:43:31.883;536732008279548608;70548;11147;-51537;-477583;
2024-04-19T14:43:31.901;536732008297712449;70670;11240;-51583;-477535;
2024-04-19T14:43:31.919;536732008315876290;70816;11301;-51710;-477566;
2024-04-19T14:43:31.937;536732008334040131;70807;11310;-51882;-477558;
2024-04-19T14:43:31.955;536732008352203972;70838;11342;-52024;-477546;
2024-04-19T14:43:31.973;536732008370367813;70702;11378;-52204;-477557;
2024-04-19T14:43:31.992;536732008388531654;70668;11386;-52359;-477560;
2024-04-19T14:43:32.010;536732008406695495;70650;11344;-52519;-477592;
2024-04-19T14:43:32.028;536732008424859336;70556;11388;-52733;-477646;
2024-04-19T14:43:32.046;536732008443023177;70617;11398;-52902;-477612;
2024-04-19T14:43:32.064;536732008461187018;70645;11408;-53021;-477663;
2024-04-19T14:43:32.082;536732008479350859;70678;11487;-53181;-477677;
2024-04-19T14:43:32.101;536732008497515907;70816;11469;-53262;-477610;
2024-04-19T14:43:32.119;536732008515680947;70957;11616;-53364;-477619;
2024-04-19T14:43:32.137;536732008533845987;71117;11710;-53385;-477682;
2024-04-19T14:43:32.155;536732008552011027;71273;11888;-53523;-477723;
2024-04-19T14:43:32.173;536732008570176067;71573;12056;-53562;-477682;
2024-04-19T14:43:32.191;536732008588341107;71825;12309;-53597;-477742;
2024-04-19T14:43:32.210;536732008606506147;72160;12502;-53529;-477688;
2024-04-19T14:43:32.228;536732008624671187;72459;12766;-53525;-477669;
2024-04-19T14:43:32.246;536732008642836227;72733;12900;-53602;-477716;
2024-04-19T14:43:32.264;536732008661001267;72986;13151;-53634;-477686;
2024-04-19T14:43:32.282;536732008679166307;73234;13362;-53605;-477659;
2024-04-19T14:43:32.300;536732008697331347;73534;13540;-53609;-477770;
2024-04-19T14:43:32.319;536732008715496387;73697;13644;-53753;-477684;
2024-04-19T14:43:32.337;536732008733661427;73699;13790;-53925;-477733;
2024-04-19T14:43:32.355;536732008751826467;73690;13782;-54222;-477693;
2024-04-19T14:43:32.373;536732008769991507;73574;13871;-54545;-477685;
2024-04-19T14:43:32.391;536732008788156547;73531;13822;-54890;-477727;
2024-04-19T14:43:32.409;536732008806321587;73240;13679;-55281;-477756;
2024-04-19T14:43:32.428;536732008824486627;73122;13691;-55496;-477723;
2024-04-19T14:43:32.446;536732008842651667;73079;13630;-55806;-477659;
2024-04-19T14:43:32.464;536732008860816707;72990;13554;-56075;-477727;
2024-04-19T14:43:32.482;536732008878981747;72910;13413;-56315;-477799;
2024-04-19T14:43:32.500;536732008897146787;72978;13430;-56382;-477749;
2024-04-19T14:43:32.518;536732008915311827;73020;13451;-56481;-477766;
2024-04-19T14:43:32.537;536732008933476867;73047;13442;-56548;-477699;
2024-04-19T14:43:32.555;536732008951641907;73039;13445;-56609;-477691;
2024-04-19T14:43:32.573;536732008969806947;72969;13448;-56723;-477671;
2024-04-19T14:43:32.591;536732008987971987;72954;13330;-56851;-477682;
2024-04-19T14:43:32.609;536732009006137027;72870;13296;-56979;-477689;
2024-04-19T14:43:32.627;536732009024302067;72805;13185;-57227;-477718;
2024-04-19T14:43:32.646;536732009042467107;72680;13200;-57483;-477694;
2024-04-19T14:43:32.664;536732009060632147;72515;13067;-57600;-477720;
2024-04-19T14:43:32.682;536732009078797187;72355;12965;-57796;-477674;
2024-04-19T14:43:32.700;536732009096962227;72294;12886;-57947;-477628;
2024-04-19T14:43:32.718;536732009115127267;72222;12818;-58090;-477698;
2024-04-19T14:43:32.736;536732009133292307;72217;12774;-58179;-477696;
2024-04-19T14:43:32.755;536732009151457347;72119;12600;-58340;-477708;
2024-04-19T14:43:32.773;536732009169622387;72037;12583;-58477;-477706;
2024-04-19T14:43:32.791;536732009187787427;71993;12536;-58527;-477713;
2024-04-19T14:43:32.809;536732009205952467;71992;12529;-58644;-477682;
2024-04-19T14:43:32.827;536732009224117507;72010;12448;-58700;-477747;
2024-04-19T14:43:32.845;536732009242282547;71971;12449;-58708;-477716;
2024-04-19T14:43:32.863;536732009260447515;72029;12421;-58769;-477672;
2024-04-19T14:43:32.882;536732009278612477;71973;12370;-58847;-477707;
2024-04-19T14:43:32.900;536732009296777439;72015;12356;-58873;-477742;
2024-04-19T14:43:32.918;536732009314942401;72006;12401;-58848;-477682;
2024-04-19T14:43:32.936;536732009333107363;72101;12272;-58922;-477759;
2024-04-19T14:43:32.954;536732009351272325;72029;12292;-59035;-477737;
2024-04-19T14:43:32.972;536732009369437287;71856;12137;-59188;-477739;
2024-04-19T14:43:32.991;536732009387602249;71645;11970;-59460;-477727;
2024-04-19T14:43:33.009;536732009405767211;71404;11761;-59815;-477695;
2024-04-19T14:43:33.027;536732009423932173;71116;11598;-60071;-477661;
2024-04-19T14:43:33.045;536732009442097135;70824;11440;-60438;-477677;
2024-04-19T14:43:33.063;536732009460262097;70585;11302;-60784;-477731;
2024-04-19T14:43:33.081;536732009478427059;70352;11162;-61163;-477721;
2024-04-19T14:43:33.100;536732009496592021;70231;11073;-61398;-477749;
2024-04-19T14:43:33.118;536732009514756983;70170;11024;-61550;-477705;
2024-04-19T14:43:33.136;536732009532921945;70118;11045;-61687;-477742;
2024-04-19T14:43:33.154;536732009551086907;70086;11041;-61859;-477697;
2024-04-19T14:43:33.172;536732009569251869;70071;11019;-61947;-477664;
2024-04-19T14:43:33.190;536732009587416831;70070;10982;-62074;-477663;
2024-04-19T14:43:33.209;536732009605581793;70169;10951;-62146;-477713;
2024-04-19T14:43:33.227;536732009623746755;70129;10956;-62320;-477718;
2024-04-19T14:43:33.245;536732009641911717;70111;10902;-62457;-477679;
2024-04-19T14:43:33.263;536732009660076679;70022;10866;-62620;-477661;
2024-04-19T14:43:33.281;536732009678241641;69918;10795;-62954;-477698;
2024-04-19T14:43:33.299;536732009696406603;69802;10803;-63318;-477742;
2024-04-19T14:43:33.318;536732009714571565;69656;10789;-63736;-477746;
2024-04-19T14:43:33.336;536732009732736527;69423;10629;-64161;-477792;
2024-04-19T14:43:33.354;536732009750901489;69226;10644;-64592;-477796;
2024-04-19T14:43:33.372;536732009769066451;69108;10524;-64875;-477822;
2024-04-19T14:43:33.390;536732009787231413;68945;10428;-65156;-477831;
2024-04-19T14:43:33.408;536732009805396375;68912;10358;-65243;-477812;
2024-04-19T14:43:33.427;536732009823561337;68806;10293;-65320;-477815;
2024-04-19T14:43:33.445;536732009841726299;68798;10326;-65422;-477835;
2024-04-19T14:43:33.463;536732009859891261;68825;10252;-65451;-477859;
2024-04-19T14:43:33.481;536732009878056223;68881;10272;-65478;-477917;
2024-04-19T14:43:33.499;536732009896221185;68960;10359;-65330;-477840;
2024-04-19T14:43:33.517;536732009914386147;69017;10380;-65361;-477812;
2024-04-19T14:43:33.536;536732009932551109;69073;10467;-65362;-477826;
2024-04-19T14:43:33.554;536732009950716071;69034;10495;-65493;-477795;
2024-04-19T14:43:33.572;536732009968881033;68954;10579;-65808;-477792;
2024-04-19T14:43:33.590;536732009987046300;68627;10497;-66239;-477770;
2024-04-19T14:43:33.608;536732010005211562;68135;10289;-66778;-477875;
2024-04-19T14:43:33.626;536732010023376824;67733;9989;-67382;-477845;
2024-04-19T14:43:33.645;536732010041542086;67231;9786;-67926;-477883;
2024-04-19T14:43:33.663;536732010059707348;66816;9576;-68454;-477840;
2024-04-19T14:43:33.681;536732010077872610;66378;9346;-68928;-477853;
2024-04-19T14:43:33.699;536732010096037872;66045;9063;-69277;-477797;
2024-04-19T14:43:33.717;536732010114203134;65733;8876;-69605;-477870;
2024-04-19T14:43:33.735;536732010132368396;65629;8853;-69718;-477877;
2024-04-19T14:43:33.754;536732010150533658;65642;8768;-69863;-477832;
2024-04-19T14:43:33.772;536732010168698920;65584;8689;-69848;-477845;
2024-04-19T14:43:33.790;536732010186864182;65537;8728;-69862;-477798;
2024-04-19T14:43:33.808;536732010205029444;65521;8647;-69965;-477809;
2024-04-19T14:43:33.826;536732010223194706;65540;8684;-70006;-477825;
2024-04-19T14:43:33.844;536732010241359968;65474;8642;-70064;-477835;
2024-04-19T14:43:33.863;536732010259525230;65415;8673;-70339;-477823;
2024-04-19T14:43:33.881;536732010277690492;65283;8719;-70618;-477836;
2024-04-19T14:43:33.899;536732010295855754;65066;8646;-70958;-477899;
2024-04-19T14:43:33.917;536732010314021016;64825;8570;-71325;-477860;
2024-04-19T14:43:33.935;536732010332186278;64599;8470;-71661;-477875;
2024-04-19T14:43:33.953;536732010350351540;64391;8313;-71955;-477890;
2024-04-19T14:43:33.972;536732010368516802;64192;8179;-72234;-477845;
2024-04-19T14:43:33.990;536732010386682064;64014;8048;-72465;-477887;
2024-04-19T14:43:34.008;536732010404847326;63900;7960;-72593;-477858;
2024-04-19T14:43:34.026;536732010423012588;63872;7905;-72706;-477886;
2024-04-19T14:43:34.044;536732010441177850;63823;7849;-72733;-477947;
2024-04-19T14:43:34.062;536732010459343112;63862;7838;-72683;-477827;
2024-04-19T14:43:34.081;536732010477508374;63944;7878;-72629;-477858;
2024-04-19T14:43:34.099;536732010495673636;63960;7865;-72525;-477846;
2024-04-19T14:43:34.117;536732010513838898;64144;7962;-72481;-477857;
2024-04-19T14:43:34.135;536732010532004160;64237;8011;-72370;-477810;
2024-04-19T14:43:34.153;536732010550169422;64330;8082;-72386;-477792;
2024-04-19T14:43:34.171;536732010568334684;64235;7981;-72520;-477851;
2024-04-19T14:43:34.190;536732010586499946;64105;7941;-72646;-477818;
2024-04-19T14:43:34.208;536732010604665208;63921;7911;-72872;-477876;
2024-04-19T14:43:34.226;536732010622830470;63620;7764;-73177;-477879;
2024-04-19T14:43:34.244;536732010640995732;63376;7645;-73454;-477850;
2024-04-19T14:43:34.262;536732010659160226;63179;7480;-73697;-477846;
2024-04-19T14:43:34.280;536732010677324684;62998;7434;-73929;-477839;
2024-04-19T14:43:34.299;536732010695489142;62821;7339;-74127;-477902;
2024-04-19T14:43:34.317;536732010713653600;62862;7273;-74246;-477782;
2024-04-19T14:43:34.335;536732010731818058;62893;7312;-74304;-477787;
2024-04-19T14:43:34.353;536732010749982516;62830;7224;-74480;-477771;
2024-04-19T14:43:34.371;536732010768146974;62878;7235;-74480;-477799;
2024-04-19T14:43:34.389;536732010786311432;62929;7302;-74514;-477743;
2024-04-19T14:43:34.408;536732010804475890;62939;7325;-74579;-477760;
2024-04-19T14:43:34.426;536732010822640348;63050;7288;-74679;-477721;
2024-04-19T14:43:34.444;536732010840804806;62946;7262;-74801;-477779;
2024-04-19T14:43:34.462;536732010858969264;62825;7275;-74917;-477836;
2024-04-19T14:43:34.480;536732010877133722;62725;7215;-75053;-477828;
2024-04-19T14:43:34.498;536732010895298180;62752;7221;-75184;-477857;
2024-04-19T14:43:34.517;536732010913462638;62638;7176;-75282;-477778;
2024-04-19T14:43:34.535;536732010931627096;62598;7173;-75338;-477773;
2024-04-19T14:43:34.553;536732010949791554;62590;7155;-75426;-477781;
2024-04-19T14:43:34.571;536732010967956012;62616;7118;-75545;-477785;
2024-04-19T14:43:34.589;536732010986120470;62561;7151;-75597;-477822;
2024-04-19T14:43:34.607;536732011004284928;62659;7176;-75641;-477842;
2024-04-19T14:43:34.625;536732011022449386;62744;7164;-75635;-477736;
2024-04-19T14:43:34.644;536732011040613844;62831;7270;-75653;-477745;
2024-04-19T14:43:34.662;536732011058778302;62905;7289;-75739;-477732;
2024-04-19T14:43:34.680;536732011076942760;63021;7324;-75781;-477776;
2024-04-19T14:43:34.698;536732011095107218;63167;7436;-75763;-477832;
2024-04-19T14:43:34.716;536732011113271676;63203;7448;-75801;-477783;
2024-04-19T14:43:34.734;536732011131436134;63110;7435;-75962;-477792;
2024-04-19T14:43:34.753;536732011149600592;62933;7338;-76204;-477808;
2024-04-19T14:43:34.771;536732011167765050;62716;7278;-76521;-477848;
2024-04-19T14:43:34.789;536732011185929508;62434;7219;-76832;-477794;
2024-04-19T14:43:34.807;536732011204093966;62111;7057;-77161;-477828;
2024-04-19T14:43:34.825;536732011222258424;61831;6904;-77457;-477812;
2024-04-19T14:43:34.843;536732011240422882;61546;6793;-77712;-477858;
2024-04-19T14:43:34.862;536732011258587340;61451;6613;-77971;-477819;
2024-04-19T14:43:34.880;536732011276751798;61333;6608;-78110;-477791;
2024-04-19T14:43:34.898;536732011294916256;61267;6555;-78303;-477805;
2024-04-19T14:43:34.916;536732011313080714;61209;6481;-78433;-477838;
2024-04-19T14:43:34.934;536732011331245172;61263;6445;-78464;-477808;
2024-04-19T14:43:34.952;536732011349409630;61208;6483;-78504;-477839;
2024-04-19T14:43:34.971;536732011367574088;61296;6440;-78573;-477801;
2024-04-19T14:43:34.989;536732011385738546;61175;6440;-78692;-477741;
2024-04-19T14:43:35.007;536732011403903004;61076;6376;-78828;-477790;
2024-04-19T14:43:35.025;536732011422065876;60939;6320;-78968;-477778;
2024-04-19T14:43:35.043;536732011440228736;60786;6201;-79084;-477796;
2024-04-19T14:43:35.061;536732011458391596;60676;6181;-79220;-477795;
2024-04-19T14:43:35.080;536732011476554456;60628;6138;-79323;-477842;
2024-04-19T14:43:35.098;536732011494717316;60610;6142;-79414;-477850;
2024-04-19T14:43:35.116;536732011512880176;60562;6015;-79551;-477793;
2024-04-19T14:43:35.134;536732011531043036;60518;5966;-79720;-477805;
2024-04-19T14:43:35.152;536732011549205896;60530;6013;-79730;-477766;
2024-04-19T14:43:35.170;536732011567368756;60516;5954;-79866;-477768;
2024-04-19T14:43:35.189;536732011585531616;60596;6002;-79852;-477765;
2024-04-19T14:43:35.207;536732011603694476;60603;6053;-79885;-477816;
2024-04-19T14:43:35.225;536732011621857336;60633;6014;-80020;-477761;
2024-04-19T14:43:35.243;536732011640020196;60635;5942;-80000;-477779;
2024-04-19T14:43:35.261;536732011658183056;60559;5956;-79994;-477731;
2024-04-19T14:43:35.279;536732011676345916;60575;5968;-79941;-477730;
2024-04-19T14:43:35.298;536732011694508776;60342;5883;-80147;-477737;
2024-04-19T14:43:35.316;536732011712671636;59927;5718;-80402;-477806;
2024-04-19T14:43:35.334;536732011730834496;59591;5501;-80738;-477768;
2024-04-19T14:43:35.352;536732011748997356;59155;5347;-81067;-477761;
2024-04-19T14:43:35.370;536732011767160216;58795;5256;-81425;-477708;
2024-04-19T14:43:35.388;536732011785323076;58511;5125;-81784;-477758;
2024-04-19T14:43:35.407;536732011803485936;58153;5005;-82063;-477793;
2024-04-19T14:43:35.425;536732011821648796;57951;4842;-82282;-477739;
2024-04-19T14:43:35.443;536732011839811656;57894;4757;-82503;-477741;
2024-04-19T14:43:35.461;536732011857974516;57865;4619;-82633;-477759;
2024-04-19T14:43:35.479;536732011876137376;57741;4635;-82716;-477687;
2024-04-19T14:43:35.497;536732011894300236;57696;4573;-82868;-477756;
2024-04-19T14:43:35.516;536732011912463096;57712;4608;-82954;-477712;
2024-04-19T14:43:35.534;536732011930625956;57659;4547;-82966;-477735;
2024-04-19T14:43:35.552;536732011948788816;57597;4604;-82936;-477701;
2024-04-19T14:43:35.570;536732011966951676;57453;4606;-82930;-477713;
2024-04-19T14:43:35.588;536732011985114536;57449;4710;-82985;-477746;
2024-04-19T14:43:35.606;536732012003277396;57505;4820;-82878;-477773;
2024-04-19T14:43:35.624;536732012021440256;57544;5029;-82899;-477764;
2024-04-19T14:43:35.643;536732012039603116;57667;5169;-82934;-477747;
2024-04-19T14:43:35.661;536732012057765976;57819;5306;-82965;-477766;
2024-04-19T14:43:35.679;536732012075928836;57898;5413;-82851;-477741;
2024-04-19T14:43:35.697;536732012094091696;57893;5395;-82890;-477768;
2024-04-19T14:43:35.715;536732012112254556;57947;5456;-82937;-477756;
2024-04-19T14:43:35.733;536732012130417416;57848;5429;-82978;-477793;
2024-04-19T14:43:35.752;536732012148580276;58027;5345;-83065;-477805;
2024-04-19T14:43:35.770;536732012166743136;58082;5378;-83059;-477775;
2024-04-19T14:43:35.788;536732012184907313;58081;5397;-83075;-477741;
2024-04-19T14:43:35.806;536732012203071461;58210;5416;-83078;-477728;
2024-04-19T14:43:35.824;536732012221235609;58285;5435;-82974;-477737;
2024-04-19T14:43:35.842;536732012239399757;58273;5405;-83042;-477765;
2024-04-19T14:43:35.861;536732012257563905;58144;5340;-83160;-477755;
2024-04-19T14:43:35.879;536732012275728053;57858;5272;-83366;-477724;
2024-04-19T14:43:35.897;536732012293892201;57355;5153;-83749;-477750;
2024-04-19T14:43:35.915;536732012312056349;56784;4973;-84225;-477785;
2024-04-19T14:43:35.933;536732012330220497;56269;4894;-84797;-477798;
2024-04-19T14:43:35.951;536732012348384645;55830;4880;-85369;-477862;
2024-04-19T14:43:35.970;536732012366548793;55485;4897;-85919;-477832;
2024-04-19T14:43:35.988;536732012384712941;55303;4984;-86274;-477836;
2024-04-19T14:43:36.006;536732012402877089;55249;5050;-86612;-477857;
2024-04-19T14:43:36.024;536732012421041237;55105;5081;-86891;-477813;
2024-04-19T14:43:36.042;536732012439205385;54997;5122;-87026;-477865;
2024-04-19T14:43:36.060;536732012457369533;55002;5183;-87200;-477856;
2024-04-19T14:43:36.079;536732012475533681;55060;5182;-87320;-477819;
2024-04-19T14:43:36.097;536732012493697829;55029;5160;-87453;-477827;
2024-04-19T14:43:36.115;536732012511861977;54954;5167;-87580;-477843;
2024-04-19T14:43:36.133;536732012530026125;54888;5153;-87692;-477791;
2024-04-19T14:43:36.151;536732012548190273;54783;5081;-87867;-477835;
2024-04-19T14:43:36.169;536732012566354421;54711;5059;-87944;-477844;
2024-04-19T14:43:36.188;536732012584518569;54589;5050;-87977;-477844;
2024-04-19T14:43:36.206;536732012602682717;54552;4951;-88009;-477772;
2024-04-19T14:43:36.224;536732012620846865;54509;4978;-88021;-477787;
2024-04-19T14:43:36.242;536732012639011013;54559;5014;-88038;-477744;
2024-04-19T14:43:36.260;536732012657175161;54645;5104;-87934;-477757;
2024-04-19T14:43:36.278;536732012675339309;54774;5152;-87844;-477767;
2024-04-19T14:43:36.297;536732012693503457;54909;5272;-87711;-477783;
2024-04-19T14:43:36.315;536732012711667605;54986;5359;-87648;-477772;
2024-04-19T14:43:36.333;536732012729831753;55154;5470;-87571;-477759;
2024-04-19T14:43:36.351;536732012747995901;55363;5622;-87376;-477806;
2024-04-19T14:43:36.369;536732012766160049;55533;5695;-87305;-477776;
2024-04-19T14:43:36.387;536732012784324197;55791;5927;-87091;-477765;
2024-04-19T14:43:36.406;536732012802488345;56002;6135;-86993;-477707;
2024-04-19T14:43:36.424;536732012820652493;56226;6321;-86825;-477778;
2024-04-19T14:43:36.442;536732012838816641;56395;6462;-86741;-477814;
2024-04-19T14:43:36.460;536732012856981085;56395;6561;-86722;-477742;
2024-04-19T14:43:36.478;536732012875145507;56152;6526;-86873;-477815;
2024-04-19T14:43:36.496;536732012893309929;55926;6370;-87121;-477779;
2024-04-19T14:43:36.515;536732012911474351;55585;6258;-87376;-477818;
2024-04-19T14:43:36.533;536732012929638773;55295;6230;-87680;-477747;
2024-04-19T14:43:36.551;536732012947803195;55004;6016;-87945;-477790;
2024-04-19T14:43:36.569;536732012965967617;54851;5997;-88114;-477778;
2024-04-19T14:43:36.587;536732012984132039;54734;5859;-88239;-477756;
2024-04-19T14:43:36.605;536732013002296461;54702;5844;-88425;-477825;
2024-04-19T14:43:36.624;536732013020460883;54770;5825;-88370;-477788;
2024-04-19T14:43:36.642;536732013038625305;54919;5962;-88282;-477727;
2024-04-19T14:43:36.660;536732013056789727;55016;6052;-88306;-477779;
2024-04-19T14:43:36.678;536732013074954149;55182;6093;-88265;-477763;
2024-04-19T14:43:36.696;536732013093118571;55258;6228;-88250;-477795;
2024-04-19T14:43:36.714;536732013111282993;55235;6321;-88209;-477770;
2024-04-19T14:43:36.732;536732013129447415;55276;6403;-88269;-477791;
2024-04-19T14:43:36.751;536732013147611837;55287;6382;-88258;-477764;
2024-04-19T14:43:36.769;536732013165776259;55282;6382;-88335;-477743;
2024-04-19T14:43:36.787;536732013183940681;55258;6470;-88285;-477822;
2024-04-19T14:43:36.805;536732013202105103;55309;6527;-88231;-477737;
2024-04-19T14:43:36.823;536732013220269525;55356;6466;-88221;-477801;
2024-04-19T14:43:36.841;536732013238433947;55308;6475;-88262;-477821;
2024-04-19T14:43:36.860;536732013256598369;55299;6434;-88254;-477865;
2024-04-19T14:43:36.878;536732013274762791;55331;6566;-88199;-477805;
2024-04-19T14:43:36.896;536732013292927213;55470;6595;-88101;-477796;
2024-04-19T14:43:36.914;536732013311091635;55621;6715;-88013;-477796;
2024-04-19T14:43:36.932;536732013329256057;55748;6733;-87911;-477761;
2024-04-19T14:43:36.950;536732013347420479;55893;6866;-87809;-477754;
2024-04-19T14:43:36.969;536732013365584901;56178;7006;-87599;-477744;
2024-04-19T14:43:36.987;536732013383749323;56419;7133;-87525;-477715;
2024-04-19T14:43:37.005;536732013401913745;56558;7178;-87450;-477766;
2024-04-19T14:43:37.023;536732013420078167;56557;7275;-87402;-477709;
2024-04-19T14:43:37.041;536732013438242589;56432;7191;-87482;-477711;
2024-04-19T14:43:37.059;536732013456407011;56136;7125;-87651;-477825;
2024-04-19T14:43:37.078;536732013474571433;55920;7009;-87824;-477787;
2024-04-19T14:43:37.096;536732013492735855;55620;6916;-88012;-477727;
2024-04-19T14:43:37.114;536732013510900277;55275;6740;-88244;-477765;
2024-04-19T14:43:37.132;536732013529064699;55027;6549;-88507;-477814;
2024-04-19T14:43:37.150;536732013547229121;54877;6420;-88642;-477759;
2024-04-19T14:43:37.168;536732013565393543;54689;6340;-88791;-477819;
2024-04-19T14:43:37.187;536732013583557965;54587;6246;-88896;-477842;
2024-04-19T14:43:37.205;536732013601722387;54546;6191;-88975;-477824;
2024-04-19T14:43:37.223;536732013619886569;54622;6245;-88934;-477824;
2024-04-19T14:43:37.241;536732013638050737;54774;6220;-88867;-477788;
2024-04-19T14:43:37.259;536732013656214905;54841;6286;-88909;-477828;
2024-04-19T14:43:37.277;536732013674379073;54922;6398;-88793;-477766;
2024-04-19T14:43:37.296;536732013692543241;55033;6463;-88681;-477755;
2024-04-19T14:43:37.314;536732013710707409;55124;6466;-88723;-477774;
2024-04-19T14:43:37.332;536732013728871577;55109;6502;-88754;-477791;
2024-04-19T14:43:37.350;536732013747035745;55097;6547;-88702;-477796;
2024-04-19T14:43:37.368;536732013765199913;55166;6587;-88737;-477796;
2024-04-19T14:43:37.386;536732013783364081;55232;6688;-88610;-477849;
2024-04-19T14:43:37.405;536732013801528249;55237;6654;-88695;-477842;
2024-04-19T14:43:37.423;536732013819692417;55294;6735;-88634;-477882;
2024-04-19T14:43:37.441;536732013837856585;55467;6857;-88511;-477788;
2024-04-19T14:43:37.459;536732013856020753;55568;6914;-88415;-477834;
2024-04-19T14:43:37.477;536732013874184921;55712;6991;-88262;-477825;
2024-04-19T14:43:37.495;536732013892349089;55932;7170;-88080;-477824;
2024-04-19T14:43:37.514;536732013910513257;56200;7310;-87979;-477834;
2024-04-19T14:43:37.532;536732013928677425;56487;7561;-87798;-477823;
2024-04-19T14:43:37.550;536732013946841593;56807;7707;-87604;-477808;
2024-04-19T14:43:37.568;536732013965005761;57043;8008;-87440;-477810;
2024-04-19T14:43:37.586;536732013983169929;57360;8282;-87248;-477818;
2024-04-19T14:43:37.604;536732014001334097;57594;8507;-87083;-477800;
2024-04-19T14:43:37.623;536732014019498265;57691;8618;-86984;-477852;
2024-04-19T14:43:37.641;536732014037662433;57656;8702;-87048;-477833;
2024-04-19T14:43:37.659;536732014055826601;57408;8679;-87254;-477840;
2024-04-19T14:43:37.677;536732014073990769;57265;8646;-87394;-477875;
2024-04-19T14:43:37.695;536732014092154937;57053;8558;-87546;-477812;
2024-04-19T14:43:37.713;536732014110319105;56907;8481;-87668;-477795;
2024-04-19T14:43:37.732;536732014128483273;56761;8419;-87768;-477792;
2024-04-19T14:43:37.750;536732014146647441;56694;8388;-87807;-477818;
2024-04-19T14:43:37.768;536732014164811609;56743;8294;-87829;-477792;
2024-04-19T14:43:37.786;536732014182975777;56725;8233;-87880;-477832;
2024-04-19T14:43:37.804;536732014201139945;56792;8351;-87815;-477847;
2024-04-19T14:43:37.822;536732014219304113;56916;8425;-87786;-477804;
2024-04-19T14:43:37.841;536732014237468281;56972;8382;-87775;-477839;
2024-04-19T14:43:37.859;536732014255632449;57024;8330;-87820;-477790;
2024-04-19T14:43:37.877;536732014273796617;57050;8360;-87804;-477785;
2024-04-19T14:43:37.895;536732014291960785;57028;8372;-87798;-477762;
2024-04-19T14:43:37.913;536732014310124953;57010;8300;-87817;-477782;
2024-04-19T14:43:37.931;536732014328289121;56951;8260;-87780;-477849;
2024-04-19T14:43:37.950;536732014346453289;56809;8219;-87852;-477816;
2024-04-19T14:43:37.968;536732014364617457;56847;8224;-87894;-477817;
2024-04-19T14:43:37.986;536732014382780334;56752;8228;-87850;-477807;
2024-04-19T14:43:38.004;536732014400943196;56724;8179;-87828;-477859;
2024-04-19T14:43:38.022;536732014419106058;56727;8161;-87780;-477853;
2024-04-19T14:43:38.040;536732014437268920;56809;8155;-87757;-477818;
2024-04-19T14:43:38.058;536732014455431782;56849;8139;-87707;-477824;
2024-04-19T14:43:38.077;536732014473594644;56956;8196;-87614;-477832;
2024-04-19T14:43:38.095;536732014491757506;57031;8142;-87537;-477792;
2024-04-19T14:43:38.113;536732014509920368;57096;8209;-87559;-477817;
2024-04-19T14:43:38.131;536732014528083230;57140;8252;-87495;-477777;
2024-04-19T14:43:38.149;536732014546246092;57145;8338;-87468;-477775;
2024-04-19T14:43:38.167;536732014564408954;57132;8202;-87369;-477787;
2024-04-19T14:43:38.186;536732014582571816;57254;8211;-87272;-477814;
2024-04-19T14:43:38.204;536732014600734678;57234;8225;-87202;-477848;
2024-04-19T14:43:38.222;536732014618897540;57159;8236;-87214;-477866;
2024-04-19T14:43:38.240;536732014637060402;57131;8273;-87250;-477855;
2024-04-19T14:43:38.258;536732014655223264;56978;8403;-87237;-477843;
2024-04-19T14:43:38.276;536732014673386126;56671;8299;-87405;-477847;
2024-04-19T14:43:38.295;536732014691548988;56395;8198;-87538;-477843;
2024-04-19T14:43:38.313;536732014709711850;56276;8092;-87728;-477852;
2024-04-19T14:43:38.331;536732014727874712;56026;7918;-87846;-477809;
2024-04-19T14:43:38.349;536732014746037574;55922;7901;-87898;-477805;
2024-04-19T14:43:38.367;536732014764200436;55899;7934;-87934;-477809;
2024-04-19T14:43:38.385;536732014782363298;55990;7935;-88005;-477819;
2024-04-19T14:43:38.404;536732014800526160;56187;8051;-87841;-477810;
2024-04-19T14:43:38.422;536732014818689022;56541;8330;-87759;-477767;
2024-04-19T14:43:38.440;536732014836851884;56848;8614;-87627;-477831;
2024-04-19T14:43:38.458;536732014855014746;57281;8909;-87615;-477840;
2024-04-19T14:43:38.476;536732014873177608;57609;9187;-87450;-477863;
2024-04-19T14:43:38.494;536732014891340470;57996;9489;-87444;-477839;
2024-04-19T14:43:38.513;536732014909503332;58292;9663;-87357;-477824;
2024-04-19T14:43:38.531;536732014927666194;58553;9720;-87372;-477853;
2024-04-19T14:43:38.549;536732014945829056;58759;9782;-87335;-477816;
2024-04-19T14:43:38.567;536732014963991918;58883;9645;-87501;-477859;
2024-04-19T14:43:38.585;536732014982154780;58953;9433;-87586;-477878;
2024-04-19T14:43:38.603;536732015000317642;59017;9218;-87759;-477830;
2024-04-19T14:43:38.622;536732015018480504;59126;9038;-87826;-477839;
2024-04-19T14:43:38.640;536732015036643366;59193;8897;-87872;-477878;
2024-04-19T14:43:38.658;536732015054806228;59294;8762;-87967;-477843;
2024-04-19T14:43:38.676;536732015072969090;59368;8645;-88000;-477921;
2024-04-19T14:43:38.694;536732015091131952;59300;8435;-88118;-477879;
2024-04-19T14:43:38.712;536732015109294814;59268;8220;-88217;-477893;
2024-04-19T14:43:38.731;536732015127456447;59194;7941;-88312;-477913;
2024-04-19T14:43:38.749;536732015145618060;59168;7834;-88301;-477855;
2024-04-19T14:43:38.767;536732015163779673;59264;7690;-88262;-477883;
2024-04-19T14:43:38.785;536732015181941286;59442;7636;-88241;-477892;
2024-04-19T14:43:38.803;536732015200102899;59824;7985;-88043;-477895;
2024-04-19T14:43:38.821;536732015218264512;60471;8295;-88016;-477914;
2024-04-19T14:43:38.839;536732015236426125;61132;8823;-88001;-477846;
2024-04-19T14:43:38.858;536732015254587738;61672;9153;-88074;-477801;
2024-04-19T14:43:38.876;536732015272749351;62185;8078;-88489;-477813;
2024-04-19T14:43:38.894;536732015290910964;62256;5464;-88972;-477709;
2024-04-19T14:43:38.912;536732015309072577;61889;2615;-89562;-477702;
2024-04-19T14:43:38.930;536732015327234190;61197;484;-90203;-477638;
2024-04-19T14:43:38.948;536732015345395803;60456;-1123;-90788;-477510;
2024-04-19T14:43:38.967;536732015363557416;60051;-1789;-91324;-477364;
2024-04-19T14:43:38.985;536732015381719029;60125;-1886;-92133;-477182;
2024-04-19T14:43:39.003;536732015399880642;60879;-1409;-92906;-477068;
2024-04-19T14:43:39.021;536732015418042255;62331;-797;-93600;-476913;
2024-04-19T14:43:39.039;536732015436203868;64152;-370;-94230;-476843;
2024-04-19T14:43:39.057;536732015454365481;66959;509;-94986;-476719;
2024-04-19T14:43:39.076;536732015472527094;71026;2191;-95783;-476601;
2024-04-19T14:43:39.094;536732015490688707;75221;4236;-96635;-476423;
2024-04-19T14:43:39.112;536732015508850320;79650;6630;-97444;-476275;
2024-04-19T14:43:39.130;536732015527011933;83403;8726;-98309;-476169;
2024-04-19T14:43:39.148;536732015545173546;85627;9768;-99117;-476138;
2024-04-19T14:43:39.166;536732015563335159;86260;9949;-99727;-476080;
2024-04-19T14:43:39.185;536732015581496772;85549;9440;-100324;-476093;
2024-04-19T14:43:39.203;536732015599659573;83251;8119;-100732;-476061;
2024-04-19T14:43:39.221;536732015617822360;78863;6108;-100958;-476170;
2024-04-19T14:43:39.239;536732015635985147;75981;4942;-101106;-476310;
2024-04-19T14:43:39.257;536732015654147934;74337;4033;-101271;-476303;
2024-04-19T14:43:39.275;536732015672310721;75331;4718;-101570;-476215;
2024-04-19T14:43:39.294;536732015690473508;78472;6515;-102044;-476185;
2024-04-19T14:43:39.312;536732015708636295;81285;8219;-102531;-476185;
2024-04-19T14:43:39.330;536732015726799082;81890;8347;-102969;-476235;
2024-04-19T14:43:39.348;536732015744961869;79228;6097;-103381;-476405;
2024-04-19T14:43:39.366;536732015763124656;73364;1605;-103647;-476634;
2024-04-19T14:43:39.384;536732015781287443;67325;-3944;-103644;-476914;
2024-04-19T14:43:39.403;536732015799450230;64022;-8414;-103441;-477104;
2024-04-19T14:43:39.421;536732015817613017;62735;-11037;-103054;-477204;
2024-04-19T14:43:39.439;536732015835775804;62450;-12698;-102607;-477365;
2024-04-19T14:43:39.457;536732015853938591;62626;-13534;-102127;-477373;
2024-04-19T14:43:39.475;536732015872101378;62887;-13770;-101703;-477426;
2024-04-19T14:43:39.493;536732015890264165;63324;-13793;-101297;-477429;
2024-04-19T14:43:39.511;536732015908426952;63766;-13654;-100992;-477460;
2024-04-19T14:43:39.530;536732015926589739;64243;-13319;-100694;-477477;
2024-04-19T14:43:39.548;536732015944752526;64759;-12691;-100469;-477494;
2024-04-19T14:43:39.566;536732015962915313;65254;-11881;-100168;-477528;
2024-04-19T14:43:39.584;536732015981078100;65787;-11089;-99753;-477497;
2024-04-19T14:43:39.602;536732015999240887;66477;-10401;-99434;-477519;
2024-04-19T14:43:39.620;536732016017403674;67211;-9571;-99045;-477459;
2024-04-19T14:43:39.639;536732016035566461;68064;-8899;-98689;-477446;
2024-04-19T14:43:39.657;536732016053729248;68803;-8279;-98324;-477484;
2024-04-19T14:43:39.675;536732016071892035;69689;-7517;-97949;-477464;
2024-04-19T14:43:39.693;536732016090054822;70632;-6682;-97380;-477439;
2024-04-19T14:43:39.711;536732016108217609;71558;-5999;-96821;-477465;
2024-04-19T14:43:39.729;536732016126380396;72532;-5198;-96249;-477455;
2024-04-19T14:43:39.748;536732016144543677;73126;-4613;-95810;-477420;
2024-04-19T14:43:39.766;536732016162706944;73483;-4213;-95505;-477447;
2024-04-19T14:43:39.784;536732016180870211;73644;-4122;-95368;-477472;
2024-04-19T14:43:39.802;536732016199033478;73097;-4135;-95718;-477515;
2024-04-19T14:43:39.820;536732016217196745;73250;-3890;-95610;-477463;
2024-04-19T14:43:39.838;536732016235360012;73620;-3580;-95382;-477491;
2024-04-19T14:43:39.857;536732016253523279;74116;-3104;-94936;-477465;
2024-04-19T14:43:39.875;536732016271686546;74622;-2764;-94521;-477445;
2024-04-19T14:43:39.893;536732016289849813;75345;-2138;-93975;-477430;
2024-04-19T14:43:39.911;536732016308013080;76142;-1519;-93416;-477448;
2024-04-19T14:43:39.929;536732016326176347;76858;-1018;-92967;-477426;
2024-04-19T14:43:39.947;536732016344339614;77495;-549;-92541;-477466;
2024-04-19T14:43:39.966;536732016362502881;78036;-220;-92111;-477438;
2024-04-19T14:43:39.984;536732016380666148;78339;36;-91838;-477420;
2024-04-19T14:43:40.002;536732016398829415;78153;-165;-91795;-477445;
2024-04-19T14:43:40.020;536732016416992682;77657;-524;-92034;-477543;
2024-04-19T14:43:40.038;536732016435155949;77148;-1084;-92669;-477542;
2024-04-19T14:43:40.056;536732016453319216;76630;-1697;-93373;-477515;
2024-04-19T14:43:40.075;536732016471482483;76053;-2396;-93953;-477510;
2024-04-19T14:43:40.093;536732016489645750;75802;-2895;-94263;-477570;
2024-04-19T14:43:40.111;536732016507809017;75709;-3394;-94505;-477514;
2024-04-19T14:43:40.129;536732016525972284;75746;-3834;-94623;-477480;
2024-04-19T14:43:40.147;536732016544135551;75801;-4332;-94889;-477527;
2024-04-19T14:43:40.165;536732016562298818;75883;-4670;-94986;-477511;
2024-04-19T14:43:40.184;536732016580462085;76067;-5034;-95116;-477421;
2024-04-19T14:43:40.202;536732016598625352;75911;-5517;-95482;-477483;
2024-04-19T14:43:40.220;536732016616788619;75490;-6204;-96145;-477534;
2024-04-19T14:43:40.238;536732016634951886;74938;-7109;-97026;-477486;
2024-04-19T14:43:40.256;536732016653115153;74161;-7977;-98007;-477486;
2024-04-19T14:43:40.274;536732016671278420;73535;-8794;-98888;-477476;
2024-04-19T14:43:40.292;536732016689441687;73137;-9552;-99573;-477451;
2024-04-19T14:43:40.311;536732016707604954;72796;-10117;-100034;-477433;
2024-04-19T14:43:40.329;536732016725768221;72591;-10639;-100419;-477425;
2024-04-19T14:43:40.347;536732016743931488;72491;-11125;-100719;-477395;
2024-04-19T14:43:40.365;536732016762094755;72476;-11441;-100887;-477397;
2024-04-19T14:43:40.383;536732016780258381;72539;-11803;-101061;-477378;
2024-04-19T14:43:40.401;536732016798421967;72689;-12004;-101109;-477362;
2024-04-19T14:43:40.420;536732016816585553;72738;-12313;-101124;-477389;
2024-04-19T14:43:40.438;536732016834749139;72705;-12499;-101146;-477395;
2024-04-19T14:43:40.456;536732016852912725;72618;-12791;-101196;-477448;
2024-04-19T14:43:40.474;536732016871076311;72570;-13042;-101224;-477435;
2024-04-19T14:43:40.492;536732016889239897;72558;-13220;-101278;-477431;
2024-04-19T14:43:40.510;536732016907403483;72714;-13337;-101234;-477422;
2024-04-19T14:43:40.529;536732016925567069;72731;-13487;-101208;-477475;
2024-04-19T14:43:40.547;536732016943730655;72841;-13489;-101047;-477331;
2024-04-19T14:43:40.565;536732016961894241;73033;-13483;-100811;-477328;
2024-04-19T14:43:40.583;536732016980057827;73149;-13437;-100616;-477344;
2024-04-19T14:43:40.601;536732016998221413;73308;-13488;-100309;-477289;
2024-04-19T14:43:40.619;536732017016384999;73376;-13436;-100043;-477329;
2024-04-19T14:43:40.638;536732017034548585;73479;-13418;-99824;-477285;
2024-04-19T14:43:40.656;536732017052712171;73599;-13397;-99577;-477287;
2024-04-19T14:43:40.674;536732017070875757;73842;-13452;-99320;-477297;
2024-04-19T14:43:40.692;536732017089039343;74036;-13426;-99024;-477312;
2024-04-19T14:43:40.710;536732017107202929;74367;-13341;-98767;-477366;
2024-04-19T14:43:40.728;536732017125366515;74555;-13332;-98447;-477402;
2024-04-19T14:43:40.747;536732017143530101;74755;-13286;-98175;-477362;
2024-04-19T14:43:40.765;536732017161693687;75038;-13209;-97778;-477374;
2024-04-19T14:43:40.783;536732017179857273;75224;-13230;-97417;-477399;
2024-04-19T14:43:40.801;536732017198020859;75477;-13135;-96997;-477371;
2024-04-19T14:43:40.819;536732017216184445;75657;-13194;-96636;-477370;
2024-04-19T14:43:40.837;536732017234348031;75928;-13115;-96156;-477372;
2024-04-19T14:43:40.856;536732017252511617;75908;-13069;-95778;-477300;
2024-04-19T14:43:40.874;536732017270675203;75960;-12783;-95487;-477373;
2024-04-19T14:43:40.892;536732017288838789;76113;-12446;-95297;-477379;
2024-04-19T14:43:40.910;536732017307002375;76360;-12160;-95113;-477366;
2024-04-19T14:43:40.928;536732017325165961;76476;-11997;-95060;-477322;
2024-04-19T14:43:40.946;536732017343329547;76497;-11957;-95169;-477374;
2024-04-19T14:43:40.965;536732017361493133;76480;-11978;-95178;-477311;
2024-04-19T14:43:40.983;536732017379656719;76520;-12030;-95124;-477310;
2024-04-19T14:43:41.001;536732017397820305;76518;-12059;-95115;-477354;
2024-04-19T14:43:41.019;536732017415983891;76551;-12253;-95129;-477384;
2024-04-19T14:43:41.037;536732017434147477;76601;-12334;-95066;-477332;
2024-04-19T14:43:41.055;536732017452311063;76636;-12415;-95095;-477341;
2024-04-19T14:43:41.074;536732017470474649;76636;-12340;-95016;-477367;
2024-04-19T14:43:41.092;536732017488638235;76715;-12345;-94941;-477395;
2024-04-19T14:43:41.110;536732017506801821;76669;-12345;-94857;-477464;
2024-04-19T14:43:41.128;536732017524965407;76667;-12371;-94912;-477420;
2024-04-19T14:43:41.146;536732017543129578;76743;-12367;-94774;-477332;
2024-04-19T14:43:41.164;536732017561293709;76573;-12433;-94793;-477404;
2024-04-19T14:43:41.183;536732017579457840;76474;-12518;-94783;-477433;
2024-04-19T14:43:41.201;536732017597621971;76364;-12507;-94777;-477440;
2024-04-19T14:43:41.219;536732017615786102;76235;-12478;-94658;-477481;
2024-04-19T14:43:41.237;536732017633950233;76144;-12445;-94589;-477453;
2024-04-19T14:43:41.255;536732017652114364;76090;-12308;-94473;-477484;
2024-04-19T14:43:41.273;536732017670278495;76073;-12146;-94331;-477470;
2024-04-19T14:43:41.291;536732017688442626;76175;-11871;-94123;-477396;
2024-04-19T14:43:41.310;536732017706606757;76447;-11647;-94003;-477303;
2024-04-19T14:43:41.328;536732017724770888;76710;-11420;-93853;-477332;
2024-04-19T14:43:41.346;536732017742935019;76948;-11226;-93639;-477368;
2024-04-19T14:43:41.364;536732017761099150;77159;-11001;-93469;-477349;
2024-04-19T14:43:41.382;536732017779263281;77404;-10820;-93379;-477335;
2024-04-19T14:43:41.400;536732017797427412;77623;-10737;-93296;-477354;
2024-04-19T14:43:41.419;536732017815591543;77865;-10619;-93110;-477333;
2024-04-19T14:43:41.437;536732017833755674;77935;-10665;-92899;-477337;
2024-04-19T14:43:41.455;536732017851919805;78092;-10555;-92665;-477331;
2024-04-19T14:43:41.473;536732017870083936;78225;-10438;-92476;-477361;
2024-04-19T14:43:41.491;536732017888248067;78157;-10353;-92405;-477361;
2024-04-19T14:43:41.509;536732017906412198;77867;-10413;-92579;-477394;
2024-04-19T14:43:41.528;536732017924576329;77637;-10502;-92779;-477358;
2024-04-19T14:43:41.546;536732017942740460;77192;-10676;-93071;-477429;
2024-04-19T14:43:41.564;536732017960904591;76917;-10826;-93276;-477334;
2024-04-19T14:43:41.582;536732017979068722;76577;-10889;-93492;-477388;
2024-04-19T14:43:41.600;536732017997232853;76557;-10839;-93597;-477279;
2024-04-19T14:43:41.618;536732018015396984;76477;-10900;-93686;-477333;
2024-04-19T14:43:41.637;536732018033561115;76581;-10893;-93695;-477318;
2024-04-19T14:43:41.655;536732018051725246;76528;-10854;-93818;-477319;
2024-04-19T14:43:41.673;536732018069889377;76589;-10918;-93796;-477326;
2024-04-19T14:43:41.691;536732018088053508;76690;-10958;-93763;-477229;
2024-04-19T14:43:41.709;536732018106217639;76747;-11052;-93830;-477227;
2024-04-19T14:43:41.727;536732018124381770;76684;-11253;-93910;-477245;
2024-04-19T14:43:41.746;536732018142545901;76751;-11453;-94024;-477173;
2024-04-19T14:43:41.764;536732018160710032;76757;-11629;-94137;-477165;
2024-04-19T14:43:41.782;536732018178874163;76588;-11767;-94284;-477204;
2024-04-19T14:43:41.800;536732018197038294;76453;-11825;-94195;-477197;
2024-04-19T14:43:41.818;536732018215202425;76254;-11946;-94127;-477248;
2024-04-19T14:43:41.836;536732018233366556;76095;-11951;-94015;-477287;
2024-04-19T14:43:41.855;536732018251530687;76039;-11810;-93927;-477261;
2024-04-19T14:43:41.873;536732018269694818;76027;-11841;-93922;-477233;
2024-04-19T14:43:41.891;536732018287858949;75905;-11923;-93893;-477221;
2024-04-19T14:43:41.909;536732018306024372;75834;-11940;-93902;-477222;
2024-04-19T14:43:41.927;536732018324189775;75763;-11950;-93899;-477267;
2024-04-19T14:43:41.945;536732018342355178;75653;-12058;-93955;-477228;
2024-04-19T14:43:41.964;536732018360520581;75564;-12156;-94030;-477239;
2024-04-19T14:43:41.982;536732018378685984;75576;-12238;-94197;-477268;
2024-04-19T14:43:42.000;536732018396851387;75521;-12373;-94209;-477273;
2024-04-19T14:43:42.018;536732018415016790;75443;-12430;-94276;-477218;
2024-04-19T14:43:42.036;536732018433182193;75350;-12579;-94285;-477222;
2024-04-19T14:43:42.054;536732018451347596;75357;-12678;-94243;-477254;
2024-04-19T14:43:42.073;536732018469512999;75183;-12863;-94336;-477286;
2024-04-19T14:43:42.091;536732018487678402;75006;-12954;-94466;-477286;
2024-04-19T14:43:42.109;536732018505843805;74638;-13165;-94589;-477277;
2024-04-19T14:43:42.127;536732018524009208;74158;-13394;-94859;-477373;
2024-04-19T14:43:42.145;536732018542174611;73601;-13685;-95153;-477373;
2024-04-19T14:43:42.163;536732018560340014;73056;-13891;-95474;-477435;
2024-04-19T14:43:42.182;536732018578505417;72511;-14122;-95793;-477441;
2024-04-19T14:43:42.200;536732018596670820;71966;-14358;-96050;-477441;
2024-04-19T14:43:42.218;536732018614836223;71618;-14550;-96327;-477428;
2024-04-19T14:43:42.236;536732018633001626;71233;-14672;-96485;-477450;
2024-04-19T14:43:42.254;536732018651167029;70969;-14882;-96617;-477453;
2024-04-19T14:43:42.272;536732018669332432;70731;-14956;-96632;-477459;
2024-04-19T14:43:42.291;536732018687497835;70531;-15021;-96669;-477472;
2024-04-19T14:43:42.309;536732018705663238;70486;-15200;-96716;-477477;
2024-04-19T14:43:42.327;536732018723828641;70464;-15338;-96703;-477429;
2024-04-19T14:43:42.345;536732018741994044;70235;-15555;-96775;-477446;
2024-04-19T14:43:42.363;536732018760159447;70049;-15891;-96937;-477465;
2024-04-19T14:43:42.381;536732018778324850;69664;-16184;-97135;-477430;
2024-04-19T14:43:42.400;536732018796490253;69278;-16453;-97359;-477354;
2024-04-19T14:43:42.418;536732018814655656;68817;-16679;-97626;-477399;
2024-04-19T14:43:42.436;536732018832821059;68395;-16785;-97849;-477458;
2024-04-19T14:43:42.454;536732018850986462;67849;-16811;-98066;-477346;
2024-04-19T14:43:42.472;536732018869151865;67396;-16833;-98319;-477330;
2024-04-19T14:43:42.490;536732018887317268;67089;-16881;-98420;-477277;
2024-04-19T14:43:42.509;536732018905482671;66875;-17091;-98570;-477277;
2024-04-19T14:43:42.527;536732018923648074;66720;-17370;-98750;-477253;
2024-04-19T14:43:42.545;536732018941813229;66495;-17632;-98885;-477317;
2024-04-19T14:43:42.563;536732018959978367;66233;-17931;-99025;-477361;
2024-04-19T14:43:42.581;536732018978143505;66072;-18155;-99182;-477365;
2024-04-19T14:43:42.599;536732018996308643;65841;-18316;-99289;-477412;
2024-04-19T14:43:42.618;536732019014473781;65717;-18564;-99353;-477373;
2024-04-19T14:43:42.636;536732019032638919;65576;-19033;-99368;-477435;
2024-04-19T14:43:42.654;536732019050804057;65398;-19446;-99439;-477474;
2024-04-19T14:43:42.672;536732019068969195;65487;-19740;-99365;-477469;
2024-04-19T14:43:42.690;536732019087134333;65477;-20021;-99450;-477512;
2024-04-19T14:43:42.708;536732019105299471;65320;-20284;-99540;-477504;
2024-04-19T14:43:42.727;536732019123464609;65052;-20629;-99816;-477527;
2024-04-19T14:43:42.745;536732019141629747;64493;-21063;-100225;-477526;
2024-04-19T14:43:42.763;536732019159794885;63843;-21451;-100615;-477466;
2024-04-19T14:43:42.781;536732019177960023;63185;-21948;-101109;-477566;
2024-04-19T14:43:42.799;536732019196125161;62585;-22303;-101502;-477529;
2024-04-19T14:43:42.817;536732019214290299;61924;-22682;-101975;-477512;
2024-04-19T14:43:42.836;536732019232455437;61298;-23048;-102414;-477498;
2024-04-19T14:43:42.854;536732019250620575;60772;-23220;-102740;-477524;
2024-04-19T14:43:42.872;536732019268785713;60333;-23365;-102993;-477540;
2024-04-19T14:43:42.890;536732019286950851;59953;-23546;-103311;-477504;
2024-04-19T14:43:42.908;536732019305115989;59653;-23676;-103442;-477470;
2024-04-19T14:43:42.926;536732019323281127;59330;-23707;-103548;-477507;
2024-04-19T14:43:42.944;536732019341446265;58887;-23799;-103727;-477508;
2024-04-19T14:43:42.963;536732019359611403;58225;-24098;-103944;-477528;
2024-04-19T14:43:42.981;536732019377776541;57553;-24219;-104254;-477569;
2024-04-19T14:43:42.999;536732019395941679;56928;-24558;-104553;-477507;
2024-04-19T14:43:43.017;536732019414106817;56324;-24840;-104926;-477465;
2024-04-19T14:43:43.035;536732019432271955;55761;-25068;-105289;-477468;
2024-04-19T14:43:43.053;536732019450437093;55252;-25329;-105568;-477468;
2024-04-19T14:43:43.072;536732019468602231;54817;-25475;-105884;-477500;
2024-04-19T14:43:43.090;536732019486767369;54512;-25667;-106107;-477429;
2024-04-19T14:43:43.108;536732019504932507;54234;-25860;-106311;-477404;
2024-04-19T14:43:43.126;536732019523097645;54043;-25992;-106463;-477375;
2024-04-19T14:43:43.144;536732019541262783;53867;-26179;-106631;-477430;
2024-04-19T14:43:43.162;536732019559427921;53649;-26322;-106809;-477408;
2024-04-19T14:43:43.181;536732019577593059;53534;-26374;-106839;-477382;
2024-04-19T14:43:43.199;536732019595758197;53435;-26556;-106946;-477420;
2024-04-19T14:43:43.217;536732019613922534;53423;-26719;-107002;-477449;
2024-04-19T14:43:43.235;536732019632086847;53509;-26878;-107034;-477419;
2024-04-19T14:43:43.253;536732019650251160;53632;-26998;-107037;-477395;
2024-04-19T14:43:43.271;536732019668415473;53735;-26978;-106878;-477386;
2024-04-19T14:43:43.290;536732019686579786;54037;-26820;-106501;-477430;
2024-04-19T14:43:43.308;536732019704744099;54573;-26154;-106067;-477435;
2024-04-19T14:43:43.326;536732019722908412;55321;-25336;-105608;-477403;
2024-04-19T14:43:43.344;536732019741072725;56047;-24574;-105266;-477464;
2024-04-19T14:43:43.362;536732019759237038;56879;-23905;-104998;-477424;
2024-04-19T14:43:43.380;536732019777401351;57614;-23397;-104815;-477486;
2024-04-19T14:43:43.399;536732019795565664;58443;-22765;-104486;-477455;
2024-04-19T14:43:43.417;536732019813729977;59113;-22359;-104306;-477386;
2024-04-19T14:43:43.435;536732019831894290;59667;-22041;-104133;-477405;
2024-04-19T14:43:43.453;536732019850058603;60051;-21808;-103901;-477454;
2024-04-19T14:43:43.471;536732019868222916;60568;-21651;-103645;-477387;
2024-04-19T14:43:43.489;536732019886387229;61107;-21524;-103331;-477364;
2024-04-19T14:43:43.508;536732019904551542;61851;-21424;-103118;-477405;
2024-04-19T14:43:43.526;536732019922715855;62696;-21441;-102848;-477314;
2024-04-19T14:43:43.544;536732019940880168;63538;-21441;-102578;-477250;
2024-04-19T14:43:43.562;536732019959044481;64348;-21542;-102237;-477278;
2024-04-19T14:43:43.580;536732019977208794;65062;-21592;-101901;-477181;
2024-04-19T14:43:43.598;536732019995373107;65372;-21923;-101648;-477168;
2024-04-19T14:43:43.617;536732020013537420;65709;-22130;-101478;-477161;
2024-04-19T14:43:43.635;536732020031701733;65820;-22186;-101275;-477204;
2024-04-19T14:43:43.653;536732020049866046;65890;-22205;-101019;-477262;
2024-04-19T14:43:43.671;536732020068030359;65844;-22199;-100921;-477293;
2024-04-19T14:43:43.689;536732020086194672;65687;-22229;-100816;-477326;
2024-04-19T14:43:43.707;536732020104358985;65537;-22317;-100661;-477408;
2024-04-19T14:43:43.726;536732020122523298;65409;-22305;-100511;-477425;
2024-04-19T14:43:43.744;536732020140687611;65388;-22354;-100348;-477415;
2024-04-19T14:43:43.762;536732020158851924;65375;-22313;-100138;-477449;
2024-04-19T14:43:43.780;536732020177016237;65393;-22325;-99912;-477436;
2024-04-19T14:43:43.798;536732020195180550;65383;-22290;-99814;-477448;
2024-04-19T14:43:43.816;536732020213344987;65315;-22320;-99693;-477456;
2024-04-19T14:43:43.835;536732020231509424;65258;-22322;-99622;-477450;
2024-04-19T14:43:43.853;536732020249673861;65205;-22257;-99526;-477402;
2024-04-19T14:43:43.871;536732020267838298;65119;-22321;-99451;-477438;
2024-04-19T14:43:43.889;536732020286002735;65023;-22297;-99377;-477450;
2024-04-19T14:43:43.907;536732020304167172;64899;-22332;-99350;-477407;
2024-04-19T14:43:43.925;536732020322331609;64608;-22435;-99385;-477492;
2024-04-19T14:43:43.944;536732020340496046;64314;-22528;-99444;-477445;
2024-04-19T14:43:43.962;536732020358660483;64095;-22700;-99430;-477485;
2024-04-19T14:43:43.980;536732020376824920;63844;-22829;-99462;-477477;
2024-04-19T14:43:43.998;536732020394989357;63533;-22913;-99481;-477443;
2024-04-19T14:43:44.016;536732020413153794;63216;-22900;-99582;-477490;
2024-04-19T14:43:44.034;536732020431318231;62998;-22950;-99719;-477521;
2024-04-19T14:43:44.053;536732020449482668;62839;-22891;-99716;-477548;
2024-04-19T14:43:44.071;536732020467647105;62888;-22621;-99683;-477605;
2024-04-19T14:43:44.089;536732020485811542;63491;-22189;-99378;-477674;
2024-04-19T14:43:44.107;536732020503975979;64145;-21610;-99077;-477753;
2024-04-19T14:43:44.125;536732020522140416;64924;-20959;-98701;-477757;
2024-04-19T14:43:44.143;536732020540304853;65627;-20423;-98482;-477763;
2024-04-19T14:43:44.162;536732020558469290;66191;-19940;-98389;-477780;
2024-04-19T14:43:44.180;536732020576633727;66622;-19593;-98243;-477790;
2024-04-19T14:43:44.198;536732020594798164;66949;-19430;-98150;-477748;
2024-04-19T14:43:44.216;536732020612962601;67147;-19189;-98075;-477794;
2024-04-19T14:43:44.234;536732020631127038;67387;-18899;-97995;-477805;
2024-04-19T14:43:44.252;536732020649291475;67689;-18727;-97946;-477815;
2024-04-19T14:43:44.271;536732020667455912;67969;-18576;-97781;-477754;
2024-04-19T14:43:44.289;536732020685620349;68097;-18505;-97793;-477843;
2024-04-19T14:43:44.307;536732020703784786;68429;-18314;-97622;-477798;
2024-04-19T14:43:44.325;536732020721949223;68577;-18221;-97516;-477840;
2024-04-19T14:43:44.343;536732020740113660;68793;-18149;-97465;-477783;
2024-04-19T14:43:44.361;536732020758278097;69034;-17994;-97336;-477801;
2024-04-19T14:43:44.379;536732020776442534;69146;-18013;-97202;-477795;
2024-04-19T14:43:44.398;536732020794606971;69315;-18021;-97193;-477742;
2024-04-19T14:43:44.416;536732020812771408;69319;-18196;-97182;-477766;
2024-04-19T14:43:44.434;536732020830935845;69209;-18324;-97128;-477761;
2024-04-19T14:43:44.452;536732020849100282;68879;-18611;-97184;-477777;
2024-04-19T14:43:44.470;536732020867264719;68492;-18918;-97311;-477719;
2024-04-19T14:43:44.488;536732020885429554;67982;-19160;-97426;-477739;
2024-04-19T14:43:44.507;536732020903594376;67356;-19474;-97538;-477778;
2024-04-19T14:43:44.525;536732020921759198;66734;-19759;-97764;-477746;
2024-04-19T14:43:44.543;536732020939924020;66239;-19968;-97896;-477779;
2024-04-19T14:43:44.561;536732020958088842;65953;-20100;-97833;-477781;
2024-04-19T14:43:44.579;536732020976253664;65771;-20157;-97917;-477732;
2024-04-19T14:43:44.597;536732020994418486;65693;-20285;-98006;-477754;
2024-04-19T14:43:44.616;536732021012583308;65637;-20243;-97995;-477753;
2024-04-19T14:43:44.634;536732021030748130;65644;-20291;-97997;-477758;
2024-04-19T14:43:44.652;536732021048912952;65551;-20319;-98004;-477711;
2024-04-19T14:43:44.670;536732021067077774;65528;-20432;-97977;-477682;
2024-04-19T14:43:44.688;536732021085242596;65367;-20549;-97987;-477714;
2024-04-19T14:43:44.706;536732021103407418;65147;-20663;-97976;-477745;
2024-04-19T14:43:44.725;536732021121572240;64946;-20776;-98030;-477755;
2024-04-19T14:43:44.743;536732021139737062;64807;-20968;-98187;-477728;
2024-04-19T14:43:44.761;536732021157901884;64752;-21046;-98262;-477780;
2024-04-19T14:43:44.779;536732021176066706;64766;-20980;-98217;-477706;
2024-04-19T14:43:44.797;536732021194231528;64817;-20981;-98238;-477740;
2024-04-19T14:43:44.815;536732021212396350;64937;-20892;-98243;-477784;
2024-04-19T14:43:44.834;536732021230561172;64992;-20819;-98292;-477677;
2024-04-19T14:43:44.852;536732021248725994;64879;-20829;-98321;-477706;
2024-04-19T14:43:44.870;536732021266890816;64707;-20895;-98308;-477691;
2024-04-19T14:43:44.888;536732021285055638;64505;-20981;-98365;-477723;
2024-04-19T14:43:44.906;536732021303220460;64275;-21139;-98345;-477704;
2024-04-19T14:43:44.924;536732021321385282;64117;-21275;-98394;-477651;
2024-04-19T14:43:44.943;536732021339550104;64104;-21311;-98339;-477672;
2024-04-19T14:43:44.961;536732021357714926;64270;-21299;-98338;-477702;
2024-04-19T14:43:44.979;536732021375879748;64499;-21257;-98243;-477687;
2024-04-19T14:43:44.997;536732021394044570;64722;-21293;-98240;-477691;
2024-04-19T14:43:45.015;536732021412209392;64991;-21249;-98216;-477645;
2024-04-19T14:43:45.033;536732021430374214;64945;-21321;-98292;-477610;
2024-04-19T14:43:45.052;536732021448539036;64697;-21455;-98377;-477588;
2024-04-19T14:43:45.070;536732021466703858;64264;-21592;-98571;-477631;
2024-04-19T14:43:45.088;536732021484868680;63749;-21830;-98791;-477629;
2024-04-19T14:43:45.106;536732021503033502;63227;-22052;-99034;-477605;
