Phone timestamp;sensor timestamp [ns];timestamp [ms];ecg [uV]
2024-05-02T10:25:10.108;599616098360277372;0.0;-2670
2024-05-02T10:25:10.115;599616098367968326;7.690954;708
2024-05-02T10:25:10.123;599616098375659280;15.381908;5017
2024-05-02T10:25:10.131;599616098383350234;23.072863;8890
2024-05-02T10:25:10.138;599616098391041188;30.763817;10908
2024-05-02T10:25:10.146;599616098398732142;38.45477;12952
2024-05-02T10:25:10.154;599616098406423096;46.145725;15110
2024-05-02T10:25:10.161;599616098414114050;53.83668;16587
2024-05-02T10:25:10.169;599616098421805004;61.527634;17819
2024-05-02T10:25:10.177;599616098429495958;69.21858;18957
2024-05-02T10:25:10.184;599616098437186912;76.90954;19764
2024-05-02T10:25:10.192;599616098444877866;84.600494;19864
2024-05-02T10:25:10.200;599616098452568820;92.29145;19864
2024-05-02T10:25:10.207;599616098460259774;99.9824;19864
2024-05-02T10:25:10.215;599616098467950728;107.67336;19864
2024-05-02T10:25:10.223;599616098475641682;115.36431;19864
2024-05-02T10:25:10.231;599616098483332636;123.05527;19864
2024-05-02T10:25:10.238;599616098491023590;130.74622;19864
2024-05-02T10:25:10.246;599616098498714544;138.43716;19864
2024-05-02T10:25:10.254;599616098506405498;146.12813;19864
2024-05-02T10:25:10.261;599616098514096452;153.81908;19864
2024-05-02T10:25:10.269;599616098521787406;161.51003;19864
2024-05-02T10:25:10.277;599616098529478360;169.20099;19864
2024-05-02T10:25:10.284;599616098537169314;176.89194;19864
2024-05-02T10:25:10.292;599616098544860268;184.5829;19864
2024-05-02T10:25:10.300;599616098552551222;192.27385;19864
2024-05-02T10:25:10.307;599616098560242176;199.9648;19864
2024-05-02T10:25:10.315;599616098567933130;207.65576;19864
2024-05-02T10:25:10.323;599616098575624084;215.34673;19864
2024-05-02T10:25:10.331;599616098583315038;223.03766;19864
2024-05-02T10:25:10.338;599616098591005992;230.72862;19864
2024-05-02T10:25:10.346;599616098598696946;238.41957;19864
2024-05-02T10:25:10.354;599616098606387900;246.11053;19864
2024-05-02T10:25:10.361;599616098614078854;253.80148;19864
2024-05-02T10:25:10.369;599616098621769808;261.49243;19864
2024-05-02T10:25:10.377;599616098629460762;269.18338;19864
2024-05-02T10:25:10.384;599616098637151716;276.87433;19864
2024-05-02T10:25:10.392;599616098644842670;284.5653;19864
2024-05-02T10:25:10.400;599616098652533624;292.25626;19864
2024-05-02T10:25:10.407;599616098660224578;299.9472;19864
2024-05-02T10:25:10.415;599616098667915532;307.63815;19864
2024-05-02T10:25:10.423;599616098675606486;315.32913;19864
2024-05-02T10:25:10.431;599616098683297440;323.02005;19864
2024-05-02T10:25:10.438;599616098690988394;330.711;19864
2024-05-02T10:25:10.446;599616098698679348;338.40198;19864
2024-05-02T10:25:10.454;599616098706370302;346.09293;19864
2024-05-02T10:25:10.461;599616098714061256;353.78387;19864
2024-05-02T10:25:10.469;599616098721752210;361.47485;19864
2024-05-02T10:25:10.477;599616098729443164;369.1658;19864
2024-05-02T10:25:10.484;599616098737134118;376.85675;19864
2024-05-02T10:25:10.492;599616098744825072;384.5477;19864
2024-05-02T10:25:10.500;599616098752516026;392.23865;19864
2024-05-02T10:25:10.507;599616098760206980;399.9296;19864
2024-05-02T10:25:10.515;599616098767897934;407.62057;19864
2024-05-02T10:25:10.523;599616098775588888;415.31152;19864
2024-05-02T10:25:10.531;599616098783279842;423.00247;19864
2024-05-02T10:25:10.538;599616098790970796;430.69345;19864
2024-05-02T10:25:10.546;599616098798661750;438.38437;19864
2024-05-02T10:25:10.554;599616098806352704;446.07532;19864
2024-05-02T10:25:10.561;599616098814043658;453.76627;19864
2024-05-02T10:25:10.569;599616098821734612;461.45724;19864
2024-05-02T10:25:10.577;599616098829425566;469.1482;19864
2024-05-02T10:25:10.584;599616098837116520;476.83914;19864
2024-05-02T10:25:10.592;599616098844807474;484.53012;19864
2024-05-02T10:25:10.600;599616098852498428;492.22107;19864
2024-05-02T10:25:10.607;599616098860189382;499.912;19864
2024-05-02T10:25:10.615;599616098867880336;507.60297;19864
2024-05-02T10:25:10.623;599616098875571290;515.29395;19864
2024-05-02T10:25:10.630;599616098883262244;522.98486;19864
2024-05-02T10:25:10.638;599616098890953198;530.67584;19864
2024-05-02T10:25:10.646;599616098898644152;538.36676;19864
2024-05-02T10:25:10.654;599616098906335106;546.05774;19864
2024-05-02T10:25:10.661;599616098914026060;553.74866;19864
2024-05-02T10:25:10.669;599616098921717018;561.43964;19864
2024-05-02T10:25:10.677;599616098929407972;569.1306;19864
2024-05-02T10:25:10.684;599616098937098926;576.8216;19864
2024-05-02T10:25:10.692;599616098944789880;584.5125;19864
2024-05-02T10:25:10.700;599616098952480834;592.2034;19864
2024-05-02T10:25:10.707;599616098960171788;599.8944;19864
2024-05-02T10:25:10.715;599616098967862742;607.5853;19864
2024-05-02T10:25:10.723;599616098975553696;615.27637;19839
2024-05-02T10:25:10.730;599616098983244650;622.9673;19624
2024-05-02T10:25:10.738;599616098990935604;630.65826;19340
2024-05-02T10:25:10.746;599616098998626558;638.3492;19376
2024-05-02T10:25:10.754;599616099006317512;646.0401;19449
2024-05-02T10:25:10.761;599616099014008466;653.7311;19020
2024-05-02T10:25:10.769;599616099021699420;661.42206;18688
2024-05-02T10:25:10.777;599616099029390374;669.11304;18787
2024-05-02T10:25:10.784;599616099037081328;676.80396;18627
2024-05-02T10:25:10.792;599616099044772282;684.49493;18232
2024-05-02T10:25:10.800;599616099052463236;692.18585;18125
2024-05-02T10:25:10.807;599616099060154190;699.8768;18156
2024-05-02T10:25:10.815;599616099067845144;707.56775;18042
2024-05-02T10:25:10.823;599616099075536098;715.2587;17800
2024-05-02T10:25:10.830;599616099083227052;722.9497;17582
2024-05-02T10:25:10.838;599616099090918006;730.6406;17482
2024-05-02T10:25:10.846;599616099098608960;738.3316;17417
2024-05-02T10:25:10.854;599616099106299914;746.0225;17249
2024-05-02T10:25:10.861;599616099113990868;753.7135;17034
2024-05-02T10:25:10.869;599616099121681822;761.4045;16857
2024-05-02T10:25:10.877;599616099129372776;769.0954;16624
2024-05-02T10:25:10.884;599616099137063730;776.7864;16357
2024-05-02T10:25:10.892;599616099144754684;784.4773;16233
2024-05-02T10:25:10.900;599616099152445638;792.1683;16250
2024-05-02T10:25:10.907;599616099160136592;799.8592;16178
2024-05-02T10:25:10.915;599616099167827546;807.5502;15865
2024-05-02T10:25:10.923;599616099175518500;815.24115;15600
2024-05-02T10:25:10.930;599616099183209454;822.93207;15552
2024-05-02T10:25:10.938;599616099190900408;830.62305;15418
2024-05-02T10:25:10.946;599616099198591362;838.31396;15195
2024-05-02T10:25:10.954;599616099206282316;846.00494;15152
2024-05-02T10:25:10.961;599616099213973270;853.69586;15123
2024-05-02T10:25:10.969;599616099221664224;861.3869;14861
2024-05-02T10:25:10.977;599616099229355178;869.0778;14633
2024-05-02T10:25:10.984;599616099237046132;876.76874;14611
2024-05-02T10:25:10.992;599616099244737086;884.4597;14555
2024-05-02T10:25:11.000;599616099252428040;892.15063;14378
2024-05-02T10:25:11.007;599616099260118994;899.8416;14237
2024-05-02T10:25:11.015;599616099267809948;907.53253;14177
2024-05-02T10:25:11.023;599616099275500902;915.2236;14172
2024-05-02T10:25:11.030;599616099283191856;922.9145;14104
2024-05-02T10:25:11.038;599616099290882810;930.60547;13774
2024-05-02T10:25:11.046;599616099298573764;938.2964;13413
2024-05-02T10:25:11.053;599616099306264718;945.9873;13258
2024-05-02T10:25:11.061;599616099313955672;953.6783;13066
2024-05-02T10:25:11.069;599616099321646626;961.36926;12858
2024-05-02T10:25:11.077;599616099329337580;969.06024;12807
2024-05-02T10:25:11.084;599616099337028534;976.75116;12739
2024-05-02T10:25:11.092;599616099344719488;984.44214;12576
2024-05-02T10:25:11.100;599616099352410442;992.13306;12455
2024-05-02T10:25:11.107;599616099360101396;999.824;12363
2024-05-02T10:25:11.115;599616099367792350;1007.515;12225
2024-05-02T10:25:11.123;599616099375483304;1015.20593;12062
2024-05-02T10:25:11.130;599616099383174258;1022.8969;11955
2024-05-02T10:25:11.138;599616099390865212;1030.5879;11924
2024-05-02T10:25:11.146;599616099398556166;1038.2788;11900
2024-05-02T10:25:11.153;599616099406247120;1045.9697;11752
2024-05-02T10:25:11.161;599616099413938074;1053.6606;11504
2024-05-02T10:25:11.169;599616099421629028;1061.3517;11385
2024-05-02T10:25:11.177;599616099429319982;1069.0426;11332
2024-05-02T10:25:11.184;599616099437010936;1076.7335;11201
2024-05-02T10:25:11.192;599616099444701890;1084.4246;11104
2024-05-02T10:25:11.200;599616099452392844;1092.1155;11029
2024-05-02T10:25:11.207;599616099460083798;1099.8065;10888
2024-05-02T10:25:11.215;599616099467774752;1107.4973;10750
2024-05-02T10:25:11.223;599616099475465706;1115.1884;10702
2024-05-02T10:25:11.230;599616099483156664;1122.8793;10682
2024-05-02T10:25:11.238;599616099490847618;1130.5702;10559
2024-05-02T10:25:11.246;599616099498538572;1138.2612;10372
2024-05-02T10:25:11.253;599616099506229526;1145.9521;10309
2024-05-02T10:25:11.261;599616099513920480;1153.6432;10294
2024-05-02T10:25:11.269;599616099521611434;1161.334;10168
2024-05-02T10:25:11.277;599616099529302388;1169.025;10057
2024-05-02T10:25:11.284;599616099536993342;1176.7161;10061
2024-05-02T10:25:11.292;599616099544684296;1184.4069;9998
2024-05-02T10:25:11.300;599616099552375250;1192.0979;9729
2024-05-02T10:25:11.307;599616099560066204;1199.7888;9482
2024-05-02T10:25:11.315;599616099567757158;1207.4799;9474
2024-05-02T10:25:11.323;599616099575448112;1215.1707;9477
2024-05-02T10:25:11.330;599616099583139066;1222.8617;9307
2024-05-02T10:25:11.338;599616099590830020;1230.5527;9150
2024-05-02T10:25:11.346;599616099598520974;1238.2435;9128
2024-05-02T10:25:11.353;599616099606211928;1245.9346;9084
2024-05-02T10:25:11.361;599616099613902882;1253.6255;8999
2024-05-02T10:25:11.369;599616099621593836;1261.3165;9128
2024-05-02T10:25:11.377;599616099629284790;1269.0073;9462
2024-05-02T10:25:11.384;599616099636975744;1276.6984;9588
2024-05-02T10:25:11.392;599616099644666698;1284.3894;9200
2024-05-02T10:25:11.400;599616099652357652;1292.0802;8575
2024-05-02T10:25:11.407;599616099660048606;1299.7712;8291
2024-05-02T10:25:11.415;599616099667739560;1307.4622;8313
2024-05-02T10:25:11.423;599616099675430514;1315.1532;8192
2024-05-02T10:25:11.430;599616099683121468;1322.8441;8019
2024-05-02T10:25:11.438;599616099690812422;1330.535;8015
2024-05-02T10:25:11.446;599616099698503376;1338.2261;7988
2024-05-02T10:25:11.453;599616099706194330;1345.9169;7864
2024-05-02T10:25:11.461;599616099713885284;1353.6079;7825
2024-05-02T10:25:11.469;599616099721576238;1361.2988;7818
2024-05-02T10:25:11.476;599616099729267192;1368.9899;7694
2024-05-02T10:25:11.484;599616099736958146;1376.6808;7576
2024-05-02T10:25:11.492;599616099744649100;1384.3717;7554
2024-05-02T10:25:11.500;599616099752340054;1392.0627;7537
2024-05-02T10:25:11.507;599616099760031008;1399.7535;7464
2024-05-02T10:25:11.515;599616099767721962;1407.4446;7369
2024-05-02T10:25:11.523;599616099775412916;1415.1355;7299
2024-05-02T10:25:11.530;599616099783103870;1422.8265;7306
2024-05-02T10:25:11.538;599616099790794824;1430.5175;7231
2024-05-02T10:25:11.546;599616099798485778;1438.2084;6996
2024-05-02T10:25:11.553;599616099806176732;1445.8994;6909
2024-05-02T10:25:11.561;599616099813867686;1453.5903;6940
2024-05-02T10:25:11.569;599616099821558640;1461.2812;6817
2024-05-02T10:25:11.576;599616099829249594;1468.9722;6705
2024-05-02T10:25:11.584;599616099836940548;1476.6632;6734
2024-05-02T10:25:11.592;599616099844631502;1484.3541;6727
2024-05-02T10:25:11.600;599616099852322456;1492.045;6652
2024-05-02T10:25:11.607;599616099860013410;1499.7361;6606
2024-05-02T10:25:11.615;599616099867704364;1507.427;6550
2024-05-02T10:25:11.623;599616099875395318;1515.1179;6416
2024-05-02T10:25:11.630;599616099883086272;1522.809;6281
2024-05-02T10:25:11.638;599616099890777226;1530.4999;6235
2024-05-02T10:25:11.646;599616099898468180;1538.1908;6176
2024-05-02T10:25:11.653;599616099906159134;1545.8817;5973
2024-05-02T10:25:11.661;599616099913850088;1553.5728;5774
2024-05-02T10:25:11.669;599616099921541042;1561.2637;5733
2024-05-02T10:25:11.676;599616099929231996;1568.9546;5723
2024-05-02T10:25:11.684;599616099936922950;1576.6456;5655
2024-05-02T10:25:11.692;599616099944613904;1584.3365;5587
2024-05-02T10:25:11.700;599616099952304858;1592.0275;5543
2024-05-02T10:25:11.707;599616099959995812;1599.7184;5492
2024-05-02T10:25:11.715;599616099967686766;1607.4094;5437
2024-05-02T10:25:11.723;599616099975377720;1615.1003;5381
2024-05-02T10:25:11.730;599616099983068674;1622.7913;5347
2024-05-02T10:25:11.738;599616099990759628;1630.4823;5340
2024-05-02T10:25:11.746;599616099998450582;1638.1732;5284
2024-05-02T10:25:11.753;599616100006141536;1645.8641;5184
2024-05-02T10:25:11.761;599616100013832490;1653.555;5146
2024-05-02T10:25:11.769;599616100021523444;1661.2461;5160
2024-05-02T10:25:11.776;599616100029214398;1668.9371;5114
2024-05-02T10:25:11.784;599616100036905352;1676.6279;4993
2024-05-02T10:25:11.792;599616100044596310;1684.319;4896
2024-05-02T10:25:11.800;599616100052287264;1692.0099;4826
2024-05-02T10:25:11.807;599616100059978218;1699.7008;4695
2024-05-02T10:25:11.815;599616100067669172;1707.3917;4585
2024-05-02T10:25:11.823;599616100075360126;1715.0828;4568
2024-05-02T10:25:11.830;599616100083051080;1722.7738;4549
2024-05-02T10:25:11.838;599616100090742034;1730.4646;4452
2024-05-02T10:25:11.846;599616100098432988;1738.1556;4357
2024-05-02T10:25:11.853;599616100106123942;1745.8466;4353
2024-05-02T10:25:11.861;599616100113814896;1753.5375;4338
2024-05-02T10:25:11.869;599616100121505850;1761.2284;4197
2024-05-02T10:25:11.876;599616100129196804;1768.9194;4088
2024-05-02T10:25:11.884;599616100136887758;1776.6105;4086
2024-05-02T10:25:11.892;599616100144578712;1784.3013;4020
2024-05-02T10:25:11.899;599616100152269666;1791.9923;3904
2024-05-02T10:25:11.907;599616100159960620;1799.6832;3887
2024-05-02T10:25:11.915;599616100167651574;1807.3743;3914
2024-05-02T10:25:11.923;599616100175342528;1815.0652;3887
2024-05-02T10:25:11.930;599616100183033482;1822.7561;3824
2024-05-02T10:25:11.938;599616100190724436;1830.4471;3775
2024-05-02T10:25:11.946;599616100198415390;1838.138;3773
2024-05-02T10:25:11.953;599616100206106344;1845.829;3763
2024-05-02T10:25:11.961;599616100213797298;1853.5199;3722
2024-05-02T10:25:11.969;599616100221488252;1861.2109;3703
2024-05-02T10:25:11.976;599616100229179206;1868.9019;3693
2024-05-02T10:25:11.984;599616100236870160;1876.5928;3647
2024-05-02T10:25:11.992;599616100244561114;1884.2838;3598
2024-05-02T10:25:11.999;599616100252252068;1891.9746;3594
2024-05-02T10:25:12.007;599616100259943022;1899.6656;3596
2024-05-02T10:25:12.015;599616100267633976;1907.3566;3569
2024-05-02T10:25:12.023;599616100275324930;1915.0476;3518
2024-05-02T10:25:12.030;599616100283015884;1922.7385;3487
2024-05-02T10:25:12.038;599616100290706838;1930.4294;3421
2024-05-02T10:25:12.046;599616100298397792;1938.1205;3283
2024-05-02T10:25:12.053;599616100306088746;1945.8113;3225
2024-05-02T10:25:12.061;599616100313779700;1953.5023;3264
2024-05-02T10:25:12.069;599616100321470654;1961.1934;3242
2024-05-02T10:25:12.076;599616100329161608;1968.8843;3167
2024-05-02T10:25:12.084;599616100336852562;1976.5752;3142
2024-05-02T10:25:12.092;599616100344543516;1984.2661;3155
2024-05-02T10:25:12.099;599616100352234470;1991.9572;3150
2024-05-02T10:25:12.107;599616100359925424;1999.648;3118
2024-05-02T10:25:12.115;599616100367616378;2007.339;3075
2024-05-02T10:25:12.123;599616100375307332;2015.03;3053
2024-05-02T10:25:12.130;599616100382998286;2022.721;3062
2024-05-02T10:25:12.138;599616100390689240;2030.4119;3028
2024-05-02T10:25:12.146;599616100398380194;2038.1028;2948
2024-05-02T10:25:12.153;599616100406071148;2045.7938;2951
2024-05-02T10:25:12.161;599616100413762102;2053.4846;3075
2024-05-02T10:25:12.169;599616100421453056;2061.1758;3320
2024-05-02T10:25:12.176;599616100429144010;2068.8667;3623
2024-05-02T10:25:12.184;599616100436834964;2076.5576;3555
2024-05-02T10:25:12.192;599616100444525918;2084.2485;2987
2024-05-02T10:25:12.199;599616100452216872;2091.9395;2633
2024-05-02T10:25:12.207;599616100459907826;2099.6304;2730
2024-05-02T10:25:12.215;599616100467598780;2107.3213;2742
2024-05-02T10:25:12.223;599616100475289734;2115.0125;2628
2024-05-02T10:25:12.230;599616100482980688;2122.7034;2638
2024-05-02T10:25:12.238;599616100490671642;2130.3943;2670
2024-05-02T10:25:12.246;599616100498362596;2138.0852;2650
2024-05-02T10:25:12.253;599616100506053550;2145.7761;2619
2024-05-02T10:25:12.261;599616100513744504;2153.467;2582
2024-05-02T10:25:12.269;599616100521435458;2161.1582;2577
2024-05-02T10:25:12.276;599616100529126412;2168.849;2592
2024-05-02T10:25:12.284;599616100536817366;2176.5398;2580
2024-05-02T10:25:12.292;599616100544508320;2184.231;2548
2024-05-02T10:25:12.299;599616100552199274;2191.9219;2531
2024-05-02T10:25:12.307;599616100559890228;2199.613;2514
2024-05-02T10:25:12.315;599616100567581182;2207.304;2490
2024-05-02T10:25:12.322;599616100575272136;2214.9946;2473
2024-05-02T10:25:12.330;599616100582963090;2222.6858;2478
2024-05-02T10:25:12.338;599616100590654044;2230.3767;2473
2024-05-02T10:25:12.346;599616100598344998;2238.0676;2434
2024-05-02T10:25:12.353;599616100606035956;2245.7585;2398
2024-05-02T10:25:12.361;599616100613726910;2253.4495;2403
2024-05-02T10:25:12.369;599616100621417864;2261.1404;2417
2024-05-02T10:25:12.376;599616100629108818;2268.8315;2396
2024-05-02T10:25:12.384;599616100636799772;2276.5225;2323
2024-05-02T10:25:12.392;599616100644490726;2284.2131;2223
2024-05-02T10:25:12.399;599616100652181680;2291.9043;2155
2024-05-02T10:25:12.407;599616100659872634;2299.5952;2078
2024-05-02T10:25:12.415;599616100667563588;2307.2864;2000
2024-05-02T10:25:12.422;599616100675254542;2314.9773;2000
2024-05-02T10:25:12.430;599616100682945496;2322.668;2000
2024-05-02T10:25:12.438;599616100690636450;2330.3591;1920
2024-05-02T10:25:12.446;599616100698327404;2338.05;1852
2024-05-02T10:25:12.453;599616100706018358;2345.741;1847
2024-05-02T10:25:12.461;599616100713709312;2353.4321;1835
2024-05-02T10:25:12.469;599616100721400266;2361.1228;1794
2024-05-02T10:25:12.476;599616100729091220;2368.8137;1780
2024-05-02T10:25:12.484;599616100736782174;2376.505;1782
2024-05-02T10:25:12.492;599616100744473128;2384.1958;1760
2024-05-02T10:25:12.499;599616100752164082;2391.8865;1736
2024-05-02T10:25:12.507;599616100759855036;2399.5776;1746
2024-05-02T10:25:12.515;599616100767545990;2407.2686;1763
2024-05-02T10:25:12.522;599616100775236944;2414.9597;1753
2024-05-02T10:25:12.530;599616100782927898;2422.6506;1716
2024-05-02T10:25:12.538;599616100790618852;2430.3413;1683
2024-05-02T10:25:12.546;599616100798309806;2438.0325;1593
2024-05-02T10:25:12.553;599616100806000760;2445.7234;1452
2024-05-02T10:25:12.561;599616100813691714;2453.4143;1394
2024-05-02T10:25:12.569;599616100821382668;2461.1055;1392
2024-05-02T10:25:12.576;599616100829073622;2468.7961;1333
2024-05-02T10:25:12.584;599616100836764576;2476.487;1282
2024-05-02T10:25:12.592;599616100844455530;2484.1782;1282
2024-05-02T10:25:12.599;599616100852146484;2491.8691;1297
2024-05-02T10:25:12.607;599616100859837438;2499.5603;1304
2024-05-02T10:25:12.615;599616100867528392;2507.251;1295
2024-05-02T10:25:12.622;599616100875219346;2514.942;1258
2024-05-02T10:25:12.630;599616100882910300;2522.633;1212
2024-05-02T10:25:12.638;599616100890601254;2530.324;1176
2024-05-02T10:25:12.646;599616100898292208;2538.0146;1168
2024-05-02T10:25:12.653;599616100905983162;2545.7058;1181
2024-05-02T10:25:12.661;599616100913674116;2553.3967;1198
2024-05-02T10:25:12.669;599616100921365070;2561.0876;1195
2024-05-02T10:25:12.676;599616100929056024;2568.7788;1178
2024-05-02T10:25:12.684;599616100936746978;2576.4695;1185
2024-05-02T10:25:12.692;599616100944437932;2584.1604;1214
2024-05-02T10:25:12.699;599616100952128886;2591.8516;1227
2024-05-02T10:25:12.707;599616100959819840;2599.5425;1212
2024-05-02T10:25:12.715;599616100967510794;2607.2336;1198
2024-05-02T10:25:12.722;599616100975201748;2614.9243;1210
2024-05-02T10:25:12.730;599616100982892702;2622.6152;1219
2024-05-02T10:25:12.738;599616100990583656;2630.3064;1217
2024-05-02T10:25:12.745;599616100998274610;2637.9973;1224
2024-05-02T10:25:12.753;599616101005965564;2645.6882;1239
2024-05-02T10:25:12.761;599616101013656518;2653.3792;1227
2024-05-02T10:25:12.769;599616101021347472;2661.07;1205
2024-05-02T10:25:12.776;599616101029038426;2668.761;1210
2024-05-02T10:25:12.784;599616101036729380;2676.4521;1224
2024-05-02T10:25:12.792;599616101044420334;2684.1428;1219
2024-05-02T10:25:12.799;599616101052111288;2691.8337;1207
2024-05-02T10:25:12.807;599616101059802242;2699.525;1205
2024-05-02T10:25:12.815;599616101067493196;2707.2158;1205
2024-05-02T10:25:12.822;599616101075184150;2714.907;1202
2024-05-02T10:25:12.830;599616101082875104;2722.5977;1207
2024-05-02T10:25:12.838;599616101090566058;2730.2886;1227
2024-05-02T10:25:12.845;599616101098257012;2737.9797;1241
2024-05-02T10:25:12.853;599616101105947966;2745.6707;1210
2024-05-02T10:25:12.861;599616101113638920;2753.3616;1171
2024-05-02T10:25:12.869;599616101121329874;2761.0525;1171
2024-05-02T10:25:12.876;599616101129020828;2768.7434;1151
2024-05-02T10:25:12.884;599616101136711782;2776.4343;1091
2024-05-02T10:25:12.892;599616101144402736;2784.1255;1074
2024-05-02T10:25:12.899;599616101152093690;2791.8162;1096
2024-05-02T10:25:12.907;599616101159784644;2799.507;1091
2024-05-02T10:25:12.915;599616101167475602;2807.1982;1081
2024-05-02T10:25:12.922;599616101175166556;2814.8892;1098
2024-05-02T10:25:12.930;599616101182857510;2822.5803;1117
2024-05-02T10:25:12.938;599616101190548464;2830.271;1134
2024-05-02T10:25:12.945;599616101198239418;2837.962;1210
2024-05-02T10:25:12.953;599616101205930372;2845.653;1464
2024-05-02T10:25:12.961;599616101213621326;2853.344;1830
2024-05-02T10:25:12.969;599616101221312280;2861.035;1809
2024-05-02T10:25:12.976;599616101229003234;2868.7258;1190
2024-05-02T10:25:12.984;599616101236694188;2876.4167;756
2024-05-02T10:25:12.992;599616101244385142;2884.1077;906
2024-05-02T10:25:12.999;599616101252076096;2891.7988;982
2024-05-02T10:25:13.007;599616101259767050;2899.4897;846
2024-05-02T10:25:13.015;599616101267458004;2907.1807;877
2024-05-02T10:25:13.022;599616101275148958;2914.8716;974
2024-05-02T10:25:13.030;599616101282839912;2922.5625;948
2024-05-02T10:25:13.038;599616101290530866;2930.2537;877
2024-05-02T10:25:13.045;599616101298221820;2937.9446;809
2024-05-02T10:25:13.053;599616101305912774;2945.6353;766
2024-05-02T10:25:13.061;599616101313603728;2953.3264;785
2024-05-02T10:25:13.069;599616101321294682;2961.0173;814
2024-05-02T10:25:13.076;599616101328985636;2968.7083;824
2024-05-02T10:25:13.084;599616101336676590;2976.3992;839
2024-05-02T10:25:13.092;599616101344367544;2984.09;848
2024-05-02T10:25:13.099;599616101352058498;2991.781;853
2024-05-02T10:25:13.107;599616101359749452;2999.4722;880
2024-05-02T10:25:13.115;599616101367440406;3007.163;904
2024-05-02T10:25:13.122;599616101375131360;3014.854;882
2024-05-02T10:25:13.130;599616101382822314;3022.545;841
2024-05-02T10:25:13.138;599616101390513268;3030.2358;856
2024-05-02T10:25:13.145;599616101398204222;3037.927;899
2024-05-02T10:25:13.153;599616101405895176;3045.618;916
2024-05-02T10:25:13.161;599616101413586130;3053.3086;923
2024-05-02T10:25:13.168;599616101421277084;3060.9998;957
2024-05-02T10:25:13.176;599616101428968038;3068.6907;977
2024-05-02T10:25:13.184;599616101436658992;3076.3816;962
2024-05-02T10:25:13.192;599616101444349946;3084.0725;967
2024-05-02T10:25:13.199;599616101452040900;3091.7634;991
2024-05-02T10:25:13.207;599616101459731854;3099.4543;996
2024-05-02T10:25:13.215;599616101467422808;3107.1455;970
2024-05-02T10:25:13.222;599616101475113762;3114.8364;931
2024-05-02T10:25:13.230;599616101482804716;3122.5273;899
2024-05-02T10:25:13.238;599616101490495670;3130.2183;875
2024-05-02T10:25:13.245;599616101498186624;3137.9092;841
2024-05-02T10:25:13.253;599616101505877578;3145.6003;824
2024-05-02T10:25:13.261;599616101513568532;3153.2913;829
2024-05-02T10:25:13.268;599616101521259486;3160.982;812
2024-05-02T10:25:13.276;599616101528950440;3168.673;783
2024-05-02T10:25:13.284;599616101536641394;3176.364;790
2024-05-02T10:25:13.292;599616101544332348;3184.055;819
2024-05-02T10:25:13.299;599616101552023302;3191.746;826
2024-05-02T10:25:13.307;599616101559714256;3199.4368;814
2024-05-02T10:25:13.315;599616101567405210;3207.128;805
2024-05-02T10:25:13.322;599616101575096164;3214.8188;812
2024-05-02T10:25:13.330;599616101582787118;3222.5098;822
2024-05-02T10:25:13.338;599616101590478072;3230.2007;812
2024-05-02T10:25:13.345;599616101598169026;3237.8916;788
2024-05-02T10:25:13.353;599616101605859980;3245.5825;754
2024-05-02T10:25:13.361;599616101613550934;3253.2737;712
2024-05-02T10:25:13.368;599616101621241888;3260.9646;662
2024-05-02T10:25:13.376;599616101628932842;3268.6553;625
2024-05-02T10:25:13.384;599616101636623796;3276.3464;635
2024-05-02T10:25:13.392;599616101644314750;3284.0374;645
2024-05-02T10:25:13.399;599616101652005704;3291.7283;623
2024-05-02T10:25:13.407;599616101659696658;3299.4194;608
2024-05-02T10:25:13.415;599616101667387612;3307.11;623
2024-05-02T10:25:13.422;599616101675078566;3314.8013;625
2024-05-02T10:25:13.430;599616101682769520;3322.4922;615
2024-05-02T10:25:13.438;599616101690460474;3330.183;632
2024-05-02T10:25:13.445;599616101698151428;3337.8743;652
2024-05-02T10:25:13.453;599616101705842382;3345.565;625
2024-05-02T10:25:13.461;599616101713533336;3353.2559;601
2024-05-02T10:25:13.468;599616101721224290;3360.947;620
2024-05-02T10:25:13.476;599616101728915248;3368.638;642
2024-05-02T10:25:13.484;599616101736606202;3376.3286;632
2024-05-02T10:25:13.492;599616101744297156;3384.0198;620
2024-05-02T10:25:13.499;599616101751988110;3391.7107;625
2024-05-02T10:25:13.507;599616101759679064;3399.4016;591
2024-05-02T10:25:13.515;599616101767370018;3407.0928;485
2024-05-02T10:25:13.522;599616101775060972;3414.7834;400
2024-05-02T10:25:13.530;599616101782751926;3422.4746;395
2024-05-02T10:25:13.538;599616101790442880;3430.1655;361
2024-05-02T10:25:13.545;599616101798133834;3437.8564;244
2024-05-02T10:25:13.553;599616101805824788;3445.5476;152
2024-05-02T10:25:13.561;599616101813515742;3453.2383;164
2024-05-02T10:25:13.568;599616101821206696;3460.9292;198
2024-05-02T10:25:13.576;599616101828897650;3468.6204;194
2024-05-02T10:25:13.584;599616101836588604;3476.3113;210
2024-05-02T10:25:13.592;599616101844279558;3484.0022;242
2024-05-02T10:25:13.599;599616101851970512;3491.693;240
2024-05-02T10:25:13.607;599616101859661466;3499.384;220
2024-05-02T10:25:13.615;599616101867352420;3507.075;191
2024-05-02T10:25:13.622;599616101875043374;3514.766;164
2024-05-02T10:25:13.630;599616101882734328;3522.4568;167
2024-05-02T10:25:13.638;599616101890425282;3530.148;179
2024-05-02T10:25:13.645;599616101898116236;3537.8389;198
2024-05-02T10:25:13.653;599616101905807190;3545.5298;232
2024-05-02T10:25:13.661;599616101913498144;3553.221;257
2024-05-02T10:25:13.668;599616101921189098;3560.9116;269
2024-05-02T10:25:13.676;599616101928880052;3568.6025;288
2024-05-02T10:25:13.684;599616101936571006;3576.2937;300
2024-05-02T10:25:13.691;599616101944261960;3583.9846;320
2024-05-02T10:25:13.699;599616101951952914;3591.6755;448
2024-05-02T10:25:13.707;599616101959643868;3599.3665;778
2024-05-02T10:25:13.715;599616101967334822;3607.0574;1144
2024-05-02T10:25:13.722;599616101975025776;3614.7485;1071
2024-05-02T10:25:13.730;599616101982716730;3622.4395;497
2024-05-02T10:25:13.738;599616101990407684;3630.1304;177
2024-05-02T10:25:13.745;599616101998098638;3637.8213;339
2024-05-02T10:25:13.753;599616102005789592;3645.5122;390
2024-05-02T10:25:13.761;599616102013480546;3653.2031;293
2024-05-02T10:25:13.768;599616102021171500;3660.8943;334
2024-05-02T10:25:13.776;599616102028862454;3668.585;378
2024-05-02T10:25:13.784;599616102036553408;3676.276;337
2024-05-02T10:25:13.791;599616102044244362;3683.967;349
2024-05-02T10:25:13.799;599616102051935316;3691.658;412
2024-05-02T10:25:13.807;599616102059626270;3699.3489;426
2024-05-02T10:25:13.815;599616102067317224;3707.0398;409
2024-05-02T10:25:13.822;599616102075008178;3714.7307;412
2024-05-02T10:25:13.830;599616102082699132;3722.4219;436
2024-05-02T10:25:13.838;599616102090390086;3730.1128;451
2024-05-02T10:25:13.845;599616102098081040;3737.8037;453
2024-05-02T10:25:13.853;599616102105771994;3745.4946;460
2024-05-02T10:25:13.861;599616102113462948;3753.1855;436
2024-05-02T10:25:13.868;599616102121153902;3760.8765;380
2024-05-02T10:25:13.876;599616102128844856;3768.5676;368
2024-05-02T10:25:13.884;599616102136535810;3776.2585;409
2024-05-02T10:25:13.891;599616102144226764;3783.9492;448
2024-05-02T10:25:13.899;599616102151917718;3791.6404;470
2024-05-02T10:25:13.907;599616102159608672;3799.3313;480
2024-05-02T10:25:13.915;599616102167299626;3807.0222;487
2024-05-02T10:25:13.922;599616102174990580;3814.7131;511
2024-05-02T10:25:13.930;599616102182681534;3822.404;538
2024-05-02T10:25:13.938;599616102190372488;3830.0952;552
2024-05-02T10:25:13.945;599616102198063442;3837.7861;569
2024-05-02T10:25:13.953;599616102205754396;3845.477;589
2024-05-02T10:25:13.961;599616102213445350;3853.168;572
2024-05-02T10:25:13.968;599616102221136304;3860.859;533
2024-05-02T10:25:13.976;599616102228827258;3868.5498;518
2024-05-02T10:25:13.984;599616102236518212;3876.241;511
2024-05-02T10:25:13.991;599616102244209166;3883.932;487
2024-05-02T10:25:13.999;599616102251900120;3891.6226;451
2024-05-02T10:25:14.007;599616102259591074;3899.3137;431
2024-05-02T10:25:14.015;599616102267282028;3907.0046;434
2024-05-02T10:25:14.022;599616102274972982;3914.6958;431
2024-05-02T10:25:14.030;599616102282663936;3922.3867;429
2024-05-02T10:25:14.038;599616102290354894;3930.0774;453
2024-05-02T10:25:14.045;599616102298045848;3937.7686;470
2024-05-02T10:25:14.053;599616102305736802;3945.4595;412
2024-05-02T10:25:14.061;599616102313427756;3953.1504;320
2024-05-02T10:25:14.068;599616102321118710;3960.8413;307
2024-05-02T10:25:14.076;599616102328809664;3968.5322;356
2024-05-02T10:25:14.084;599616102336500618;3976.2231;366
2024-05-02T10:25:14.091;599616102344191572;3983.9143;354
2024-05-02T10:25:14.099;599616102351882526;3991.6052;351
2024-05-02T10:25:14.107;599616102359573480;3999.296;293
2024-05-02T10:25:14.114;599616102367264434;4006.987;181
2024-05-02T10:25:14.122;599616102374955388;4014.678;145
2024-05-02T10:25:14.130;599616102382646342;4022.3691;206
2024-05-02T10:25:14.138;599616102390337296;4030.06;232
2024-05-02T10:25:14.145;599616102398028250;4037.7507;206
2024-05-02T10:25:14.153;599616102405719204;4045.442;218
2024-05-02T10:25:14.161;599616102413410158;4053.1328;269
2024-05-02T10:25:14.168;599616102421101112;4060.8237;291
2024-05-02T10:25:14.176;599616102428792066;4068.515;291
2024-05-02T10:25:14.184;599616102436483020;4076.2056;300
2024-05-02T10:25:14.191;599616102444173974;4083.8965;315
2024-05-02T10:25:14.199;599616102451864928;4091.5876;322
2024-05-02T10:25:14.207;599616102459555882;4099.279;322
2024-05-02T10:25:14.214;599616102467246836;4106.969;339
2024-05-02T10:25:14.222;599616102474937790;4114.66;368
2024-05-02T10:25:14.230;599616102482628744;4122.3516;371
2024-05-02T10:25:14.238;599616102490319698;4130.0425;354
2024-05-02T10:25:14.245;599616102498010652;4137.7334;366
2024-05-02T10:25:14.253;599616102505701606;4145.4243;397
2024-05-02T10:25:14.261;599616102513392560;4153.115;402
2024-05-02T10:25:14.268;599616102521083514;4160.806;395
2024-05-02T10:25:14.276;599616102528774468;4168.497;412
2024-05-02T10:25:14.284;599616102536465422;4176.188;417
2024-05-02T10:25:14.291;599616102544156376;4183.879;392
2024-05-02T10:25:14.299;599616102551847330;4191.57;392
2024-05-02T10:25:14.307;599616102559538284;4199.2607;424
2024-05-02T10:25:14.314;599616102567229238;4206.952;441
2024-05-02T10:25:14.322;599616102574920192;4214.643;429
2024-05-02T10:25:14.330;599616102582611146;4222.3335;412
2024-05-02T10:25:14.338;599616102590302100;4230.025;424
2024-05-02T10:25:14.345;599616102597993054;4237.716;441
2024-05-02T10:25:14.353;599616102605684008;4245.4067;417
2024-05-02T10:25:14.361;599616102613374962;4253.0977;390
2024-05-02T10:25:14.368;599616102621065916;4260.7886;392
2024-05-02T10:25:14.376;599616102628756870;4268.4795;383
2024-05-02T10:25:14.384;599616102636447824;4276.1704;356
2024-05-02T10:25:14.391;599616102644138778;4283.8613;363
2024-05-02T10:25:14.399;599616102651829732;4291.5522;400
2024-05-02T10:25:14.407;599616102659520686;4299.2437;414
2024-05-02T10:25:14.414;599616102667211640;4306.934;395
2024-05-02T10:25:14.422;599616102674902594;4314.625;383
2024-05-02T10:25:14.430;599616102682593548;4322.3164;395
2024-05-02T10:25:14.438;599616102690284502;4330.007;407
2024-05-02T10:25:14.445;599616102697975456;4337.698;404
2024-05-02T10:25:14.453;599616102705666410;4345.389;468
2024-05-02T10:25:14.461;599616102713357364;4353.0796;691
2024-05-02T10:25:14.468;599616102721048318;4360.771;1023
2024-05-02T10:25:14.476;599616102728739272;4368.462;1176
2024-05-02T10:25:14.484;599616102736430226;4376.1533;843
2024-05-02T10:25:14.491;599616102744121180;4383.8438;349
2024-05-02T10:25:14.499;599616102751812134;4391.5347;281
2024-05-02T10:25:14.507;599616102759503088;4399.226;400
2024-05-02T10:25:14.514;599616102767194042;4406.9165;329
2024-05-02T10:25:14.522;599616102774884996;4414.608;288
2024-05-02T10:25:14.530;599616102782575950;4422.299;346
2024-05-02T10:25:14.537;599616102790266904;4429.9893;346
2024-05-02T10:25:14.545;599616102797957858;4437.6807;339
2024-05-02T10:25:14.553;599616102805648812;4445.3716;341
2024-05-02T10:25:14.561;599616102813339766;4453.062;242
2024-05-02T10:25:14.568;599616102821030720;4460.7534;145
2024-05-02T10:25:14.576;599616102828721674;4468.4443;186
2024-05-02T10:25:14.584;599616102836412628;4476.1353;254
2024-05-02T10:25:14.591;599616102844103582;4483.826;259
2024-05-02T10:25:14.599;599616102851824636;4491.5474;232
2024-05-02T10:25:14.607;599616102859515172;4499.238;196
2024-05-02T10:25:14.614;599616102867205708;4506.928;198
2024-05-02T10:25:14.622;599616102874896244;4514.6187;227
2024-05-02T10:25:14.630;599616102882586780;4522.3096;244
2024-05-02T10:25:14.637;599616102890277316;4530.0;274
2024-05-02T10:25:14.645;599616102897967852;4537.6904;291
2024-05-02T10:25:14.653;599616102905658388;4545.381;227
2024-05-02T10:25:14.661;599616102913348924;4553.072;155
2024-05-02T10:25:14.668;599616102921039460;4560.7617;191
2024-05-02T10:25:14.676;599616102928729996;4568.4526;261
2024-05-02T10:25:14.684;599616102936420532;4576.1436;269
2024-05-02T10:25:14.691;599616102944111068;4583.8335;266
2024-05-02T10:25:14.699;599616102951801604;4591.5244;291
2024-05-02T10:25:14.707;599616102959492140;4599.2144;300
2024-05-02T10:25:14.714;599616102967182676;4606.9053;295
2024-05-02T10:25:14.722;599616102974873212;4614.5957;300
2024-05-02T10:25:14.730;599616102982563748;4622.286;307
2024-05-02T10:25:14.737;599616102990254284;4629.977;288
2024-05-02T10:25:14.745;599616102997944820;4637.6675;235
2024-05-02T10:25:14.753;599616103005635356;4645.358;210
2024-05-02T10:25:14.761;599616103013325892;4653.0483;230
2024-05-02T10:25:14.768;599616103021016428;4660.7393;235
2024-05-02T10:25:14.776;599616103028706964;4668.4297;218
2024-05-02T10:25:14.784;599616103036397500;4676.12;210
2024-05-02T10:25:14.791;599616103044088036;4683.811;218
2024-05-02T10:25:14.799;599616103051778572;4691.501;215
2024-05-02T10:25:14.807;599616103059469108;4699.192;215
2024-05-02T10:25:14.814;599616103067159644;4706.882;237
2024-05-02T10:25:14.822;599616103074850180;4714.5728;269
2024-05-02T10:25:14.830;599616103082540716;4722.2637;266
2024-05-02T10:25:14.837;599616103090231252;4729.9536;227
2024-05-02T10:25:14.845;599616103097921788;4737.6445;184
2024-05-02T10:25:14.853;599616103105612324;4745.335;160
2024-05-02T10:25:14.861;599616103113302860;4753.0254;167
2024-05-02T10:25:14.868;599616103120993396;4760.716;186
2024-05-02T10:25:14.876;599616103128683932;4768.4067;194
2024-05-02T10:25:14.884;599616103136374468;4776.097;194
2024-05-02T10:25:14.891;599616103144065004;4783.7876;203
2024-05-02T10:25:14.899;599616103151755540;4791.4785;218
2024-05-02T10:25:14.907;599616103159446076;4799.1685;232
2024-05-02T10:25:14.914;599616103167136612;4806.8594;252
2024-05-02T10:25:14.922;599616103174827148;4814.55;254
2024-05-02T10:25:14.930;599616103182517684;4822.24;235
2024-05-02T10:25:14.937;599616103190208220;4829.931;237
2024-05-02T10:25:14.945;599616103197898756;4837.621;264
2024-05-02T10:25:14.953;599616103205589292;4845.312;264
2024-05-02T10:25:14.961;599616103213279828;4853.0024;259
2024-05-02T10:25:14.968;599616103220970364;4860.693;278
2024-05-02T10:25:14.976;599616103228660900;4868.384;288
2024-05-02T10:25:14.984;599616103236351436;4876.074;271
2024-05-02T10:25:14.991;599616103244041972;4883.7646;274
2024-05-02T10:25:14.999;599616103251732508;4891.455;300
2024-05-02T10:25:15.007;599616103259423044;4899.1455;312
2024-05-02T10:25:15.014;599616103267113580;4906.836;300
2024-05-02T10:25:15.022;599616103274804116;4914.527;283
2024-05-02T10:25:15.030;599616103282494652;4922.2173;295
2024-05-02T10:25:15.037;599616103290185188;4929.9077;315
2024-05-02T10:25:15.045;599616103297875724;4937.5986;307
2024-05-02T10:25:15.053;599616103305566260;4945.2886;295
2024-05-02T10:25:15.060;599616103313256796;4952.9795;252
2024-05-02T10:25:15.068;599616103320947332;4960.6704;140
2024-05-02T10:25:15.076;599616103328637868;4968.3604;87
2024-05-02T10:25:15.084;599616103336328404;4976.0513;130
2024-05-02T10:25:15.091;599616103344018940;4983.741;133
2024-05-02T10:25:15.099;599616103351709476;4991.432;80
2024-05-02T10:25:15.107;599616103359400012;4999.1226;67
2024-05-02T10:25:15.114;599616103367090548;5006.813;84
2024-05-02T10:25:15.122;599616103374781084;5014.504;94
2024-05-02T10:25:15.130;599616103382471620;5022.1943;109
2024-05-02T10:25:15.137;599616103390162156;5029.885;128
2024-05-02T10:25:15.145;599616103397852692;5037.575;155
2024-05-02T10:25:15.153;599616103405543228;5045.266;177
2024-05-02T10:25:15.160;599616103413203668;5052.9263;167
2024-05-02T10:25:15.168;599616103420894622;5060.617;150
2024-05-02T10:25:15.176;599616103428585576;5068.308;181
2024-05-02T10:25:15.183;599616103436276530;5075.999;220
2024-05-02T10:25:15.191;599616103443967484;5083.69;254
2024-05-02T10:25:15.199;599616103451658438;5091.3813;414
2024-05-02T10:25:15.207;599616103459349392;5099.072;759
2024-05-02T10:25:15.214;599616103467040346;5106.7627;1006
2024-05-02T10:25:15.222;599616103474731300;5114.454;693
2024-05-02T10:25:15.230;599616103482422254;5122.1445;72
2024-05-02T10:25:15.237;599616103490113208;5129.836;-46
2024-05-02T10:25:15.245;599616103497804162;5137.527;147
2024-05-02T10:25:15.253;599616103505495116;5145.218;80
2024-05-02T10:25:15.260;599616103513186070;5152.9087;2
2024-05-02T10:25:15.268;599616103520877024;5160.5996;97
2024-05-02T10:25:15.276;599616103528567978;5168.291;143
2024-05-02T10:25:15.283;599616103536258932;5175.9814;118
2024-05-02T10:25:15.291;599616103543949886;5183.6724;135
2024-05-02T10:25:15.299;599616103551640840;5191.364;160
2024-05-02T10:25:15.307;599616103559331794;5199.054;160
2024-05-02T10:25:15.314;599616103567022748;5206.7456;167
2024-05-02T10:25:15.322;599616103574713702;5214.4365;191
2024-05-02T10:25:15.330;599616103582404656;5222.127;206
2024-05-02T10:25:15.337;599616103590095610;5229.8184;169
2024-05-02T10:25:15.345;599616103597786564;5237.5093;101
2024-05-02T10:25:15.353;599616103605477518;5245.2;106
2024-05-02T10:25:15.360;599616103613168472;5252.891;169
2024-05-02T10:25:15.368;599616103620859426;5260.582;189
2024-05-02T10:25:15.376;599616103628550380;5268.273;184
2024-05-02T10:25:15.383;599616103636241334;5275.964;206
2024-05-02T10:25:15.391;599616103643932288;5283.6553;240
2024-05-02T10:25:15.399;599616103651623242;5291.3457;247
2024-05-02T10:25:15.407;599616103659314196;5299.0366;252
2024-05-02T10:25:15.414;599616103667005150;5306.728;286
2024-05-02T10:25:15.422;599616103674696104;5314.4185;327
2024-05-02T10:25:15.430;599616103682387058;5322.1094;337
2024-05-02T10:25:15.437;599616103690078012;5329.801;320
2024-05-02T10:25:15.445;599616103697768966;5337.4917;320
2024-05-02T10:25:15.453;599616103705459920;5345.1826;339
2024-05-02T10:25:15.460;599616103713150874;5352.8735;337
2024-05-02T10:25:15.468;599616103720841828;5360.5645;305
2024-05-02T10:25:15.476;599616103728532782;5368.2554;274
2024-05-02T10:25:15.483;599616103736223736;5375.9463;235
2024-05-02T10:25:15.491;599616103743914690;5383.6377;196
2024-05-02T10:25:15.499;599616103751605644;5391.328;184
2024-05-02T10:25:15.507;599616103759296598;5399.019;198
2024-05-02T10:25:15.514;599616103766987552;5406.7104;206
2024-05-02T10:25:15.522;599616103774678506;5414.401;191
2024-05-02T10:25:15.530;599616103782369460;5422.0923;174
2024-05-02T10:25:15.537;599616103790060414;5429.783;181
2024-05-02T10:25:15.545;599616103797751368;5437.4736;206
2024-05-02T10:25:15.553;599616103805442322;5445.165;215
2024-05-02T10:25:15.560;599616103813133276;5452.856;203
2024-05-02T10:25:15.568;599616103820824230;5460.547;147
2024-05-02T10:25:15.576;599616103828515184;5468.238;41
2024-05-02T10:25:15.583;599616103836206138;5475.9287;-19
2024-05-02T10:25:15.591;599616103843897092;5483.6196;-7
2024-05-02T10:25:15.599;599616103851588046;5491.3105;21
2024-05-02T10:25:15.607;599616103859279000;5499.002;41
2024-05-02T10:25:15.614;599616103866969954;5506.6924;46
2024-05-02T10:25:15.622;599616103874660908;5514.3833;50
2024-05-02T10:25:15.630;599616103882351862;5522.0747;80
2024-05-02T10:25:15.637;599616103890042816;5529.765;106
2024-05-02T10:25:15.645;599616103897733770;5537.4565;109
2024-05-02T10:25:15.653;599616103905424724;5545.1475;123
2024-05-02T10:25:15.660;599616103913115678;5552.8384;155
2024-05-02T10:25:15.668;599616103920806632;5560.5293;147
2024-05-02T10:25:15.676;599616103928497586;5568.22;126
2024-05-02T10:25:15.683;599616103936188540;5575.9116;152
2024-05-02T10:25:15.691;599616103943879494;5583.602;186
2024-05-02T10:25:15.699;599616103951570448;5591.293;189
2024-05-02T10:25:15.706;599616103959261402;5598.9844;177
2024-05-02T10:25:15.714;599616103966952356;5606.675;177
2024-05-02T10:25:15.722;599616103974643314;5614.3657;186
2024-05-02T10:25:15.730;599616103982334268;5622.057;196
2024-05-02T10:25:15.737;599616103990025222;5629.7476;198
2024-05-02T10:25:15.745;599616103997716176;5637.439;215
2024-05-02T10:25:15.753;599616104005407130;5645.13;215
2024-05-02T10:25:15.760;599616104013098084;5652.8203;145
2024-05-02T10:25:15.768;599616104020789038;5660.5117;50
2024-05-02T10:25:15.776;599616104028479992;5668.2026;41
2024-05-02T10:25:15.783;599616104036170946;5675.8936;80
2024-05-02T10:25:15.791;599616104043861900;5683.5845;82
2024-05-02T10:25:15.799;599616104051552854;5691.2754;67
2024-05-02T10:25:15.806;599616104059243808;5698.9663;77
2024-05-02T10:25:15.814;599616104066934762;5706.657;106
2024-05-02T10:25:15.822;599616104074625716;5714.3486;126
2024-05-02T10:25:15.830;599616104082316670;5722.039;113
2024-05-02T10:25:15.837;599616104090007624;5729.73;77
2024-05-02T10:25:15.845;599616104097698578;5737.4214;65
2024-05-02T10:25:15.853;599616104105389532;5745.1123;65
2024-05-02T10:25:15.860;599616104113080486;5752.803;65
2024-05-02T10:25:15.868;599616104120771440;5760.494;92
2024-05-02T10:25:15.876;599616104128462394;5768.185;121
2024-05-02T10:25:15.883;599616104136153348;5775.876;123
2024-05-02T10:25:15.891;599616104143844302;5783.567;123
2024-05-02T10:25:15.899;599616104151535256;5791.2583;138
2024-05-02T10:25:15.906;599616104159226210;5798.9487;147
2024-05-02T10:25:15.914;599616104166917164;5806.6396;150
2024-05-02T10:25:15.922;599616104174608118;5814.331;167
2024-05-02T10:25:15.930;599616104182299072;5822.0215;261
2024-05-02T10:25:15.937;599616104189990026;5829.713;499
2024-05-02T10:25:15.945;599616104197680980;5837.404;822
2024-05-02T10:25:15.953;599616104205371934;5845.094;914
2024-05-02T10:25:15.960;599616104213062888;5852.7856;492
2024-05-02T10:25:15.968;599616104220753842;5860.4766;38
2024-05-02T10:25:15.976;599616104228444796;5868.167;99
2024-05-02T10:25:15.983;599616104236135750;5875.8584;232
2024-05-02T10:25:15.991;599616104243826704;5883.5493;135
2024-05-02T10:25:15.999;599616104251517658;5891.24;109
2024-05-02T10:25:16.006;599616104259208612;5898.931;157
2024-05-02T10:25:16.014;599616104266899566;5906.622;155
2024-05-02T10:25:16.022;599616104274590520;5914.313;174
2024-05-02T10:25:16.030;599616104282281474;5922.004;203
2024-05-02T10:25:16.037;599616104289972428;5929.6953;177
2024-05-02T10:25:16.045;599616104297663382;5937.3857;167
2024-05-02T10:25:16.053;599616104305354336;5945.0767;210
2024-05-02T10:25:16.060;599616104313045290;5952.768;230
2024-05-02T10:25:16.068;599616104320736244;5960.459;210
2024-05-02T10:25:16.076;599616104328427198;5968.15;167
2024-05-02T10:25:16.083;599616104336118152;5975.841;80
2024-05-02T10:25:16.091;599616104343809106;5983.5317;33
2024-05-02T10:25:16.099;599616104351500060;5991.2227;67
2024-05-02T10:25:16.106;599616104359191014;5998.9136;111
2024-05-02T10:25:16.114;599616104366881968;6006.605;140
2024-05-02T10:25:16.122;599616104374572922;6014.2954;150
2024-05-02T10:25:16.129;599616104382263876;6021.9863;145
2024-05-02T10:25:16.137;599616104389954830;6029.6777;172
2024-05-02T10:25:16.145;599616104397645784;6037.368;218
2024-05-02T10:25:16.153;599616104405336738;6045.0596;237
2024-05-02T10:25:16.160;599616104413027692;6052.7505;254
2024-05-02T10:25:16.168;599616104420718646;6060.441;281
2024-05-02T10:25:16.176;599616104428409600;6068.1323;286
2024-05-02T10:25:16.183;599616104436100554;6075.823;264
2024-05-02T10:25:16.191;599616104443791508;6083.514;259
2024-05-02T10:25:16.199;599616104451482462;6091.205;271
2024-05-02T10:25:16.206;599616104459173416;6098.896;261
2024-05-02T10:25:16.214;599616104466864370;6106.587;208
2024-05-02T10:25:16.222;599616104474555324;6114.278;150
2024-05-02T10:25:16.229;599616104482246278;6121.969;140
2024-05-02T10:25:16.237;599616104489937232;6129.6597;145
2024-05-02T10:25:16.245;599616104497628186;6137.3506;126
2024-05-02T10:25:16.253;599616104505319140;6145.042;135
2024-05-02T10:25:16.260;599616104513010094;6152.733;164
2024-05-02T10:25:16.268;599616104520701048;6160.4233;150
2024-05-02T10:25:16.276;599616104528392002;6168.1147;121
2024-05-02T10:25:16.283;599616104536082960;6175.8057;138
2024-05-02T10:25:16.291;599616104543773914;6183.4966;143
2024-05-02T10:25:16.299;599616104551464868;6191.1875;99
2024-05-02T10:25:16.306;599616104559155822;6198.8784;65
2024-05-02T10:25:16.314;599616104566846776;6206.5693;50
2024-05-02T10:25:16.322;599616104574537730;6214.2603;4
2024-05-02T10:25:16.329;599616104582228684;6221.9517;-89
2024-05-02T10:25:16.337;599616104589919638;6229.642;-160
2024-05-02T10:25:16.345;599616104597610592;6237.333;-145
2024-05-02T10:25:16.353;599616104605301546;6245.0244;-113
2024-05-02T10:25:16.360;599616104612992500;6252.715;-128
2024-05-02T10:25:16.368;599616104620683454;6260.4062;-135
2024-05-02T10:25:16.376;599616104628374408;6268.097;-94
2024-05-02T10:25:16.383;599616104636065362;6275.7876;-58
2024-05-02T10:25:16.391;599616104643756316;6283.479;-53
2024-05-02T10:25:16.399;599616104651447270;6291.17;-53
2024-05-02T10:25:16.406;599616104659138224;6298.861;-43
2024-05-02T10:25:16.414;599616104666829178;6306.552;-26
2024-05-02T10:25:16.422;599616104674520132;6314.2427;-16
2024-05-02T10:25:16.429;599616104682211086;6321.9336;-9
2024-05-02T10:25:16.437;599616104689902040;6329.6245;12
2024-05-02T10:25:16.445;599616104697592994;6337.316;29
2024-05-02T10:25:16.453;599616104705283948;6345.007;-4
2024-05-02T10:25:16.460;599616104712974902;6352.6973;-58
2024-05-02T10:25:16.468;599616104720665856;6360.3887;-70
2024-05-02T10:25:16.476;599616104728356810;6368.0796;-82
2024-05-02T10:25:16.483;599616104736047764;6375.7705;-143
2024-05-02T10:25:16.491;599616104743738718;6383.4614;-179
2024-05-02T10:25:16.499;599616104751429672;6391.1523;-164
2024-05-02T10:25:16.506;599616104759120626;6398.8433;-167
2024-05-02T10:25:16.514;599616104766811580;6406.534;-184
2024-05-02T10:25:16.522;599616104774502534;6414.2256;-167
2024-05-02T10:25:16.529;599616104782193488;6421.916;-133
2024-05-02T10:25:16.537;599616104789884442;6429.607;-130
2024-05-02T10:25:16.545;599616104797575396;6437.2983;-160
2024-05-02T10:25:16.552;599616104805266350;6444.989;-160
2024-05-02T10:25:16.560;599616104812957304;6452.6797;-123
2024-05-02T10:25:16.568;599616104820648258;6460.371;-140
2024-05-02T10:25:16.576;599616104828339212;6468.0615;-196
2024-05-02T10:25:16.583;599616104836030166;6475.753;-244
2024-05-02T10:25:16.591;599616104843721120;6483.444;-315
2024-05-02T10:25:16.599;599616104851412074;6491.1343;-358
2024-05-02T10:25:16.606;599616104859103028;6498.8257;-322
2024-05-02T10:25:16.614;599616104866793982;6506.5166;-266
2024-05-02T10:25:16.622;599616104874484936;6514.2075;-227
2024-05-02T10:25:16.629;599616104882175890;6521.8984;-215
2024-05-02T10:25:16.637;599616104889866844;6529.5894;-218
2024-05-02T10:25:16.645;599616104897557798;6537.2803;-189
2024-05-02T10:25:16.652;599616104905248752;6544.971;-133
2024-05-02T10:25:16.660;599616104912939706;6552.6626;-111
2024-05-02T10:25:16.668;599616104920630660;6560.3535;-104
2024-05-02T10:25:16.676;599616104928321614;6568.044;-31
2024-05-02T10:25:16.683;599616104936012568;6575.7354;177
2024-05-02T10:25:16.691;599616104943703522;6583.4263;526
2024-05-02T10:25:16.699;599616104951394476;6591.117;778
2024-05-02T10:25:16.706;599616104959085430;6598.808;526
2024-05-02T10:25:16.714;599616104966776384;6606.499;-7
2024-05-02T10:25:16.722;599616104974467338;6614.19;-147
2024-05-02T10:25:16.729;599616104982158292;6621.881;-14
2024-05-02T10:25:16.737;599616104989849246;6629.5723;-31
2024-05-02T10:25:16.745;599616104997540200;6637.2627;-53
2024-05-02T10:25:16.752;599616105005231154;6644.9536;7
2024-05-02T10:25:16.760;599616105012922108;6652.645;24
2024-05-02T10:25:16.768;599616105020613062;6660.3354;29
2024-05-02T10:25:16.776;599616105028304016;6668.027;46
2024-05-02T10:25:16.783;599616105035994970;6675.718;31
2024-05-02T10:25:16.791;599616105043685924;6683.408;36
2024-05-02T10:25:16.799;599616105051376878;6691.0996;84
2024-05-02T10:25:16.806;599616105059067832;6698.7905;116
2024-05-02T10:25:16.814;599616105066758786;6706.4814;92
2024-05-02T10:25:16.822;599616105074449740;6714.1724;46
2024-05-02T10:25:16.829;599616105082140694;6721.8633;53
2024-05-02T10:25:16.837;599616105089831648;6729.554;99
2024-05-02T10:25:16.845;599616105097522606;6737.245;111
2024-05-02T10:25:16.852;599616105105213560;6744.936;118
2024-05-02T10:25:16.860;599616105112904514;6752.6274;147
2024-05-02T10:25:16.868;599616105120595468;6760.318;128
2024-05-02T10:25:16.876;599616105128286422;6768.0093;43
2024-05-02T10:25:16.883;599616105135977376;6775.7;19
2024-05-02T10:25:16.891;599616105143668330;6783.3906;87
2024-05-02T10:25:16.899;599616105151359284;6791.082;128
2024-05-02T10:25:16.906;599616105159050238;6798.773;118
2024-05-02T10:25:16.914;599616105166741192;6806.464;126
2024-05-02T10:25:16.922;599616105174432146;6814.155;160
2024-05-02T10:25:16.929;599616105182123100;6821.8457;179
2024-05-02T10:25:16.937;599616105189814054;6829.5366;179
2024-05-02T10:25:16.945;599616105197505008;6837.2275;194
2024-05-02T10:25:16.952;599616105205195962;6844.919;203
2024-05-02T10:25:16.960;599616105212886916;6852.6094;164
2024-05-02T10:25:16.968;599616105220577870;6860.3003;118
2024-05-02T10:25:16.975;599616105228268824;6867.9917;128
2024-05-02T10:25:16.983;599616105235959778;6875.682;150
2024-05-02T10:25:16.991;599616105243650732;6883.3735;145
2024-05-02T10:25:16.999;599616105251341686;6891.0645;126
2024-05-02T10:25:17.006;599616105259032640;6898.755;123
2024-05-02T10:25:17.014;599616105266723594;6906.4463;138
2024-05-02T10:25:17.022;599616105274414548;6914.137;152
2024-05-02T10:25:17.029;599616105282105502;6921.828;160
2024-05-02T10:25:17.037;599616105289796456;6929.519;174
2024-05-02T10:25:17.045;599616105297487410;6937.21;162
2024-05-02T10:25:17.052;599616105305178364;6944.901;106
2024-05-02T10:25:17.060;599616105312869318;6952.592;55
2024-05-02T10:25:17.068;599616105320560272;6960.283;29
2024-05-02T10:25:17.075;599616105328251226;6967.974;31
2024-05-02T10:25:17.083;599616105335942180;6975.6646;26
2024-05-02T10:25:17.091;599616105343633134;6983.356;-58
2024-05-02T10:25:17.099;599616105351324088;6991.047;-155
2024-05-02T10:25:17.106;599616105359015042;6998.738;-155
2024-05-02T10:25:17.114;599616105366705996;7006.4287;-116
2024-05-02T10:25:17.122;599616105374396950;7014.1196;-104
2024-05-02T10:25:17.129;599616105382087904;7021.8105;-70
2024-05-02T10:25:17.137;599616105389778858;7029.5015;-36
2024-05-02T10:25:17.145;599616105397469812;7037.1924;-50
2024-05-02T10:25:17.152;599616105405160766;7044.8833;-53
2024-05-02T10:25:17.160;599616105412851720;7052.574;-9
2024-05-02T10:25:17.168;599616105420542674;7060.2656;19
2024-05-02T10:25:17.175;599616105428233628;7067.956;19
2024-05-02T10:25:17.183;599616105435924582;7075.647;26
2024-05-02T10:25:17.191;599616105443615536;7083.3384;38
2024-05-02T10:25:17.199;599616105451306490;7091.029;43
2024-05-02T10:25:17.206;599616105458997444;7098.72;31
2024-05-02T10:25:17.214;599616105466688398;7106.411;7
2024-05-02T10:25:17.222;599616105474379352;7114.1016;-9
2024-05-02T10:25:17.229;599616105482070306;7121.793;-46
2024-05-02T10:25:17.237;599616105489761260;7129.484;-106
2024-05-02T10:25:17.245;599616105497452214;7137.175;-118
2024-05-02T10:25:17.252;599616105505143168;7144.8657;-82
2024-05-02T10:25:17.260;599616105512834122;7152.5566;-80
2024-05-02T10:25:17.268;599616105520525076;7160.248;-89
2024-05-02T10:25:17.275;599616105528216030;7167.9385;-75
2024-05-02T10:25:17.283;599616105535906984;7175.63;-67
2024-05-02T10:25:17.291;599616105543597938;7183.321;-82
2024-05-02T10:25:17.299;599616105551288892;7191.011;-84
2024-05-02T10:25:17.306;599616105558979846;7198.7026;-99
2024-05-02T10:25:17.314;599616105566670800;7206.3936;-128
2024-05-02T10:25:17.322;599616105574361754;7214.0845;-133
2024-05-02T10:25:17.329;599616105582052708;7221.7754;-118
2024-05-02T10:25:17.337;599616105589743662;7229.4663;-101
2024-05-02T10:25:17.345;599616105597434616;7237.157;-77
2024-05-02T10:25:17.352;599616105605125570;7244.848;-65
2024-05-02T10:25:17.360;599616105612816524;7252.5396;-55
2024-05-02T10:25:17.368;599616105620507478;7260.23;-24
2024-05-02T10:25:17.375;599616105628198432;7267.921;-9
2024-05-02T10:25:17.383;599616105635889386;7275.6123;-19
2024-05-02T10:25:17.391;599616105643580340;7283.3027;0
2024-05-02T10:25:17.398;599616105651271294;7290.994;41
2024-05-02T10:25:17.406;599616105658977300;7298.6997;65
2024-05-02T10:25:17.414;599616105666668045;7306.3906;63
2024-05-02T10:25:17.422;599616105674358790;7314.081;63
2024-05-02T10:25:17.429;599616105682049535;7321.772;150
2024-05-02T10:25:17.437;599616105689740280;7329.463;421
2024-05-02T10:25:17.445;599616105697431025;7337.1533;773
2024-05-02T10:25:17.452;599616105705121770;7344.844;846
2024-05-02T10:25:17.460;599616105712812515;7352.535;421
2024-05-02T10:25:17.468;599616105720503260;7360.2256;-43
2024-05-02T10:25:17.475;599616105728194005;7367.9165;-89
2024-05-02T10:25:17.483;599616105735884750;7375.6074;-14
2024-05-02T10:25:17.491;599616105743575495;7383.298;-48
2024-05-02T10:25:17.498;599616105751266240;7390.989;-33
2024-05-02T10:25:17.506;599616105758956985;7398.6797;0
2024-05-02T10:25:17.514;599616105766647730;7406.37;-12
2024-05-02T10:25:17.522;599616105774338475;7414.061;7
2024-05-02T10:25:17.529;599616105782029220;7421.752;55
2024-05-02T10:25:17.537;599616105789719965;7429.4424;75
2024-05-02T10:25:17.545;599616105797410710;7437.1333;87
2024-05-02T10:25:17.552;599616105805101455;7444.824;84
2024-05-02T10:25:17.560;599616105812792200;7452.5146;31
2024-05-02T10:25:17.568;599616105820482945;7460.2056;7
2024-05-02T10:25:17.575;599616105828173690;7467.8965;53
2024-05-02T10:25:17.583;599616105835864435;7475.587;97
2024-05-02T10:25:17.591;599616105843555180;7483.278;70
2024-05-02T10:25:17.598;599616105851245925;7490.9688;-2
2024-05-02T10:25:17.606;599616105858936670;7498.659;-21
2024-05-02T10:25:17.614;599616105866627415;7506.35;26
2024-05-02T10:25:17.622;599616105874318160;7514.041;55
2024-05-02T10:25:17.629;599616105882008905;7521.7314;72
2024-05-02T10:25:17.637;599616105889699650;7529.4224;121
2024-05-02T10:25:17.645;599616105897390395;7537.1133;164
2024-05-02T10:25:17.652;599616105905081140;7544.8037;162
2024-05-02T10:25:17.660;599616105912771885;7552.4946;162
2024-05-02T10:25:17.668;599616105920462630;7560.1855;208
2024-05-02T10:25:17.675;599616105928153375;7567.876;247
2024-05-02T10:25:17.683;599616105935844120;7575.567;247
2024-05-02T10:25:17.691;599616105943534865;7583.258;242
2024-05-02T10:25:17.698;599616105951225610;7590.948;240
2024-05-02T10:25:17.706;599616105958916355;7598.639;225
2024-05-02T10:25:17.714;599616105966607100;7606.33;198
2024-05-02T10:25:17.722;599616105974297845;7614.0205;179
2024-05-02T10:25:17.729;599616105981988590;7621.7114;184
2024-05-02T10:25:17.737;599616105989679335;7629.4023;181
2024-05-02T10:25:17.745;599616105997370080;7637.093;150
2024-05-02T10:25:17.752;599616106005060825;7644.7837;140
2024-05-02T10:25:17.760;599616106012751570;7652.4746;174
2024-05-02T10:25:17.768;599616106020442315;7660.165;194
2024-05-02T10:25:17.775;599616106028133060;7667.856;181
2024-05-02T10:25:17.783;599616106035823805;7675.5464;179
2024-05-02T10:25:17.791;599616106043514550;7683.2373;184
2024-05-02T10:25:17.798;599616106051205295;7690.928;147
2024-05-02T10:25:17.806;599616106058896040;7698.6187;75
2024-05-02T10:25:17.814;599616106066586785;7706.3096;53
2024-05-02T10:25:17.822;599616106074277530;7714.0005;87
2024-05-02T10:25:17.829;599616106081968275;7721.691;84
2024-05-02T10:25:17.837;599616106089659020;7729.382;43
2024-05-02T10:25:17.845;599616106097349765;7737.0728;50
2024-05-02T10:25:17.852;599616106105040510;7744.763;94
2024-05-02T10:25:17.860;599616106112731255;7752.4536;94
2024-05-02T10:25:17.868;599616106120422000;7760.1445;72
2024-05-02T10:25:17.875;599616106128112745;7767.835;84
2024-05-02T10:25:17.883;599616106135803490;7775.526;94
2024-05-02T10:25:17.891;599616106143494235;7783.217;80
2024-05-02T10:25:17.898;599616106151184980;7790.907;77
2024-05-02T10:25:17.906;599616106158875725;7798.598;111
2024-05-02T10:25:17.914;599616106166566470;7806.289;138
2024-05-02T10:25:17.921;599616106174257215;7813.9795;126
2024-05-02T10:25:17.929;599616106181947960;7821.6704;109
2024-05-02T10:25:17.937;599616106189638705;7829.3613;123
2024-05-02T10:25:17.945;599616106197329450;7837.052;147
2024-05-02T10:25:17.952;599616106205020195;7844.7427;147
2024-05-02T10:25:17.960;599616106212710940;7852.4336;140
2024-05-02T10:25:17.968;599616106220381670;7860.104;118
2024-05-02T10:25:17.975;599616106228072693;7867.7954;65
2024-05-02T10:25:17.983;599616106235763716;7875.4863;16
2024-05-02T10:25:17.991;599616106243454739;7883.1772;-12
2024-05-02T10:25:17.998;599616106251145762;7890.868;-31
2024-05-02T10:25:18.006;599616106258836785;7898.5596;-36
2024-05-02T10:25:18.014;599616106266527808;7906.25;-53
2024-05-02T10:25:18.021;599616106274218831;7913.9414;-80
2024-05-02T10:25:18.029;599616106281909854;7921.6323;-72
2024-05-02T10:25:18.037;599616106289600877;7929.3237;-43
2024-05-02T10:25:18.045;599616106297291900;7937.0146;-58
2024-05-02T10:25:18.052;599616106304982923;7944.7056;-99
2024-05-02T10:25:18.060;599616106312673946;7952.397;-104
2024-05-02T10:25:18.068;599616106320364969;7960.0874;-128
2024-05-02T10:25:18.075;599616106328055992;7967.779;-206
2024-05-02T10:25:18.083;599616106335747015;7975.4697;-223
2024-05-02T10:25:18.091;599616106343438038;7983.1606;-181
2024-05-02T10:25:18.098;599616106351129061;7990.8516;-237
2024-05-02T10:25:18.106;599616106358820084;7998.543;-351
2024-05-02T10:25:18.114;599616106366511107;8006.2334;-344
2024-05-02T10:25:18.121;599616106374202130;8013.925;-271
2024-05-02T10:25:18.129;599616106381893153;8021.6157;-242
2024-05-02T10:25:18.137;599616106389584176;8029.3066;-227
2024-05-02T10:25:18.144;599616106397275199;8036.9976;-184
2024-05-02T10:25:18.152;599616106404966222;8044.689;-145
2024-05-02T10:25:18.160;599616106412657245;8052.38;-145
2024-05-02T10:25:18.168;599616106420348268;8060.071;-140
2024-05-02T10:25:18.175;599616106428039291;8067.7617;-99
2024-05-02T10:25:18.183;599616106435730314;8075.453;-53
2024-05-02T10:25:18.191;599616106443421337;8083.144;29
2024-05-02T10:25:18.198;599616106451112360;8090.835;264
2024-05-02T10:25:18.206;599616106458803383;8098.5264;625
2024-05-02T10:25:18.214;599616106466494406;8106.217;768
2024-05-02T10:25:18.221;599616106474185429;8113.908;378
2024-05-02T10:25:18.229;599616106481876452;8121.599;-99
2024-05-02T10:25:18.237;599616106489567475;8129.29;-67
2024-05-02T10:25:18.244;599616106497258498;8136.981;87
2024-05-02T10:25:18.252;599616106504949521;8144.6724;-2
2024-05-02T10:25:18.260;599616106512640544;8152.363;-36
2024-05-02T10:25:18.268;599616106520331567;8160.054;50
2024-05-02T10:25:18.275;599616106528022590;8167.745;80
2024-05-02T10:25:18.283;599616106535713613;8175.4365;63
2024-05-02T10:25:18.291;599616106543404636;8183.127;46
2024-05-02T10:25:18.298;599616106551095659;8190.8184;12
2024-05-02T10:25:18.306;599616106558786682;8198.509;7
2024-05-02T10:25:18.314;599616106566477705;8206.2;36
2024-05-02T10:25:18.321;599616106574168728;8213.892;60
2024-05-02T10:25:18.329;599616106581859751;8221.582;92
2024-05-02T10:25:18.337;599616106589550774;8229.273;123
2024-05-02T10:25:18.344;599616106597241797;8236.964;118
2024-05-02T10:25:18.352;599616106604932820;8244.655;121
2024-05-02T10:25:18.360;599616106612623843;8252.347;167
2024-05-02T10:25:18.368;599616106620314866;8260.038;196
2024-05-02T10:25:18.375;599616106628005889;8267.729;196
2024-05-02T10:25:18.383;599616106635696912;8275.42;215
2024-05-02T10:25:18.391;599616106643387935;8283.11;240
2024-05-02T10:25:18.398;599616106651078958;8290.802;247
2024-05-02T10:25:18.406;599616106658769981;8298.492;259
2024-05-02T10:25:18.414;599616106666461004;8306.184;293
2024-05-02T10:25:18.421;599616106674152027;8313.874;332
2024-05-02T10:25:18.429;599616106681843050;8321.565;339
2024-05-02T10:25:18.437;599616106689534073;8329.257;315
2024-05-02T10:25:18.444;599616106697225096;8336.947;315
2024-05-02T10:25:18.452;599616106704916119;8344.639;344
2024-05-02T10:25:18.460;599616106712607142;8352.33;339
2024-05-02T10:25:18.468;599616106720298165;8360.0205;305
2024-05-02T10:25:18.475;599616106727989188;8367.712;281
2024-05-02T10:25:18.483;599616106735680211;8375.403;249
2024-05-02T10:25:18.491;599616106743371234;8383.094;203
2024-05-02T10:25:18.498;599616106751062257;8390.785;186
2024-05-02T10:25:18.506;599616106758753280;8398.476;203
2024-05-02T10:25:18.514;599616106766444303;8406.167;220
2024-05-02T10:25:18.521;599616106774135326;8413.857;208
2024-05-02T10:25:18.529;599616106781851458;8421.574;186
2024-05-02T10:25:18.537;599616106789542133;8429.265;147
2024-05-02T10:25:18.544;599616106797232808;8436.956;75
2024-05-02T10:25:18.552;599616106804923483;8444.6455;19
2024-05-02T10:25:18.560;599616106812614158;8452.337;31
2024-05-02T10:25:18.568;599616106820304833;8460.027;50
2024-05-02T10:25:18.575;599616106827995508;8467.718;29
2024-05-02T10:25:18.583;599616106835686183;8475.409;-31
2024-05-02T10:25:18.591;599616106843376858;8483.1;-77
2024-05-02T10:25:18.598;599616106851067533;8490.79;-89
2024-05-02T10:25:18.606;599616106858758208;8498.48;-145
2024-05-02T10:25:18.614;599616106866448883;8506.172;-218
2024-05-02T10:25:18.621;599616106874139558;8513.862;-210
2024-05-02T10:25:18.629;599616106881830233;8521.553;-162
2024-05-02T10:25:18.637;599616106889520908;8529.243;-135
2024-05-02T10:25:18.644;599616106897211583;8536.935;-113
2024-05-02T10:25:18.652;599616106904902258;8544.625;-80
2024-05-02T10:25:18.660;599616106912592933;8552.315;-48
2024-05-02T10:25:18.668;599616106920283608;8560.006;-46
2024-05-02T10:25:18.675;599616106927974283;8567.697;-46
2024-05-02T10:25:18.683;599616106935664958;8575.388;-19
2024-05-02T10:25:18.691;599616106943355633;8583.078;19
2024-05-02T10:25:18.698;599616106951046308;8590.77;31
2024-05-02T10:25:18.706;599616106958736983;8598.459;0
2024-05-02T10:25:18.714;599616106966427658;8606.15;-46
2024-05-02T10:25:18.721;599616106974118333;8613.841;-65
2024-05-02T10:25:18.729;599616106981809008;8621.531;-92
2024-05-02T10:25:18.737;599616106989499683;8629.223;-133
2024-05-02T10:25:18.744;599616106997190358;8636.913;-126
2024-05-02T10:25:18.752;599616107004881033;8644.604;-94
2024-05-02T10:25:18.760;599616107012571708;8652.294;-118
2024-05-02T10:25:18.767;599616107020262383;8659.985;-145
2024-05-02T10:25:18.775;599616107027953058;8667.676;-126
2024-05-02T10:25:18.783;599616107035643733;8675.366;-138
2024-05-02T10:25:18.791;599616107043334408;8683.058;-196
2024-05-02T10:25:18.798;599616107051025083;8690.747;-218
2024-05-02T10:25:18.806;599616107058715758;8698.438;-191
2024-05-02T10:25:18.814;599616107066406433;8706.129;-164
2024-05-02T10:25:18.821;599616107074097108;8713.82;-145
2024-05-02T10:25:18.829;599616107081787783;8721.511;-109
2024-05-02T10:25:18.837;599616107089478458;8729.2;-58
2024-05-02T10:25:18.844;599616107097169133;8736.892;-38
2024-05-02T10:25:18.852;599616107104859808;8744.582;-70
2024-05-02T10:25:18.860;599616107112550483;8752.273;-84
2024-05-02T10:25:18.867;599616107120241158;8759.964;-38
2024-05-02T10:25:18.875;599616107127931833;8767.655;2
2024-05-02T10:25:18.883;599616107135622508;8775.345;2
2024-05-02T10:25:18.891;599616107143313183;8783.035;4
2024-05-02T10:25:18.898;599616107151003858;8790.727;21
2024-05-02T10:25:18.906;599616107158694533;8798.417;31
2024-05-02T10:25:18.914;599616107166385208;8806.108;43
2024-05-02T10:25:18.921;599616107174075883;8813.799;63
2024-05-02T10:25:18.929;599616107181766558;8821.489;97
2024-05-02T10:25:18.937;599616107189457233;8829.18;160
2024-05-02T10:25:18.944;599616107197147908;8836.87;344
2024-05-02T10:25:18.952;599616107204838583;8844.562;683
2024-05-02T10:25:18.960;599616107212529258;8852.252;887
2024-05-02T10:25:18.967;599616107220219933;8859.943;528
2024-05-02T10:25:18.975;599616107227910608;8867.633;-2
2024-05-02T10:25:18.983;599616107235601283;8875.324;9
2024-05-02T10:25:18.991;599616107243291958;8883.015;194
2024-05-02T10:25:18.998;599616107250982633;8890.705;106
2024-05-02T10:25:19.006;599616107258673308;8898.396;63
2024-05-02T10:25:19.014;599616107266363983;8906.086;147
2024-05-02T10:25:19.021;599616107274054658;8913.777;167
2024-05-02T10:25:19.029;599616107281745333;8921.468;138
2024-05-02T10:25:19.037;599616107289436008;8929.158;113
2024-05-02T10:25:19.044;599616107297126683;8936.85;111
2024-05-02T10:25:19.052;599616107304817358;8944.54;145
2024-05-02T10:25:19.060;599616107312508033;8952.23;169
2024-05-02T10:25:19.067;599616107320198708;8959.921;179
2024-05-02T10:25:19.075;599616107327889383;8967.612;203
2024-05-02T10:25:19.083;599616107335580058;8975.303;215
2024-05-02T10:25:19.090;599616107343250672;8982.974;210
2024-05-02T10:25:19.098;599616107350941626;8990.665;210
2024-05-02T10:25:19.106;599616107358632580;8998.3545;172
2024-05-02T10:25:19.114;599616107366323534;9006.046;99
2024-05-02T10:25:19.121;599616107374014488;9013.737;80
2024-05-02T10:25:19.129;599616107381705442;9021.428;104
2024-05-02T10:25:19.137;599616107389396396;9029.119;121
2024-05-02T10:25:19.144;599616107397087350;9036.811;152
2024-05-02T10:25:19.152;599616107404778304;9044.5;138
2024-05-02T10:25:19.160;599616107412469258;9052.191;89
2024-05-02T10:25:19.167;599616107420160212;9059.883;109
2024-05-02T10:25:19.175;599616107427851166;9067.574;150
2024-05-02T10:25:19.183;599616107435542120;9075.265;143
2024-05-02T10:25:19.190;599616107443233074;9082.956;157
2024-05-02T10:25:19.198;599616107450924028;9090.647;203
2024-05-02T10:25:19.206;599616107458614982;9098.337;218
2024-05-02T10:25:19.214;599616107466305936;9106.028;189
2024-05-02T10:25:19.221;599616107473996890;9113.72;147
2024-05-02T10:25:19.229;599616107481687844;9121.41;128
2024-05-02T10:25:19.237;599616107489378798;9129.102;126
2024-05-02T10:25:19.244;599616107497069752;9136.793;111
2024-05-02T10:25:19.252;599616107504760706;9144.483;106
2024-05-02T10:25:19.260;599616107512451660;9152.174;126
2024-05-02T10:25:19.267;599616107520142614;9159.865;126
2024-05-02T10:25:19.275;599616107527833568;9167.557;80
2024-05-02T10:25:19.283;599616107535524522;9175.247;24
2024-05-02T10:25:19.290;599616107543215476;9182.938;19
2024-05-02T10:25:19.298;599616107550906430;9190.629;43
2024-05-02T10:25:19.306;599616107558597384;9198.319;43
2024-05-02T10:25:19.314;599616107566288338;9206.011;31
2024-05-02T10:25:19.321;599616107573979292;9213.702;55
2024-05-02T10:25:19.329;599616107581670246;9221.393;82
2024-05-02T10:25:19.337;599616107589361200;9229.084;89
2024-05-02T10:25:19.344;599616107597052154;9236.775;106
2024-05-02T10:25:19.352;599616107604743108;9244.466;126
2024-05-02T10:25:19.360;599616107612434062;9252.156;116
2024-05-02T10:25:19.367;599616107620125016;9259.848;104
2024-05-02T10:25:19.375;599616107627815970;9267.539;128
2024-05-02T10:25:19.383;599616107635506924;9275.2295;162
2024-05-02T10:25:19.390;599616107643197878;9282.921;167
2024-05-02T10:25:19.398;599616107650888832;9290.611;157
2024-05-02T10:25:19.406;599616107658579786;9298.302;155
2024-05-02T10:25:19.413;599616107666270740;9305.993;169
2024-05-02T10:25:19.421;599616107673961694;9313.685;177
2024-05-02T10:25:19.429;599616107681652648;9321.376;177
2024-05-02T10:25:19.437;599616107689343602;9329.066;181
2024-05-02T10:25:19.444;599616107697034556;9336.757;152
2024-05-02T10:25:19.452;599616107704725510;9344.448;84
2024-05-02T10:25:19.460;599616107712416464;9352.139;31
2024-05-02T10:25:19.467;599616107720107418;9359.83;4
2024-05-02T10:25:19.475;599616107727798372;9367.521;-7
2024-05-02T10:25:19.483;599616107735489326;9375.212;-14
2024-05-02T10:25:19.490;599616107743180280;9382.902;-26
2024-05-02T10:25:19.498;599616107750871234;9390.594;-33
2024-05-02T10:25:19.506;599616107758562188;9398.285;-29
2024-05-02T10:25:19.513;599616107766253142;9405.976;-31
2024-05-02T10:25:19.521;599616107773944096;9413.667;-60
2024-05-02T10:25:19.529;599616107781635050;9421.358;-94
2024-05-02T10:25:19.537;599616107789326004;9429.048;-106
2024-05-02T10:25:19.544;599616107797016958;9436.739;-111
2024-05-02T10:25:19.552;599616107804707912;9444.431;-106
2024-05-02T10:25:19.560;599616107812398866;9452.121;-70
2024-05-02T10:25:19.567;599616107820089820;9459.8125;-36
2024-05-02T10:25:19.575;599616107827780774;9467.504;-21
2024-05-02T10:25:19.583;599616107835471728;9475.194;-4
2024-05-02T10:25:19.590;599616107843162682;9482.885;9
2024-05-02T10:25:19.598;599616107850853636;9490.576;7
2024-05-02T10:25:19.606;599616107858544590;9498.268;-4
2024-05-02T10:25:19.613;599616107866235544;9505.958;-46
2024-05-02T10:25:19.621;599616107873926498;9513.649;-113
2024-05-02T10:25:19.629;599616107881617452;9521.341;-130
2024-05-02T10:25:19.637;599616107889308406;9529.03;-113
2024-05-02T10:25:19.644;599616107896999360;9536.722;-97
2024-05-02T10:25:19.652;599616107904690318;9544.413;-50
2024-05-02T10:25:19.660;599616107912381272;9552.104;-14
2024-05-02T10:25:19.667;599616107920072226;9559.795;-7
2024-05-02T10:25:19.675;599616107927763180;9567.486;12
2024-05-02T10:25:19.683;599616107935454134;9575.177;80
2024-05-02T10:25:19.690;599616107943145088;9582.867;247
2024-05-02T10:25:19.698;599616107950836042;9590.559;550
2024-05-02T10:25:19.706;599616107958526996;9598.25;763
2024-05-02T10:25:19.713;599616107966217950;9605.94;465
2024-05-02T10:25:19.721;599616107973908904;9613.632;-92
2024-05-02T10:25:19.729;599616107981599858;9621.322;-179
2024-05-02T10:25:19.737;599616107989290812;9629.013;14
2024-05-02T10:25:19.744;599616107996981766;9636.704;-2
2024-05-02T10:25:19.752;599616108004672720;9644.3955;-46
2024-05-02T10:25:19.760;599616108012363674;9652.087;19
2024-05-02T10:25:19.767;599616108020054628;9659.777;21
2024-05-02T10:25:19.775;599616108027745582;9667.469;-46
2024-05-02T10:25:19.783;599616108035436536;9675.159;-60
2024-05-02T10:25:19.790;599616108043127490;9682.85;-14
2024-05-02T10:25:19.798;599616108050818444;9690.541;29
2024-05-02T10:25:19.806;599616108058509398;9698.232;55
2024-05-02T10:25:19.813;599616108066200352;9705.923;65
2024-05-02T10:25:19.821;599616108073891306;9713.614;67
2024-05-02T10:25:19.829;599616108081582260;9721.305;94
2024-05-02T10:25:19.836;599616108089273214;9728.996;133
2024-05-02T10:25:19.844;599616108096964168;9736.687;147
2024-05-02T10:25:19.852;599616108104655122;9744.378;167
2024-05-02T10:25:19.860;599616108112346076;9752.069;201
2024-05-02T10:25:19.867;599616108120037030;9759.76;203
2024-05-02T10:25:19.875;599616108127727984;9767.45;196
2024-05-02T10:25:19.883;599616108135418938;9775.142;223
2024-05-02T10:25:19.890;599616108143109892;9782.832;264
2024-05-02T10:25:19.898;599616108150800846;9790.523;291
2024-05-02T10:25:19.906;599616108158491800;9798.215;295
2024-05-02T10:25:19.913;599616108166182754;9805.905;300
2024-05-02T10:25:19.921;599616108173873708;9813.596;322
2024-05-02T10:25:19.929;599616108181564662;9821.287;346
2024-05-02T10:25:19.936;599616108189255616;9828.979;344
2024-05-02T10:25:19.944;599616108196946570;9836.669;354
2024-05-02T10:25:19.952;599616108204637524;9844.36;363
2024-05-02T10:25:19.960;599616108212328478;9852.052;324
2024-05-02T10:25:19.967;599616108220019432;9859.741;266
2024-05-02T10:25:19.975;599616108227710386;9867.433;257
2024-05-02T10:25:19.983;599616108235401340;9875.124;264
2024-05-02T10:25:19.990;599616108243092294;9882.814;247
2024-05-02T10:25:19.998;599616108250783248;9890.506;220
2024-05-02T10:25:20.006;599616108258474202;9898.197;206
2024-05-02T10:25:20.013;599616108266165156;9905.889;181
2024-05-02T10:25:20.021;599616108273856110;9913.578;118
2024-05-02T10:25:20.029;599616108281547064;9921.27;58
2024-05-02T10:25:20.036;599616108289238018;9928.961;48
2024-05-02T10:25:20.044;599616108296928972;9936.651;58
2024-05-02T10:25:20.052;599616108304619926;9944.343;41
2024-05-02T10:25:20.060;599616108312310880;9952.034;31
2024-05-02T10:25:20.067;599616108320001834;9959.724;65
2024-05-02T10:25:20.075;599616108327692788;9967.415;94
2024-05-02T10:25:20.083;599616108335383742;9975.106;94
2024-05-02T10:25:20.090;599616108343074696;9982.798;92
2024-05-02T10:25:20.098;599616108350765650;9990.488;99
2024-05-02T10:25:20.106;599616108358456604;9998.18;111
2024-05-02T10:25:20.113;599616108366147558;10005.87;116
2024-05-02T10:25:20.121;599616108373838512;10013.561;60
2024-05-02T10:25:20.129;599616108381529466;10021.252;-12
2024-05-02T10:25:20.136;599616108389220420;10028.943;-2
2024-05-02T10:25:20.144;599616108396911374;10036.634;14
2024-05-02T10:25:20.152;599616108404602328;10044.325;4
2024-05-02T10:25:20.160;599616108412293282;10052.017;38
2024-05-02T10:25:20.167;599616108419984236;10059.706;80
2024-05-02T10:25:20.175;599616108427675190;10067.397;80
2024-05-02T10:25:20.183;599616108435366144;10075.089;77
2024-05-02T10:25:20.190;599616108443057098;10082.78;67
2024-05-02T10:25:20.198;599616108450748052;10090.471;21
2024-05-02T10:25:20.206;599616108458439006;10098.162;-14
2024-05-02T10:25:20.213;599616108466129964;10105.853;-38
2024-05-02T10:25:20.221;599616108473820918;10113.543;-60
2024-05-02T10:25:20.229;599616108481511872;10121.234;-77
2024-05-02T10:25:20.236;599616108489202826;10128.926;-101
2024-05-02T10:25:20.244;599616108496893780;10136.616;-111
2024-05-02T10:25:20.252;599616108504584734;10144.308;-84
2024-05-02T10:25:20.259;599616108512275688;10151.998;-84
2024-05-02T10:25:20.267;599616108519966642;10159.689;-123
2024-05-02T10:25:20.275;599616108527657596;10167.38;-128
2024-05-02T10:25:20.283;599616108535348550;10175.071;-116
2024-05-02T10:25:20.290;599616108543039504;10182.763;-164
2024-05-02T10:25:20.298;599616108550730458;10190.453;-232
2024-05-02T10:25:20.306;599616108558421412;10198.144;-218
2024-05-02T10:25:20.313;599616108566112366;10205.835;-160
2024-05-02T10:25:20.321;599616108573803320;10213.525;-164
2024-05-02T10:25:20.329;599616108581494274;10221.217;-186
2024-05-02T10:25:20.336;599616108589185228;10228.908;-155
2024-05-02T10:25:20.344;599616108596876182;10236.6;-109
2024-05-02T10:25:20.352;599616108604567136;10244.289;-84
2024-05-02T10:25:20.359;599616108612258090;10251.98;-60
2024-05-02T10:25:20.367;599616108619949044;10259.672;-31
2024-05-02T10:25:20.375;599616108627639998;10267.362;-24
2024-05-02T10:25:20.383;599616108635330952;10275.054;-31
2024-05-02T10:25:20.390;599616108643021906;10282.745;-21
2024-05-02T10:25:20.398;599616108650712860;10290.436;9
2024-05-02T10:25:20.406;599616108658403814;10298.126;43
2024-05-02T10:25:20.413;599616108666094768;10305.817;46
2024-05-02T10:25:20.421;599616108673785722;10313.508;33
2024-05-02T10:25:20.429;599616108681476676;10321.199;60
2024-05-02T10:25:20.436;599616108689167630;10328.891;92
2024-05-02T10:25:20.444;599616108696858584;10336.582;97
2024-05-02T10:25:20.452;599616108704549538;10344.271;111
2024-05-02T10:25:20.459;599616108712240492;10351.963;167
2024-05-02T10:25:20.467;599616108719931446;10359.654;310
2024-05-02T10:25:20.475;599616108727622400;10367.345;620
2024-05-02T10:25:20.483;599616108735313354;10375.036;940
2024-05-02T10:25:20.490;599616108743004308;10382.728;814
2024-05-02T10:25:20.498;599616108750695262;10390.417;261
2024-05-02T10:25:20.506;599616108758386216;10398.108;-7
2024-05-02T10:25:20.513;599616108766077170;10405.8;84
2024-05-02T10:25:20.521;599616108773768124;10413.491;77
2024-05-02T10:25:20.529;599616108781459078;10421.182;21
2024-05-02T10:25:20.536;599616108789150032;10428.873;65
2024-05-02T10:25:20.544;599616108796840986;10436.564;104
2024-05-02T10:25:20.552;599616108804531940;10444.254;113
2024-05-02T10:25:20.559;599616108812222894;10451.945;123
2024-05-02T10:25:20.567;599616108819913848;10459.637;130
2024-05-02T10:25:20.575;599616108827604802;10467.327;155
2024-05-02T10:25:20.583;599616108835295756;10475.019;194
2024-05-02T10:25:20.590;599616108842986710;10482.71;208
2024-05-02T10:25:20.598;599616108850677664;10490.4;198
2024-05-02T10:25:20.606;599616108858368618;10498.091;201
2024-05-02T10:25:20.613;599616108866059572;10505.782;215
2024-05-02T10:25:20.621;599616108873750526;10513.474;186
2024-05-02T10:25:20.629;599616108881441480;10521.164;113
2024-05-02T10:25:20.636;599616108889132434;10528.855;111
2024-05-02T10:25:20.644;599616108896823388;10536.546;164
2024-05-02T10:25:20.652;599616108904514342;10544.236;162
2024-05-02T10:25:20.659;599616108912205296;10551.928;145
2024-05-02T10:25:20.667;599616108919896250;10559.619;194
2024-05-02T10:25:20.675;599616108927587204;10567.311;249
2024-05-02T10:25:20.683;599616108935278158;10575.001;259
2024-05-02T10:25:20.690;599616108942969112;10582.691;261
2024-05-02T10:25:20.698;599616108950660066;10590.383;281
2024-05-02T10:25:20.706;599616108958351020;10598.073;298
2024-05-02T10:25:20.713;599616108966041974;10605.765;305
2024-05-02T10:25:20.721;599616108973732928;10613.456;315
2024-05-02T10:25:20.729;599616108981423882;10621.146;329
2024-05-02T10:25:20.736;599616108989114836;10628.837;322
2024-05-02T10:25:20.744;599616108996805790;10636.528;271
2024-05-02T10:25:20.752;599616109004496744;10644.219;203
2024-05-02T10:25:20.759;599616109012187698;10651.91;147
2024-05-02T10:25:20.767;599616109019878652;10659.602;111
2024-05-02T10:25:20.775;599616109027569610;10667.293;72
2024-05-02T10:25:20.782;599616109035260564;10674.983;12
2024-05-02T10:25:20.790;599616109042951518;10682.674;-16
2024-05-02T10:25:20.798;599616109050642472;10690.365;-4
2024-05-02T10:25:20.806;599616109058333426;10698.056;-2
2024-05-02T10:25:20.813;599616109066024380;10705.747;7
2024-05-02T10:25:20.821;599616109073715334;10713.438;41
2024-05-02T10:25:20.829;599616109081406288;10721.129;46
2024-05-02T10:25:20.836;599616109089097242;10728.819;14
2024-05-02T10:25:20.844;599616109096788196;10736.511;19
2024-05-02T10:25:20.852;599616109104479150;10744.202;58
2024-05-02T10:25:20.859;599616109112170104;10751.893;36
2024-05-02T10:25:20.867;599616109119861058;10759.584;-31
2024-05-02T10:25:20.875;599616109127552012;10767.275;-43
2024-05-02T10:25:20.882;599616109135242966;10774.965;-16
2024-05-02T10:25:20.890;599616109142933920;10782.656;-14
2024-05-02T10:25:20.898;599616109150624874;10790.348;-9
2024-05-02T10:25:20.906;599616109158315828;10798.038;21
2024-05-02T10:25:20.913;599616109166006782;10805.7295;55
2024-05-02T10:25:20.921;599616109173697736;10813.421;55
2024-05-02T10:25:20.929;599616109181388690;10821.111;41
2024-05-02T10:25:20.936;599616109189079644;10828.802;43
2024-05-02T10:25:20.944;599616109196770598;10836.493;36
2024-05-02T10:25:20.952;599616109204461552;10844.185;-2
2024-05-02T10:25:20.959;599616109212152506;10851.875;-43
2024-05-02T10:25:20.967;599616109219843460;10859.566;-75
2024-05-02T10:25:20.975;599616109227534414;10867.258;-104
2024-05-02T10:25:20.982;599616109235225368;10874.947;-118
2024-05-02T10:25:20.990;599616109242916322;10882.639;-113
2024-05-02T10:25:20.998;599616109250607276;10890.33;-121
2024-05-02T10:25:21.006;599616109258298230;10898.0205;-164
2024-05-02T10:25:21.013;599616109265989184;10905.712;-201
2024-05-02T10:25:21.021;599616109273680138;10913.403;-196
2024-05-02T10:25:21.029;599616109281371092;10921.094;-169
2024-05-02T10:25:21.036;599616109289062046;10928.784;-145
2024-05-02T10:25:21.044;599616109296753000;10936.476;-133
2024-05-02T10:25:21.052;599616109304443954;10944.167;-116
2024-05-02T10:25:21.059;599616109312134908;10951.857;-84
2024-05-02T10:25:21.067;599616109319825862;10959.549;-82
2024-05-02T10:25:21.075;599616109327516816;10967.239;-92
2024-05-02T10:25:21.082;599616109335207770;10974.93;-67
2024-05-02T10:25:21.090;599616109342898724;10982.621;-24
2024-05-02T10:25:21.098;599616109350589678;10990.3125;-7
2024-05-02T10:25:21.106;599616109358280632;10998.004;-19
2024-05-02T10:25:21.113;599616109365971586;11005.694;-21
2024-05-02T10:25:21.121;599616109373662540;11013.385;-16
2024-05-02T10:25:21.129;599616109381353494;11021.076;-67
2024-05-02T10:25:21.136;599616109389044448;11028.767;-130
2024-05-02T10:25:21.144;599616109396735402;11036.458;-113
2024-05-02T10:25:21.152;599616109404426356;11044.149;-72
2024-05-02T10:25:21.159;599616109412117310;11051.84;-87
2024-05-02T10:25:21.167;599616109419808264;11059.53;-89
2024-05-02T10:25:21.175;599616109427499218;11067.222;-41
2024-05-02T10:25:21.182;599616109435190172;11074.913;0
2024-05-02T10:25:21.190;599616109442881126;11082.604;16
2024-05-02T10:25:21.198;599616109450572080;11090.295;21
2024-05-02T10:25:21.205;599616109458263034;11097.986;29
2024-05-02T10:25:21.213;599616109465953988;11105.677;48
2024-05-02T10:25:21.221;599616109473644942;11113.367;70
2024-05-02T10:25:21.229;599616109481335896;11121.059;99
2024-05-02T10:25:21.236;599616109489026850;11128.749;227
2024-05-02T10:25:21.244;599616109496717804;11136.44;509
2024-05-02T10:25:21.252;599616109504408758;11144.132;785
2024-05-02T10:25:21.259;599616109512099712;11151.823;710
2024-05-02T10:25:21.267;599616109519790666;11159.513;225
2024-05-02T10:25:21.275;599616109527481620;11167.204;-89
2024-05-02T10:25:21.282;599616109535172574;11174.8955;12
2024-05-02T10:25:21.290;599616109542863528;11182.586;70
2024-05-02T10:25:21.298;599616109550554482;11190.277;-7
2024-05-02T10:25:21.305;599616109558245436;11197.969;19
2024-05-02T10:25:21.313;599616109565936390;11205.658;75
2024-05-02T10:25:21.321;599616109573627344;11213.35;72
2024-05-02T10:25:21.329;599616109581318298;11221.041;99
2024-05-02T10:25:21.336;599616109589009256;11228.731;140
2024-05-02T10:25:21.344;599616109596700210;11236.423;126
2024-05-02T10:25:21.352;599616109604391164;11244.114;121
2024-05-02T10:25:21.359;599616109612082118;11251.806;172
2024-05-02T10:25:21.367;599616109619773072;11259.495;208
2024-05-02T10:25:21.375;599616109627464026;11267.187;203
2024-05-02T10:25:21.382;599616109635154980;11274.878;208
2024-05-02T10:25:21.390;599616109642845934;11282.568;215
2024-05-02T10:25:21.398;599616109650536888;11290.26;191
2024-05-02T10:25:21.405;599616109658227842;11297.951;123
2024-05-02T10:25:21.413;599616109665918796;11305.641;92
2024-05-02T10:25:21.421;599616109673609750;11313.332;138
2024-05-02T10:25:21.429;599616109681300704;11321.023;172
2024-05-02T10:25:21.436;599616109688991658;11328.715;152
2024-05-02T10:25:21.444;599616109696682612;11336.405;167
2024-05-02T10:25:21.452;599616109704373566;11344.097;223
2024-05-02T10:25:21.459;599616109712064520;11351.787;249
2024-05-02T10:25:21.467;599616109719755474;11359.478;259
2024-05-02T10:25:21.475;599616109727446428;11367.169;278
2024-05-02T10:25:21.482;599616109735137382;11374.86;288
2024-05-02T10:25:21.490;599616109742828336;11382.551;271
2024-05-02T10:25:21.498;599616109750519290;11390.242;240
2024-05-02T10:25:21.505;599616109758210244;11397.933;220
2024-05-02T10:25:21.513;599616109765901198;11405.624;220
2024-05-02T10:25:21.521;599616109773592152;11413.314;189
2024-05-02T10:25:21.529;599616109781283106;11421.006;128
2024-05-02T10:25:21.536;599616109788974060;11428.697;89
2024-05-02T10:25:21.544;599616109796665014;11436.388;63
2024-05-02T10:25:21.552;599616109804355968;11444.078;24
2024-05-02T10:25:21.559;599616109812046922;11451.77;19
2024-05-02T10:25:21.567;599616109819737876;11459.46;38
2024-05-02T10:25:21.575;599616109827428830;11467.151;31
2024-05-02T10:25:21.582;599616109835119784;11474.843;16
2024-05-02T10:25:21.590;599616109842810738;11482.533;29
2024-05-02T10:25:21.598;599616109850501692;11490.225;58
2024-05-02T10:25:21.605;599616109858192646;11497.915;75
2024-05-02T10:25:21.613;599616109865883600;11505.606;70
2024-05-02T10:25:21.621;599616109873574554;11513.297;60
2024-05-02T10:25:21.628;599616109881265508;11520.988;41
2024-05-02T10:25:21.636;599616109888956462;11528.68;-29
2024-05-02T10:25:21.644;599616109896647416;11536.37;-94
2024-05-02T10:25:21.652;599616109904338370;11544.061;-72
2024-05-02T10:25:21.659;599616109912029324;11551.752;-24
2024-05-02T10:25:21.667;599616109919720278;11559.442;-29
2024-05-02T10:25:21.675;599616109927411232;11567.134;-33
2024-05-02T10:25:21.682;599616109935102186;11574.825;-2
2024-05-02T10:25:21.690;599616109942793140;11582.517;36
2024-05-02T10:25:21.698;599616109950484094;11590.206;43
2024-05-02T10:25:21.705;599616109958175048;11597.897;0
2024-05-02T10:25:21.713;599616109965866002;11605.589;-50
2024-05-02T10:25:21.721;599616109973556956;11613.279;-65
2024-05-02T10:25:21.728;599616109981247910;11620.971;-82
2024-05-02T10:25:21.736;599616109988938864;11628.662;-128
2024-05-02T10:25:21.744;599616109996629818;11636.352;-167
2024-05-02T10:25:21.752;599616110004320772;11644.043;-179
2024-05-02T10:25:21.759;599616110012011726;11651.734;-184
2024-05-02T10:25:21.767;599616110019702680;11659.426;-194
2024-05-02T10:25:21.775;599616110027393634;11667.116;-179
2024-05-02T10:25:21.782;599616110035084588;11674.808;-147
2024-05-02T10:25:21.790;599616110042775542;11682.499;-138
2024-05-02T10:25:21.798;599616110050466496;11690.188;-143
2024-05-02T10:25:21.805;599616110058157450;11697.88;-135
2024-05-02T10:25:21.813;599616110065848404;11705.571;-113
2024-05-02T10:25:21.821;599616110073539358;11713.262;-97
2024-05-02T10:25:21.828;599616110081230312;11720.953;-89
2024-05-02T10:25:21.836;599616110088921266;11728.645;-60
2024-05-02T10:25:21.844;599616110096612220;11736.334;-36
2024-05-02T10:25:21.852;599616110104303174;11744.025;-48
2024-05-02T10:25:21.859;599616110111994128;11751.717;-58
2024-05-02T10:25:21.867;599616110119685082;11759.408;-19
2024-05-02T10:25:21.875;599616110127376036;11767.099;19
2024-05-02T10:25:21.882;599616110135066990;11774.79;29
2024-05-02T10:25:21.890;599616110142757944;11782.48;36
2024-05-02T10:25:21.898;599616110150448902;11790.171;55
2024-05-02T10:25:21.905;599616110158139856;11797.862;67
2024-05-02T10:25:21.913;599616110165830810;11805.554;65
2024-05-02T10:25:21.921;599616110173521764;11813.244;67
2024-05-02T10:25:21.928;599616110181212718;11820.936;97
2024-05-02T10:25:21.936;599616110188903672;11828.626;99
2024-05-02T10:25:21.944;599616110196594626;11836.317;21
2024-05-02T10:25:21.952;599616110204285580;11844.008;-36
2024-05-02T10:25:21.959;599616110211976534;11851.699;9
2024-05-02T10:25:21.967;599616110219667488;11859.391;55
2024-05-02T10:25:21.975;599616110227358442;11867.081;46
2024-05-02T10:25:21.982;599616110235049396;11874.771;26
2024-05-02T10:25:21.990;599616110242740350;11882.463;4
2024-05-02T10:25:21.998;599616110250431304;11890.153;53
2024-05-02T10:25:22.005;599616110258122258;11897.845;298
2024-05-02T10:25:22.013;599616110265813212;11905.536;666
2024-05-02T10:25:22.021;599616110273504166;11913.228;780
2024-05-02T10:25:22.028;599616110281195120;11920.918;354
2024-05-02T10:25:22.036;599616110288886074;11928.608;-101
2024-05-02T10:25:22.044;599616110296577028;11936.3;-31
2024-05-02T10:25:22.051;599616110304267982;11943.99;126
2024-05-02T10:25:22.059;599616110311958936;11951.682;50
2024-05-02T10:25:22.067;599616110319649890;11959.373;36
2024-05-02T10:25:22.075;599616110327340844;11967.063;109
2024-05-02T10:25:22.082;599616110335031798;11974.754;109
2024-05-02T10:25:22.090;599616110342722752;11982.445;94
2024-05-02T10:25:22.098;599616110350413706;11990.137;128
2024-05-02T10:25:22.105;599616110358104660;11997.827;167
2024-05-02T10:25:22.113;599616110365795614;12005.519;191
2024-05-02T10:25:22.121;599616110373486568;12013.21;198
2024-05-02T10:25:22.128;599616110381177522;12020.899;184
2024-05-02T10:25:22.136;599616110388868476;12028.591;143
2024-05-02T10:25:22.144;599616110396559430;12036.282;77
2024-05-02T10:25:22.151;599616110404250384;12043.973;43
2024-05-02T10:25:22.159;599616110411941338;12051.664;72
2024-05-02T10:25:22.167;599616110419632292;12059.355;109
2024-05-02T10:25:22.175;599616110427323246;12067.045;123
2024-05-02T10:25:22.182;599616110435014200;12074.736;135
2024-05-02T10:25:22.190;599616110442705154;12082.428;157
2024-05-02T10:25:22.198;599616110450396108;12090.119;198
2024-05-02T10:25:22.205;599616110458087062;12097.81;242
2024-05-02T10:25:22.213;599616110465778016;12105.501;249
2024-05-02T10:25:22.221;599616110473468970;12113.192;240
2024-05-02T10:25:22.228;599616110481159924;12120.882;249
2024-05-02T10:25:22.236;599616110488850878;12128.573;240
2024-05-02T10:25:22.244;599616110496541832;12136.265;210
2024-05-02T10:25:22.251;599616110504232786;12143.955;220
2024-05-02T10:25:22.259;599616110511923740;12151.646;252
2024-05-02T10:25:22.267;599616110519614694;12159.338;237
2024-05-02T10:25:22.275;599616110527305648;12167.028;198
2024-05-02T10:25:22.282;599616110534996602;12174.719;167
2024-05-02T10:25:22.290;599616110542687556;12182.41;123
2024-05-02T10:25:22.298;599616110550378510;12190.102;72
2024-05-02T10:25:22.305;599616110558069464;12197.792;38
2024-05-02T10:25:22.313;599616110565760418;12205.483;14
2024-05-02T10:25:22.321;599616110573451372;12213.174;12
2024-05-02T10:25:22.328;599616110581142326;12220.864;29
2024-05-02T10:25:22.336;599616110588833280;12228.556;36
2024-05-02T10:25:22.344;599616110596524234;12236.247;46
2024-05-02T10:25:22.351;599616110604215188;12243.938;72
2024-05-02T10:25:22.359;599616110611906142;12251.629;67
2024-05-02T10:25:22.367;599616110619597096;12259.319;53
2024-05-02T10:25:22.375;599616110627288050;12267.011;77
2024-05-02T10:25:22.382;599616110634979004;12274.701;113
2024-05-02T10:25:22.390;599616110642669958;12282.393;123
2024-05-02T10:25:22.398;599616110650360912;12290.084;113
2024-05-02T10:25:22.405;599616110658051866;12297.774;109
2024-05-02T10:25:22.413;599616110665742820;12305.466;121
2024-05-02T10:25:22.421;599616110673433774;12313.156;138
2024-05-02T10:25:22.428;599616110681124728;12320.847;143
2024-05-02T10:25:22.436;599616110688815682;12328.538;157
2024-05-02T10:25:22.444;599616110696506636;12336.2295;167
2024-05-02T10:25:22.451;599616110704197590;12343.921;121
2024-05-02T10:25:22.459;599616110711918644;12351.642;58
2024-05-02T10:25:22.467;599616110719609180;12359.332;43
2024-05-02T10:25:22.475;599616110727299716;12367.022;7
2024-05-02T10:25:22.482;599616110734990252;12374.713;-72
2024-05-02T10:25:22.490;599616110742680788;12382.403;-111
2024-05-02T10:25:22.498;599616110750371324;12390.094;-109
2024-05-02T10:25:22.505;599616110758061860;12397.784;-126
2024-05-02T10:25:22.513;599616110765752396;12405.476;-186
2024-05-02T10:25:22.521;599616110773442932;12413.166;-242
2024-05-02T10:25:22.528;599616110781133468;12420.855;-220
2024-05-02T10:25:22.536;599616110788824004;12428.547;-179
2024-05-02T10:25:22.544;599616110796514540;12436.237;-196
2024-05-02T10:25:22.551;599616110804205076;12443.928;-203
2024-05-02T10:25:22.559;599616110811895612;12451.618;-152
2024-05-02T10:25:22.567;599616110819586148;12459.309;-116
2024-05-02T10:25:22.574;599616110827276684;12466.999;-111
2024-05-02T10:25:22.582;599616110834967220;12474.689;-101
2024-05-02T10:25:22.590;599616110842657756;12482.381;-82
2024-05-02T10:25:22.598;599616110850348292;12490.071;-72
2024-05-02T10:25:22.605;599616110858038828;12497.762;-60
2024-05-02T10:25:22.613;599616110865729364;12505.451;-29
2024-05-02T10:25:22.621;599616110873419900;12513.143;4
2024-05-02T10:25:22.628;599616110881110436;12520.833;9
2024-05-02T10:25:22.636;599616110888800972;12528.523;-14
2024-05-02T10:25:22.644;599616110896491508;12536.215;-46
2024-05-02T10:25:22.651;599616110904182044;12543.904;-94
2024-05-02T10:25:22.659;599616110911872580;12551.595;-123
2024-05-02T10:25:22.667;599616110919563116;12559.285;-89
2024-05-02T10:25:22.674;599616110927253652;12566.977;-60
2024-05-02T10:25:22.682;599616110934944188;12574.667;-65
2024-05-02T10:25:22.690;599616110942634724;12582.357;-65
2024-05-02T10:25:22.698;599616110950325260;12590.048;-41
2024-05-02T10:25:22.705;599616110958015796;12597.738;-4
2024-05-02T10:25:22.713;599616110965706332;12605.429;36
2024-05-02T10:25:22.721;599616110973396868;12613.12;38
2024-05-02T10:25:22.728;599616110981087404;12620.811;-2
2024-05-02T10:25:22.736;599616110988777940;12628.5;-19
2024-05-02T10:25:22.744;599616110996468476;12636.19;26
2024-05-02T10:25:22.751;599616111004159012;12643.882;60
2024-05-02T10:25:22.759;599616111011849548;12651.572;101
2024-05-02T10:25:22.767;599616111019540084;12659.263;298
2024-05-02T10:25:22.774;599616111027230620;12666.954;642
2024-05-02T10:25:22.782;599616111034921156;12674.644;848
2024-05-02T10:25:22.790;599616111042611692;12682.334;569
2024-05-02T10:25:22.798;599616111050302228;12690.024;72
2024-05-02T10:25:22.805;599616111057992764;12697.716;-19
2024-05-02T10:25:22.813;599616111065683300;12705.406;109
2024-05-02T10:25:22.821;599616111073373836;12713.097;53
2024-05-02T10:25:22.828;599616111081064372;12720.787;16
2024-05-02T10:25:22.836;599616111088754908;12728.478;97
2024-05-02T10:25:22.844;599616111096445444;12736.168;113
2024-05-02T10:25:22.851;599616111104135980;12743.858;104
2024-05-02T10:25:22.859;599616111111826516;12751.55;138
2024-05-02T10:25:22.867;599616111119517052;12759.239;147
2024-05-02T10:25:22.874;599616111127207588;12766.93;138
2024-05-02T10:25:22.882;599616111134898124;12774.621;155
2024-05-02T10:25:22.890;599616111142588660;12782.312;194
2024-05-02T10:25:22.898;599616111150279196;12790.002;213
2024-05-02T10:25:22.905;599616111157969732;12797.692;208
2024-05-02T10:25:22.913;599616111165660268;12805.383;203
2024-05-02T10:25:22.921;599616111173350804;12813.073;223
2024-05-02T10:25:22.928;599616111181041340;12820.764;247
2024-05-02T10:25:22.936;599616111188731876;12828.455;254
2024-05-02T10:25:22.944;599616111196422412;12836.1455;269
2024-05-02T10:25:22.951;599616111204112948;12843.835;295
2024-05-02T10:25:22.959;599616111211803484;12851.525;288
2024-05-02T10:25:22.967;599616111219494020;12859.217;261
2024-05-02T10:25:22.974;599616111227184556;12866.907;237
2024-05-02T10:25:22.982;599616111234875092;12874.598;227
2024-05-02T10:25:22.990;599616111242565628;12882.289;247
2024-05-02T10:25:22.997;599616111250256164;12889.979;259
2024-05-02T10:25:23.005;599616111257946700;12897.669;254
2024-05-02T10:25:23.013;599616111265637236;12905.359;266
2024-05-02T10:25:23.021;599616111273297676;12913.02;281
2024-05-02T10:25:23.028;599616111280988630;12920.711;259
2024-05-02T10:25:23.036;599616111288679584;12928.402;210
2024-05-02T10:25:23.044;599616111296370538;12936.093;145
2024-05-02T10:25:23.051;599616111304061492;12943.784;36
2024-05-02T10:25:23.059;599616111311752446;12951.476;-77
2024-05-02T10:25:23.067;599616111319443400;12959.166;-87
2024-05-02T10:25:23.074;599616111327134354;12966.856;-48
2024-05-02T10:25:23.082;599616111334825308;12974.548;-60
2024-05-02T10:25:23.090;599616111342516262;12982.239;-75
2024-05-02T10:25:23.097;599616111350207216;12989.93;-58
2024-05-02T10:25:23.105;599616111357898170;12997.621;-46
2024-05-02T10:25:23.113;599616111365589124;13005.312;-38
2024-05-02T10:25:23.121;599616111373280078;13013.002;-14
2024-05-02T10:25:23.128;599616111380971032;13020.693;19
2024-05-02T10:25:23.136;599616111388661986;13028.385;38
2024-05-02T10:25:23.144;599616111396352940;13036.076;2
2024-05-02T10:25:23.151;599616111404043894;13043.767;-77
2024-05-02T10:25:23.159;599616111411734848;13051.458;-99
2024-05-02T10:25:23.167;599616111419425802;13059.148;-53
2024-05-02T10:25:23.174;599616111427116756;13066.839;-33
2024-05-02T10:25:23.182;599616111434807710;13074.53;-36
2024-05-02T10:25:23.190;599616111442498664;13082.222;-16
2024-05-02T10:25:23.197;599616111450189618;13089.912;-31
2024-05-02T10:25:23.205;599616111457880572;13097.604;-82
2024-05-02T10:25:23.213;599616111465571526;13105.294;-111
2024-05-02T10:25:23.220;599616111473262480;13112.985;-155
2024-05-02T10:25:23.228;599616111480953434;13120.676;-223
2024-05-02T10:25:23.236;599616111488644388;13128.367;-244
2024-05-02T10:25:23.244;599616111496335342;13136.059;-220
2024-05-02T10:25:23.251;599616111504026296;13143.749;-191
2024-05-02T10:25:23.259;599616111511717250;13151.439;-177
2024-05-02T10:25:23.267;599616111519408204;13159.131;-172
2024-05-02T10:25:23.274;599616111527099158;13166.821;-160
2024-05-02T10:25:23.282;599616111534790112;13174.513;-145
2024-05-02T10:25:23.290;599616111542481066;13182.204;-140
2024-05-02T10:25:23.297;599616111550172020;13189.895;-130
2024-05-02T10:25:23.305;599616111557862974;13197.585;-101
2024-05-02T10:25:23.313;599616111565553928;13205.276;-67
2024-05-02T10:25:23.320;599616111573244882;13212.968;-60
2024-05-02T10:25:23.328;599616111580935836;13220.658;-77
2024-05-02T10:25:23.336;599616111588626790;13228.35;-65
2024-05-02T10:25:23.344;599616111596317744;13236.041;-26
2024-05-02T10:25:23.351;599616111604008698;13243.73;-9
2024-05-02T10:25:23.359;599616111611699652;13251.422;-7
2024-05-02T10:25:23.367;599616111619390606;13259.113;12
2024-05-02T10:25:23.374;599616111627081560;13266.804;26
2024-05-02T10:25:23.382;599616111634772514;13274.495;24
2024-05-02T10:25:23.390;599616111642463468;13282.187;48
2024-05-02T10:25:23.397;599616111650154422;13289.878;94
2024-05-02T10:25:23.405;599616111657845376;13297.567;118
2024-05-02T10:25:23.413;599616111665536330;13305.259;101
2024-05-02T10:25:23.420;599616111673227284;13312.95;82
2024-05-02T10:25:23.428;599616111680918238;13320.641;104
2024-05-02T10:25:23.436;599616111688609192;13328.332;130
2024-05-02T10:25:23.444;599616111696300146;13336.023;135
2024-05-02T10:25:23.451;599616111703991100;13343.713;143
2024-05-02T10:25:23.459;599616111711682054;13351.404;145
2024-05-02T10:25:23.467;599616111719373008;13359.096;99
2024-05-02T10:25:23.474;599616111727063962;13366.787;48
2024-05-02T10:25:23.482;599616111734754916;13374.478;70
2024-05-02T10:25:23.490;599616111742445870;13382.169;126
2024-05-02T10:25:23.497;599616111750136824;13389.859;215
2024-05-02T10:25:23.505;599616111757827778;13397.55;441
2024-05-02T10:25:23.513;599616111765518732;13405.241;783
2024-05-02T10:25:23.520;599616111773209686;13412.933;875
2024-05-02T10:25:23.528;599616111780900640;13420.623;448
2024-05-02T10:25:23.536;599616111788591594;13428.314;24
2024-05-02T10:25:23.544;599616111796282548;13436.006;87
2024-05-02T10:25:23.551;599616111803973502;13443.696;206
2024-05-02T10:25:23.559;599616111811664456;13451.387;106
2024-05-02T10:25:23.567;599616111819355410;13459.078;77
2024-05-02T10:25:23.574;599616111827046364;13466.77;150
2024-05-02T10:25:23.582;599616111834737322;13474.46;177
2024-05-02T10:25:23.590;599616111842428276;13482.151;174
2024-05-02T10:25:23.597;599616111850119230;13489.842;181
2024-05-02T10:25:23.605;599616111857810184;13497.532;181
2024-05-02T10:25:23.613;599616111865501138;13505.224;189
2024-05-02T10:25:23.620;599616111873192092;13512.915;160
2024-05-02T10:25:23.628;599616111880883046;13520.605;89
2024-05-02T10:25:23.636;599616111888574000;13528.297;84
2024-05-02T10:25:23.643;599616111896264954;13535.987;128
2024-05-02T10:25:23.651;599616111903955908;13543.679;77
2024-05-02T10:25:23.659;599616111911646862;13551.369;-12
2024-05-02T10:25:23.667;599616111919337816;13559.061;12
2024-05-02T10:25:23.674;599616111927028770;13566.752;80
2024-05-02T10:25:23.682;599616111934719724;13574.442;84
2024-05-02T10:25:23.690;599616111942410678;13582.133;84
2024-05-02T10:25:23.697;599616111950101632;13589.824;121
2024-05-02T10:25:23.705;599616111957792586;13597.515;138
2024-05-02T10:25:23.713;599616111965483540;13605.206;126
2024-05-02T10:25:23.720;599616111973174494;13612.897;133
2024-05-02T10:25:23.728;599616111980865448;13620.589;179
2024-05-02T10:25:23.736;599616111988556402;13628.278;213
2024-05-02T10:25:23.743;599616111996247356;13635.97;203
2024-05-02T10:25:23.751;599616112003938310;13643.661;191
2024-05-02T10:25:23.759;599616112011629264;13651.352;218
2024-05-02T10:25:23.767;599616112019320218;13659.043;240
2024-05-02T10:25:23.774;599616112027011172;13666.734;206
2024-05-02T10:25:23.782;599616112034702126;13674.425;155
2024-05-02T10:25:23.790;599616112042393080;13682.115;126
2024-05-02T10:25:23.797;599616112050084034;13689.807;109
2024-05-02T10:25:23.805;599616112057774988;13697.498;80
2024-05-02T10:25:23.813;599616112065465942;13705.188;48
2024-05-02T10:25:23.820;599616112073156896;13712.88;33
2024-05-02T10:25:23.828;599616112080847850;13720.571;21
2024-05-02T10:25:23.836;599616112088538804;13728.261;-9
2024-05-02T10:25:23.843;599616112096229758;13735.952;-14
2024-05-02T10:25:23.851;599616112103920712;13743.644;24
2024-05-02T10:25:23.859;599616112111611666;13751.334;38
2024-05-02T10:25:23.867;599616112119302620;13759.025;33
2024-05-02T10:25:23.874;599616112126993574;13766.717;48
2024-05-02T10:25:23.882;599616112134684528;13774.406;58
2024-05-02T10:25:23.890;599616112142375482;13782.098;50
2024-05-02T10:25:23.897;599616112150066436;13789.789;55
2024-05-02T10:25:23.905;599616112157757390;13797.48;82
2024-05-02T10:25:23.913;599616112165448344;13805.171;106
2024-05-02T10:25:23.920;599616112173139298;13812.862;104
2024-05-02T10:25:23.928;599616112180830252;13820.553;80
2024-05-02T10:25:23.936;599616112188521206;13828.243;87
2024-05-02T10:25:23.943;599616112196212160;13835.935;126
2024-05-02T10:25:23.951;599616112203903114;13843.626;130
2024-05-02T10:25:23.959;599616112211594068;13851.316;94
2024-05-02T10:25:23.967;599616112219285022;13859.008;67
2024-05-02T10:25:23.974;599616112226975976;13866.699;50
2024-05-02T10:25:23.982;599616112234666930;13874.39;7
2024-05-02T10:25:23.990;599616112242357884;13882.08;-31
2024-05-02T10:25:23.997;599616112250048838;13889.771;-41
2024-05-02T10:25:24.005;599616112257739792;13897.463;-70
2024-05-02T10:25:24.013;599616112265430746;13905.153;-106
2024-05-02T10:25:24.020;599616112273121700;13912.845;-126
2024-05-02T10:25:24.028;599616112280812654;13920.535;-116
2024-05-02T10:25:24.036;599616112288503608;13928.226;-97
2024-05-02T10:25:24.043;599616112296194562;13935.917;-92
2024-05-02T10:25:24.051;599616112303885516;13943.608;-82
2024-05-02T10:25:24.059;599616112311576470;13951.3;-67
2024-05-02T10:25:24.066;599616112319267424;13958.99;-75
2024-05-02T10:25:24.074;599616112326958378;13966.681;-87
2024-05-02T10:25:24.082;599616112334649332;13974.372;-65
2024-05-02T10:25:24.090;599616112342340286;13982.0625;-29
2024-05-02T10:25:24.097;599616112350031240;13989.754;-9
2024-05-02T10:25:24.105;599616112357722194;13997.445;-4
2024-05-02T10:25:24.113;599616112365413148;14005.136;-9
2024-05-02T10:25:24.120;599616112373104102;14012.826;-2
2024-05-02T10:25:24.128;599616112380795056;14020.518;9
2024-05-02T10:25:24.136;599616112388486010;14028.208;14
2024-05-02T10:25:24.143;599616112396176968;14035.899;29
2024-05-02T10:25:24.151;599616112403867922;14043.591;26
2024-05-02T10:25:24.159;599616112411558876;14051.282;-65
2024-05-02T10:25:24.166;599616112419249830;14058.972;-157
2024-05-02T10:25:24.174;599616112426940784;14066.663;-118
2024-05-02T10:25:24.182;599616112434631738;14074.3545;-50
2024-05-02T10:25:24.190;599616112442322692;14082.045;-48
2024-05-02T10:25:24.197;599616112450013646;14089.736;-67
2024-05-02T10:25:24.205;599616112457704600;14097.428;-26
2024-05-02T10:25:24.213;599616112465395554;14105.118;191
2024-05-02T10:25:24.220;599616112473086508;14112.809;526
2024-05-02T10:25:24.228;599616112480777462;14120.5;557
2024-05-02T10:25:24.236;599616112488468416;14128.191;82
2024-05-02T10:25:24.243;599616112496159370;14135.882;-307
2024-05-02T10:25:24.251;599616112503850324;14143.573;-203
2024-05-02T10:25:24.259;599616112511541278;14151.265;-94
2024-05-02T10:25:24.266;599616112519232232;14158.954;-160
2024-05-02T10:25:24.274;599616112526923186;14166.6455;-113
2024-05-02T10:25:24.282;599616112534614140;14174.337;-38
2024-05-02T10:25:24.290;599616112542305094;14182.027;-58
2024-05-02T10:25:24.297;599616112549996048;14189.719;-48
2024-05-02T10:25:24.305;599616112557687002;14197.41;4
2024-05-02T10:25:24.313;599616112565377956;14205.101;29
2024-05-02T10:25:24.320;599616112573068910;14212.791;43
2024-05-02T10:25:24.328;599616112580759864;14220.482;87
2024-05-02T10:25:24.336;599616112588450818;14228.174;113
2024-05-02T10:25:24.343;599616112596141772;14235.864;99
2024-05-02T10:25:24.351;599616112603832726;14243.556;101
2024-05-02T10:25:24.359;599616112611523680;14251.247;150
2024-05-02T10:25:24.366;599616112619214634;14258.937;186
2024-05-02T10:25:24.374;599616112626905588;14266.628;189
2024-05-02T10:25:24.382;599616112634596542;14274.319;201
2024-05-02T10:25:24.390;599616112642287496;14282.011;220
2024-05-02T10:25:24.397;599616112649978450;14289.701;230
2024-05-02T10:25:24.405;599616112657669404;14297.393;242
2024-05-02T10:25:24.413;599616112665360358;14305.083;274
2024-05-02T10:25:24.420;599616112673051312;14312.773;312
2024-05-02T10:25:24.428;599616112680742266;14320.465;327
2024-05-02T10:25:24.436;599616112688433220;14328.156;320
2024-05-02T10:25:24.443;599616112696124174;14335.847;315
2024-05-02T10:25:24.451;599616112703815128;14343.538;303
2024-05-02T10:25:24.459;599616112711506082;14351.229;264
2024-05-02T10:25:24.466;599616112719197036;14358.919;247
2024-05-02T10:25:24.474;599616112726887990;14366.61;249
2024-05-02T10:25:24.482;599616112734578944;14374.302;223
2024-05-02T10:25:24.489;599616112742269898;14381.993;179
2024-05-02T10:25:24.497;599616112749960852;14389.684;152
2024-05-02T10:25:24.505;599616112757651806;14397.374;145
2024-05-02T10:25:24.513;599616112765342760;14405.065;152
2024-05-02T10:25:24.520;599616112773033714;14412.756;150
2024-05-02T10:25:24.528;599616112780724668;14420.447;126
2024-05-02T10:25:24.536;599616112788415622;14428.139;123
2024-05-02T10:25:24.543;599616112796106576;14435.829;157
2024-05-02T10:25:24.551;599616112803797530;14443.52;174
2024-05-02T10:25:24.559;599616112811488484;14451.211;167
2024-05-02T10:25:24.566;599616112819179438;14458.902;184
2024-05-02T10:25:24.574;599616112826870392;14466.593;194
2024-05-02T10:25:24.582;599616112834561346;14474.284;155
2024-05-02T10:25:24.589;599616112842252300;14481.976;113
2024-05-02T10:25:24.597;599616112849943254;14489.666;128
2024-05-02T10:25:24.605;599616112857634208;14497.356;152
2024-05-02T10:25:24.613;599616112865325162;14505.048;133
2024-05-02T10:25:24.620;599616112873016116;14512.738;109
2024-05-02T10:25:24.628;599616112880707070;14520.43;116
2024-05-02T10:25:24.636;599616112888398024;14528.121;133
2024-05-02T10:25:24.643;599616112896088978;14535.8125;135
2024-05-02T10:25:24.651;599616112903779932;14543.502;128
2024-05-02T10:25:24.659;599616112911470886;14551.193;65
2024-05-02T10:25:24.666;599616112919161840;14558.885;-38
2024-05-02T10:25:24.674;599616112926852794;14566.575;-65
2024-05-02T10:25:24.682;599616112934543748;14574.267;-19
2024-05-02T10:25:24.689;599616112942234702;14581.958;-4
2024-05-02T10:25:24.697;599616112949925656;14589.647;-43
2024-05-02T10:25:24.705;599616112957616614;14597.339;-84
2024-05-02T10:25:24.713;599616112965307568;14605.03;-87
2024-05-02T10:25:24.720;599616112972998522;14612.721;-50
2024-05-02T10:25:24.728;599616112980689476;14620.412;-19
2024-05-02T10:25:24.736;599616112988380430;14628.104;-9
2024-05-02T10:25:24.743;599616112996071384;14635.794;-9
2024-05-02T10:25:24.751;599616113003762338;14643.484;-36
2024-05-02T10:25:24.759;599616113011453292;14651.176;-123
2024-05-02T10:25:24.766;599616113019144246;14658.867;-252
2024-05-02T10:25:24.774;599616113026835200;14666.558;-310
2024-05-02T10:25:24.782;599616113034526154;14674.249;-276
2024-05-02T10:25:24.789;599616113042217108;14681.94;-252
2024-05-02T10:25:24.797;599616113049908062;14689.63;-274
2024-05-02T10:25:24.805;599616113057599016;14697.321;-274
2024-05-02T10:25:24.813;599616113065289970;14705.013;-244
2024-05-02T10:25:24.820;599616113072980924;14712.704;-235
2024-05-02T10:25:24.828;599616113080671878;14720.395;-232
2024-05-02T10:25:24.836;599616113088362832;14728.086;-201
2024-05-02T10:25:24.843;599616113096053786;14735.776;-172
2024-05-02T10:25:24.851;599616113103744740;14743.467;-177
2024-05-02T10:25:24.859;599616113111435694;14751.158;-177
2024-05-02T10:25:24.866;599616113119126648;14758.85;-135
2024-05-02T10:25:24.874;599616113126817602;14766.54;-94
2024-05-02T10:25:24.882;599616113134508556;14774.231;-89
2024-05-02T10:25:24.889;599616113142199510;14781.922;-65
2024-05-02T10:25:24.897;599616113149890464;14789.613;92
2024-05-02T10:25:24.905;599616113157581418;14797.304;429
2024-05-02T10:25:24.912;599616113165272372;14804.995;729
2024-05-02T10:25:24.920;599616113172963326;14812.687;572
2024-05-02T10:25:24.928;599616113180654280;14820.377;36
2024-05-02T10:25:24.936;599616113188345234;14828.067;-177
2024-05-02T10:25:24.943;599616113196036188;14835.759;-58
2024-05-02T10:25:24.951;599616113203727142;14843.449;-84
2024-05-02T10:25:24.959;599616113211418096;14851.141;-133
2024-05-02T10:25:24.966;599616113219109050;14858.832;-53
2024-05-02T10:25:24.974;599616113226800004;14866.523;-24
2024-05-02T10:25:24.982;599616113234490958;14874.213;-41
2024-05-02T10:25:24.989;599616113242181912;14881.904;-7
2024-05-02T10:25:24.997;599616113249872866;14889.596;21
2024-05-02T10:25:25.005;599616113257563820;14897.286;29
2024-05-02T10:25:25.012;599616113265254774;14904.978;53
2024-05-02T10:25:25.020;599616113272945728;14912.669;99
2024-05-02T10:25:25.028;599616113280636682;14920.359;126
2024-05-02T10:25:25.036;599616113288327636;14928.05;121
2024-05-02T10:25:25.043;599616113296018590;14935.741;130
2024-05-02T10:25:25.051;599616113303709544;14943.432;174
2024-05-02T10:25:25.059;599616113311400498;14951.123;208
2024-05-02T10:25:25.066;599616113319091452;14958.814;210
2024-05-02T10:25:25.074;599616113326782406;14966.506;220
2024-05-02T10:25:25.082;599616113334473360;14974.195;232
2024-05-02T10:25:25.089;599616113342164314;14981.887;237
2024-05-02T10:25:25.097;599616113349855268;14989.578;244
2024-05-02T10:25:25.105;599616113357546222;14997.269;278
2024-05-02T10:25:25.112;599616113365237176;15004.96;322
2024-05-02T10:25:25.120;599616113372928130;15012.651;337
2024-05-02T10:25:25.128;599616113380619084;15020.341;324
2024-05-02T10:25:25.136;599616113388310038;15028.032;332
2024-05-02T10:25:25.143;599616113396000992;15035.724;358
2024-05-02T10:25:25.151;599616113403691946;15043.415;358
2024-05-02T10:25:25.159;599616113411382900;15051.105;312
2024-05-02T10:25:25.166;599616113419073854;15058.797;208
2024-05-02T10:25:25.174;599616113426764808;15066.488;101
2024-05-02T10:25:25.182;599616113434455762;15074.178;67
2024-05-02T10:25:25.189;599616113442146716;15081.869;46
2024-05-02T10:25:25.197;599616113449837670;15089.561;7
2024-05-02T10:25:25.205;599616113457528624;15097.251;21
2024-05-02T10:25:25.212;599616113465219578;15104.942;41
2024-05-02T10:25:25.220;599616113472910532;15112.634;14
2024-05-02T10:25:25.228;599616113480601486;15120.324;21
2024-05-02T10:25:25.236;599616113488292440;15128.015;67
2024-05-02T10:25:25.243;599616113495983394;15135.706;75
2024-05-02T10:25:25.251;599616113503674348;15143.397;77
2024-05-02T10:25:25.259;599616113511365302;15151.088;104
2024-05-02T10:25:25.266;599616113519056260;15158.779;113
2024-05-02T10:25:25.274;599616113526747214;15166.47;104
2024-05-02T10:25:25.282;599616113534438168;15174.16;121
2024-05-02T10:25:25.289;599616113542129122;15181.852;152
2024-05-02T10:25:25.297;599616113549820076;15189.543;174
2024-05-02T10:25:25.305;599616113557511030;15197.233;172
2024-05-02T10:25:25.312;599616113565201984;15204.925;155
2024-05-02T10:25:25.320;599616113572892938;15212.615;155
2024-05-02T10:25:25.328;599616113580583892;15220.307;150
2024-05-02T10:25:25.335;599616113588274846;15227.997;97
2024-05-02T10:25:25.343;599616113595965800;15235.688;38
2024-05-02T10:25:25.351;599616113603656754;15243.38;14
2024-05-02T10:25:25.359;599616113611347708;15251.07;-12
2024-05-02T10:25:25.366;599616113619038662;15258.761;-36
2024-05-02T10:25:25.374;599616113626729616;15266.452;-19
2024-05-02T10:25:25.382;599616113634420570;15274.143;14
2024-05-02T10:25:25.389;599616113642111524;15281.834;21
2024-05-02T10:25:25.397;599616113649802478;15289.525;9
2024-05-02T10:25:25.405;599616113657493432;15297.217;9
2024-05-02T10:25:25.412;599616113665184386;15304.907;26
2024-05-02T10:25:25.420;599616113672875340;15312.598;38
2024-05-02T10:25:25.428;599616113680566294;15320.289;26
2024-05-02T10:25:25.435;599616113688257248;15327.9795;-7
2024-05-02T10:25:25.443;599616113695948202;15335.671;-38
2024-05-02T10:25:25.451;599616113703639156;15343.362;-46
2024-05-02T10:25:25.459;599616113711330110;15351.053;-41
2024-05-02T10:25:25.466;599616113719021064;15358.743;-19
2024-05-02T10:25:25.474;599616113726712018;15366.435;14
2024-05-02T10:25:25.482;599616113734402972;15374.126;36
2024-05-02T10:25:25.489;599616113742093926;15381.816;48
2024-05-02T10:25:25.497;599616113749784880;15389.508;58
2024-05-02T10:25:25.505;599616113757475834;15397.199;65
2024-05-02T10:25:25.512;599616113765166788;15404.889;41
2024-05-02T10:25:25.520;599616113772857742;15412.58;-4
2024-05-02T10:25:25.528;599616113780548696;15420.271;-19
2024-05-02T10:25:25.535;599616113788239650;15427.962;-46
2024-05-02T10:25:25.543;599616113795930604;15435.653;-106
2024-05-02T10:25:25.551;599616113803621558;15443.345;-123
2024-05-02T10:25:25.559;599616113811312512;15451.036;-92
2024-05-02T10:25:25.566;599616113819003466;15458.726;-77
2024-05-02T10:25:25.574;599616113826694420;15466.417;-82
2024-05-02T10:25:25.582;599616113834385374;15474.108;-80
2024-05-02T10:25:25.589;599616113842076328;15481.799;-75
2024-05-02T10:25:25.597;599616113849767282;15489.49;-29
2024-05-02T10:25:25.605;599616113857458236;15497.182;152
2024-05-02T10:25:25.612;599616113865149190;15504.871;506
2024-05-02T10:25:25.620;599616113872840144;15512.5625;783
2024-05-02T10:25:25.628;599616113880531098;15520.254;535
2024-05-02T10:25:25.635;599616113888222052;15527.944;-38
2024-05-02T10:25:25.643;599616113895913006;15535.636;-194
2024-05-02T10:25:25.651;599616113903603960;15543.327;-12
2024-05-02T10:25:25.659;599616113911294914;15551.018;-19
2024-05-02T10:25:25.666;599616113918985868;15558.708;-133
2024-05-02T10:25:25.674;599616113926676822;15566.399;-177
2024-05-02T10:25:25.682;599616113934367776;15574.091;-218
2024-05-02T10:25:25.689;599616113942058730;15581.781;-259
2024-05-02T10:25:25.697;599616113949749684;15589.473;-230
2024-05-02T10:25:25.705;599616113957440638;15597.163;-162
2024-05-02T10:25:25.712;599616113965131592;15604.854;-116
2024-05-02T10:25:25.720;599616113972822546;15612.545;-104
2024-05-02T10:25:25.728;599616113980513500;15620.236;-104
2024-05-02T10:25:25.735;599616113988204454;15627.928;-67
2024-05-02T10:25:25.743;599616113995895408;15635.618;-14
2024-05-02T10:25:25.751;599616114003586362;15643.309;2
2024-05-02T10:25:25.758;599616114011277316;15651.0;12
2024-05-02T10:25:25.766;599616114018968270;15658.69;46
2024-05-02T10:25:25.774;599616114026659224;15666.382;63
2024-05-02T10:25:25.782;599616114034350178;15674.073;53
2024-05-02T10:25:25.789;599616114042041132;15681.764;72
2024-05-02T10:25:25.797;599616114049732086;15689.455;121
2024-05-02T10:25:25.805;599616114057423040;15697.1455;157
2024-05-02T10:25:25.812;599616114065113994;15704.837;157
2024-05-02T10:25:25.820;599616114072804948;15712.527;155
2024-05-02T10:25:25.828;599616114080495906;15720.219;186
2024-05-02T10:25:25.835;599616114088186860;15727.91;227
2024-05-02T10:25:25.843;599616114095877814;15735.601;235
2024-05-02T10:25:25.851;599616114103568768;15743.291;235
2024-05-02T10:25:25.858;599616114111259722;15750.982;254
2024-05-02T10:25:25.866;599616114118950676;15758.673;230
2024-05-02T10:25:25.874;599616114126641630;15766.364;126
2024-05-02T10:25:25.882;599616114134332584;15774.056;43
2024-05-02T10:25:25.889;599616114142023538;15781.746;53
2024-05-02T10:25:25.897;599616114149714492;15789.437;65
2024-05-02T10:25:25.905;599616114157405446;15797.128;33
2024-05-02T10:25:25.912;599616114165096400;15804.819;12
2024-05-02T10:25:25.920;599616114172787354;15812.51;24
2024-05-02T10:25:25.928;599616114180478308;15820.201;-2
2024-05-02T10:25:25.935;599616114188169262;15827.893;-53
2024-05-02T10:25:25.943;599616114195860216;15835.582;-33
2024-05-02T10:25:25.951;599616114203551170;15843.273;21
2024-05-02T10:25:25.958;599616114211242124;15850.965;26
2024-05-02T10:25:25.966;599616114218933078;15858.655;19
2024-05-02T10:25:25.974;599616114226624032;15866.347;55
2024-05-02T10:25:25.982;599616114234314986;15874.038;99
2024-05-02T10:25:25.989;599616114242005940;15881.7295;116
2024-05-02T10:25:25.997;599616114249696894;15889.419;116
2024-05-02T10:25:26.005;599616114257387848;15897.11;118
2024-05-02T10:25:26.012;599616114265078802;15904.802;135
2024-05-02T10:25:26.020;599616114272769756;15912.492;155
2024-05-02T10:25:26.028;599616114280460710;15920.184;162
2024-05-02T10:25:26.035;599616114288151664;15927.875;184
2024-05-02T10:25:26.043;599616114295842618;15935.564;206
2024-05-02T10:25:26.051;599616114303533572;15943.256;194
2024-05-02T10:25:26.058;599616114311224526;15950.947;174
2024-05-02T10:25:26.066;599616114318915480;15958.639;201
