Phone timestamp;sensor timestamp [ns];timestamp [ms];ecg [uV]
2024-05-11T14:56:54.847;599616210826399558;0.0;147
2024-05-11T14:56:54.854;599616210834088839;7.689281;812
2024-05-11T14:56:54.862;599616210841778120;15.378562;2409
2024-05-11T14:56:54.870;599616210849467401;23.067844;4000
2024-05-11T14:56:54.877;599616210857156682;30.757124;4979
2024-05-11T14:56:54.885;599616210864845963;38.446404;5897
2024-05-11T14:56:54.893;599616210872535244;46.13569;6852
2024-05-11T14:56:54.900;599616210880224525;53.824966;7582
2024-05-11T14:56:54.908;599616210887913806;61.514248;8283
2024-05-11T14:56:54.916;599616210895603087;69.20353;9044
2024-05-11T14:56:54.923;599616210903292368;76.89281;9677
2024-05-11T14:56:54.931;599616210910981649;84.582085;10132
2024-05-11T14:56:54.939;599616210918670930;92.27138;10656
2024-05-11T14:56:54.946;599616210926360211;99.960655;11461
2024-05-11T14:56:54.954;599616210934049492;107.64993;12222
2024-05-11T14:56:54.962;599616210941738773;115.33922;12454
2024-05-11T14:56:54.970;599616210949428054;123.028496;12343
2024-05-11T14:56:54.977;599616210957117335;130.71777;12500
2024-05-11T14:56:54.985;599616210964806616;138.40706;12906
2024-05-11T14:56:54.993;599616210972495897;146.09633;13167
2024-05-11T14:56:55.000;599616210980185178;153.78561;13353
2024-05-11T14:56:55.008;599616210987874459;161.4749;13629
2024-05-11T14:56:55.016;599616210995563740;169.16417;13820
2024-05-11T14:56:55.023;599616211003253021;176.85345;13982
2024-05-11T14:56:55.031;599616211010942302;184.54276;14277
2024-05-11T14:56:55.039;599616211018631583;192.23203;14528
2024-05-11T14:56:55.046;599616211026320864;199.92131;14688
2024-05-11T14:56:55.054;599616211034010145;207.6106;14871
2024-05-11T14:56:55.062;599616211041699426;215.29987;15040
2024-05-11T14:56:55.069;599616211049388707;222.98915;15154
2024-05-11T14:56:55.077;599616211057077988;230.67844;15246
2024-05-11T14:56:55.085;599616211064767269;238.3677;15391
2024-05-11T14:56:55.093;599616211072456550;246.05699;15628
2024-05-11T14:56:55.100;599616211080145831;253.74628;15749
2024-05-11T14:56:55.108;599616211087835112;261.43555;15727
2024-05-11T14:56:55.116;599616211095524393;269.12482;15886
2024-05-11T14:56:55.123;599616211103213674;276.81412;16094
2024-05-11T14:56:55.131;599616211110902955;284.5034;16031
2024-05-11T14:56:55.139;599616211118592236;292.19266;16012
2024-05-11T14:56:55.146;599616211126281517;299.88196;16172
2024-05-11T14:56:55.154;599616211133970798;307.57123;16218
2024-05-11T14:56:55.162;599616211141660079;315.2605;16169
2024-05-11T14:56:55.169;599616211149349360;322.9498;16186
2024-05-11T14:56:55.177;599616211157038641;330.63907;16278
2024-05-11T14:56:55.185;599616211164727922;338.32834;16433
2024-05-11T14:56:55.193;599616211172417203;346.01764;16495
2024-05-11T14:56:55.200;599616211180106484;353.7069;16336
2024-05-11T14:56:55.208;599616211187795765;361.39618;16280
2024-05-11T14:56:55.216;599616211195485046;369.0855;16363
2024-05-11T14:56:55.223;599616211203174327;376.77478;16220
2024-05-11T14:56:55.231;599616211210863608;384.46405;16140
2024-05-11T14:56:55.239;599616211218552889;392.15335;16189
2024-05-11T14:56:55.246;599616211226242170;399.84262;15944
2024-05-11T14:56:55.254;599616211233931451;407.5319;15693
2024-05-11T14:56:55.262;599616211241620732;415.2212;15708
2024-05-11T14:56:55.269;599616211249310013;422.91046;15739
2024-05-11T14:56:55.277;599616211256999294;430.59973;15708
2024-05-11T14:56:55.285;599616211264688575;438.28903;15613
2024-05-11T14:56:55.292;599616211272377856;445.9783;15473
2024-05-11T14:56:55.300;599616211280067137;453.66757;15442
2024-05-11T14:56:55.308;599616211287756418;461.35687;15434
2024-05-11T14:56:55.316;599616211295445699;469.04614;15304
2024-05-11T14:56:55.323;599616211303134980;476.7354;15243
2024-05-11T14:56:55.331;599616211310824261;484.4247;15265
2024-05-11T14:56:55.339;599616211318513542;492.11398;15137
2024-05-11T14:56:55.346;599616211326202823;499.80325;14946
2024-05-11T14:56:55.354;599616211333892104;507.49255;14895
2024-05-11T14:56:55.362;599616211341581385;515.1818;14903
2024-05-11T14:56:55.369;599616211349270666;522.8711;14835
2024-05-11T14:56:55.377;599616211356959947;530.56036;14680
2024-05-11T14:56:55.385;599616211364649228;538.24963;14538
2024-05-11T14:56:55.392;599616211372338509;545.93896;14492
2024-05-11T14:56:55.400;599616211380027790;553.62823;14410
2024-05-11T14:56:55.408;599616211387687036;561.2875;14243
2024-05-11T14:56:55.415;599616211395376735;568.9772;14178
2024-05-11T14:56:55.423;599616211403066434;576.6669;14253
2024-05-11T14:56:55.431;599616211410756133;584.35657;14197
2024-05-11T14:56:55.439;599616211418445832;592.04626;13846
2024-05-11T14:56:55.446;599616211426135531;599.736;13585
2024-05-11T14:56:55.454;599616211433825230;607.42566;13602
2024-05-11T14:56:55.462;599616211441514929;615.1154;13544
2024-05-11T14:56:55.469;599616211449204628;622.80505;13358
2024-05-11T14:56:55.477;599616211456894327;630.4948;13363
2024-05-11T14:56:55.485;599616211464584026;638.18445;13382
2024-05-11T14:56:55.492;599616211472273725;645.87415;13005
2024-05-11T14:56:55.500;599616211479963424;653.56384;12636
2024-05-11T14:56:55.508;599616211487653123;661.25354;12684
2024-05-11T14:56:55.515;599616211495342822;668.94324;12679
2024-05-11T14:56:55.523;599616211503032521;676.63293;12399
2024-05-11T14:56:55.531;599616211510722220;684.3227;12239
2024-05-11T14:56:55.539;599616211518411919;692.0123;12246
2024-05-11T14:56:55.546;599616211526101618;699.7021;12162
2024-05-11T14:56:55.554;599616211533791317;707.3917;12010
2024-05-11T14:56:55.562;599616211541481016;715.0815;11898
2024-05-11T14:56:55.569;599616211549170715;722.7711;11794
2024-05-11T14:56:55.577;599616211556860414;730.4609;11674
2024-05-11T14:56:55.585;599616211564550113;738.1505;11531
2024-05-11T14:56:55.592;599616211572239812;745.8403;11410
2024-05-11T14:56:55.600;599616211579929511;753.52997;11376
2024-05-11T14:56:55.608;599616211587619210;761.21967;11294
2024-05-11T14:56:55.615;599616211595308909;768.90936;11086
2024-05-11T14:56:55.623;599616211602998608;776.59906;10956
2024-05-11T14:56:55.631;599616211610688307;784.28876;10927
2024-05-11T14:56:55.638;599616211618378006;791.97845;10813
2024-05-11T14:56:55.646;599616211626067705;799.66815;10649
2024-05-11T14:56:55.654;599616211633757404;807.35785;10545
2024-05-11T14:56:55.662;599616211641447103;815.04755;10446
2024-05-11T14:56:55.669;599616211649136802;822.73724;10310
2024-05-11T14:56:55.677;599616211656826501;830.42694;10168
2024-05-11T14:56:55.685;599616211664516200;838.1167;10078
2024-05-11T14:56:55.692;599616211672205899;845.80634;10040
2024-05-11T14:56:55.700;599616211679895598;853.4961;9916
2024-05-11T14:56:55.708;599616211687585297;861.1857;9701
2024-05-11T14:56:55.715;599616211695274996;868.8754;9619
2024-05-11T14:56:55.723;599616211702964695;876.5651;9745
2024-05-11T14:56:55.731;599616211710654394;884.2548;9916
2024-05-11T14:56:55.738;599616211718344093;891.9445;9987
2024-05-11T14:56:55.746;599616211726033792;899.6342;9745
2024-05-11T14:56:55.754;599616211733723491;907.3239;9186
2024-05-11T14:56:55.762;599616211741413190;915.0136;8846
2024-05-11T14:56:55.769;599616211749102889;922.70337;8824
2024-05-11T14:56:55.777;599616211756792588;930.393;8744
2024-05-11T14:56:55.785;599616211764482287;938.08276;8618
2024-05-11T14:56:55.792;599616211772171986;945.7724;8512
2024-05-11T14:56:55.800;599616211779861685;953.46216;8360
2024-05-11T14:56:55.808;599616211787551384;961.1518;8268
2024-05-11T14:56:55.815;599616211795241083;968.84155;8229
2024-05-11T14:56:55.823;599616211802930782;976.5312;8111
2024-05-11T14:56:55.831;599616211810620481;984.22095;8002
2024-05-11T14:56:55.838;599616211818310180;991.9106;7954
2024-05-11T14:56:55.846;599616211825999879;999.60034;7850
2024-05-11T14:56:55.854;599616211833689578;1007.29004;7705
2024-05-11T14:56:55.861;599616211841379277;1014.97974;7625
2024-05-11T14:56:55.869;599616211849068976;1022.66943;7586
2024-05-11T14:56:55.877;599616211856758675;1030.3591;7519
2024-05-11T14:56:55.885;599616211864448374;1038.0488;7393
2024-05-11T14:56:55.892;599616211872138073;1045.7385;7272
2024-05-11T14:56:55.900;599616211879827772;1053.4282;7224
2024-05-11T14:56:55.908;599616211887517471;1061.1179;7171
2024-05-11T14:56:55.915;599616211895207170;1068.8076;7084
2024-05-11T14:56:55.923;599616211902896869;1076.4973;7064
2024-05-11T14:56:55.931;599616211910586568;1084.187;7014
2024-05-11T14:56:55.938;599616211918276267;1091.8767;6755
2024-05-11T14:56:55.946;599616211925965966;1099.5664;6506
2024-05-11T14:56:55.954;599616211933655665;1107.2561;6484
2024-05-11T14:56:55.961;599616211941345364;1114.9458;6501
2024-05-11T14:56:55.969;599616211949055144;1122.6556;6443
2024-05-11T14:56:55.977;599616211956744565;1130.345;6342
2024-05-11T14:56:55.985;599616211964433986;1138.0344;6185
2024-05-11T14:56:55.992;599616211972123407;1145.7239;6105
2024-05-11T14:56:56.000;599616211979812828;1153.4132;6032
2024-05-11T14:56:56.008;599616211987502249;1161.1027;5846
2024-05-11T14:56:56.015;599616211995191670;1168.7921;5733
2024-05-11T14:56:56.023;599616212002881091;1176.4816;5665
2024-05-11T14:56:56.031;599616212010570512;1184.171;5414
2024-05-11T14:56:56.038;599616212018259933;1191.8604;5174
2024-05-11T14:56:56.046;599616212025949354;1199.5498;5157
2024-05-11T14:56:56.054;599616212033638775;1207.2391;5148
2024-05-11T14:56:56.061;599616212041328196;1214.9286;5029
2024-05-11T14:56:56.069;599616212049017617;1222.6182;4945
2024-05-11T14:56:56.077;599616212056707038;1230.3075;4916
2024-05-11T14:56:56.084;599616212064396459;1237.997;4877
2024-05-11T14:56:56.092;599616212072085880;1245.6863;4812
2024-05-11T14:56:56.100;599616212079775301;1253.3757;4761
2024-05-11T14:56:56.108;599616212087464722;1261.0652;4749
2024-05-11T14:56:56.115;599616212095154143;1268.7545;4703
2024-05-11T14:56:56.123;599616212102843564;1276.4441;4609
2024-05-11T14:56:56.131;599616212110532985;1284.1334;4553
2024-05-11T14:56:56.138;599616212118222406;1291.8229;4546
2024-05-11T14:56:56.146;599616212125911827;1299.5123;4510
2024-05-11T14:56:56.154;599616212133601248;1307.2017;4442
2024-05-11T14:56:56.161;599616212141290669;1314.8911;4386
2024-05-11T14:56:56.169;599616212148980090;1322.5804;4343
2024-05-11T14:56:56.177;599616212156669511;1330.2699;4297
2024-05-11T14:56:56.184;599616212164358932;1337.9595;4236
2024-05-11T14:56:56.192;599616212172048353;1345.6488;4195
2024-05-11T14:56:56.200;599616212179737774;1353.3383;4181
2024-05-11T14:56:56.208;599616212187427195;1361.0276;4133
2024-05-11T14:56:56.215;599616212195116616;1368.717;4048
2024-05-11T14:56:56.223;599616212202806037;1376.4065;3975
2024-05-11T14:56:56.231;599616212210495458;1384.0958;3905
2024-05-11T14:56:56.238;599616212218184879;1391.7854;3850
2024-05-11T14:56:56.246;599616212225874300;1399.4747;3818
2024-05-11T14:56:56.254;599616212233563721;1407.1642;3780
2024-05-11T14:56:56.261;599616212241253142;1414.8536;3736
2024-05-11T14:56:56.269;599616212248942563;1422.543;3697
2024-05-11T14:56:56.277;599616212256631984;1430.2324;3659
2024-05-11T14:56:56.284;599616212264321405;1437.9218;3635
2024-05-11T14:56:56.292;599616212272010826;1445.6112;3618
2024-05-11T14:56:56.300;599616212279700247;1453.3008;3557
2024-05-11T14:56:56.307;599616212287389668;1460.9901;3482
2024-05-11T14:56:56.315;599616212295079089;1468.6796;3468
2024-05-11T14:56:56.323;599616212302768510;1476.3689;3470
2024-05-11T14:56:56.331;599616212310457931;1484.0583;3429
2024-05-11T14:56:56.338;599616212318147352;1491.7478;3388
2024-05-11T14:56:56.346;599616212325836773;1499.4371;3362
2024-05-11T14:56:56.354;599616212333526194;1507.1267;3306
2024-05-11T14:56:56.361;599616212341215615;1514.816;3243
2024-05-11T14:56:56.369;599616212348905036;1522.5055;3212
2024-05-11T14:56:56.377;599616212356594457;1530.195;3202
2024-05-11T14:56:56.384;599616212364283878;1537.8843;3175
2024-05-11T14:56:56.392;599616212371973299;1545.5737;3113
2024-05-11T14:56:56.400;599616212379662720;1553.2631;3055
2024-05-11T14:56:56.407;599616212387352141;1560.9526;3045
2024-05-11T14:56:56.415;599616212395041562;1568.6421;3026
2024-05-11T14:56:56.423;599616212402730983;1576.3314;2980
2024-05-11T14:56:56.431;599616212410420404;1584.0209;2943
2024-05-11T14:56:56.438;599616212418109825;1591.7102;2936
2024-05-11T14:56:56.446;599616212425799246;1599.3997;3081
2024-05-11T14:56:56.454;599616212433488667;1607.0891;3391
2024-05-11T14:56:56.461;599616212441178088;1614.7784;3388
2024-05-11T14:56:56.469;599616212448867509;1622.468;2864
2024-05-11T14:56:56.477;599616212456556930;1630.1573;2467
2024-05-11T14:56:56.484;599616212464246351;1637.8468;2496
2024-05-11T14:56:56.492;599616212471935772;1645.5363;2499
2024-05-11T14:56:56.500;599616212479625193;1653.2256;2407
2024-05-11T14:56:56.507;599616212487314614;1660.915;2412
2024-05-11T14:56:56.515;599616212495004035;1668.6044;2419
2024-05-11T14:56:56.523;599616212502693456;1676.294;2392
2024-05-11T14:56:56.530;599616212510372880;1683.9734;2380
2024-05-11T14:56:56.538;599616212518062440;1691.6628;2356
2024-05-11T14:56:56.546;599616212525752000;1699.3524;2327
2024-05-11T14:56:56.554;599616212533441560;1707.042;2337
2024-05-11T14:56:56.561;599616212541131120;1714.7316;2346
2024-05-11T14:56:56.569;599616212548820680;1722.4211;2317
2024-05-11T14:56:56.577;599616212556510240;1730.1107;2274
2024-05-11T14:56:56.584;599616212564199800;1737.8002;2257
2024-05-11T14:56:56.592;599616212571889360;1745.4897;2250
2024-05-11T14:56:56.600;599616212579578920;1753.1794;2182
2024-05-11T14:56:56.607;599616212587268480;1760.8689;2105
2024-05-11T14:56:56.615;599616212594958040;1768.5585;2117
2024-05-11T14:56:56.623;599616212602647600;1776.248;2129
2024-05-11T14:56:56.630;599616212610337160;1783.9376;2083
2024-05-11T14:56:56.638;599616212618026720;1791.6271;2076
2024-05-11T14:56:56.646;599616212625716280;1799.3168;2114
2024-05-11T14:56:56.654;599616212633405840;1807.0063;2124
2024-05-11T14:56:56.661;599616212641095400;1814.6958;2110
2024-05-11T14:56:56.669;599616212648784960;1822.3854;2100
2024-05-11T14:56:56.677;599616212656474520;1830.075;2097
2024-05-11T14:56:56.684;599616212664164080;1837.7645;2095
2024-05-11T14:56:56.692;599616212671853640;1845.4541;2076
2024-05-11T14:56:56.700;599616212679543200;1853.1437;2056
2024-05-11T14:56:56.707;599616212687232760;1860.8331;2030
2024-05-11T14:56:56.715;599616212694922320;1868.5227;1916
2024-05-11T14:56:56.723;599616212702611880;1876.2124;1752
2024-05-11T14:56:56.730;599616212710301440;1883.9019;1694
2024-05-11T14:56:56.738;599616212717991000;1891.5914;1694
2024-05-11T14:56:56.746;599616212725680560;1899.281;1648
2024-05-11T14:56:56.753;599616212733370120;1906.9706;1595
2024-05-11T14:56:56.761;599616212741059680;1914.6602;1573
2024-05-11T14:56:56.769;599616212748749240;1922.3497;1554
2024-05-11T14:56:56.777;599616212756438800;1930.0393;1537
2024-05-11T14:56:56.784;599616212764128360;1937.7288;1515
2024-05-11T14:56:56.792;599616212771817920;1945.4183;1481
2024-05-11T14:56:56.800;599616212779507480;1953.1079;1440
2024-05-11T14:56:56.807;599616212787197040;1960.7975;1380
2024-05-11T14:56:56.815;599616212794886600;1968.487;1307
2024-05-11T14:56:56.823;599616212802576160;1976.1766;1285
2024-05-11T14:56:56.830;599616212810265720;1983.8661;1302
2024-05-11T14:56:56.838;599616212817955280;1991.5557;1283
2024-05-11T14:56:56.846;599616212825644840;1999.2454;1252
2024-05-11T14:56:56.853;599616212833334400;2006.9348;1244
2024-05-11T14:56:56.861;599616212841023960;2014.6244;1235
2024-05-11T14:56:56.869;599616212848713520;2022.314;1215
2024-05-11T14:56:56.877;599616212856403080;2030.0035;1210
2024-05-11T14:56:56.884;599616212864092640;2037.6931;1222
2024-05-11T14:56:56.892;599616212871782200;2045.3827;1220
2024-05-11T14:56:56.900;599616212879471760;2053.0723;1184
2024-05-11T14:56:56.907;599616212887161320;2060.7617;1164
2024-05-11T14:56:56.915;599616212894850880;2068.4514;1181
2024-05-11T14:56:56.923;599616212902540440;2076.1409;1189
2024-05-11T14:56:56.930;599616212910230000;2083.8303;1160
2024-05-11T14:56:56.938;599616212917919560;2091.52;1090
2024-05-11T14:56:56.946;599616212925609120;2099.2097;995
2024-05-11T14:56:56.953;599616212933298680;2106.8992;957
2024-05-11T14:56:56.961;599616212940988240;2114.5886;957
2024-05-11T14:56:56.969;599616212948677800;2122.2783;940
2024-05-11T14:56:56.976;599616212956367360;2129.9678;954
2024-05-11T14:56:56.984;599616212964056920;2137.6572;981
2024-05-11T14:56:56.992;599616212971746480;2145.347;961
2024-05-11T14:56:57.000;599616212979436040;2153.0366;957
2024-05-11T14:56:57.007;599616212987125600;2160.726;993
2024-05-11T14:56:57.015;599616212994815160;2168.4155;1005
2024-05-11T14:56:57.023;599616213002504720;2176.1052;995
2024-05-11T14:56:57.030;599616213010194280;2183.7947;1007
2024-05-11T14:56:57.038;599616213017883840;2191.4841;1012
2024-05-11T14:56:57.046;599616213025573400;2199.1738;988
2024-05-11T14:56:57.053;599616213033262960;2206.8633;976
2024-05-11T14:56:57.061;599616213040952520;2214.553;993
2024-05-11T14:56:57.069;599616213048642080;2222.2427;1022
2024-05-11T14:56:57.076;599616213056331640;2229.9321;1022
2024-05-11T14:56:57.084;599616213064021200;2237.6218;1000
2024-05-11T14:56:57.092;599616213071730890;2245.3315;1003
2024-05-11T14:56:57.100;599616213079420171;2253.0208;1015
2024-05-11T14:56:57.107;599616213087109452;2260.71;1000
2024-05-11T14:56:57.115;599616213094798733;2268.3992;983
2024-05-11T14:56:57.123;599616213102488014;2276.0886;993
2024-05-11T14:56:57.130;599616213110177295;2283.7778;971
2024-05-11T14:56:57.138;599616213117866576;2291.467;884
2024-05-11T14:56:57.146;599616213125555857;2299.1562;819
2024-05-11T14:56:57.153;599616213133245138;2306.8457;845
2024-05-11T14:56:57.161;599616213140934419;2314.535;877
2024-05-11T14:56:57.169;599616213148623700;2322.224;848
2024-05-11T14:56:57.176;599616213156312981;2329.9133;821
2024-05-11T14:56:57.184;599616213164002262;2337.6028;889
2024-05-11T14:56:57.192;599616213171691543;2345.292;1126
2024-05-11T14:56:57.199;599616213179380824;2352.9812;1508
2024-05-11T14:56:57.207;599616213187070105;2360.6704;1711
2024-05-11T14:56:57.215;599616213194759386;2368.3599;1389
2024-05-11T14:56:57.223;599616213202448667;2376.049;884
2024-05-11T14:56:57.230;599616213210137948;2383.7383;734
2024-05-11T14:56:57.238;599616213217827229;2391.4275;783
2024-05-11T14:56:57.246;599616213225516510;2399.117;758
2024-05-11T14:56:57.253;599616213233205791;2406.8062;739
2024-05-11T14:56:57.261;599616213240895072;2414.4956;754
2024-05-11T14:56:57.269;599616213248584353;2422.1848;746
2024-05-11T14:56:57.276;599616213256273634;2429.8743;749
2024-05-11T14:56:57.284;599616213263962915;2437.5635;771
2024-05-11T14:56:57.292;599616213271652196;2445.2527;773
2024-05-11T14:56:57.299;599616213279341477;2452.942;780
2024-05-11T14:56:57.307;599616213287030758;2460.6313;800
2024-05-11T14:56:57.315;599616213294720039;2468.3206;790
2024-05-11T14:56:57.323;599616213302409320;2476.0098;766
2024-05-11T14:56:57.330;599616213310098601;2483.699;785
2024-05-11T14:56:57.338;599616213317787882;2491.3884;814
2024-05-11T14:56:57.346;599616213325477163;2499.0776;814
2024-05-11T14:56:57.353;599616213333166444;2506.7668;802
2024-05-11T14:56:57.361;599616213340855725;2514.456;802
2024-05-11T14:56:57.369;599616213348545006;2522.1455;812
2024-05-11T14:56:57.376;599616213356234287;2529.8347;816
2024-05-11T14:56:57.384;599616213363923568;2537.524;819
2024-05-11T14:56:57.392;599616213371612849;2545.2131;843
2024-05-11T14:56:57.399;599616213379302130;2552.9026;862
2024-05-11T14:56:57.407;599616213386991411;2560.5918;850
2024-05-11T14:56:57.415;599616213394680692;2568.281;845
2024-05-11T14:56:57.422;599616213402369973;2575.9702;877
2024-05-11T14:56:57.430;599616213410059254;2583.6597;891
2024-05-11T14:56:57.438;599616213417748535;2591.3489;848
2024-05-11T14:56:57.446;599616213425437816;2599.038;734
2024-05-11T14:56:57.453;599616213433127097;2606.7275;587
2024-05-11T14:56:57.461;599616213440816378;2614.417;495
2024-05-11T14:56:57.469;599616213448505659;2622.1062;478
2024-05-11T14:56:57.476;599616213456194940;2629.7954;464
2024-05-11T14:56:57.484;599616213463884221;2637.4846;447
2024-05-11T14:56:57.492;599616213471573502;2645.174;437
2024-05-11T14:56:57.499;599616213479262783;2652.8633;406
2024-05-11T14:56:57.507;599616213486952064;2660.5525;377
2024-05-11T14:56:57.515;599616213494641345;2668.2417;362
2024-05-11T14:56:57.522;599616213502330626;2675.9312;335
2024-05-11T14:56:57.530;599616213510019907;2683.6204;294
2024-05-11T14:56:57.538;599616213517709188;2691.3096;256
2024-05-11T14:56:57.545;599616213525398469;2698.9988;239
2024-05-11T14:56:57.553;599616213533087750;2706.6882;236
2024-05-11T14:56:57.561;599616213540777031;2714.3774;234
2024-05-11T14:56:57.569;599616213548466312;2722.0667;251
2024-05-11T14:56:57.576;599616213556155593;2729.756;275
2024-05-11T14:56:57.584;599616213563844874;2737.4453;275
2024-05-11T14:56:57.592;599616213571534155;2745.1345;253
2024-05-11T14:56:57.599;599616213579223436;2752.8237;261
2024-05-11T14:56:57.607;599616213586912717;2760.5132;294
2024-05-11T14:56:57.615;599616213594601998;2768.2024;302
2024-05-11T14:56:57.622;599616213602291279;2775.8916;299
2024-05-11T14:56:57.630;599616213609980560;2783.5808;316
2024-05-11T14:56:57.638;599616213617669841;2791.2705;326
2024-05-11T14:56:57.645;599616213625359122;2798.9597;316
2024-05-11T14:56:57.653;599616213633048464;2806.649;321
2024-05-11T14:56:57.661;599616213640737745;2814.3384;352
2024-05-11T14:56:57.669;599616213648427026;2822.0276;377
2024-05-11T14:56:57.676;599616213656116307;2829.7168;372
2024-05-11T14:56:57.684;599616213663805588;2837.406;350
2024-05-11T14:56:57.692;599616213671494869;2845.0955;343
2024-05-11T14:56:57.699;599616213679184150;2852.7847;306
2024-05-11T14:56:57.707;599616213686873431;2860.4739;219
2024-05-11T14:56:57.715;599616213694562712;2868.163;176
2024-05-11T14:56:57.722;599616213702251993;2875.8525;212
2024-05-11T14:56:57.730;599616213709941274;2883.5417;232
2024-05-11T14:56:57.738;599616213717630555;2891.231;217
2024-05-11T14:56:57.745;599616213725319836;2898.9202;239
2024-05-11T14:56:57.753;599616213733009117;2906.6096;287
2024-05-11T14:56:57.761;599616213740698398;2914.2988;311
2024-05-11T14:56:57.768;599616213748387679;2921.988;309
2024-05-11T14:56:57.776;599616213756076960;2929.6772;306
2024-05-11T14:56:57.784;599616213763766241;2937.3667;328
2024-05-11T14:56:57.792;599616213771455522;2945.056;352
2024-05-11T14:56:57.799;599616213779144803;2952.745;360
2024-05-11T14:56:57.807;599616213786834084;2960.4343;374
2024-05-11T14:56:57.815;599616213794523365;2968.124;401
2024-05-11T14:56:57.822;599616213802212646;2975.8132;398
2024-05-11T14:56:57.830;599616213809901927;2983.5024;381
2024-05-11T14:56:57.838;599616213817591208;2991.1917;398
2024-05-11T14:56:57.845;599616213825280489;2998.881;430
2024-05-11T14:56:57.853;599616213832969770;3006.5703;435
2024-05-11T14:56:57.861;599616213840659051;3014.2595;422
2024-05-11T14:56:57.868;599616213848348332;3021.9487;430
2024-05-11T14:56:57.876;599616213856037613;3029.6382;454
2024-05-11T14:56:57.884;599616213863726894;3037.3274;471
2024-05-11T14:56:57.892;599616213871416175;3045.0166;471
2024-05-11T14:56:57.899;599616213879105456;3052.7058;478
2024-05-11T14:56:57.907;599616213886794737;3060.3953;483
2024-05-11T14:56:57.915;599616213894484018;3068.0845;461
2024-05-11T14:56:57.922;599616213902173299;3075.7737;442
2024-05-11T14:56:57.930;599616213909862580;3083.463;461
2024-05-11T14:56:57.938;599616213917551861;3091.1523;476
2024-05-11T14:56:57.945;599616213925241142;3098.8416;439
2024-05-11T14:56:57.953;599616213932930423;3106.5308;362
2024-05-11T14:56:57.961;599616213940619704;3114.22;275
2024-05-11T14:56:57.968;599616213948308985;3121.9094;236
2024-05-11T14:56:57.976;599616213955998266;3129.5986;258
2024-05-11T14:56:57.984;599616213963687547;3137.2878;333
2024-05-11T14:56:57.991;599616213971376828;3144.977;572
2024-05-11T14:56:57.999;599616213979066109;3152.6665;966
2024-05-11T14:56:58.007;599616213986755390;3160.356;1121
2024-05-11T14:56:58.015;599616213994444671;3168.0452;771
2024-05-11T14:56:58.022;599616214002133952;3175.7344;362
2024-05-11T14:56:58.030;599616214009823233;3183.4238;316
2024-05-11T14:56:58.038;599616214017512514;3191.113;352
2024-05-11T14:56:58.045;599616214025201795;3198.8022;287
2024-05-11T14:56:58.053;599616214032891076;3206.4915;273
2024-05-11T14:56:58.061;599616214040580357;3214.181;299
2024-05-11T14:56:58.068;599616214048269638;3221.87;294
2024-05-11T14:56:58.076;599616214055958919;3229.5593;302
2024-05-11T14:56:58.084;599616214063648200;3237.2488;340
2024-05-11T14:56:58.091;599616214071337481;3244.938;350
2024-05-11T14:56:58.099;599616214079026762;3252.6272;328
2024-05-11T14:56:58.107;599616214086716043;3260.3164;333
2024-05-11T14:56:58.115;599616214094405324;3268.0059;369
2024-05-11T14:56:58.122;599616214102094605;3275.695;391
2024-05-11T14:56:58.130;599616214109783886;3283.3843;391
2024-05-11T14:56:58.138;599616214117473167;3291.0735;398
2024-05-11T14:56:58.145;599616214125162448;3298.763;408
2024-05-11T14:56:58.153;599616214132851729;3306.4521;408
2024-05-11T14:56:58.161;599616214140541010;3314.1414;413
2024-05-11T14:56:58.168;599616214148230291;3321.8306;432
2024-05-11T14:56:58.176;599616214155919572;3329.52;464
2024-05-11T14:56:58.184;599616214163608853;3337.2092;473
2024-05-11T14:56:58.191;599616214171298134;3344.8987;435
2024-05-11T14:56:58.199;599616214178987415;3352.588;384
2024-05-11T14:56:58.207;599616214186676696;3360.2773;374
2024-05-11T14:56:58.214;599616214194345950;3367.9465;381
2024-05-11T14:56:58.222;599616214202035510;3375.636;386
2024-05-11T14:56:58.230;599616214209725070;3383.3254;391
2024-05-11T14:56:58.238;599616214217414630;3391.0151;384
2024-05-11T14:56:58.245;599616214225104190;3398.7046;319
2024-05-11T14:56:58.253;599616214232793750;3406.394;234
2024-05-11T14:56:58.261;599616214240483310;3414.0837;219
2024-05-11T14:56:58.268;599616214248172870;3421.7732;227
2024-05-11T14:56:58.276;599616214255862430;3429.463;149
2024-05-11T14:56:58.284;599616214263551990;3437.1526;45
2024-05-11T14:56:58.291;599616214271241550;3444.842;7
2024-05-11T14:56:58.299;599616214278931110;3452.5315;-24
2024-05-11T14:56:58.307;599616214286620670;3460.2212;-70
2024-05-11T14:56:58.314;599616214294310230;3467.9106;-72
2024-05-11T14:56:58.322;599616214301999790;3475.6;-50
2024-05-11T14:56:58.330;599616214309689350;3483.2898;-60
2024-05-11T14:56:58.337;599616214317378910;3490.9792;-72
2024-05-11T14:56:58.345;599616214325068470;3498.6687;-53
2024-05-11T14:56:58.353;599616214332758030;3506.3586;-16
2024-05-11T14:56:58.361;599616214340447590;3514.048;2
2024-05-11T14:56:58.368;599616214348137150;3521.7375;-2
2024-05-11T14:56:58.376;599616214355826710;3529.4272;-2
2024-05-11T14:56:58.384;599616214363516270;3537.1167;21
2024-05-11T14:56:58.391;599616214371205830;3544.8064;48
2024-05-11T14:56:58.399;599616214378895390;3552.4958;55
2024-05-11T14:56:58.407;599616214386584950;3560.1853;72
2024-05-11T14:56:58.414;599616214394274510;3567.875;94
2024-05-11T14:56:58.422;599616214401964070;3575.5645;91
2024-05-11T14:56:58.430;599616214409653630;3583.254;67
2024-05-11T14:56:58.437;599616214417343190;3590.9438;43
2024-05-11T14:56:58.445;599616214425032750;3598.6333;36
2024-05-11T14:56:58.453;599616214432722310;3606.3228;60
2024-05-11T14:56:58.461;599616214440411870;3614.0125;43
2024-05-11T14:56:58.468;599616214448101430;3621.702;-43
2024-05-11T14:56:58.476;599616214455790990;3629.3914;-62
2024-05-11T14:56:58.484;599616214463480550;3637.081;-9
2024-05-11T14:56:58.491;599616214471170110;3644.7705;9
2024-05-11T14:56:58.499;599616214478859670;3652.46;26
2024-05-11T14:56:58.507;599616214486549230;3660.1497;67
2024-05-11T14:56:58.514;599616214494238790;3667.839;70
2024-05-11T14:56:58.522;599616214501928350;3675.5288;62
2024-05-11T14:56:58.530;599616214509617910;3683.2185;106
2024-05-11T14:56:58.537;599616214517307470;3690.908;149
2024-05-11T14:56:58.545;599616214524997030;3698.5974;154
2024-05-11T14:56:58.553;599616214532686590;3706.287;154
2024-05-11T14:56:58.560;599616214540376150;3713.9766;166
2024-05-11T14:56:58.568;599616214548065710;3721.666;183
2024-05-11T14:56:58.576;599616214555755270;3729.3557;195
2024-05-11T14:56:58.584;599616214563444830;3737.0452;207
2024-05-11T14:56:58.591;599616214571134390;3744.7346;239
2024-05-11T14:56:58.599;599616214578823950;3752.4246;253
2024-05-11T14:56:58.607;599616214586513510;3760.114;234
2024-05-11T14:56:58.614;599616214594203070;3767.8035;224
2024-05-11T14:56:58.622;599616214601892630;3775.4932;258
2024-05-11T14:56:58.630;599616214609582190;3783.1826;294
2024-05-11T14:56:58.637;599616214617271750;3790.872;304
2024-05-11T14:56:58.645;599616214624961310;3798.5618;306
2024-05-11T14:56:58.653;599616214632650870;3806.2512;319
2024-05-11T14:56:58.660;599616214640340430;3813.941;323
2024-05-11T14:56:58.668;599616214648029990;3821.6304;309
2024-05-11T14:56:58.676;599616214655719550;3829.3198;294
2024-05-11T14:56:58.684;599616214663409110;3837.0098;275
2024-05-11T14:56:58.691;599616214671098670;3844.6992;244
2024-05-11T14:56:58.699;599616214678788230;3852.3887;227
2024-05-11T14:56:58.707;599616214686477790;3860.0784;236
2024-05-11T14:56:58.714;599616214694167350;3867.7678;265
2024-05-11T14:56:58.722;599616214701856910;3875.4573;285
2024-05-11T14:56:58.730;599616214709546470;3883.147;282
2024-05-11T14:56:58.737;599616214717236030;3890.8364;282
2024-05-11T14:56:58.745;599616214724925590;3898.526;338
2024-05-11T14:56:58.753;599616214732615150;3906.2156;534
2024-05-11T14:56:58.760;599616214740304710;3913.9053;877
2024-05-11T14:56:58.768;599616214747994270;3921.5947;1082
2024-05-11T14:56:58.776;599616214755693876;3929.2944;780
2024-05-11T14:56:58.783;599616214763383297;3936.984;294
2024-05-11T14:56:58.791;599616214771072718;3944.6733;227
2024-05-11T14:56:58.799;599616214778762139;3952.3625;340
2024-05-11T14:56:58.807;599616214786451560;3960.052;290
2024-05-11T14:56:58.814;599616214794140981;3967.7415;256
2024-05-11T14:56:58.822;599616214801830402;3975.431;297
2024-05-11T14:56:58.830;599616214809519823;3983.1204;297
2024-05-11T14:56:58.837;599616214817209244;3990.8096;270
2024-05-11T14:56:58.845;599616214824898665;3998.499;234
2024-05-11T14:56:58.853;599616214832588086;4006.1885;186
2024-05-11T14:56:58.860;599616214840277507;4013.878;195
2024-05-11T14:56:58.868;599616214847966928;4021.5674;244
2024-05-11T14:56:58.876;599616214855656349;4029.2566;241
2024-05-11T14:56:58.883;599616214863345770;4036.9463;215
2024-05-11T14:56:58.891;599616214871035191;4044.6357;236
2024-05-11T14:56:58.899;599616214878724612;4052.3252;273
2024-05-11T14:56:58.907;599616214886414033;4060.0146;282
2024-05-11T14:56:58.914;599616214894103454;4067.7039;294
2024-05-11T14:56:58.922;599616214901792875;4075.3933;306
2024-05-11T14:56:58.930;599616214909482296;4083.0828;270
2024-05-11T14:56:58.937;599616214917171717;4090.7722;217
2024-05-11T14:56:58.945;599616214924861138;4098.462;236
2024-05-11T14:56:58.953;599616214932550559;4106.151;294
2024-05-11T14:56:58.960;599616214940239980;4113.8403;302
2024-05-11T14:56:58.968;599616214947929401;4121.53;241
2024-05-11T14:56:58.976;599616214955618822;4129.219;205
2024-05-11T14:56:58.983;599616214963308243;4136.9087;251
2024-05-11T14:56:58.991;599616214970997664;4144.598;299
2024-05-11T14:56:58.999;599616214978687085;4152.2876;302
2024-05-11T14:56:59.006;599616214986376506;4159.977;311
2024-05-11T14:56:59.014;599616214994065927;4167.6665;321
2024-05-11T14:56:59.022;599616215001755348;4175.356;256
2024-05-11T14:56:59.030;599616215009444769;4183.045;161
2024-05-11T14:56:59.037;599616215017134190;4190.7344;128
2024-05-11T14:56:59.045;599616215024823611;4198.424;118
2024-05-11T14:56:59.053;599616215032513032;4206.114;74
2024-05-11T14:56:59.060;599616215040202453;4213.803;24
2024-05-11T14:56:59.068;599616215047891874;4221.492;2
2024-05-11T14:56:59.076;599616215055581295;4229.1816;9
2024-05-11T14:56:59.083;599616215063270716;4236.871;19
2024-05-11T14:56:59.091;599616215070960137;4244.5605;-4
2024-05-11T14:56:59.099;599616215078649558;4252.25;-36
2024-05-11T14:56:59.106;599616215086338979;4259.9395;-45
2024-05-11T14:56:59.114;599616215094028400;4267.629;-84
2024-05-11T14:56:59.122;599616215101717821;4275.3184;-135
2024-05-11T14:56:59.130;599616215109407242;4283.008;-123
2024-05-11T14:56:59.137;599616215117096663;4290.6973;-89
2024-05-11T14:56:59.145;599616215124786084;4298.386;-94
2024-05-11T14:56:59.153;599616215132475505;4306.076;-106
2024-05-11T14:56:59.160;599616215140164926;4313.765;-101
2024-05-11T14:56:59.168;599616215147854347;4321.4546;-99
2024-05-11T14:56:59.176;599616215155543768;4329.1445;-116
2024-05-11T14:56:59.183;599616215163233189;4336.8335;-132
2024-05-11T14:56:59.191;599616215170922610;4344.5234;-106
2024-05-11T14:56:59.199;599616215178612031;4352.2124;-82
2024-05-11T14:56:59.206;599616215186301452;4359.902;-99
2024-05-11T14:56:59.214;599616215193990873;4367.5913;-101
2024-05-11T14:56:59.222;599616215201680294;4375.281;-60
2024-05-11T14:56:59.229;599616215209369715;4382.97;-29
2024-05-11T14:56:59.237;599616215217059136;4390.6597;-29
2024-05-11T14:56:59.245;599616215224748557;4398.3486;-24
2024-05-11T14:56:59.253;599616215232437978;4406.0386;-9
2024-05-11T14:56:59.260;599616215240127399;4413.7275;2
2024-05-11T14:56:59.268;599616215247816820;4421.4175;12
2024-05-11T14:56:59.276;599616215255506241;4429.1064;31
2024-05-11T14:56:59.283;599616215263195662;4436.796;65
2024-05-11T14:56:59.291;599616215270885083;4444.486;79
2024-05-11T14:56:59.299;599616215278574504;4452.175;65
2024-05-11T14:56:59.306;599616215286263925;4459.8647;70
2024-05-11T14:56:59.314;599616215293953346;4467.5537;106
2024-05-11T14:56:59.322;599616215301642767;4475.243;128
2024-05-11T14:56:59.329;599616215309332188;4482.9326;125
2024-05-11T14:56:59.337;599616215317031704;4490.6323;130
2024-05-11T14:56:59.345;599616215324720985;4498.3213;137
2024-05-11T14:56:59.353;599616215332410266;4506.0107;145
2024-05-11T14:56:59.360;599616215340099547;4513.6997;159
2024-05-11T14:56:59.368;599616215347788828;4521.389;190
2024-05-11T14:56:59.376;599616215355478109;4529.0786;222
2024-05-11T14:56:59.383;599616215363167390;4536.768;219
2024-05-11T14:56:59.391;599616215370856671;4544.457;183
2024-05-11T14:56:59.399;599616215378545952;4552.1465;176
2024-05-11T14:56:59.406;599616215386235233;4559.8354;212
2024-05-11T14:56:59.414;599616215393924514;4567.525;227
2024-05-11T14:56:59.422;599616215401613795;4575.214;195
2024-05-11T14:56:59.429;599616215409303076;4582.9033;164
2024-05-11T14:56:59.437;599616215416992357;4590.5933;157
2024-05-11T14:56:59.445;599616215424681638;4598.282;116
2024-05-11T14:56:59.452;599616215432370919;4605.9717;45
2024-05-11T14:56:59.460;599616215440060200;4613.6606;45
2024-05-11T14:56:59.468;599616215447749481;4621.35;72
2024-05-11T14:56:59.476;599616215455438762;4629.039;65
2024-05-11T14:56:59.483;599616215463128043;4636.7285;227
2024-05-11T14:56:59.491;599616215470817324;4644.4175;635
2024-05-11T14:56:59.499;599616215478506605;4652.1074;824
2024-05-11T14:56:59.506;599616215486195886;4659.7964;432
2024-05-11T14:56:59.514;599616215493885167;4667.486;0
2024-05-11T14:56:59.522;599616215501574448;4675.175;16
2024-05-11T14:56:59.529;599616215509263729;4682.8643;89
2024-05-11T14:56:59.537;599616215516953010;4690.553;-2
2024-05-11T14:56:59.545;599616215524642291;4698.2427;4
2024-05-11T14:56:59.552;599616215532331572;4705.9316;82
2024-05-11T14:56:59.560;599616215540020853;4713.6216;94
2024-05-11T14:56:59.568;599616215547710134;4721.3105;84
2024-05-11T14:56:59.575;599616215555399415;4729.0;99
2024-05-11T14:56:59.583;599616215563088696;4736.689;125
2024-05-11T14:56:59.591;599616215570777977;4744.3784;149
2024-05-11T14:56:59.599;599616215578467258;4752.0674;164
2024-05-11T14:56:59.606;599616215586156539;4759.757;176
2024-05-11T14:56:59.614;599616215593845820;4767.446;200
2024-05-11T14:56:59.622;599616215601535101;4775.1357;203
2024-05-11T14:56:59.629;599616215609224382;4782.825;195
2024-05-11T14:56:59.637;599616215616913663;4790.514;219
2024-05-11T14:56:59.645;599616215624602944;4798.2036;261
2024-05-11T14:56:59.652;599616215632292225;4805.8926;280
2024-05-11T14:56:59.660;599616215639981506;4813.582;263
2024-05-11T14:56:59.668;599616215647670787;4821.271;222
2024-05-11T14:56:59.675;599616215655360068;4828.9604;200
2024-05-11T14:56:59.683;599616215663049349;4836.65;224
2024-05-11T14:56:59.691;599616215670738630;4844.3394;258
2024-05-11T14:56:59.699;599616215678427911;4852.0283;287
2024-05-11T14:56:59.706;599616215686117192;4859.718;326
2024-05-11T14:56:59.714;599616215693806473;4867.4067;335
2024-05-11T14:56:59.722;599616215701495754;4875.096;323
2024-05-11T14:56:59.729;599616215709185035;4882.785;348
2024-05-11T14:56:59.737;599616215716874316;4890.475;377
2024-05-11T14:56:59.745;599616215724563597;4898.164;364
2024-05-11T14:56:59.752;599616215732252878;4905.8535;326
2024-05-11T14:56:59.760;599616215739942159;4913.5425;285
2024-05-11T14:56:59.768;599616215747631440;4921.232;253
2024-05-11T14:56:59.775;599616215755320721;4928.921;224
2024-05-11T14:56:59.783;599616215763010002;4936.6104;205
2024-05-11T14:56:59.791;599616215770699283;4944.2993;210
2024-05-11T14:56:59.798;599616215778388564;4951.9893;200
2024-05-11T14:56:59.806;599616215786077845;4959.678;140
2024-05-11T14:56:59.814;599616215793767126;4967.3677;96
2024-05-11T14:56:59.822;599616215801456407;4975.057;118
2024-05-11T14:56:59.829;599616215809145688;4982.746;140
2024-05-11T14:56:59.837;599616215816834969;4990.4355;128
2024-05-11T14:56:59.845;599616215824524250;4998.1245;123
2024-05-11T14:56:59.852;599616215832213531;5005.814;128
2024-05-11T14:56:59.860;599616215839902812;5013.5034;130
2024-05-11T14:56:59.868;599616215847592093;5021.193;128
2024-05-11T14:56:59.875;599616215855281374;5028.882;108
2024-05-11T14:56:59.883;599616215862970655;5036.5713;82
2024-05-11T14:56:59.891;599616215870659936;5044.2603;50
2024-05-11T14:56:59.898;599616215878319182;5051.92;-9
2024-05-11T14:56:59.906;599616215886008881;5059.609;-72
2024-05-11T14:56:59.914;599616215893698580;5067.299;-108
2024-05-11T14:56:59.921;599616215901388279;5074.989;-147
2024-05-11T14:56:59.929;599616215909077978;5082.678;-169
2024-05-11T14:56:59.937;599616215916767677;5090.368;-159
2024-05-11T14:56:59.945;599616215924457376;5098.0576;-164
2024-05-11T14:56:59.952;599616215932147075;5105.7476;-205
2024-05-11T14:56:59.960;599616215939836774;5113.437;-258
2024-05-11T14:56:59.968;599616215947526473;5121.127;-265
2024-05-11T14:56:59.975;599616215955216172;5128.8164;-253
2024-05-11T14:56:59.983;599616215962905871;5136.5063;-335
2024-05-11T14:56:59.991;599616215970595570;5144.1963;-427
2024-05-11T14:56:59.998;599616215978285269;5151.8857;-386
2024-05-11T14:57:00.006;599616215985974968;5159.5757;-314
2024-05-11T14:57:00.014;599616215993664667;5167.265;-302
2024-05-11T14:57:00.021;599616216001354366;5174.955;-285
2024-05-11T14:57:00.029;599616216009044065;5182.6445;-239
2024-05-11T14:57:00.037;599616216016733764;5190.334;-219
2024-05-11T14:57:00.045;599616216024423463;5198.0234;-215
2024-05-11T14:57:00.052;599616216032113162;5205.7134;-195
2024-05-11T14:57:00.060;599616216039802861;5213.4033;-159
2024-05-11T14:57:00.068;599616216047492560;5221.093;-125
2024-05-11T14:57:00.075;599616216055182259;5228.7827;-118
2024-05-11T14:57:00.083;599616216062871958;5236.472;-125
2024-05-11T14:57:00.091;599616216070561657;5244.162;-99
2024-05-11T14:57:00.098;599616216078251356;5251.8516;-55
2024-05-11T14:57:00.106;599616216085941055;5259.5415;-43
2024-05-11T14:57:00.114;599616216093630754;5267.2314;-33
2024-05-11T14:57:00.121;599616216101320453;5274.921;-4
2024-05-11T14:57:00.129;599616216109010152;5282.611;4
2024-05-11T14:57:00.137;599616216116699851;5290.3003;-4
2024-05-11T14:57:00.144;599616216124389550;5297.99;14
2024-05-11T14:57:00.152;599616216132079249;5305.6797;50
2024-05-11T14:57:00.160;599616216139768948;5313.3696;43
2024-05-11T14:57:00.168;599616216147458647;5321.0596;-2
2024-05-11T14:57:00.175;599616216155148346;5328.7485;-4
2024-05-11T14:57:00.183;599616216162838045;5336.4385;36
2024-05-11T14:57:00.191;599616216170527744;5344.128;53
2024-05-11T14:57:00.198;599616216178217443;5351.818;50
2024-05-11T14:57:00.206;599616216185907142;5359.5073;72
2024-05-11T14:57:00.214;599616216193596841;5367.1973;103
2024-05-11T14:57:00.221;599616216201286540;5374.8867;103
2024-05-11T14:57:00.229;599616216208976239;5382.5767;96
2024-05-11T14:57:00.237;599616216216665938;5390.2666;118
2024-05-11T14:57:00.244;599616216224355637;5397.956;157
2024-05-11T14:57:00.252;599616216232045336;5405.646;171
2024-05-11T14:57:00.260;599616216239735035;5413.3354;159
2024-05-11T14:57:00.268;599616216247424734;5421.0254;161
2024-05-11T14:57:00.275;599616216255114433;5428.715;282
2024-05-11T14:57:00.283;599616216262804132;5436.405;592
2024-05-11T14:57:00.291;599616216270493831;5444.094;969
2024-05-11T14:57:00.298;599616216278183530;5451.784;1036
2024-05-11T14:57:00.306;599616216285873229;5459.474;618
2024-05-11T14:57:00.314;599616216293562928;5467.163;200
2024-05-11T14:57:00.321;599616216301252627;5474.853;154
2024-05-11T14:57:00.329;599616216308942326;5482.5425;200
2024-05-11T14:57:00.337;599616216316632025;5490.2324;169
2024-05-11T14:57:00.344;599616216324321724;5497.922;169
2024-05-11T14:57:00.352;599616216332011423;5505.612;183
2024-05-11T14:57:00.360;599616216339701122;5513.3013;174
2024-05-11T14:57:00.367;599616216347390821;5520.991;186
2024-05-11T14:57:00.375;599616216355080520;5528.681;205
2024-05-11T14:57:00.383;599616216362770219;5536.3706;207
2024-05-11T14:57:00.391;599616216370459918;5544.0605;227
2024-05-11T14:57:00.398;599616216378149617;5551.75;241
2024-05-11T14:57:00.406;599616216385839316;5559.44;203
2024-05-11T14:57:00.414;599616216393529015;5567.1294;161
2024-05-11T14:57:00.421;599616216401218714;5574.8193;188
2024-05-11T14:57:00.429;599616216408908413;5582.5093;227
2024-05-11T14:57:00.437;599616216416598112;5590.1987;224
2024-05-11T14:57:00.444;599616216424287811;5597.888;222
2024-05-11T14:57:00.452;599616216431977510;5605.5776;236
2024-05-11T14:57:00.460;599616216439667274;5613.268;251
2024-05-11T14:57:00.467;599616216447356973;5620.957;258
2024-05-11T14:57:00.475;599616216455046672;5628.647;275
2024-05-11T14:57:00.483;599616216462736371;5636.3364;277
2024-05-11T14:57:00.491;599616216470426070;5644.0264;186
2024-05-11T14:57:00.498;599616216478115769;5651.7163;36
2024-05-11T14:57:00.506;599616216485805468;5659.406;7
2024-05-11T14:57:00.514;599616216493495167;5667.0957;77
2024-05-11T14:57:00.521;599616216501184866;5674.785;77
2024-05-11T14:57:00.529;599616216508874565;5682.475;21
2024-05-11T14:57:00.537;599616216516564264;5690.1646;24
2024-05-11T14:57:00.544;599616216524253963;5697.8545;38
2024-05-11T14:57:00.552;599616216531943662;5705.5444;12
2024-05-11T14:57:00.560;599616216539633361;5713.234;-12
2024-05-11T14:57:00.567;599616216547323060;5720.924;-12
2024-05-11T14:57:00.575;599616216555012759;5728.6133;-7
2024-05-11T14:57:00.583;599616216562702458;5736.303;-24
2024-05-11T14:57:00.590;599616216570392157;5743.9927;-70
2024-05-11T14:57:00.598;599616216578081856;5751.682;-108
2024-05-11T14:57:00.606;599616216585771555;5759.3716;-116
2024-05-11T14:57:00.614;599616216593461254;5767.0615;-130
2024-05-11T14:57:00.621;599616216601150953;5774.7515;-169
2024-05-11T14:57:00.629;599616216608840652;5782.441;-183
2024-05-11T14:57:00.637;599616216616530351;5790.131;-169
2024-05-11T14:57:00.644;599616216624220050;5797.8203;-161
2024-05-11T14:57:00.652;599616216631909749;5805.5103;-183
2024-05-11T14:57:00.660;599616216639599448;5813.1997;-203
2024-05-11T14:57:00.667;599616216647289147;5820.8896;-186
2024-05-11T14:57:00.675;599616216654978846;5828.579;-174
2024-05-11T14:57:00.683;599616216662668545;5836.269;-186
2024-05-11T14:57:00.690;599616216670358244;5843.959;-169
2024-05-11T14:57:00.698;599616216678047943;5851.6484;-128
2024-05-11T14:57:00.706;599616216685737642;5859.3384;-118
2024-05-11T14:57:00.714;599616216693427341;5867.028;-111
2024-05-11T14:57:00.721;599616216701117040;5874.718;-82
2024-05-11T14:57:00.729;599616216708806739;5882.407;-67
2024-05-11T14:57:00.737;599616216716496438;5890.0967;-72
2024-05-11T14:57:00.744;599616216724186137;5897.786;-53
2024-05-11T14:57:00.752;599616216731875836;5905.476;-14
2024-05-11T14:57:00.760;599616216739565535;5913.166;9
2024-05-11T14:57:00.767;599616216747255234;5920.8555;4
2024-05-11T14:57:00.775;599616216754944933;5928.5454;0
2024-05-11T14:57:00.783;599616216762634632;5936.235;24
2024-05-11T14:57:00.790;599616216770324331;5943.925;53
2024-05-11T14:57:00.798;599616216778014030;5951.6143;62
2024-05-11T14:57:00.806;599616216785703729;5959.304;74
2024-05-11T14:57:00.813;599616216793393428;5966.994;101
2024-05-11T14:57:00.821;599616216801083127;5974.6836;101
2024-05-11T14:57:00.829;599616216808772826;5982.3735;89
2024-05-11T14:57:00.837;599616216816462525;5990.063;111
2024-05-11T14:57:00.844;599616216824152224;5997.753;149
2024-05-11T14:57:00.852;599616216831841923;6005.4424;164
2024-05-11T14:57:00.860;599616216839531622;6013.1323;159
2024-05-11T14:57:00.867;599616216847221321;6020.822;157
2024-05-11T14:57:00.875;599616216854911020;6028.511;174
2024-05-11T14:57:00.883;599616216862600719;6036.201;190
2024-05-11T14:57:00.890;599616216870290418;6043.8906;188
2024-05-11T14:57:00.898;599616216877980117;6051.5806;164
2024-05-11T14:57:00.906;599616216885669816;6059.27;130
2024-05-11T14:57:00.913;599616216893359515;6066.96;108
2024-05-11T14:57:00.921;599616216901049214;6074.6494;113
2024-05-11T14:57:00.929;599616216908738913;6082.3394;137
2024-05-11T14:57:00.937;599616216916428612;6090.0293;169
2024-05-11T14:57:00.944;599616216924118311;6097.7188;178
2024-05-11T14:57:00.952;599616216931808010;6105.4087;166
2024-05-11T14:57:00.960;599616216939497709;6113.098;171
2024-05-11T14:57:00.967;599616216947187408;6120.788;195
2024-05-11T14:57:00.975;599616216954877107;6128.4775;215
2024-05-11T14:57:00.983;599616216962566806;6136.1675;195
2024-05-11T14:57:00.990;599616216970256505;6143.857;132
2024-05-11T14:57:00.998;599616216977946204;6151.547;77
2024-05-11T14:57:01.006;599616216985635903;6159.2363;60
2024-05-11T14:57:01.013;599616216993325602;6166.926;67
2024-05-11T14:57:01.021;599616217001045462;6174.646;94
2024-05-11T14:57:01.029;599616217008734743;6182.335;128
2024-05-11T14:57:01.037;599616217016424024;6190.025;140
2024-05-11T14:57:01.044;599616217024113305;6197.714;137
2024-05-11T14:57:01.052;599616217031802586;6205.4033;137
2024-05-11T14:57:01.060;599616217039491867;6213.0923;125
2024-05-11T14:57:01.067;599616217047181148;6220.7817;67
2024-05-11T14:57:01.075;599616217054870429;6228.4707;12
2024-05-11T14:57:01.083;599616217062559710;6236.16;65
2024-05-11T14:57:01.090;599616217070248991;6243.849;246
2024-05-11T14:57:01.098;599616217077938272;6251.539;546
2024-05-11T14:57:01.106;599616217085627553;6259.228;841
2024-05-11T14:57:01.113;599616217093316834;6266.9175;746
2024-05-11T14:57:01.121;599616217101006115;6274.6064;290
2024-05-11T14:57:01.129;599616217108695396;6282.296;67
2024-05-11T14:57:01.136;599616217116384677;6289.985;128
2024-05-11T14:57:01.144;599616217124073958;6297.6743;74
2024-05-11T14:57:01.152;599616217131763239;6305.3633;-26
2024-05-11T14:57:01.160;599616217139452520;6313.053;-2
2024-05-11T14:57:01.167;599616217147141801;6320.742;48
2024-05-11T14:57:01.175;599616217154831082;6328.4316;62
2024-05-11T14:57:01.183;599616217162520363;6336.1206;79
2024-05-11T14:57:01.190;599616217170209644;6343.81;82
2024-05-11T14:57:01.198;599616217177898925;6351.499;89
2024-05-11T14:57:01.206;599616217185588206;6359.1885;130
2024-05-11T14:57:01.213;599616217193277487;6366.878;159
2024-05-11T14:57:01.221;599616217200966768;6374.5674;161
2024-05-11T14:57:01.229;599616217208656049;6382.257;178
2024-05-11T14:57:01.236;599616217216345330;6389.946;200
2024-05-11T14:57:01.244;599616217224034611;6397.6353;205
2024-05-11T14:57:01.252;599616217231723892;6405.324;207
2024-05-11T14:57:01.260;599616217239413173;6413.0137;239
2024-05-11T14:57:01.267;599616217247102454;6420.7026;253
2024-05-11T14:57:01.275;599616217254791735;6428.392;212
2024-05-11T14:57:01.283;599616217262481016;6436.0815;164
2024-05-11T14:57:01.290;599616217270170297;6443.771;183
2024-05-11T14:57:01.298;599616217277859578;6451.46;224
2024-05-11T14:57:01.306;599616217285548859;6459.1494;234
2024-05-11T14:57:01.313;599616217293238140;6466.8384;248
2024-05-11T14:57:01.321;599616217300927421;6474.528;275
2024-05-11T14:57:01.329;599616217308616702;6482.217;280
2024-05-11T14:57:01.336;599616217316305983;6489.9062;265
2024-05-11T14:57:01.344;599616217323995264;6497.5957;244
2024-05-11T14:57:01.352;599616217331684545;6505.285;212
2024-05-11T14:57:01.359;599616217339373826;6512.974;176
2024-05-11T14:57:01.367;599616217347063107;6520.6636;101
2024-05-11T14:57:01.375;599616217354752388;6528.3525;2
2024-05-11T14:57:01.383;599616217362441669;6536.042;-43
2024-05-11T14:57:01.390;599616217370130950;6543.731;-87
2024-05-11T14:57:01.398;599616217377820231;6551.421;-166
2024-05-11T14:57:01.406;599616217385509512;6559.1104;-190
2024-05-11T14:57:01.413;599616217393198793;6566.7993;-161
2024-05-11T14:57:01.421;599616217400888074;6574.489;-171
2024-05-11T14:57:01.429;599616217408577355;6582.1777;-190
2024-05-11T14:57:01.436;599616217416266636;6589.867;-161
2024-05-11T14:57:01.444;599616217423955917;6597.556;-118
2024-05-11T14:57:01.452;599616217431645198;6605.2456;-99
2024-05-11T14:57:01.459;599616217439334479;6612.935;-96
2024-05-11T14:57:01.467;599616217447023760;6620.6245;-96
2024-05-11T14:57:01.475;599616217454713041;6628.3135;-72
2024-05-11T14:57:01.483;599616217462402322;6636.003;-31
2024-05-11T14:57:01.490;599616217470091603;6643.692;-41
2024-05-11T14:57:01.498;599616217477780884;6651.3813;-111
2024-05-11T14:57:01.506;599616217485470165;6659.0703;-137
2024-05-11T14:57:01.513;599616217493159446;6666.76;-113
2024-05-11T14:57:01.521;599616217500848727;6674.449;-106
2024-05-11T14:57:01.529;599616217508538008;6682.1387;-84
2024-05-11T14:57:01.536;599616217516227289;6689.8276;-33
2024-05-11T14:57:01.544;599616217523916570;6697.517;-12
2024-05-11T14:57:01.552;599616217531605851;6705.206;-16
2024-05-11T14:57:01.559;599616217539295132;6712.8955;-4
2024-05-11T14:57:01.567;599616217546984413;6720.5845;21
2024-05-11T14:57:01.575;599616217554673694;6728.274;38
2024-05-11T14:57:01.582;599616217562363036;6735.964;48
2024-05-11T14:57:01.590;599616217570052317;6743.653;74
2024-05-11T14:57:01.598;599616217577741598;6751.3423;87
2024-05-11T14:57:01.606;599616217585430879;6759.0312;19
2024-05-11T14:57:01.613;599616217593120160;6766.7207;-53
2024-05-11T14:57:01.621;599616217600809441;6774.4097;-24
2024-05-11T14:57:01.629;599616217608498722;6782.099;29
2024-05-11T14:57:01.636;599616217616188003;6789.7886;14
2024-05-11T14:57:01.644;599616217623877284;6797.478;-16
2024-05-11T14:57:01.652;599616217631566565;6805.167;-7
2024-05-11T14:57:01.659;599616217639255846;6812.8564;19
2024-05-11T14:57:01.667;599616217646945127;6820.5454;33
2024-05-11T14:57:01.675;599616217654634408;6828.235;50
2024-05-11T14:57:01.682;599616217662323689;6835.924;87
2024-05-11T14:57:01.690;599616217670012970;6843.6133;108
2024-05-11T14:57:01.698;599616217677702251;6851.3027;101
2024-05-11T14:57:01.705;599616217685391532;6858.992;103
2024-05-11T14:57:01.713;599616217693080813;6866.681;140
2024-05-11T14:57:01.721;599616217700770094;6874.3706;166
2024-05-11T14:57:01.729;599616217708459375;6882.0596;164
2024-05-11T14:57:01.736;599616217716148656;6889.749;169
2024-05-11T14:57:01.744;599616217723837937;6897.438;190
2024-05-11T14:57:01.752;599616217731527218;6905.1274;207
2024-05-11T14:57:01.759;599616217739216499;6912.8174;219
2024-05-11T14:57:01.767;599616217746905780;6920.5063;241
2024-05-11T14:57:01.775;599616217754595061;6928.196;268
2024-05-11T14:57:01.782;599616217762284342;6935.885;261
2024-05-11T14:57:01.790;599616217769973623;6943.574;232
2024-05-11T14:57:01.798;599616217777662904;6951.263;229
2024-05-11T14:57:01.805;599616217785352185;6958.9526;263
2024-05-11T14:57:01.813;599616217793041466;6966.6416;275
2024-05-11T14:57:01.821;599616217800730747;6974.3315;268
2024-05-11T14:57:01.829;599616217808420028;6982.0205;277
2024-05-11T14:57:01.836;599616217816109309;6989.71;290
2024-05-11T14:57:01.844;599616217823798590;6997.399;280
2024-05-11T14:57:01.852;599616217831487871;7005.0884;268
2024-05-11T14:57:01.859;599616217839177152;7012.7773;299
2024-05-11T14:57:01.867;599616217846866433;7020.467;449
2024-05-11T14:57:01.875;599616217854555714;7028.156;754
2024-05-11T14:57:01.882;599616217862244995;7035.8457;1029
2024-05-11T14:57:01.890;599616217869934276;7043.5347;879
2024-05-11T14:57:01.898;599616217877623557;7051.224;367
2024-05-11T14:57:01.905;599616217885312838;7058.913;135
2024-05-11T14:57:01.913;599616217893002119;7066.6025;253
2024-05-11T14:57:01.921;599616217900691400;7074.2915;251
2024-05-11T14:57:01.928;599616217908380681;7081.981;166
2024-05-11T14:57:01.936;599616217916069962;7089.671;181
2024-05-11T14:57:01.944;599616217923759243;7097.36;205
2024-05-11T14:57:01.952;599616217931448524;7105.0493;212
2024-05-11T14:57:01.959;599616217939137805;7112.7383;239
2024-05-11T14:57:01.967;599616217946827086;7120.4277;239
2024-05-11T14:57:01.975;599616217954516367;7128.1167;217
2024-05-11T14:57:01.982;599616217962205648;7135.806;234
2024-05-11T14:57:01.990;599616217969894929;7143.495;244
2024-05-11T14:57:01.998;599616217977584210;7151.185;178
2024-05-11T14:57:02.005;599616217985273491;7158.874;120
2024-05-11T14:57:02.013;599616217992962772;7166.5635;149
2024-05-11T14:57:02.021;599616218000652053;7174.2524;171
2024-05-11T14:57:02.028;599616218008341334;7181.942;154
2024-05-11T14:57:02.036;599616218016030615;7189.631;171
2024-05-11T14:57:02.044;599616218023719896;7197.3203;219
2024-05-11T14:57:02.052;599616218031409177;7205.0093;234
2024-05-11T14:57:02.059;599616218039098458;7212.699;219
2024-05-11T14:57:02.067;599616218046787739;7220.388;200
2024-05-11T14:57:02.075;599616218054477020;7228.0776;183
2024-05-11T14:57:02.082;599616218062166301;7235.7666;186
2024-05-11T14:57:02.090;599616218069855582;7243.456;200
2024-05-11T14:57:02.098;599616218077544863;7251.145;222
2024-05-11T14:57:02.105;599616218085234144;7258.8345;244
2024-05-11T14:57:02.113;599616218092923425;7266.5234;236
2024-05-11T14:57:02.121;599616218100612706;7274.2134;210
2024-05-11T14:57:02.128;599616218108301987;7281.903;183
2024-05-11T14:57:02.136;599616218115991268;7289.592;135
2024-05-11T14:57:02.144;599616218123665562;7297.266;62
2024-05-11T14:57:02.151;599616218131355052;7304.9556;-21
2024-05-11T14:57:02.159;599616218139044542;7312.645;-99
2024-05-11T14:57:02.167;599616218146734032;7320.3345;-166
2024-05-11T14:57:02.175;599616218154423522;7328.024;-222
2024-05-11T14:57:02.182;599616218162113012;7335.7134;-241
2024-05-11T14:57:02.190;599616218169802502;7343.403;-224
2024-05-11T14:57:02.198;599616218177491992;7351.0923;-234
2024-05-11T14:57:02.205;599616218185181482;7358.7817;-311
2024-05-11T14:57:02.213;599616218192870972;7366.471;-372
2024-05-11T14:57:02.221;599616218200560462;7374.161;-333
2024-05-11T14:57:02.228;599616218208249952;7381.8506;-282
2024-05-11T14:57:02.236;599616218215939442;7389.54;-282
2024-05-11T14:57:02.244;599616218223628932;7397.2295;-280
2024-05-11T14:57:02.251;599616218231318422;7404.919;-251
2024-05-11T14:57:02.259;599616218239007912;7412.6084;-224
2024-05-11T14:57:02.267;599616218246697402;7420.298;-212
2024-05-11T14:57:02.274;599616218254386892;7427.9873;-186
2024-05-11T14:57:02.282;599616218262076382;7435.677;-149
2024-05-11T14:57:02.290;599616218269765872;7443.366;-128
2024-05-11T14:57:02.298;599616218277455362;7451.0557;-137
2024-05-11T14:57:02.305;599616218285144852;7458.745;-128
2024-05-11T14:57:02.313;599616218292834342;7466.4346;-84
2024-05-11T14:57:02.321;599616218300523832;7474.1245;-55
2024-05-11T14:57:02.328;599616218308213322;7481.814;-53
2024-05-11T14:57:02.336;599616218315902812;7489.5034;-43
2024-05-11T14:57:02.344;599616218323592302;7497.193;-26
2024-05-11T14:57:02.351;599616218331281792;7504.8823;-19
2024-05-11T14:57:02.359;599616218338971282;7512.572;-9
2024-05-11T14:57:02.367;599616218346660772;7520.261;9
2024-05-11T14:57:02.374;599616218354350262;7527.9507;7
2024-05-11T14:57:02.382;599616218362039752;7535.64;-43
2024-05-11T14:57:02.390;599616218369729242;7543.3296;-74
2024-05-11T14:57:02.398;599616218377418732;7551.019;-45
2024-05-11T14:57:02.405;599616218385108222;7558.7085;2
2024-05-11T14:57:02.413;599616218392797712;7566.398;16
2024-05-11T14:57:02.421;599616218400487202;7574.088;21
2024-05-11T14:57:02.428;599616218408176692;7581.777;38
2024-05-11T14:57:02.436;599616218415866182;7589.467;53
2024-05-11T14:57:02.444;599616218423555672;7597.1562;55
2024-05-11T14:57:02.451;599616218431245162;7604.8457;65
2024-05-11T14:57:02.459;599616218438934652;7612.535;91
2024-05-11T14:57:02.467;599616218446624142;7620.2246;120
2024-05-11T14:57:02.474;599616218454313632;7627.914;123
2024-05-11T14:57:02.482;599616218462003122;7635.6035;103
2024-05-11T14:57:02.490;599616218469692612;7643.293;113
2024-05-11T14:57:02.497;599616218477382102;7650.9824;123
2024-05-11T14:57:02.505;599616218485071592;7658.6724;67
2024-05-11T14:57:02.513;599616218492761082;7666.3613;14
2024-05-11T14:57:02.521;599616218500450572;7674.0513;50
2024-05-11T14:57:02.528;599616218508140062;7681.74;84
2024-05-11T14:57:02.536;599616218515829552;7689.43;67
2024-05-11T14:57:02.544;599616218523519042;7697.119;70
2024-05-11T14:57:02.551;599616218531208532;7704.809;101
2024-05-11T14:57:02.559;599616218538898022;7712.4985;123
2024-05-11T14:57:02.567;599616218546587512;7720.188;120
2024-05-11T14:57:02.574;599616218554277002;7727.8774;111
2024-05-11T14:57:02.582;599616218561966492;7735.567;125
2024-05-11T14:57:02.590;599616218569655982;7743.2563;152
2024-05-11T14:57:02.597;599616218577345472;7750.946;157
2024-05-11T14:57:02.605;599616218585034962;7758.6357;164
2024-05-11T14:57:02.613;599616218592724452;7766.3247;176
2024-05-11T14:57:02.621;599616218600413942;7774.0146;159
2024-05-11T14:57:02.628;599616218608103432;7781.7036;186
2024-05-11T14:57:02.636;599616218615792922;7789.3936;435
2024-05-11T14:57:02.644;599616218623482412;7797.0825;841
2024-05-11T14:57:02.651;599616218631171902;7804.7725;983
2024-05-11T14:57:02.659;599616218638861392;7812.462;589
2024-05-11T14:57:02.667;599616218646550882;7820.1514;140
2024-05-11T14:57:02.674;599616218654240372;7827.841;120
2024-05-11T14:57:02.682;599616218661929862;7835.5303;193
2024-05-11T14:57:02.690;599616218669619352;7843.2197;113
2024-05-11T14:57:02.697;599616218677308842;7850.909;106
2024-05-11T14:57:02.705;599616218684998393;7858.599;164
2024-05-11T14:57:02.713;599616218692687883;7866.288;142
2024-05-11T14:57:02.720;599616218700377373;7873.978;113
2024-05-11T14:57:02.728;599616218708066863;7881.667;149
2024-05-11T14:57:02.736;599616218715756353;7889.357;183
2024-05-11T14:57:02.744;599616218723445843;7897.0464;183
2024-05-11T14:57:02.751;599616218731135333;7904.736;176
2024-05-11T14:57:02.759;599616218738824823;7912.4253;174
2024-05-11T14:57:02.767;599616218746514313;7920.1147;176
2024-05-11T14:57:02.774;599616218754203803;7927.804;142
2024-05-11T14:57:02.782;599616218761893293;7935.4937;74
2024-05-11T14:57:02.790;599616218769582783;7943.1836;72
2024-05-11T14:57:02.797;599616218777272273;7950.8726;113
2024-05-11T14:57:02.805;599616218784961763;7958.5625;103
2024-05-11T14:57:02.813;599616218792651253;7966.2515;89
2024-05-11T14:57:02.820;599616218800340743;7973.9414;130
2024-05-11T14:57:02.828;599616218808030233;7981.6304;149
2024-05-11T14:57:02.836;599616218815719723;7989.3203;111
2024-05-11T14:57:02.844;599616218823409213;7997.0093;91
2024-05-11T14:57:02.851;599616218831098703;8004.699;113
2024-05-11T14:57:02.859;599616218838788193;8012.3887;137
2024-05-11T14:57:02.867;599616218846477683;8020.078;132
2024-05-11T14:57:02.874;599616218854167173;8027.7676;108
2024-05-11T14:57:02.882;599616218861856663;8035.457;111
2024-05-11T14:57:02.890;599616218869546153;8043.147;125
2024-05-11T14:57:02.897;599616218877235643;8050.836;91
2024-05-11T14:57:02.905;599616218884925133;8058.526;31
2024-05-11T14:57:02.913;599616218892614623;8066.215;-16
2024-05-11T14:57:02.920;599616218900304113;8073.905;-62
2024-05-11T14:57:02.928;599616218907993603;8081.5938;-132
2024-05-11T14:57:02.936;599616218915683093;8089.2837;-195
2024-05-11T14:57:02.943;599616218923372583;8096.9727;-219
2024-05-11T14:57:02.951;599616218931062073;8104.6626;-224
2024-05-11T14:57:02.959;599616218938751563;8112.352;-234
2024-05-11T14:57:02.967;599616218946441053;8120.0415;-224
2024-05-11T14:57:02.974;599616218954130543;8127.731;-195
2024-05-11T14:57:02.982;599616218961820033;8135.4204;-188
2024-05-11T14:57:02.990;599616218969509523;8143.1104;-205
2024-05-11T14:57:02.997;599616218977199013;8150.7993;-207
2024-05-11T14:57:03.005;599616218984888503;8158.4893;-236
2024-05-11T14:57:03.013;599616218992577993;8166.178;-314
2024-05-11T14:57:03.020;599616219000267483;8173.868;-326
2024-05-11T14:57:03.028;599616219007956973;8181.557;-275
2024-05-11T14:57:03.036;599616219015646463;8189.247;-256
2024-05-11T14:57:03.043;599616219023335953;8196.937;-256
2024-05-11T14:57:03.051;599616219031025443;8204.626;-236
2024-05-11T14:57:03.059;599616219038714933;8212.315;-205
2024-05-11T14:57:03.067;599616219046404423;8220.005;-171
2024-05-11T14:57:03.074;599616219054093913;8227.694;-161
2024-05-11T14:57:03.082;599616219061783403;8235.384;-176
2024-05-11T14:57:03.090;599616219069472893;8243.073;-157
2024-05-11T14:57:03.097;599616219077162383;8250.763;-106
2024-05-11T14:57:03.105;599616219084851873;8258.452;-74
2024-05-11T14:57:03.113;599616219092541363;8266.142;-79
2024-05-11T14:57:03.120;599616219100230853;8273.831;-106
2024-05-11T14:57:03.128;599616219107920343;8281.5205;-120
2024-05-11T14:57:03.136;599616219115609833;8289.21;-108
2024-05-11T14:57:03.143;599616219123299323;8296.899;-91
2024-05-11T14:57:03.151;599616219130988813;8304.589;-62
2024-05-11T14:57:03.159;599616219138678303;8312.278;-29
2024-05-11T14:57:03.166;599616219146367793;8319.968;-21
2024-05-11T14:57:03.174;599616219154057283;8327.657;-29
2024-05-11T14:57:03.182;599616219161746773;8335.348;-2
2024-05-11T14:57:03.190;599616219169436263;8343.037;31
2024-05-11T14:57:03.197;599616219177125753;8350.727;41
2024-05-11T14:57:03.205;599616219184815243;8358.416;50
2024-05-11T14:57:03.213;599616219192504733;8366.105;79
2024-05-11T14:57:03.220;599616219200194223;8373.795;84
2024-05-11T14:57:03.228;599616219207883713;8381.484;72
2024-05-11T14:57:03.236;599616219215573203;8389.174;91
2024-05-11T14:57:03.243;599616219223262693;8396.863;128
2024-05-11T14:57:03.251;599616219230952183;8404.553;145
2024-05-11T14:57:03.259;599616219238641673;8412.242;137
2024-05-11T14:57:03.266;599616219246341236;8419.941;130
2024-05-11T14:57:03.274;599616219254030587;8427.631;149
2024-05-11T14:57:03.282;599616219261719938;8435.32;169
2024-05-11T14:57:03.290;599616219269409289;8443.01;171
2024-05-11T14:57:03.297;599616219277098640;8450.699;183
2024-05-11T14:57:03.305;599616219284787991;8458.389;200
2024-05-11T14:57:03.313;599616219292477342;8466.078;157
2024-05-11T14:57:03.320;599616219300166693;8473.767;74
2024-05-11T14:57:03.328;599616219307856044;8481.457;65
2024-05-11T14:57:03.336;599616219315545395;8489.1455;116
2024-05-11T14:57:03.343;599616219323234746;8496.835;125
2024-05-11T14:57:03.351;599616219330924097;8504.524;101
2024-05-11T14:57:03.359;599616219338613448;8512.214;72
2024-05-11T14:57:03.366;599616219346302799;8519.903;36
2024-05-11T14:57:03.374;599616219353992150;8527.593;21
2024-05-11T14:57:03.382;599616219361681501;8535.282;43
2024-05-11T14:57:03.389;599616219369370852;8542.972;82
2024-05-11T14:57:03.397;599616219377060203;8550.66;111
2024-05-11T14:57:03.405;599616219384749554;8558.35;111
2024-05-11T14:57:03.413;599616219392438905;8566.04;106
2024-05-11T14:57:03.420;599616219400128256;8573.729;130
2024-05-11T14:57:03.428;599616219407817607;8581.418;152
2024-05-11T14:57:03.436;599616219415506958;8589.107;152
2024-05-11T14:57:03.443;599616219423196309;8596.797;147
2024-05-11T14:57:03.451;599616219430885660;8604.485;154
2024-05-11T14:57:03.459;599616219438575011;8612.176;164
2024-05-11T14:57:03.466;599616219446264362;8619.865;171
2024-05-11T14:57:03.474;599616219453953713;8627.555;178
2024-05-11T14:57:03.482;599616219461643064;8635.243;203
2024-05-11T14:57:03.489;599616219469332415;8642.933;210
2024-05-11T14:57:03.497;599616219477021766;8650.622;186
2024-05-11T14:57:03.505;599616219484711117;8658.312;215
2024-05-11T14:57:03.513;599616219492400468;8666.001;401
2024-05-11T14:57:03.520;599616219500089819;8673.69;710
2024-05-11T14:57:03.528;599616219507779170;8681.38;889
2024-05-11T14:57:03.536;599616219515468521;8689.069;606
2024-05-11T14:57:03.543;599616219523157872;8696.758;125
2024-05-11T14:57:03.551;599616219530847223;8704.447;-9
2024-05-11T14:57:03.559;599616219538536574;8712.137;26
2024-05-11T14:57:03.566;599616219546225925;8719.826;-53
2024-05-11T14:57:03.574;599616219553915276;8727.517;-82
2024-05-11T14:57:03.582;599616219561604627;8735.205;-36
2024-05-11T14:57:03.589;599616219569293978;8742.895;-58
2024-05-11T14:57:03.597;599616219576983329;8750.584;-74
2024-05-11T14:57:03.605;599616219584672680;8758.273;-55
2024-05-11T14:57:03.612;599616219592362031;8765.962;-89
2024-05-11T14:57:03.620;599616219600051382;8773.651;-120
2024-05-11T14:57:03.628;599616219607740733;8781.341;-99
2024-05-11T14:57:03.636;599616219615430084;8789.031;-111
2024-05-11T14:57:03.643;599616219623119435;8796.72;-164
2024-05-11T14:57:03.651;599616219630808786;8804.409;-181
2024-05-11T14:57:03.659;599616219638498137;8812.099;-190
2024-05-11T14:57:03.666;599616219646187488;8819.788;-203
2024-05-11T14:57:03.674;599616219653876839;8827.477;-205
2024-05-11T14:57:03.682;599616219661566190;8835.166;-212
2024-05-11T14:57:03.689;599616219669255541;8842.856;-203
2024-05-11T14:57:03.697;599616219676944892;8850.546;-164
2024-05-11T14:57:03.705;599616219684634243;8858.235;-142
2024-05-11T14:57:03.712;599616219692323594;8865.924;-130
2024-05-11T14:57:03.720;599616219700012945;8873.613;-101
2024-05-11T14:57:03.728;599616219707702296;8881.303;-77
2024-05-11T14:57:03.735;599616219715391647;8888.992;-67
2024-05-11T14:57:03.743;599616219723080998;8896.681;-41
2024-05-11T14:57:03.751;599616219730770349;8904.371;2
2024-05-11T14:57:03.759;599616219738459700;8912.061;31
2024-05-11T14:57:03.766;599616219746149051;8919.75;29
2024-05-11T14:57:03.774;599616219753838402;8927.438;12
2024-05-11T14:57:03.782;599616219761527753;8935.128;19
2024-05-11T14:57:03.789;599616219769217104;8942.817;29
2024-05-11T14:57:03.797;599616219776906455;8950.507;12
2024-05-11T14:57:03.805;599616219784595806;8958.196;-4
2024-05-11T14:57:03.812;599616219792285157;8965.886;0
2024-05-11T14:57:03.820;599616219799974508;8973.575;-12
2024-05-11T14:57:03.828;599616219807643805;8981.244;-33
2024-05-11T14:57:03.835;599616219815333435;8988.935;-16
2024-05-11T14:57:03.843;599616219823023065;8996.623;19
2024-05-11T14:57:03.851;599616219830712695;9004.313;19
2024-05-11T14:57:03.859;599616219838402325;9012.003;-16
2024-05-11T14:57:03.866;599616219846091955;9019.692;-33
2024-05-11T14:57:03.874;599616219853781585;9027.382;-2
2024-05-11T14:57:03.882;599616219861471215;9035.071;0
2024-05-11T14:57:03.889;599616219869160845;9042.762;-65
2024-05-11T14:57:03.897;599616219876850475;9050.451;-94
2024-05-11T14:57:03.905;599616219884540105;9058.141;-48
2024-05-11T14:57:03.912;599616219892229735;9065.83;-33
2024-05-11T14:57:03.920;599616219899919365;9073.52;-50
2024-05-11T14:57:03.928;599616219907608995;9081.21;-16
2024-05-11T14:57:03.935;599616219915298625;9088.899;29
2024-05-11T14:57:03.943;599616219922988255;9096.588;43
2024-05-11T14:57:03.951;599616219930677885;9104.278;43
2024-05-11T14:57:03.958;599616219938367515;9111.968;50
2024-05-11T14:57:03.966;599616219946057145;9119.658;77
2024-05-11T14:57:03.974;599616219953746775;9127.348;94
2024-05-11T14:57:03.982;599616219961436405;9135.036;99
2024-05-11T14:57:03.989;599616219969126035;9142.727;123
2024-05-11T14:57:03.997;599616219976815665;9150.416;152
2024-05-11T14:57:04.005;599616219984505295;9158.106;142
2024-05-11T14:57:04.012;599616219992194925;9165.795;103
2024-05-11T14:57:04.020;599616219999884555;9173.484;48
2024-05-11T14:57:04.028;599616220007574185;9181.175;0
2024-05-11T14:57:04.035;599616220015263815;9188.864;7
2024-05-11T14:57:04.043;599616220022953445;9196.555;29
2024-05-11T14:57:04.051;599616220030643075;9204.243;26
2024-05-11T14:57:04.058;599616220038332705;9211.933;41
2024-05-11T14:57:04.066;599616220046022335;9219.623;62
2024-05-11T14:57:04.074;599616220053711965;9227.3125;70
2024-05-11T14:57:04.082;599616220061401595;9235.002;99
2024-05-11T14:57:04.089;599616220069091225;9242.691;130
2024-05-11T14:57:04.097;599616220076780855;9250.381;111
2024-05-11T14:57:04.105;599616220084470485;9258.071;70
2024-05-11T14:57:04.112;599616220092160115;9265.761;79
2024-05-11T14:57:04.120;599616220099849745;9273.45;118
2024-05-11T14:57:04.128;599616220107539375;9281.14;118
2024-05-11T14:57:04.135;599616220115229005;9288.83;116
2024-05-11T14:57:04.143;599616220122918635;9296.52;137
2024-05-11T14:57:04.151;599616220130608265;9304.208;152
2024-05-11T14:57:04.158;599616220138297895;9311.898;154
2024-05-11T14:57:04.166;599616220145987525;9319.588;169
2024-05-11T14:57:04.174;599616220153677155;9327.278;200
2024-05-11T14:57:04.181;599616220161366785;9334.968;212
2024-05-11T14:57:04.189;599616220169056415;9342.656;193
2024-05-11T14:57:04.197;599616220176746045;9350.347;193
2024-05-11T14:57:04.205;599616220184435675;9358.036;227
2024-05-11T14:57:04.212;599616220192125305;9365.727;246
2024-05-11T14:57:04.220;599616220199814935;9373.415;241
2024-05-11T14:57:04.228;599616220207504565;9381.1045;246
2024-05-11T14:57:04.235;599616220215194195;9388.795;258
2024-05-11T14:57:04.243;599616220222883825;9396.484;251
2024-05-11T14:57:04.251;599616220230573455;9404.175;248
2024-05-11T14:57:04.258;599616220238263085;9411.863;268
2024-05-11T14:57:04.266;599616220245952715;9419.553;292
2024-05-11T14:57:04.274;599616220253642345;9427.243;285
2024-05-11T14:57:04.281;599616220261331975;9434.933;261
2024-05-11T14:57:04.289;599616220269021605;9442.622;261
2024-05-11T14:57:04.297;599616220276711235;9450.312;285
2024-05-11T14:57:04.305;599616220284400865;9458.001;292
2024-05-11T14:57:04.312;599616220292090495;9465.691;297
2024-05-11T14:57:04.320;599616220299780125;9473.38;316
2024-05-11T14:57:04.328;599616220307469755;9481.07;321
2024-05-11T14:57:04.335;599616220315159385;9488.76;294
2024-05-11T14:57:04.343;599616220322849015;9496.449;256
2024-05-11T14:57:04.351;599616220330538645;9504.14;210
2024-05-11T14:57:04.358;599616220338228275;9511.828;159
2024-05-11T14:57:04.366;599616220345917905;9519.519;113
2024-05-11T14:57:04.374;599616220353607535;9527.208;82
2024-05-11T14:57:04.381;599616220361297165;9534.897;87
2024-05-11T14:57:04.389;599616220369011942;9542.612;106
2024-05-11T14:57:04.397;599616220376701223;9550.301;106
2024-05-11T14:57:04.404;599616220384390504;9557.991;101
2024-05-11T14:57:04.412;599616220392079785;9565.681;108
2024-05-11T14:57:04.420;599616220399769066;9573.37;120
2024-05-11T14:57:04.428;599616220407458347;9581.059;217
2024-05-11T14:57:04.435;599616220415147628;9588.748;483
2024-05-11T14:57:04.443;599616220422836909;9596.4375;696
2024-05-11T14:57:04.451;599616220430526190;9604.127;427
2024-05-11T14:57:04.458;599616220438215471;9611.816;-111
2024-05-11T14:57:04.466;599616220445904752;9619.505;-275
2024-05-11T14:57:04.474;599616220453594033;9627.194;-176
2024-05-11T14:57:04.481;599616220461283314;9634.884;-215
2024-05-11T14:57:04.489;599616220468972595;9642.573;-268
2024-05-11T14:57:04.497;599616220476661876;9650.262;-219
2024-05-11T14:57:04.504;599616220484351157;9657.951;-188
2024-05-11T14:57:04.512;599616220492040438;9665.641;-198
2024-05-11T14:57:04.520;599616220499729719;9673.33;-210
2024-05-11T14:57:04.528;599616220507419000;9681.02;-261
2024-05-11T14:57:04.535;599616220515108281;9688.709;-294
2024-05-11T14:57:04.543;599616220522797562;9696.398;-258
2024-05-11T14:57:04.551;599616220530486843;9704.088;-234
2024-05-11T14:57:04.558;599616220538176124;9711.776;-234
2024-05-11T14:57:04.566;599616220545865405;9719.466;-195
2024-05-11T14:57:04.574;599616220553554686;9727.155;-157
2024-05-11T14:57:04.581;599616220561243967;9734.845;-145
2024-05-11T14:57:04.589;599616220568933248;9742.533;-137
2024-05-11T14:57:04.597;599616220576622529;9750.223;-149
2024-05-11T14:57:04.604;599616220584311810;9757.912;-174
2024-05-11T14:57:04.612;599616220592001091;9765.602;-154
2024-05-11T14:57:04.620;599616220599690372;9773.29;-96
2024-05-11T14:57:04.627;599616220607379653;9780.9795;-45
2024-05-11T14:57:04.635;599616220615068934;9788.669;-14
2024-05-11T14:57:04.643;599616220622758215;9796.359;12
2024-05-11T14:57:04.651;599616220630447496;9804.049;43
2024-05-11T14:57:04.658;599616220638136777;9811.737;82
2024-05-11T14:57:04.666;599616220645826058;9819.427;108
2024-05-11T14:57:04.674;599616220653515339;9827.116;130
2024-05-11T14:57:04.681;599616220661204620;9834.806;161
2024-05-11T14:57:04.689;599616220668893901;9842.494;181
2024-05-11T14:57:04.697;599616220676583182;9850.184;157
2024-05-11T14:57:04.704;599616220684272463;9857.873;132
2024-05-11T14:57:04.712;599616220691961744;9865.5625;137
2024-05-11T14:57:04.720;599616220699651025;9873.251;132
2024-05-11T14:57:04.727;599616220707340306;9880.94;106
2024-05-11T14:57:04.735;599616220715029587;9888.63;89
2024-05-11T14:57:04.743;599616220722718868;9896.319;84
2024-05-11T14:57:04.751;599616220730408149;9904.008;82
2024-05-11T14:57:04.758;599616220738097430;9911.697;84
2024-05-11T14:57:04.766;599616220745786711;9919.388;99
2024-05-11T14:57:04.774;599616220753475992;9927.077;130
2024-05-11T14:57:04.781;599616220761165273;9934.766;147
2024-05-11T14:57:04.789;599616220768854554;9942.455;132
2024-05-11T14:57:04.797;599616220776543835;9950.145;140
2024-05-11T14:57:04.804;599616220784233116;9957.834;178
2024-05-11T14:57:04.812;599616220791922397;9965.522;198
2024-05-11T14:57:04.820;599616220799611678;9973.212;195
2024-05-11T14:57:04.827;599616220807300959;9980.901;203
2024-05-11T14:57:04.835;599616220814990240;9988.591;190
2024-05-11T14:57:04.843;599616220822679521;9996.28;137
2024-05-11T14:57:04.850;599616220830368802;10003.969;106
2024-05-11T14:57:04.858;599616220838058083;10011.658;137
2024-05-11T14:57:04.866;599616220845747364;10019.348;171
2024-05-11T14:57:04.874;599616220853436645;10027.037;166
2024-05-11T14:57:04.881;599616220861125926;10034.726;147
2024-05-11T14:57:04.889;599616220868815207;10042.416;161
2024-05-11T14:57:04.897;599616220876504488;10050.105;193
2024-05-11T14:57:04.904;599616220884193769;10057.795;200
2024-05-11T14:57:04.912;599616220891883050;10065.483;195
2024-05-11T14:57:04.920;599616220899572331;10073.173;210
2024-05-11T14:57:04.927;599616220907261612;10080.862;215
2024-05-11T14:57:04.935;599616220914950893;10088.552;203
2024-05-11T14:57:04.943;599616220922640174;10096.24;205
2024-05-11T14:57:04.950;599616220930299420;10103.9;229
2024-05-11T14:57:04.958;599616220937989119;10111.59;246
2024-05-11T14:57:04.966;599616220945678818;10119.279;236
2024-05-11T14:57:04.973;599616220953368517;10126.969;212
2024-05-11T14:57:04.981;599616220961058216;10134.659;219
2024-05-11T14:57:04.989;599616220968747915;10142.349;234
2024-05-11T14:57:04.997;599616220976437614;10150.038;174
2024-05-11T14:57:05.004;599616220984127313;10157.728;96
2024-05-11T14:57:05.012;599616220991817012;10165.417;108
2024-05-11T14:57:05.020;599616220999506711;10173.107;140
2024-05-11T14:57:05.027;599616221007196410;10180.797;99
2024-05-11T14:57:05.035;599616221014886109;10188.486;24
2024-05-11T14:57:05.043;599616221022575808;10196.176;4
2024-05-11T14:57:05.050;599616221030265507;10203.866;31
2024-05-11T14:57:05.058;599616221037955206;10211.556;21
2024-05-11T14:57:05.066;599616221045644905;10219.245;2
2024-05-11T14:57:05.073;599616221053334604;10226.935;31
2024-05-11T14:57:05.081;599616221061024303;10234.625;50
2024-05-11T14:57:05.089;599616221068714002;10242.314;21
2024-05-11T14:57:05.097;599616221076403701;10250.005;14
2024-05-11T14:57:05.104;599616221084093400;10257.693;53
2024-05-11T14:57:05.112;599616221091783099;10265.384;58
2024-05-11T14:57:05.120;599616221099472798;10273.073;36
2024-05-11T14:57:05.127;599616221107162497;10280.764;60
2024-05-11T14:57:05.135;599616221114852196;10288.452;106
2024-05-11T14:57:05.143;599616221122541895;10296.143;118
2024-05-11T14:57:05.150;599616221130231594;10303.832;108
2024-05-11T14:57:05.158;599616221137921293;10311.521;108
2024-05-11T14:57:05.166;599616221145610992;10319.212;116
2024-05-11T14:57:05.173;599616221153300691;10326.9;96
2024-05-11T14:57:05.181;599616221160990390;10334.591;70
2024-05-11T14:57:05.189;599616221168680089;10342.28;84
2024-05-11T14:57:05.196;599616221176369788;10349.971;99
2024-05-11T14:57:05.204;599616221184059487;10357.659;67
2024-05-11T14:57:05.212;599616221191749186;10365.35;41
2024-05-11T14:57:05.220;599616221199438885;10373.039;62
2024-05-11T14:57:05.227;599616221207128584;10380.7295;91
2024-05-11T14:57:05.235;599616221214818283;10388.419;89
2024-05-11T14:57:05.243;599616221222507982;10396.108;65
2024-05-11T14:57:05.250;599616221230197681;10403.798;31
2024-05-11T14:57:05.258;599616221237887380;10411.488;4
2024-05-11T14:57:05.266;599616221245577079;10419.178;-24
2024-05-11T14:57:05.273;599616221253266778;10426.868;-72
2024-05-11T14:57:05.281;599616221260956477;10434.557;-55
2024-05-11T14:57:05.289;599616221268646176;10442.246;113
2024-05-11T14:57:05.296;599616221276335875;10449.937;413
2024-05-11T14:57:05.304;599616221284025574;10457.626;669
2024-05-11T14:57:05.312;599616221291715273;10465.315;529
2024-05-11T14:57:05.320;599616221299404972;10473.005;74
2024-05-11T14:57:05.327;599616221307094671;10480.695;-137
2024-05-11T14:57:05.335;599616221314784370;10488.385;-113
2024-05-11T14:57:05.343;599616221322474069;10496.075;-176
2024-05-11T14:57:05.350;599616221330163768;10503.764;-222
2024-05-11T14:57:05.358;599616221337853467;10511.454;-178
2024-05-11T14:57:05.366;599616221345543166;10519.144;-159
2024-05-11T14:57:05.373;599616221353232865;10526.834;-142
2024-05-11T14:57:05.381;599616221360922564;10534.522;-113
2024-05-11T14:57:05.389;599616221368612263;10542.213;-120
2024-05-11T14:57:05.396;599616221376301962;10549.902;-120
2024-05-11T14:57:05.404;599616221383991661;10557.593;-79
2024-05-11T14:57:05.412;599616221391681360;10565.282;-53
2024-05-11T14:57:05.419;599616221399371059;10572.971;-45
2024-05-11T14:57:05.427;599616221407060758;10580.661;-29
2024-05-11T14:57:05.435;599616221414750457;10588.351;-12
2024-05-11T14:57:05.443;599616221422440156;10596.041;-4
2024-05-11T14:57:05.450;599616221430129855;10603.7295;2
2024-05-11T14:57:05.458;599616221437819554;10611.42;29
2024-05-11T14:57:05.466;599616221445509253;10619.109;70
2024-05-11T14:57:05.473;599616221453198952;10626.8;84
2024-05-11T14:57:05.481;599616221460888651;10634.489;74
2024-05-11T14:57:05.489;599616221468578350;10642.179;96
2024-05-11T14:57:05.496;599616221476268049;10649.868;145
2024-05-11T14:57:05.504;599616221483957748;10657.559;169
2024-05-11T14:57:05.512;599616221491662560;10665.263;186
2024-05-11T14:57:05.519;599616221499352050;10672.952;215
2024-05-11T14:57:05.527;599616221507041540;10680.642;234
2024-05-11T14:57:05.535;599616221514731030;10688.332;217
2024-05-11T14:57:05.543;599616221522420520;10696.0205;152
2024-05-11T14:57:05.550;599616221530110010;10703.71;103
2024-05-11T14:57:05.558;599616221537799500;10711.4;125
2024-05-11T14:57:05.566;599616221545488990;10719.09;116
2024-05-11T14:57:05.573;599616221553178480;10726.779;24
2024-05-11T14:57:05.581;599616221560867970;10734.468;-48
2024-05-11T14:57:05.589;599616221568557460;10742.158;-67
2024-05-11T14:57:05.596;599616221576246950;10749.848;-116
2024-05-11T14:57:05.604;599616221583936440;10757.537;-174
2024-05-11T14:57:05.612;599616221591625930;10765.226;-157
2024-05-11T14:57:05.619;599616221599315420;10772.916;-125
2024-05-11T14:57:05.627;599616221607004910;10780.605;-130
2024-05-11T14:57:05.635;599616221614694400;10788.295;-106
2024-05-11T14:57:05.642;599616221622383890;10795.983;-48
2024-05-11T14:57:05.650;599616221630073380;10803.674;-19
2024-05-11T14:57:05.658;599616221637762870;10811.363;-19
2024-05-11T14:57:05.666;599616221645452360;10819.053;-9
2024-05-11T14:57:05.673;599616221653141850;10826.743;21
2024-05-11T14:57:05.681;599616221660831340;10834.432;50
2024-05-11T14:57:05.689;599616221668520830;10842.121;62
2024-05-11T14:57:05.696;599616221676210320;10849.811;82
2024-05-11T14:57:05.704;599616221683899810;10857.501;111
2024-05-11T14:57:05.712;599616221691589300;10865.189;113
2024-05-11T14:57:05.719;599616221699278790;10872.879;108
2024-05-11T14:57:05.727;599616221706968280;10880.568;132
2024-05-11T14:57:05.735;599616221714657770;10888.259;171
2024-05-11T14:57:05.742;599616221722347260;10895.948;178
2024-05-11T14:57:05.750;599616221730036750;10903.637;169
2024-05-11T14:57:05.758;599616221737726240;10911.326;174
2024-05-11T14:57:05.766;599616221745415730;10919.017;188
2024-05-11T14:57:05.773;599616221753105220;10926.706;203
2024-05-11T14:57:05.781;599616221760794710;10934.395;205
2024-05-11T14:57:05.789;599616221768484200;10942.085;217
2024-05-11T14:57:05.796;599616221776173690;10949.774;234
2024-05-11T14:57:05.804;599616221783863180;10957.464;222
2024-05-11T14:57:05.812;599616221791552670;10965.152;203
2024-05-11T14:57:05.819;599616221799242160;10972.843;212
2024-05-11T14:57:05.827;599616221806931650;10980.532;198
2024-05-11T14:57:05.835;599616221814621140;10988.222;157
2024-05-11T14:57:05.842;599616221822310630;10995.911;154
2024-05-11T14:57:05.850;599616221830000120;11003.601;176
2024-05-11T14:57:05.858;599616221837689610;11011.29;181
2024-05-11T14:57:05.865;599616221845379100;11018.9795;183
2024-05-11T14:57:05.873;599616221853068590;11026.669;198
2024-05-11T14:57:05.881;599616221860758080;11034.358;219
2024-05-11T14:57:05.889;599616221868447570;11042.048;234
2024-05-11T14:57:05.896;599616221876137060;11049.737;219
2024-05-11T14:57:05.904;599616221883826550;11057.428;212
2024-05-11T14:57:05.912;599616221891516040;11065.116;241
2024-05-11T14:57:05.919;599616221899205530;11072.806;263
2024-05-11T14:57:05.927;599616221906895020;11080.495;263
2024-05-11T14:57:05.935;599616221914584510;11088.186;258
2024-05-11T14:57:05.942;599616221922274000;11095.875;239
2024-05-11T14:57:05.950;599616221929963490;11103.563;195
2024-05-11T14:57:05.958;599616221937652980;11111.253;164
2024-05-11T14:57:05.965;599616221945342470;11118.943;166
2024-05-11T14:57:05.973;599616221953031960;11126.633;181
2024-05-11T14:57:05.981;599616221960721450;11134.321;176
2024-05-11T14:57:05.989;599616221968410940;11142.011;149
2024-05-11T14:57:05.996;599616221976100430;11149.701;152
2024-05-11T14:57:06.004;599616221983789920;11157.391;176
2024-05-11T14:57:06.012;599616221991479410;11165.079;171
2024-05-11T14:57:06.019;599616221999168900;11172.77;130
2024-05-11T14:57:06.027;599616222006858390;11180.459;87
2024-05-11T14:57:06.035;599616222014547880;11188.148;67
2024-05-11T14:57:06.042;599616222022237370;11195.838;12
2024-05-11T14:57:06.050;599616222029926860;11203.527;-108
2024-05-11T14:57:06.058;599616222037616350;11211.217;-178
2024-05-11T14:57:06.065;599616222045305840;11218.906;-181
2024-05-11T14:57:06.073;599616222052995391;11226.596;-246
2024-05-11T14:57:06.081;599616222060684881;11234.285;-323
2024-05-11T14:57:06.088;599616222068374371;11241.975;-294
2024-05-11T14:57:06.096;599616222076063861;11249.664;-236
2024-05-11T14:57:06.104;599616222083753351;11257.3545;-232
2024-05-11T14:57:06.112;599616222091442841;11265.043;-232
2024-05-11T14:57:06.119;599616222099132331;11272.732;-207
2024-05-11T14:57:06.127;599616222106821821;11280.422;-205
2024-05-11T14:57:06.135;599616222114511311;11288.112;-261
2024-05-11T14:57:06.142;599616222122200801;11295.802;-277
2024-05-11T14:57:06.150;599616222129890291;11303.49;-91
2024-05-11T14:57:06.158;599616222137579781;11311.18;265
2024-05-11T14:57:06.165;599616222145269271;11318.87;478
2024-05-11T14:57:06.173;599616222152958761;11326.56;268
2024-05-11T14:57:06.181;599616222160648251;11334.248;-123
2024-05-11T14:57:06.188;599616222168337741;11341.938;-229
2024-05-11T14:57:06.196;599616222176027231;11349.628;-159
2024-05-11T14:57:06.204;599616222183716721;11357.317;-176
2024-05-11T14:57:06.212;599616222191406211;11365.006;-183
2024-05-11T14:57:06.219;599616222199095701;11372.696;-145
2024-05-11T14:57:06.227;599616222206785191;11380.386;-135
2024-05-11T14:57:06.235;599616222214474681;11388.075;-113
2024-05-11T14:57:06.242;599616222222164171;11395.765;-58
2024-05-11T14:57:06.250;599616222229853661;11403.454;-26
2024-05-11T14:57:06.258;599616222237543151;11411.144;-26
2024-05-11T14:57:06.265;599616222245232641;11418.833;-24
2024-05-11T14:57:06.273;599616222252922131;11426.522;7
2024-05-11T14:57:06.281;599616222260611621;11434.212;41
2024-05-11T14:57:06.288;599616222268301111;11441.901;55
2024-05-11T14:57:06.296;599616222275990601;11449.591;70
2024-05-11T14:57:06.304;599616222283680091;11457.281;94
2024-05-11T14:57:06.311;599616222291369581;11464.971;89
2024-05-11T14:57:06.319;599616222299059071;11472.659;58
2024-05-11T14:57:06.327;599616222306748561;11480.349;62
2024-05-11T14:57:06.335;599616222314438051;11488.039;111
2024-05-11T14:57:06.342;599616222322127541;11495.729;137
2024-05-11T14:57:06.350;599616222329817031;11503.417;130
2024-05-11T14:57:06.358;599616222337506521;11511.106;137
2024-05-11T14:57:06.365;599616222345196011;11518.797;174
2024-05-11T14:57:06.373;599616222352885501;11526.486;210
2024-05-11T14:57:06.381;599616222360574991;11534.175;232
2024-05-11T14:57:06.388;599616222368264481;11541.864;251
2024-05-11T14:57:06.396;599616222375953971;11549.555;268
2024-05-11T14:57:06.404;599616222383643461;11557.244;256
2024-05-11T14:57:06.411;599616222391332951;11564.934;236
2024-05-11T14:57:06.419;599616222399022441;11572.623;251
2024-05-11T14:57:06.427;599616222406711931;11580.3125;265
2024-05-11T14:57:06.435;599616222414401421;11588.002;236
2024-05-11T14:57:06.442;599616222422090911;11595.691;198
2024-05-11T14:57:06.450;599616222429780401;11603.381;176
2024-05-11T14:57:06.458;599616222437469891;11611.07;174
2024-05-11T14:57:06.465;599616222445159381;11618.76;174
2024-05-11T14:57:06.473;599616222452848871;11626.449;171
2024-05-11T14:57:06.481;599616222460538361;11634.139;190
2024-05-11T14:57:06.488;599616222468227851;11641.828;217
2024-05-11T14:57:06.496;599616222475917341;11649.518;210
2024-05-11T14:57:06.504;599616222483606831;11657.207;193
2024-05-11T14:57:06.511;599616222491296321;11664.897;217
2024-05-11T14:57:06.519;599616222498985811;11672.586;246
2024-05-11T14:57:06.527;599616222506675301;11680.275;248
2024-05-11T14:57:06.534;599616222514364791;11687.966;246
2024-05-11T14:57:06.542;599616222522054281;11695.655;248
2024-05-11T14:57:06.550;599616222529743771;11703.344;227
2024-05-11T14:57:06.558;599616222537433261;11711.033;142
2024-05-11T14:57:06.565;599616222545122751;11718.724;50
2024-05-11T14:57:06.573;599616222552812241;11726.413;45
2024-05-11T14:57:06.581;599616222560501731;11734.102;79
2024-05-11T14:57:06.588;599616222568191221;11741.791;72
2024-05-11T14:57:06.596;599616222575880711;11749.481;74
2024-05-11T14:57:06.604;599616222583570201;11757.171;123
2024-05-11T14:57:06.611;599616222591259691;11764.86;154
2024-05-11T14:57:06.619;599616222598949181;11772.549;152
2024-05-11T14:57:06.627;599616222606638671;11780.239;161
2024-05-11T14:57:06.634;599616222614343274;11787.944;183
2024-05-11T14:57:06.642;599616222622032555;11795.633;190
2024-05-11T14:57:06.650;599616222629721836;11803.322;195
2024-05-11T14:57:06.658;599616222637411117;11811.012;217
2024-05-11T14:57:06.665;599616222645100398;11818.701;248
2024-05-11T14:57:06.673;599616222652789679;11826.39;244
2024-05-11T14:57:06.681;599616222660478960;11834.079;212
2024-05-11T14:57:06.688;599616222668168241;11841.769;217
2024-05-11T14:57:06.696;599616222675857522;11849.458;251
2024-05-11T14:57:06.704;599616222683546803;11857.146;219
2024-05-11T14:57:06.711;599616222691236084;11864.836;120
2024-05-11T14:57:06.719;599616222698925365;11872.525;62
2024-05-11T14:57:06.727;599616222706614646;11880.216;67
2024-05-11T14:57:06.734;599616222714303927;11887.904;58
2024-05-11T14:57:06.742;599616222721993208;11895.594;43
2024-05-11T14:57:06.750;599616222729682489;11903.283;70
2024-05-11T14:57:06.757;599616222737371770;11910.973;94
2024-05-11T14:57:06.765;599616222745061051;11918.662;82
2024-05-11T14:57:06.773;599616222752750332;11926.351;62
2024-05-11T14:57:06.781;599616222760439613;11934.04;60
2024-05-11T14:57:06.788;599616222768128894;11941.7295;43
2024-05-11T14:57:06.796;599616222775818175;11949.419;2
2024-05-11T14:57:06.804;599616222783507456;11957.107;-48
2024-05-11T14:57:06.811;599616222791196737;11964.797;-132
2024-05-11T14:57:06.819;599616222798886018;11972.486;-207
2024-05-11T14:57:06.827;599616222806575299;11980.176;-203
2024-05-11T14:57:06.834;599616222814264580;11987.864;-176
2024-05-11T14:57:06.842;599616222821953861;11995.554;-161
2024-05-11T14:57:06.850;599616222829643142;12003.244;-140
2024-05-11T14:57:06.857;599616222837332423;12010.934;-147
2024-05-11T14:57:06.865;599616222845021704;12018.622;-169
2024-05-11T14:57:06.873;599616222852710985;12026.312;-147
2024-05-11T14:57:06.881;599616222860400266;12034.001;-113
2024-05-11T14:57:06.888;599616222868089547;12041.69;-108
2024-05-11T14:57:06.896;599616222875778828;12049.379;-96
2024-05-11T14:57:06.904;599616222883468109;12057.068;-74
2024-05-11T14:57:06.911;599616222891157390;12064.758;-79
2024-05-11T14:57:06.919;599616222898846671;12072.447;-87
2024-05-11T14:57:06.927;599616222906535952;12080.136;-53
2024-05-11T14:57:06.934;599616222914225233;12087.825;-19
2024-05-11T14:57:06.942;599616222921914514;12095.515;29
2024-05-11T14:57:06.950;599616222929603795;12103.204;178
2024-05-11T14:57:06.957;599616222937293076;12110.893;459
2024-05-11T14:57:06.965;599616222944982357;12118.583;655
2024-05-11T14:57:06.973;599616222952671638;12126.272;447
2024-05-11T14:57:06.980;599616222960360919;12133.962;45
2024-05-11T14:57:06.988;599616222968050200;12141.651;-16
2024-05-11T14:57:06.996;599616222975739481;12149.34;89
2024-05-11T14:57:07.004;599616222983428762;12157.029;24
2024-05-11T14:57:07.011;599616222991118043;12164.719;-31
2024-05-11T14:57:07.019;599616222998807324;12172.408;29
2024-05-11T14:57:07.027;599616223006496605;12180.097;67
2024-05-11T14:57:07.034;599616223014185886;12187.786;65
2024-05-11T14:57:07.042;599616223021875167;12195.476;72
2024-05-11T14:57:07.050;599616223029564448;12203.165;45
2024-05-11T14:57:07.057;599616223037253729;12210.854;-38
2024-05-11T14:57:07.065;599616223044943010;12218.543;-96
2024-05-11T14:57:07.073;599616223052632291;12226.232;-62
2024-05-11T14:57:07.080;599616223060321572;12233.922;-7
2024-05-11T14:57:07.088;599616223068010853;12241.611;2
2024-05-11T14:57:07.096;599616223075700134;12249.301;-12
2024-05-11T14:57:07.103;599616223083389415;12256.99;0
2024-05-11T14:57:07.111;599616223091078696;12264.68;45
2024-05-11T14:57:07.119;599616223098767977;12272.368;70
2024-05-11T14:57:07.127;599616223106457258;12280.058;79
2024-05-11T14:57:07.134;599616223114146539;12287.747;96
2024-05-11T14:57:07.142;599616223121835820;12295.437;113
2024-05-11T14:57:07.150;599616223129525101;12303.126;135
2024-05-11T14:57:07.157;599616223137214382;12310.814;159
2024-05-11T14:57:07.165;599616223144903663;12318.504;183
2024-05-11T14:57:07.173;599616223152592944;12326.193;217
2024-05-11T14:57:07.180;599616223160282225;12333.883;239
2024-05-11T14:57:07.188;599616223167971506;12341.571;232
2024-05-11T14:57:07.196;599616223175630752;12349.231;234
2024-05-11T14:57:07.203;599616223183320451;12356.921;261
2024-05-11T14:57:07.211;599616223191010150;12364.61;265
2024-05-11T14:57:07.219;599616223198699849;12372.301;251
2024-05-11T14:57:07.226;599616223206389548;12379.99;232
2024-05-11T14:57:07.234;599616223214079247;12387.68;193
2024-05-11T14:57:07.242;599616223221768946;12395.369;128
2024-05-11T14:57:07.250;599616223229458645;12403.059;50
2024-05-11T14:57:07.257;599616223237148344;12410.749;9
2024-05-11T14:57:07.265;599616223244838043;12418.438;24
2024-05-11T14:57:07.273;599616223252527742;12426.128;29
2024-05-11T14:57:07.280;599616223260217441;12433.817;12
2024-05-11T14:57:07.288;599616223267907140;12441.508;29
2024-05-11T14:57:07.296;599616223275596839;12449.197;50
2024-05-11T14:57:07.303;599616223283286538;12456.888;16
2024-05-11T14:57:07.311;599616223290976237;12464.576;-19
2024-05-11T14:57:07.319;599616223298665936;12472.267;4
2024-05-11T14:57:07.326;599616223306355635;12479.956;31
2024-05-11T14:57:07.334;599616223314045334;12487.646;33
2024-05-11T14:57:07.342;599616223321735033;12495.335;41
2024-05-11T14:57:07.350;599616223329424732;12503.025;62
2024-05-11T14:57:07.357;599616223337114431;12510.715;91
2024-05-11T14:57:07.365;599616223344804130;12518.404;103
2024-05-11T14:57:07.373;599616223352493829;12526.095;87
2024-05-11T14:57:07.380;599616223360183528;12533.783;94
2024-05-11T14:57:07.388;599616223367873227;12541.474;132
2024-05-11T14:57:07.396;599616223375562926;12549.163;147
2024-05-11T14:57:07.403;599616223383252625;12556.854;137
2024-05-11T14:57:07.411;599616223390942324;12564.542;149
2024-05-11T14:57:07.419;599616223398632023;12572.232;152
2024-05-11T14:57:07.426;599616223406321722;12579.922;128
2024-05-11T14:57:07.434;599616223414011421;12587.612;135
2024-05-11T14:57:07.442;599616223421701120;12595.302;181
2024-05-11T14:57:07.449;599616223429390819;12602.991;198
2024-05-11T14:57:07.457;599616223437080518;12610.681;176
2024-05-11T14:57:07.465;599616223444770217;12618.371;164
2024-05-11T14:57:07.473;599616223452459916;12626.061;181
2024-05-11T14:57:07.480;599616223460149615;12633.751;195
2024-05-11T14:57:07.488;599616223467839314;12641.439;193
2024-05-11T14:57:07.496;599616223475529013;12649.129;188
2024-05-11T14:57:07.503;599616223483218712;12656.819;205
2024-05-11T14:57:07.511;599616223490908411;12664.509;203
2024-05-11T14:57:07.519;599616223498598110;12672.198;178
2024-05-11T14:57:07.526;599616223506287809;12679.888;188
2024-05-11T14:57:07.534;599616223513977508;12687.578;224
2024-05-11T14:57:07.542;599616223521667207;12695.268;227
2024-05-11T14:57:07.549;599616223529356906;12702.958;149
2024-05-11T14:57:07.557;599616223537046605;12710.646;16
2024-05-11T14:57:07.565;599616223544736304;12718.337;-43
2024-05-11T14:57:07.573;599616223552426003;12726.026;-4
2024-05-11T14:57:07.580;599616223560115702;12733.717;24
2024-05-11T14:57:07.588;599616223567805401;12741.405;16
2024-05-11T14:57:07.596;599616223575495100;12749.096;2
2024-05-11T14:57:07.603;599616223583184799;12756.785;-24
2024-05-11T14:57:07.611;599616223590874498;12764.476;-48
2024-05-11T14:57:07.619;599616223598564197;12772.165;-41
2024-05-11T14:57:07.626;599616223606253896;12779.8545;-14
2024-05-11T14:57:07.634;599616223613943595;12787.544;2
2024-05-11T14:57:07.642;599616223621633294;12795.233;-4
2024-05-11T14:57:07.649;599616223629322993;12802.924;-12
2024-05-11T14:57:07.657;599616223637012692;12810.612;0
2024-05-11T14:57:07.665;599616223644702391;12818.303;-9
2024-05-11T14:57:07.672;599616223652392090;12825.992;-55
2024-05-11T14:57:07.680;599616223660081789;12833.683;-74
2024-05-11T14:57:07.688;599616223667771488;12841.372;-65
2024-05-11T14:57:07.696;599616223675461187;12849.062;31
2024-05-11T14:57:07.703;599616223683150886;12856.751;299
2024-05-11T14:57:07.711;599616223690840585;12864.441;524
2024-05-11T14:57:07.719;599616223698530284;12872.131;309
2024-05-11T14:57:07.726;599616223706219983;12879.82;-125
2024-05-11T14:57:07.734;599616223713909682;12887.51;-215
2024-05-11T14:57:07.742;599616223721599381;12895.2;-118
2024-05-11T14:57:07.749;599616223729289080;12902.89;-174
2024-05-11T14:57:07.757;599616223737008940;12910.609;-215
2024-05-11T14:57:07.765;599616223744698221;12918.299;-152
2024-05-11T14:57:07.772;599616223752387502;12925.988;-120
2024-05-11T14:57:07.780;599616223760076783;12933.677;-123
2024-05-11T14:57:07.788;599616223767766064;12941.366;-120
2024-05-11T14:57:07.796;599616223775455345;12949.056;-147
2024-05-11T14:57:07.803;599616223783144626;12956.745;-166
2024-05-11T14:57:07.811;599616223790833907;12964.434;-159
2024-05-11T14:57:07.819;599616223798523188;12972.123;-188
2024-05-11T14:57:07.826;599616223806212469;12979.813;-219
2024-05-11T14:57:07.834;599616223813901750;12987.503;-190
2024-05-11T14:57:07.842;599616223821591031;12995.191;-169
2024-05-11T14:57:07.849;599616223829280312;13002.881;-166
2024-05-11T14:57:07.857;599616223836969593;13010.57;-128
2024-05-11T14:57:07.865;599616223844658874;13018.26;-70
2024-05-11T14:57:07.872;599616223852348155;13025.948;-41
2024-05-11T14:57:07.880;599616223860037436;13033.638;-45
2024-05-11T14:57:07.888;599616223867726717;13041.327;-45
2024-05-11T14:57:07.896;599616223875415998;13049.017;7
2024-05-11T14:57:07.903;599616223883105279;13056.705;65
2024-05-11T14:57:07.911;599616223890794560;13064.395;67
2024-05-11T14:57:07.919;599616223898483841;13072.084;77
2024-05-11T14:57:07.926;599616223906173122;13079.773;111
2024-05-11T14:57:07.934;599616223913862403;13087.462;125
2024-05-11T14:57:07.942;599616223921551684;13095.151;140
2024-05-11T14:57:07.949;599616223929240965;13102.842;171
2024-05-11T14:57:07.957;599616223936930246;13110.531;183
2024-05-11T14:57:07.965;599616223944619527;13118.221;169
2024-05-11T14:57:07.972;599616223952308808;13125.909;145
2024-05-11T14:57:07.980;599616223959998089;13133.599;137
2024-05-11T14:57:07.988;599616223967687370;13141.288;135
2024-05-11T14:57:07.995;599616223975376651;13148.978;120
2024-05-11T14:57:08.003;599616223983065932;13156.666;118
2024-05-11T14:57:08.011;599616223990755213;13164.355;125
2024-05-11T14:57:08.019;599616223998444494;13172.045;120
2024-05-11T14:57:08.026;599616224006133775;13179.734;111
2024-05-11T14:57:08.034;599616224013823056;13187.423;103
2024-05-11T14:57:08.042;599616224021512337;13195.112;79
2024-05-11T14:57:08.049;599616224029201618;13202.802;60
2024-05-11T14:57:08.057;599616224036890899;13210.491;36
2024-05-11T14:57:08.065;599616224044580180;13218.181;-31
2024-05-11T14:57:08.072;599616224052269461;13225.87;-67
2024-05-11T14:57:08.080;599616224059958742;13233.56;-26
2024-05-11T14:57:08.088;599616224067648023;13241.249;-2
2024-05-11T14:57:08.095;599616224075337304;13248.9375;4
2024-05-11T14:57:08.103;599616224083026585;13256.627;41
2024-05-11T14:57:08.111;599616224090715866;13264.316;50
2024-05-11T14:57:08.119;599616224098405147;13272.006;43
2024-05-11T14:57:08.126;599616224106094428;13279.695;70
2024-05-11T14:57:08.134;599616224113783709;13287.384;106
2024-05-11T14:57:08.142;599616224121472990;13295.073;125
2024-05-11T14:57:08.149;599616224129162271;13302.763;120
2024-05-11T14:57:08.157;599616224136851552;13310.452;113
2024-05-11T14:57:08.165;599616224144540833;13318.141;142
2024-05-11T14:57:08.172;599616224152230114;13325.83;164
2024-05-11T14:57:08.180;599616224159919395;13333.52;164
2024-05-11T14:57:08.188;599616224167608676;13341.21;183
2024-05-11T14:57:08.195;599616224175297957;13348.898;212
2024-05-11T14:57:08.203;599616224182987238;13356.588;200
2024-05-11T14:57:08.211;599616224190676519;13364.277;186
2024-05-11T14:57:08.218;599616224198365800;13371.967;212
2024-05-11T14:57:08.226;599616224206055081;13379.655;251
2024-05-11T14:57:08.234;599616224213744362;13387.345;258
2024-05-11T14:57:08.242;599616224221433643;13395.034;246
2024-05-11T14:57:08.249;599616224229122924;13402.724;234
2024-05-11T14:57:08.257;599616224236812205;13410.412;244
2024-05-11T14:57:08.265;599616224244501486;13418.102;263
2024-05-11T14:57:08.272;599616224252190767;13425.791;273
2024-05-11T14:57:08.280;599616224259880048;13433.48;275
2024-05-11T14:57:08.288;599616224267569329;13441.169;234
2024-05-11T14:57:08.295;599616224275258610;13448.858;166
2024-05-11T14:57:08.303;599616224282947891;13456.548;161
2024-05-11T14:57:08.311;599616224290637172;13464.238;205
2024-05-11T14:57:08.318;599616224298296418;13471.896;222
2024-05-11T14:57:08.326;599616224305986117;13479.587;227
2024-05-11T14:57:08.334;599616224313675816;13487.276;246
2024-05-11T14:57:08.341;599616224321365515;13494.966;241
2024-05-11T14:57:08.349;599616224329055214;13502.655;215
2024-05-11T14:57:08.357;599616224336744913;13510.346;159
2024-05-11T14:57:08.365;599616224344434612;13518.035;101
2024-05-11T14:57:08.372;599616224352124311;13525.726;123
2024-05-11T14:57:08.380;599616224359814010;13533.414;174
2024-05-11T14:57:08.388;599616224367503709;13541.1045;154
2024-05-11T14:57:08.395;599616224375193408;13548.794;149
2024-05-11T14:57:08.403;599616224382883107;13556.483;200
2024-05-11T14:57:08.411;599616224390572806;13564.173;215
2024-05-11T14:57:08.418;599616224398262505;13571.862;203
2024-05-11T14:57:08.426;599616224405952204;13579.553;207
2024-05-11T14:57:08.434;599616224413641903;13587.242;212
2024-05-11T14:57:08.441;599616224421331602;13594.933;217
2024-05-11T14:57:08.449;599616224429021301;13602.621;227
2024-05-11T14:57:08.457;599616224436711000;13610.312;241
2024-05-11T14:57:08.465;599616224444400699;13618.001;268
2024-05-11T14:57:08.472;599616224452090398;13625.691;277
2024-05-11T14:57:08.480;599616224459780097;13633.38;239
2024-05-11T14:57:08.488;599616224467469796;13641.07;246
2024-05-11T14:57:08.495;599616224475159495;13648.76;406
2024-05-11T14:57:08.503;599616224482849194;13656.45;655
2024-05-11T14:57:08.511;599616224490538893;13664.14;838
2024-05-11T14:57:08.518;599616224498228592;13671.829;742
2024-05-11T14:57:08.526;599616224505918291;13679.519;357
2024-05-11T14:57:08.534;599616224513607990;13687.208;87
2024-05-11T14:57:08.541;599616224521297689;13694.898;82
2024-05-11T14:57:08.549;599616224528987388;13702.587;89
2024-05-11T14:57:08.557;599616224536677087;13710.277;29
2024-05-11T14:57:08.564;599616224544366786;13717.967;-50
2024-05-11T14:57:08.572;599616224552056485;13725.657;-123
2024-05-11T14:57:08.580;599616224559746184;13733.347;-140
2024-05-11T14:57:08.588;599616224567435883;13741.036;-132
2024-05-11T14:57:08.595;599616224575125582;13748.726;-157
2024-05-11T14:57:08.603;599616224582815281;13756.416;-207
2024-05-11T14:57:08.611;599616224590504980;13764.105;-224
2024-05-11T14:57:08.618;599616224598194679;13771.796;-207
2024-05-11T14:57:08.626;599616224605884378;13779.484;-210
2024-05-11T14:57:08.634;599616224613574077;13787.175;-212
2024-05-11T14:57:08.641;599616224621263776;13794.864;-181
2024-05-11T14:57:08.649;599616224628953475;13802.555;-154
2024-05-11T14:57:08.657;599616224636643174;13810.243;-169
2024-05-11T14:57:08.664;599616224644332873;13817.934;-169
2024-05-11T14:57:08.672;599616224652022572;13825.623;-132
2024-05-11T14:57:08.680;599616224659712271;13833.3125;-108
2024-05-11T14:57:08.688;599616224667401970;13841.003;-103
2024-05-11T14:57:08.695;599616224675091669;13848.691;-77
2024-05-11T14:57:08.703;599616224682781368;13856.382;-36
2024-05-11T14:57:08.711;599616224690471067;13864.071;-24
2024-05-11T14:57:08.718;599616224698160766;13871.762;-29
2024-05-11T14:57:08.726;599616224705850465;13879.45;4
2024-05-11T14:57:08.734;599616224713540164;13887.141;65
2024-05-11T14:57:08.741;599616224721229863;13894.83;79
2024-05-11T14:57:08.749;599616224728919562;13902.5205;55
2024-05-11T14:57:08.757;599616224736609261;13910.21;58
2024-05-11T14:57:08.764;599616224744298960;13917.899;84
2024-05-11T14:57:08.772;599616224751988659;13925.589;94
2024-05-11T14:57:08.780;599616224759678358;13933.279;67
2024-05-11T14:57:08.787;599616224767368057;13940.969;24
2024-05-11T14:57:08.795;599616224775057756;13948.658;4
2024-05-11T14:57:08.803;599616224782747455;13956.348;4
2024-05-11T14:57:08.811;599616224790437154;13964.037;2
2024-05-11T14:57:08.818;599616224798126853;13971.728;29
2024-05-11T14:57:08.826;599616224805816552;13979.417;72
2024-05-11T14:57:08.834;599616224813506251;13987.106;77
2024-05-11T14:57:08.841;599616224821195950;13994.796;62
2024-05-11T14:57:08.849;599616224828885649;14002.486;82
2024-05-11T14:57:08.857;599616224836575348;14010.176;118
2024-05-11T14:57:08.864;599616224844265047;14017.866;132
2024-05-11T14:57:08.872;599616224851954746;14025.555;137
2024-05-11T14:57:08.880;599616224859674606;14033.274;174
2024-05-11T14:57:08.887;599616224867363887;14040.964;200
2024-05-11T14:57:08.895;599616224875053168;14048.653;178
2024-05-11T14:57:08.903;599616224882742449;14056.343;166
2024-05-11T14:57:08.911;599616224890431730;14064.032;195
2024-05-11T14:57:08.918;599616224898121011;14071.721;222
2024-05-11T14:57:08.926;599616224905810292;14079.411;224
2024-05-11T14:57:08.934;599616224913499573;14087.101;217
2024-05-11T14:57:08.941;599616224921188854;14094.79;215
2024-05-11T14:57:08.949;599616224928878135;14102.479;212
2024-05-11T14:57:08.957;599616224936567416;14110.168;166
2024-05-11T14:57:08.964;599616224944256697;14117.857;96
2024-05-11T14:57:08.972;599616224951945978;14125.547;118
2024-05-11T14:57:08.980;599616224959635259;14133.235;164
2024-05-11T14:57:08.987;599616224967324540;14140.925;137
2024-05-11T14:57:08.995;599616224975013821;14148.614;120
2024-05-11T14:57:09.003;599616224982703102;14156.304;161
2024-05-11T14:57:09.010;599616224990392383;14163.992;181
2024-05-11T14:57:09.018;599616224998081664;14171.682;171
2024-05-11T14:57:09.026;599616225005770945;14179.371;140
2024-05-11T14:57:09.034;599616225013460226;14187.061;91
2024-05-11T14:57:09.041;599616225021149507;14194.749;87
2024-05-11T14:57:09.049;599616225028838788;14202.439;101
2024-05-11T14:57:09.057;599616225036528069;14210.129;101
2024-05-11T14:57:09.064;599616225044217350;14217.818;87
2024-05-11T14:57:09.072;599616225051906631;14225.508;16
2024-05-11T14:57:09.080;599616225059595912;14233.196;-55
2024-05-11T14:57:09.087;599616225067285193;14240.886;-33
2024-05-11T14:57:09.095;599616225074974474;14248.575;24
2024-05-11T14:57:09.103;599616225082663755;14256.265;29
2024-05-11T14:57:09.110;599616225090353036;14263.953;24
2024-05-11T14:57:09.118;599616225098042317;14271.643;53
2024-05-11T14:57:09.126;599616225105731598;14279.332;74
2024-05-11T14:57:09.134;599616225113420879;14287.021;72
2024-05-11T14:57:09.141;599616225121110160;14294.71;89
2024-05-11T14:57:09.149;599616225128799441;14302.399;116
2024-05-11T14:57:09.157;599616225136488722;14310.089;137
2024-05-11T14:57:09.164;599616225144178003;14317.779;142
2024-05-11T14:57:09.172;599616225151867284;14325.468;123
2024-05-11T14:57:09.180;599616225159556565;14333.157;132
2024-05-11T14:57:09.187;599616225167245846;14340.847;178
2024-05-11T14:57:09.195;599616225174935127;14348.536;198
2024-05-11T14:57:09.203;599616225182624408;14356.225;186
2024-05-11T14:57:09.210;599616225190313689;14363.914;205
2024-05-11T14:57:09.218;599616225198002970;14371.604;232
2024-05-11T14:57:09.226;599616225205692251;14379.293;219
2024-05-11T14:57:09.233;599616225213381532;14386.981;212
2024-05-11T14:57:09.241;599616225221070813;14394.671;239
2024-05-11T14:57:09.249;599616225228760094;14402.36;261
2024-05-11T14:57:09.257;599616225236449375;14410.05;244
2024-05-11T14:57:09.264;599616225244138656;14417.738;215
2024-05-11T14:57:09.272;599616225251827937;14425.428;193
2024-05-11T14:57:09.280;599616225259517218;14433.117;169
2024-05-11T14:57:09.287;599616225267206499;14440.808;159
2024-05-11T14:57:09.295;599616225274895780;14448.497;169
2024-05-11T14:57:09.303;599616225282585061;14456.186;178
2024-05-11T14:57:09.310;599616225290274342;14463.875;188
2024-05-11T14:57:09.318;599616225297963623;14471.564;258
2024-05-11T14:57:09.326;599616225305652904;14479.254;483
2024-05-11T14:57:09.333;599616225313342185;14486.942;763
2024-05-11T14:57:09.341;599616225321031466;14494.632;758
2024-05-11T14:57:09.349;599616225328720747;14502.321;418
2024-05-11T14:57:09.357;599616225336410028;14510.011;178
2024-05-11T14:57:09.364;599616225344099309;14517.699;186
2024-05-11T14:57:09.372;599616225351788590;14525.389;159
2024-05-11T14:57:09.380;599616225359477871;14533.078;67
2024-05-11T14:57:09.387;599616225367167152;14540.768;70
2024-05-11T14:57:09.395;599616225374856433;14548.456;106
2024-05-11T14:57:09.403;599616225382545714;14556.1455;87
2024-05-11T14:57:09.410;599616225390234995;14563.836;67
2024-05-11T14:57:09.418;599616225397924276;14571.525;89
2024-05-11T14:57:09.426;599616225405613557;14579.214;108
2024-05-11T14:57:09.433;599616225413302838;14586.903;108
2024-05-11T14:57:09.441;599616225420962084;14594.5625;79
2024-05-11T14:57:09.449;599616225428651783;14602.252;26
2024-05-11T14:57:09.456;599616225436341482;14609.941;9
2024-05-11T14:57:09.464;599616225444031181;14617.632;-4
2024-05-11T14:57:09.472;599616225451720880;14625.321;-55
2024-05-11T14:57:09.480;599616225459410579;14633.011;-60
2024-05-11T14:57:09.487;599616225467100278;14640.7;-53
2024-05-11T14:57:09.495;599616225474789977;14648.391;-135
2024-05-11T14:57:09.503;599616225482479676;14656.08;-224
2024-05-11T14:57:09.510;599616225490169375;14663.7705;-205
2024-05-11T14:57:09.518;599616225497859074;14671.459;-193
2024-05-11T14:57:09.526;599616225505548773;14679.149;-258
2024-05-11T14:57:09.533;599616225513238472;14686.839;-261
2024-05-11T14:57:09.541;599616225520928171;14694.529;-203
2024-05-11T14:57:09.549;599616225528617870;14702.218;-178
2024-05-11T14:57:09.556;599616225536307569;14709.908;-174
2024-05-11T14:57:09.564;599616225543997268;14717.598;-140
2024-05-11T14:57:09.572;599616225551686967;14725.287;-145
2024-05-11T14:57:09.579;599616225559376666;14732.978;-234
2024-05-11T14:57:09.587;599616225567066365;14740.666;-297
2024-05-11T14:57:09.595;599616225574756064;14748.356;-263
2024-05-11T14:57:09.603;599616225582445763;14756.046;-224
2024-05-11T14:57:09.610;599616225590135462;14763.736;-222
2024-05-11T14:57:09.618;599616225597825161;14771.425;-222
2024-05-11T14:57:09.626;599616225605514860;14779.115;-207
2024-05-11T14:57:09.633;599616225613204559;14786.805;-198
2024-05-11T14:57:09.641;599616225620894258;14794.495;-190
2024-05-11T14:57:09.649;599616225628583957;14802.185;-166
2024-05-11T14:57:09.656;599616225636273656;14809.874;-132
2024-05-11T14:57:09.664;599616225643963355;14817.563;-89
2024-05-11T14:57:09.672;599616225651653054;14825.254;-67
2024-05-11T14:57:09.679;599616225659342753;14832.943;-72
2024-05-11T14:57:09.687;599616225667032452;14840.634;-53
2024-05-11T14:57:09.695;599616225674722151;14848.322;-2
2024-05-11T14:57:09.703;599616225682411850;14856.013;24
2024-05-11T14:57:09.710;599616225690101549;14863.702;24
2024-05-11T14:57:09.718;599616225697791248;14871.392;45
2024-05-11T14:57:09.726;599616225705480947;14879.081;60
2024-05-11T14:57:09.733;599616225713170646;14886.7705;58
2024-05-11T14:57:09.741;599616225720860345;14894.461;60
2024-05-11T14:57:09.749;599616225728550044;14902.15;82
2024-05-11T14:57:09.756;599616225736239743;14909.841;111
2024-05-11T14:57:09.764;599616225743929442;14917.529;94
2024-05-11T14:57:09.772;599616225751619141;14925.22;36
2024-05-11T14:57:09.779;599616225759308840;14932.909;33
2024-05-11T14:57:09.787;599616225766998539;14940.6;87
2024-05-11T14:57:09.795;599616225774688238;14948.288;103
2024-05-11T14:57:09.802;599616225782377937;14955.979;94
2024-05-11T14:57:09.810;599616225790067636;14963.668;113
2024-05-11T14:57:09.818;599616225797757335;14971.358;130
2024-05-11T14:57:09.826;599616225805447034;14979.048;132
2024-05-11T14:57:09.833;599616225813136733;14986.737;147
2024-05-11T14:57:09.841;599616225820826432;14994.427;166
2024-05-11T14:57:09.849;599616225828516131;15002.116;176
2024-05-11T14:57:09.856;599616225836205830;15009.807;174
2024-05-11T14:57:09.864;599616225843895529;15017.495;166
2024-05-11T14:57:09.872;599616225851585228;15025.186;176
2024-05-11T14:57:09.879;599616225859274927;15032.875;203
2024-05-11T14:57:09.887;599616225866964626;15040.565;207
2024-05-11T14:57:09.895;599616225874654325;15048.255;205
2024-05-11T14:57:09.902;599616225882344024;15055.944;224
2024-05-11T14:57:09.910;599616225890033723;15063.634;224
2024-05-11T14:57:09.918;599616225897723422;15071.324;207
2024-05-11T14:57:09.926;599616225905413121;15079.014;217
2024-05-11T14:57:09.933;599616225913102820;15086.704;241
2024-05-11T14:57:09.941;599616225920792519;15094.393;258
2024-05-11T14:57:09.949;599616225928482218;15102.083;251
2024-05-11T14:57:09.956;599616225936171917;15109.772;236
2024-05-11T14:57:09.964;599616225943861616;15117.463;239
2024-05-11T14:57:09.972;599616225951551315;15125.151;258
2024-05-11T14:57:09.979;599616225959241014;15132.841;263
2024-05-11T14:57:09.987;599616225966930713;15140.531;268
2024-05-11T14:57:09.995;599616225974620412;15148.221;275
2024-05-11T14:57:10.002;599616225982340272;15155.94;268
2024-05-11T14:57:10.010;599616225990029553;15163.63;241
2024-05-11T14:57:10.018;599616225997718834;15171.318;217
2024-05-11T14:57:10.026;599616226005408115;15179.009;229
2024-05-11T14:57:10.033;599616226013097396;15186.698;253
2024-05-11T14:57:10.041;599616226020786677;15194.388;239
2024-05-11T14:57:10.049;599616226028475958;15202.077;205
2024-05-11T14:57:10.056;599616226036165239;15209.766;198
2024-05-11T14:57:10.064;599616226043854520;15217.455;166
2024-05-11T14:57:10.072;599616226051543801;15225.145;89
2024-05-11T14:57:10.079;599616226059233082;15232.834;33
2024-05-11T14:57:10.087;599616226066922363;15240.522;-26
2024-05-11T14:57:10.095;599616226074611644;15248.212;-94
2024-05-11T14:57:10.102;599616226082300925;15255.901;-79
2024-05-11T14:57:10.110;599616226089990206;15263.591;-24
2024-05-11T14:57:10.118;599616226097679487;15271.279;-9
2024-05-11T14:57:10.125;599616226105368768;15278.969;12
2024-05-11T14:57:10.133;599616226113058049;15286.658;123
2024-05-11T14:57:10.141;599616226120747330;15294.348;362
2024-05-11T14:57:10.149;599616226128436611;15302.037;609
2024-05-11T14:57:10.156;599616226136125892;15309.727;555
2024-05-11T14:57:10.164;599616226143815173;15317.416;217
2024-05-11T14:57:10.172;599616226151504454;15325.105;50
2024-05-11T14:57:10.179;599616226159193735;15332.794;108
2024-05-11T14:57:10.187;599616226166883016;15340.483;82
2024-05-11T14:57:10.195;599616226174572297;15348.173;29
2024-05-11T14:57:10.202;599616226182261578;15355.862;79
2024-05-11T14:57:10.210;599616226189950859;15363.551;123
2024-05-11T14:57:10.218;599616226197640140;15371.24;106
2024-05-11T14:57:10.225;599616226205329421;15378.93;82
2024-05-11T14:57:10.233;599616226213018702;15386.619;55
2024-05-11T14:57:10.241;599616226220707983;15394.308;41
2024-05-11T14:57:10.248;599616226228397264;15401.997;41
2024-05-11T14:57:10.256;599616226236086545;15409.687;9
2024-05-11T14:57:10.264;599616226243775826;15417.377;-36
2024-05-11T14:57:10.272;599616226251465107;15425.066;-38
2024-05-11T14:57:10.279;599616226259154388;15432.755;-31
2024-05-11T14:57:10.287;599616226266843669;15440.444;-29
2024-05-11T14:57:10.295;599616226274532950;15448.134;-7
2024-05-11T14:57:10.302;599616226282222231;15455.823;-14
2024-05-11T14:57:10.310;599616226289911512;15463.512;-62
2024-05-11T14:57:10.318;599616226297600793;15471.201;-82
2024-05-11T14:57:10.325;599616226305290074;15478.891;-103
2024-05-11T14:57:10.333;599616226312979355;15486.58;-145
2024-05-11T14:57:10.341;599616226320668636;15494.269;-142
2024-05-11T14:57:10.348;599616226328357917;15501.958;-101
2024-05-11T14:57:10.356;599616226336047198;15509.647;-82
2024-05-11T14:57:10.364;599616226343736479;15517.337;-87
2024-05-11T14:57:10.372;599616226351425760;15525.025;-106
2024-05-11T14:57:10.379;599616226359115041;15532.715;-101
2024-05-11T14:57:10.387;599616226366804322;15540.405;-70
2024-05-11T14:57:10.395;599616226374493603;15548.095;-62
2024-05-11T14:57:10.402;599616226382182884;15555.783;-74
2024-05-11T14:57:10.410;599616226389872165;15563.473;-70
2024-05-11T14:57:10.418;599616226397561446;15571.162;-91
2024-05-11T14:57:10.425;599616226405250727;15578.852;-130
2024-05-11T14:57:10.433;599616226412940008;15586.541;-132
2024-05-11T14:57:10.441;599616226420629289;15594.2295;-106
2024-05-11T14:57:10.448;599616226428318570;15601.919;-96
2024-05-11T14:57:10.456;599616226436007851;15609.608;-108
2024-05-11T14:57:10.464;599616226443697132;15617.298;-123
2024-05-11T14:57:10.471;599616226451386413;15624.986;-103
2024-05-11T14:57:10.479;599616226459075694;15632.676;-70
2024-05-11T14:57:10.487;599616226466764975;15640.365;-60
2024-05-11T14:57:10.495;599616226474454256;15648.055;-55
2024-05-11T14:57:10.502;599616226482143537;15655.743;-65
2024-05-11T14:57:10.510;599616226489832818;15663.434;-123
2024-05-11T14:57:10.518;599616226497522099;15671.123;-152
2024-05-11T14:57:10.525;599616226505211380;15678.8125;-108
2024-05-11T14:57:10.533;599616226512900661;15686.501;-67
2024-05-11T14:57:10.541;599616226520589942;15694.19;-62
2024-05-11T14:57:10.548;599616226528279223;15701.88;-70
2024-05-11T14:57:10.556;599616226535968504;15709.569;-62
2024-05-11T14:57:10.564;599616226543657846;15717.258;-41
2024-05-11T14:57:10.571;599616226551347127;15724.947;-24
2024-05-11T14:57:10.579;599616226559036408;15732.637;-24
2024-05-11T14:57:10.587;599616226566725689;15740.326;-60
2024-05-11T14:57:10.595;599616226574414970;15748.015;-137
2024-05-11T14:57:10.602;599616226582104251;15755.704;-217
2024-05-11T14:57:10.610;599616226589793532;15763.394;-273
2024-05-11T14:57:10.618;599616226597482813;15771.083;-275
2024-05-11T14:57:10.625;599616226605172094;15778.773;-222
2024-05-11T14:57:10.633;599616226612861375;15786.462;-188
2024-05-11T14:57:10.641;599616226620550656;15794.151;-198
2024-05-11T14:57:10.648;599616226628239937;15801.841;-188
2024-05-11T14:57:10.656;599616226635929218;15809.53;-149
2024-05-11T14:57:10.664;599616226643618499;15817.219;-125
2024-05-11T14:57:10.671;599616226651307780;15824.908;-113
2024-05-11T14:57:10.679;599616226658997061;15832.598;-79
2024-05-11T14:57:10.687;599616226666686342;15840.287;-50
2024-05-11T14:57:10.694;599616226674375623;15847.976;-58
2024-05-11T14:57:10.702;599616226682064904;15855.665;-58
2024-05-11T14:57:10.710;599616226689754185;15863.3545;-19
2024-05-11T14:57:10.718;599616226697443466;15871.044;12
2024-05-11T14:57:10.725;599616226705132747;15878.732;19
2024-05-11T14:57:10.733;599616226712822028;15886.422;26
2024-05-11T14:57:10.741;599616226720511309;15894.112;31
2024-05-11T14:57:10.748;599616226728200590;15901.802;7
2024-05-11T14:57:10.756;599616226735889871;15909.49;-38
2024-05-11T14:57:10.764;599616226743579152;15917.18;-36
2024-05-11T14:57:10.771;599616226751268433;15924.869;14
2024-05-11T14:57:10.779;599616226758957714;15932.559;41
2024-05-11T14:57:10.787;599616226766646995;15940.247;21
2024-05-11T14:57:10.794;599616226774336276;15947.937;21
2024-05-11T14:57:10.802;599616226782025557;15955.626;55
2024-05-11T14:57:10.810;599616226789714838;15963.315;74
