Phone timestamp;sensor timestamp [ns];timestamp [ms];ecg [uV]
2024-05-11T14:38:35.784;599616065599876612;0.0;1082
2024-05-11T14:38:35.791;599616065607568402;7.69179;2715
2024-05-11T14:38:35.799;599616065615260192;15.38358;4006
2024-05-11T14:38:35.807;599616065622951982;23.07537;4828
2024-05-11T14:38:35.814;599616065630643772;30.76716;5708
2024-05-11T14:38:35.822;599616065638335562;38.458954;6504
2024-05-11T14:38:35.830;599616065646027352;46.15074;7118
2024-05-11T14:38:35.837;599616065653719142;53.84253;7781
2024-05-11T14:38:35.845;599616065661410932;61.53432;8488
2024-05-11T14:38:35.853;599616065669102722;69.22611;8998
2024-05-11T14:38:35.860;599616065676794512;76.91791;9337
2024-05-11T14:38:35.868;599616065684486302;84.60969;9785
2024-05-11T14:38:35.876;599616065692178092;92.30148;10357
2024-05-11T14:38:35.883;599616065699869882;99.99327;10843
2024-05-11T14:38:35.891;599616065707561672;107.68506;11134
2024-05-11T14:38:35.899;599616065715253462;115.37685;11324
2024-05-11T14:38:35.907;599616065722945252;123.06864;11571
2024-05-11T14:38:35.914;599616065730637042;130.76044;11829
2024-05-11T14:38:35.922;599616065738328832;138.45222;12079
2024-05-11T14:38:35.930;599616065746020622;146.14401;12403
2024-05-11T14:38:35.937;599616065753712412;153.83582;12716
2024-05-11T14:38:35.945;599616065761404202;161.52759;12901
2024-05-11T14:38:35.953;599616065769095992;169.21938;13067
2024-05-11T14:38:35.960;599616065776787782;176.91116;13315
2024-05-11T14:38:35.968;599616065784479572;184.60297;13512
2024-05-11T14:38:35.976;599616065792171362;192.29475;13625
2024-05-11T14:38:35.983;599616065799863152;199.98654;13863
2024-05-11T14:38:35.991;599616065807554942;207.67833;14135
2024-05-11T14:38:35.999;599616065815246732;215.37012;14188
2024-05-11T14:38:36.007;599616065822938522;223.0619;14200
2024-05-11T14:38:36.014;599616065830630312;230.7537;14399
2024-05-11T14:38:36.022;599616065838322102;238.4455;14618
2024-05-11T14:38:36.030;599616065846013892;246.13728;14714
2024-05-11T14:38:36.037;599616065853705682;253.82907;14770
2024-05-11T14:38:36.045;599616065861397472;261.52087;14861
2024-05-11T14:38:36.053;599616065869089262;269.21265;14964
2024-05-11T14:38:36.060;599616065876781052;276.90445;15001
2024-05-11T14:38:36.068;599616065884472842;284.59622;15020
2024-05-11T14:38:36.076;599616065892164632;292.28802;15186
2024-05-11T14:38:36.083;599616065899856422;299.9798;15402
2024-05-11T14:38:36.091;599616065907548212;307.67163;15443
2024-05-11T14:38:36.099;599616065915240002;315.3634;15335
2024-05-11T14:38:36.107;599616065922931792;323.05518;15263
2024-05-11T14:38:36.114;599616065930623582;330.74698;15306
2024-05-11T14:38:36.122;599616065938315372;338.43875;15335
2024-05-11T14:38:36.130;599616065946007162;346.13055;15306
2024-05-11T14:38:36.137;599616065953698952;353.82233;15311
2024-05-11T14:38:36.145;599616065961390742;361.51413;15332
2024-05-11T14:38:36.153;599616065969082532;369.20593;15277
2024-05-11T14:38:36.160;599616065976774322;376.8977;15246
2024-05-11T14:38:36.168;599616065984466112;384.5895;15356
2024-05-11T14:38:36.176;599616065992157902;392.28128;15395
2024-05-11T14:38:36.183;599616065999849692;399.97308;15229
2024-05-11T14:38:36.191;599616066007541482;407.66486;15147
2024-05-11T14:38:36.199;599616066015233272;415.35666;15236
2024-05-11T14:38:36.207;599616066022925062;423.04846;15251
2024-05-11T14:38:36.214;599616066030616852;430.74023;15179
2024-05-11T14:38:36.222;599616066038308642;438.43204;15140
2024-05-11T14:38:36.230;599616066046000432;446.1238;15102
2024-05-11T14:38:36.237;599616066053692222;453.8156;15003
2024-05-11T14:38:36.245;599616066061384012;461.5074;14878
2024-05-11T14:38:36.253;599616066069075802;469.1992;14847
2024-05-11T14:38:36.260;599616066076767592;476.891;14926
2024-05-11T14:38:36.268;599616066084459382;484.5828;14868
2024-05-11T14:38:36.276;599616066092151172;492.27457;14633
2024-05-11T14:38:36.283;599616066099842962;499.96634;14544
2024-05-11T14:38:36.291;599616066107534752;507.65814;14589
2024-05-11T14:38:36.299;599616066115226542;515.3499;14496
2024-05-11T14:38:36.307;599616066122918332;523.04175;14385
2024-05-11T14:38:36.314;599616066130610122;530.7335;14395
2024-05-11T14:38:36.322;599616066138301912;538.4253;14332
2024-05-11T14:38:36.330;599616066145993702;546.1171;14205
2024-05-11T14:38:36.337;599616066153685492;553.8089;14193
2024-05-11T14:38:36.345;599616066161407390;561.53076;14135
2024-05-11T14:38:36.353;599616066169098762;569.22217;13930
2024-05-11T14:38:36.360;599616066176790134;576.9135;13743
2024-05-11T14:38:36.368;599616066184481506;584.60486;13579
2024-05-11T14:38:36.376;599616066192172878;592.29626;13495
2024-05-11T14:38:36.383;599616066199864250;599.9877;13620
2024-05-11T14:38:36.391;599616066207555622;607.679;13589
2024-05-11T14:38:36.399;599616066215246994;615.37036;13202
2024-05-11T14:38:36.407;599616066222938366;623.06177;13070
2024-05-11T14:38:36.414;599616066230629738;630.7532;13171
2024-05-11T14:38:36.422;599616066238321110;638.44446;13031
2024-05-11T14:38:36.430;599616066246012482;646.13586;13094
2024-05-11T14:38:36.437;599616066253703854;653.8273;13433
2024-05-11T14:38:36.445;599616066261395226;661.5186;13118
2024-05-11T14:38:36.453;599616066269086598;669.20996;12197
2024-05-11T14:38:36.460;599616066276777970;676.90137;11800
2024-05-11T14:38:36.468;599616066284469342;684.5927;11954
2024-05-11T14:38:36.476;599616066292160714;692.2841;11910
2024-05-11T14:38:36.483;599616066299852086;699.97546;11687
2024-05-11T14:38:36.491;599616066307543458;707.6668;11586
2024-05-11T14:38:36.499;599616066315234830;715.3582;11564
2024-05-11T14:38:36.507;599616066322926202;723.0496;11384
2024-05-11T14:38:36.514;599616066330617574;730.74097;11081
2024-05-11T14:38:36.522;599616066338308946;738.4323;10951
2024-05-11T14:38:36.530;599616066346000318;746.1237;10953
2024-05-11T14:38:36.537;599616066353691690;753.8151;10855
2024-05-11T14:38:36.545;599616066361383062;761.5064;10684
2024-05-11T14:38:36.553;599616066369074434;769.1978;10557
2024-05-11T14:38:36.560;599616066376765806;776.8892;10499
2024-05-11T14:38:36.568;599616066384457178;784.58057;10407
2024-05-11T14:38:36.576;599616066392148550;792.2719;10306
2024-05-11T14:38:36.583;599616066399839922;799.9633;10333
2024-05-11T14:38:36.591;599616066407531294;807.65466;10256
2024-05-11T14:38:36.599;599616066415222666;815.34607;9922
2024-05-11T14:38:36.607;599616066422914038;823.0374;9722
2024-05-11T14:38:36.614;599616066430605410;830.72876;9748
2024-05-11T14:38:36.622;599616066438296782;838.42017;9710
2024-05-11T14:38:36.630;599616066445988154;846.1116;9595
2024-05-11T14:38:36.637;599616066453679526;853.8029;9506
2024-05-11T14:38:36.645;599616066461370898;861.49426;9426
2024-05-11T14:38:36.653;599616066469062270;869.18567;9349
2024-05-11T14:38:36.660;599616066476753642;876.8771;9253
2024-05-11T14:38:36.668;599616066484445014;884.56836;9152
2024-05-11T14:38:36.676;599616066492136386;892.25977;9133
2024-05-11T14:38:36.683;599616066499827758;899.9512;9090
2024-05-11T14:38:36.691;599616066507519130;907.6425;8904
2024-05-11T14:38:36.699;599616066515210502;915.33386;8751
2024-05-11T14:38:36.707;599616066522901874;923.02527;8722
2024-05-11T14:38:36.714;599616066530593246;930.7166;8654
2024-05-11T14:38:36.722;599616066538284618;938.408;8527
2024-05-11T14:38:36.730;599616066545975990;946.09937;8416
2024-05-11T14:38:36.737;599616066553667362;953.7907;8313
2024-05-11T14:38:36.745;599616066561358734;961.4821;8205
2024-05-11T14:38:36.753;599616066569050106;969.1735;8099
2024-05-11T14:38:36.760;599616066576741478;976.86487;8017
2024-05-11T14:38:36.768;599616066584432850;984.5562;7995
2024-05-11T14:38:36.776;599616066592124222;992.2476;7921
2024-05-11T14:38:36.783;599616066599815594;999.939;7753
2024-05-11T14:38:36.791;599616066607506966;1007.6303;7652
2024-05-11T14:38:36.799;599616066615198338;1015.3217;7635
2024-05-11T14:38:36.807;599616066622889710;1023.0131;7553
2024-05-11T14:38:36.814;599616066630581082;1030.7045;7440
2024-05-11T14:38:36.822;599616066638272454;1038.3959;7385
2024-05-11T14:38:36.830;599616066645963826;1046.0873;7322
2024-05-11T14:38:36.837;599616066653655198;1053.7786;7163
2024-05-11T14:38:36.845;599616066661346570;1061.47;6993
2024-05-11T14:38:36.853;599616066669037942;1069.1614;6937
2024-05-11T14:38:36.860;599616066676729314;1076.8528;6928
2024-05-11T14:38:36.868;599616066684420686;1084.5441;6817
2024-05-11T14:38:36.876;599616066692112058;1092.2354;6666
2024-05-11T14:38:36.883;599616066699803430;1099.9268;6654
2024-05-11T14:38:36.891;599616066707494802;1107.6182;6639
2024-05-11T14:38:36.899;599616066715186174;1115.3096;6399
2024-05-11T14:38:36.907;599616066722877554;1123.001;6194
2024-05-11T14:38:36.914;599616066730568926;1130.6924;6189
2024-05-11T14:38:36.922;599616066738260298;1138.3838;6127
2024-05-11T14:38:36.930;599616066745951670;1146.075;5983
2024-05-11T14:38:36.937;599616066753643042;1153.7664;5918
2024-05-11T14:38:36.945;599616066761334414;1161.4578;5915
2024-05-11T14:38:36.953;599616066769025786;1169.1492;5884
2024-05-11T14:38:36.960;599616066776717158;1176.8406;5783
2024-05-11T14:38:36.968;599616066784408530;1184.532;5656
2024-05-11T14:38:36.976;599616066792099902;1192.2233;5639
2024-05-11T14:38:36.983;599616066799791274;1199.9147;5622
2024-05-11T14:38:36.991;599616066807482646;1207.606;5410
2024-05-11T14:38:36.999;599616066815174018;1215.2974;5240
2024-05-11T14:38:37.006;599616066822865390;1222.9888;5240
2024-05-11T14:38:37.014;599616066830556762;1230.6802;5167
2024-05-11T14:38:37.022;599616066838248134;1238.3716;5030
2024-05-11T14:38:37.030;599616066845939506;1246.0629;5006
2024-05-11T14:38:37.037;599616066853630878;1253.7543;5009
2024-05-11T14:38:37.045;599616066861322250;1261.4457;4951
2024-05-11T14:38:37.053;599616066869013622;1269.1371;4862
2024-05-11T14:38:37.060;599616066876704994;1276.8284;4780
2024-05-11T14:38:37.068;599616066884396366;1284.5198;4751
2024-05-11T14:38:37.076;599616066892087738;1292.211;4742
2024-05-11T14:38:37.083;599616066899779110;1299.9025;4653
2024-05-11T14:38:37.091;599616066907470482;1307.5939;4530
2024-05-11T14:38:37.099;599616066915161854;1315.2853;4480
2024-05-11T14:38:37.106;599616066922853226;1322.9767;4419
2024-05-11T14:38:37.114;599616066930544598;1330.6681;4328
2024-05-11T14:38:37.122;599616066938235970;1338.3593;4297
2024-05-11T14:38:37.130;599616066945927342;1346.0507;4294
2024-05-11T14:38:37.137;599616066953618714;1353.7421;4239
2024-05-11T14:38:37.145;599616066961310086;1361.4335;4150
2024-05-11T14:38:37.153;599616066969001458;1369.1249;4095
2024-05-11T14:38:37.160;599616066976692830;1376.8163;4073
2024-05-11T14:38:37.168;599616066984384202;1384.5077;4015
2024-05-11T14:38:37.176;599616066992075574;1392.1989;3943
2024-05-11T14:38:37.183;599616066999766946;1399.8903;3934
2024-05-11T14:38:37.191;599616067007458318;1407.5817;3910
2024-05-11T14:38:37.199;599616067015149690;1415.2731;3801
2024-05-11T14:38:37.206;599616067022841062;1422.9645;3727
2024-05-11T14:38:37.214;599616067030532434;1430.6559;3720
2024-05-11T14:38:37.222;599616067038223806;1438.3472;3684
2024-05-11T14:38:37.230;599616067045915178;1446.0386;3616
2024-05-11T14:38:37.237;599616067053606550;1453.73;3554
2024-05-11T14:38:37.245;599616067061297922;1461.4213;3498
2024-05-11T14:38:37.253;599616067068989294;1469.1127;3460
2024-05-11T14:38:37.260;599616067076680666;1476.8041;3412
2024-05-11T14:38:37.268;599616067084372038;1484.4955;3357
2024-05-11T14:38:37.276;599616067092063410;1492.1868;3345
2024-05-11T14:38:37.283;599616067099754782;1499.8782;3313
2024-05-11T14:38:37.291;599616067107446154;1507.5696;3234
2024-05-11T14:38:37.299;599616067115137526;1515.261;3193
2024-05-11T14:38:37.306;599616067122828898;1522.9523;3193
2024-05-11T14:38:37.314;599616067130520270;1530.6437;3169
2024-05-11T14:38:37.322;599616067138211642;1538.335;3097
2024-05-11T14:38:37.330;599616067145903014;1546.0264;2979
2024-05-11T14:38:37.337;599616067153594386;1553.7178;2866
2024-05-11T14:38:37.345;599616067161285758;1561.4092;2823
2024-05-11T14:38:37.353;599616067168977130;1569.1006;2806
2024-05-11T14:38:37.360;599616067176668502;1576.792;2743
2024-05-11T14:38:37.368;599616067184359874;1584.4832;2664
2024-05-11T14:38:37.376;599616067192051246;1592.1746;2585
2024-05-11T14:38:37.383;599616067199742618;1599.866;2503
2024-05-11T14:38:37.391;599616067207433990;1607.5574;2462
2024-05-11T14:38:37.399;599616067215125362;1615.2488;2520
2024-05-11T14:38:37.406;599616067222816734;1622.9402;2698
2024-05-11T14:38:37.414;599616067230508106;1630.6316;2784
2024-05-11T14:38:37.422;599616067238199478;1638.3229;2493
2024-05-11T14:38:37.430;599616067245890850;1646.0142;1981
2024-05-11T14:38:37.437;599616067253582222;1653.7056;1726
2024-05-11T14:38:37.445;599616067261273594;1661.397;1779
2024-05-11T14:38:37.453;599616067268964966;1669.0884;1808
2024-05-11T14:38:37.460;599616067276656338;1676.7798;1755
2024-05-11T14:38:37.468;599616067284292566;1684.416;1714
2024-05-11T14:38:37.476;599616067291984704;1692.108;1692
2024-05-11T14:38:37.483;599616067299676842;1699.8002;1697
2024-05-11T14:38:37.491;599616067307368980;1707.4923;1717
2024-05-11T14:38:37.499;599616067315061118;1715.1846;1704
2024-05-11T14:38:37.506;599616067322753256;1722.8767;1690
2024-05-11T14:38:37.514;599616067330445394;1730.5688;1690
2024-05-11T14:38:37.522;599616067338137532;1738.2609;1640
2024-05-11T14:38:37.529;599616067345829670;1745.953;1539
2024-05-11T14:38:37.537;599616067353521808;1753.6451;1505
2024-05-11T14:38:37.545;599616067361213946;1761.3374;1553
2024-05-11T14:38:37.553;599616067368906084;1769.0295;1560
2024-05-11T14:38:37.560;599616067376598222;1776.7217;1515
2024-05-11T14:38:37.568;599616067384290360;1784.4137;1488
2024-05-11T14:38:37.576;599616067391982498;1792.1058;1457
2024-05-11T14:38:37.583;599616067399674636;1799.798;1416
2024-05-11T14:38:37.591;599616067407366774;1807.4902;1428
2024-05-11T14:38:37.599;599616067415058912;1815.1824;1474
2024-05-11T14:38:37.606;599616067422751050;1822.8745;1478
2024-05-11T14:38:37.614;599616067430443188;1830.5665;1459
2024-05-11T14:38:37.622;599616067438135326;1838.2587;1469
2024-05-11T14:38:37.629;599616067445827464;1845.9508;1507
2024-05-11T14:38:37.637;599616067453519602;1853.6431;1543
2024-05-11T14:38:37.645;599616067461211740;1861.3352;1548
2024-05-11T14:38:37.653;599616067468903878;1869.0273;1527
2024-05-11T14:38:37.660;599616067476596016;1876.7194;1522
2024-05-11T14:38:37.668;599616067484288154;1884.4115;1541
2024-05-11T14:38:37.676;599616067491980292;1892.1036;1541
2024-05-11T14:38:37.683;599616067499672430;1899.7959;1512
2024-05-11T14:38:37.691;599616067507364568;1907.488;1500
2024-05-11T14:38:37.699;599616067515056706;1915.18;1483
2024-05-11T14:38:37.706;599616067522748844;1922.8722;1435
2024-05-11T14:38:37.714;599616067530440982;1930.5643;1409
2024-05-11T14:38:37.722;599616067538133120;1938.2565;1438
2024-05-11T14:38:37.729;599616067545825258;1945.9487;1462
2024-05-11T14:38:37.737;599616067553517396;1953.6409;1435
2024-05-11T14:38:37.745;599616067561209534;1961.3329;1397
2024-05-11T14:38:37.753;599616067568901672;1969.025;1394
2024-05-11T14:38:37.760;599616067576593810;1976.7172;1409
2024-05-11T14:38:37.768;599616067584285948;1984.4093;1399
2024-05-11T14:38:37.776;599616067591978086;1992.1016;1392
2024-05-11T14:38:37.783;599616067599670224;1999.7937;1411
2024-05-11T14:38:37.791;599616067607362362;2007.4857;1397
2024-05-11T14:38:37.799;599616067615054500;2015.1779;1351
2024-05-11T14:38:37.806;599616067622746638;2022.87;1349
2024-05-11T14:38:37.814;599616067630438776;2030.5621;1351
2024-05-11T14:38:37.822;599616067638130914;2038.2544;1286
2024-05-11T14:38:37.829;599616067645823052;2045.9465;1207
2024-05-11T14:38:37.837;599616067653515190;2053.6384;1183
2024-05-11T14:38:37.845;599616067661207328;2061.3306;1192
2024-05-11T14:38:37.853;599616067668899466;2069.023;1197
2024-05-11T14:38:37.860;599616067676591604;2076.715;1190
2024-05-11T14:38:37.868;599616067684283742;2084.4072;1195
2024-05-11T14:38:37.876;599616067691975880;2092.0994;1209
2024-05-11T14:38:37.883;599616067699668018;2099.7913;1197
2024-05-11T14:38:37.891;599616067707360156;2107.4834;1154
2024-05-11T14:38:37.899;599616067715052294;2115.1758;1077
2024-05-11T14:38:37.906;599616067722744432;2122.868;976
2024-05-11T14:38:37.914;599616067730436570;2130.56;930
2024-05-11T14:38:37.922;599616067738128708;2138.252;945
2024-05-11T14:38:37.929;599616067745820846;2145.944;945
2024-05-11T14:38:37.937;599616067753512984;2153.6362;935
2024-05-11T14:38:37.945;599616067761205122;2161.3284;947
2024-05-11T14:38:37.953;599616067768897260;2169.0208;971
2024-05-11T14:38:37.960;599616067776589398;2176.7126;995
2024-05-11T14:38:37.968;599616067784281536;2184.405;1010
2024-05-11T14:38:37.976;599616067791973674;2192.097;995
2024-05-11T14:38:37.983;599616067799665812;2199.7893;981
2024-05-11T14:38:37.991;599616067807357950;2207.4814;1005
2024-05-11T14:38:37.999;599616067815050088;2215.1733;1031
2024-05-11T14:38:38.006;599616067822742226;2222.8657;1024
2024-05-11T14:38:38.014;599616067830434364;2230.5576;1014
2024-05-11T14:38:38.022;599616067838126502;2238.25;1012
2024-05-11T14:38:38.029;599616067845868862;2245.9922;1000
2024-05-11T14:38:38.037;599616067853560303;2253.6836;997
2024-05-11T14:38:38.045;599616067861251744;2261.3752;1010
2024-05-11T14:38:38.053;599616067868943185;2269.0664;1022
2024-05-11T14:38:38.060;599616067876634626;2276.758;1000
2024-05-11T14:38:38.068;599616067884326067;2284.4495;930
2024-05-11T14:38:38.076;599616067892017508;2292.1409;884
2024-05-11T14:38:38.083;599616067899708949;2299.8323;906
2024-05-11T14:38:38.091;599616067907400390;2307.524;877
2024-05-11T14:38:38.099;599616067915091831;2315.215;769
2024-05-11T14:38:38.106;599616067922783272;2322.9067;716
2024-05-11T14:38:38.114;599616067930474713;2330.5981;726
2024-05-11T14:38:38.122;599616067938166154;2338.2896;714
2024-05-11T14:38:38.129;599616067945857595;2345.981;699
2024-05-11T14:38:38.137;599616067953549036;2353.6724;731
2024-05-11T14:38:38.145;599616067961240477;2361.364;774
2024-05-11T14:38:38.153;599616067968931918;2369.0552;776
2024-05-11T14:38:38.160;599616067976623359;2376.7468;750
2024-05-11T14:38:38.168;599616067984314800;2384.4382;750
2024-05-11T14:38:38.176;599616067992006241;2392.1296;783
2024-05-11T14:38:38.183;599616067999697682;2399.821;795
2024-05-11T14:38:38.191;599616068007389123;2407.5127;788
2024-05-11T14:38:38.199;599616068015080564;2415.2039;800
2024-05-11T14:38:38.206;599616068022772005;2422.8953;795
2024-05-11T14:38:38.214;599616068030463446;2430.587;757
2024-05-11T14:38:38.222;599616068038154887;2438.2783;738
2024-05-11T14:38:38.229;599616068045846328;2445.9697;728
2024-05-11T14:38:38.237;599616068053537769;2453.6611;687
2024-05-11T14:38:38.245;599616068061229210;2461.3528;639
2024-05-11T14:38:38.253;599616068068920651;2469.044;598
2024-05-11T14:38:38.260;599616068076612092;2476.7356;579
2024-05-11T14:38:38.268;599616068084303533;2484.427;562
2024-05-11T14:38:38.276;599616068091994974;2492.1182;502
2024-05-11T14:38:38.283;599616068099686415;2499.8098;449
2024-05-11T14:38:38.291;599616068107377856;2507.5012;420
2024-05-11T14:38:38.299;599616068115069297;2515.1926;334
2024-05-11T14:38:38.306;599616068122760738;2522.884;223
2024-05-11T14:38:38.314;599616068130452179;2530.5757;146
2024-05-11T14:38:38.322;599616068138143620;2538.267;134
2024-05-11T14:38:38.329;599616068145835061;2545.9585;286
2024-05-11T14:38:38.337;599616068153526502;2553.65;593
2024-05-11T14:38:38.345;599616068161217943;2561.3416;829
2024-05-11T14:38:38.353;599616068168909384;2569.0327;694
2024-05-11T14:38:38.360;599616068176600825;2576.724;281
2024-05-11T14:38:38.368;599616068184292266;2584.4158;55
2024-05-11T14:38:38.376;599616068191983707;2592.107;137
2024-05-11T14:38:38.383;599616068199675148;2599.7986;194
2024-05-11T14:38:38.391;599616068207366589;2607.49;134
2024-05-11T14:38:38.399;599616068215058030;2615.1814;96
2024-05-11T14:38:38.406;599616068222749471;2622.8728;45
2024-05-11T14:38:38.414;599616068230440912;2630.5645;-45
2024-05-11T14:38:38.422;599616068238132353;2638.2556;-52
2024-05-11T14:38:38.429;599616068245823794;2645.947;-9
2024-05-11T14:38:38.437;599616068253515235;2653.6387;2
2024-05-11T14:38:38.445;599616068261206676;2661.33;31
2024-05-11T14:38:38.453;599616068268898117;2669.0215;79
2024-05-11T14:38:38.460;599616068276589558;2676.713;108
2024-05-11T14:38:38.468;599616068284280999;2684.4045;156
2024-05-11T14:38:38.476;599616068291972440;2692.0957;209
2024-05-11T14:38:38.483;599616068299663881;2699.7874;211
2024-05-11T14:38:38.491;599616068307355322;2707.4788;216
2024-05-11T14:38:38.499;599616068315046763;2715.1702;274
2024-05-11T14:38:38.506;599616068322738204;2722.8616;322
2024-05-11T14:38:38.514;599616068330429645;2730.553;331
2024-05-11T14:38:38.522;599616068338121086;2738.2444;358
2024-05-11T14:38:38.529;599616068345812527;2745.9358;394
2024-05-11T14:38:38.537;599616068353503968;2753.6274;408
2024-05-11T14:38:38.545;599616068361195409;2761.3188;416
2024-05-11T14:38:38.553;599616068368886850;2769.0103;416
2024-05-11T14:38:38.560;599616068376578291;2776.7017;396
2024-05-11T14:38:38.568;599616068384269732;2784.3933;379
2024-05-11T14:38:38.576;599616068391961173;2792.0845;370
2024-05-11T14:38:38.583;599616068399652614;2799.776;367
2024-05-11T14:38:38.591;599616068407318986;2807.4424;406
2024-05-11T14:38:38.599;599616068415010776;2815.1343;444
2024-05-11T14:38:38.606;599616068422702566;2822.826;447
2024-05-11T14:38:38.614;599616068430394356;2830.5178;442
2024-05-11T14:38:38.622;599616068438086146;2838.2095;430
2024-05-11T14:38:38.629;599616068445777936;2845.9014;367
2024-05-11T14:38:38.637;599616068453469726;2853.593;278
2024-05-11T14:38:38.645;599616068461161516;2861.285;247
2024-05-11T14:38:38.652;599616068468853306;2868.9766;283
2024-05-11T14:38:38.660;599616068476545096;2876.6685;300
2024-05-11T14:38:38.668;599616068484236886;2884.36;278
2024-05-11T14:38:38.676;599616068491928676;2892.052;293
2024-05-11T14:38:38.683;599616068499620466;2899.7437;341
2024-05-11T14:38:38.691;599616068507312256;2907.4355;367
2024-05-11T14:38:38.699;599616068515004046;2915.1274;372
2024-05-11T14:38:38.706;599616068522695836;2922.8193;394
2024-05-11T14:38:38.714;599616068530387626;2930.511;413
2024-05-11T14:38:38.722;599616068538079416;2938.203;411
2024-05-11T14:38:38.729;599616068545771206;2945.8948;416
2024-05-11T14:38:38.737;599616068553462996;2953.5864;442
2024-05-11T14:38:38.745;599616068561154786;2961.2783;480
2024-05-11T14:38:38.752;599616068568846576;2968.97;480
2024-05-11T14:38:38.760;599616068576538366;2976.6619;456
2024-05-11T14:38:38.768;599616068584230156;2984.3535;464
2024-05-11T14:38:38.776;599616068591921946;2992.0454;500
2024-05-11T14:38:38.783;599616068599613736;2999.737;509
2024-05-11T14:38:38.791;599616068607305526;3007.429;502
2024-05-11T14:38:38.799;599616068614997316;3015.1206;492
2024-05-11T14:38:38.806;599616068622689106;3022.8125;432
2024-05-11T14:38:38.814;599616068630380896;3030.5042;365
2024-05-11T14:38:38.822;599616068638072686;3038.196;365
2024-05-11T14:38:38.829;599616068645764476;3045.8877;404
2024-05-11T14:38:38.837;599616068653456266;3053.5798;423
2024-05-11T14:38:38.845;599616068661148056;3061.2715;416
2024-05-11T14:38:38.852;599616068668839846;3068.9634;408
2024-05-11T14:38:38.860;599616068676531636;3076.655;428
2024-05-11T14:38:38.868;599616068684223426;3084.347;449
2024-05-11T14:38:38.876;599616068691915216;3092.0386;444
2024-05-11T14:38:38.883;599616068699607006;3099.7305;449
2024-05-11T14:38:38.891;599616068707298796;3107.422;476
2024-05-11T14:38:38.899;599616068714990586;3115.114;485
2024-05-11T14:38:38.906;599616068722682376;3122.8057;432
2024-05-11T14:38:38.914;599616068730374166;3130.4976;327
2024-05-11T14:38:38.922;599616068738065956;3138.1892;278
2024-05-11T14:38:38.929;599616068745757746;3145.881;305
2024-05-11T14:38:38.937;599616068753449536;3153.5728;310
2024-05-11T14:38:38.945;599616068761141326;3161.2646;293
2024-05-11T14:38:38.952;599616068768833116;3168.9563;315
2024-05-11T14:38:38.960;599616068776524906;3176.6482;346
2024-05-11T14:38:38.968;599616068784216696;3184.34;348
2024-05-11T14:38:38.976;599616068791908486;3192.032;365
2024-05-11T14:38:38.983;599616068799600276;3199.7239;396
2024-05-11T14:38:38.991;599616068807292066;3207.4155;382
2024-05-11T14:38:38.999;599616068814983856;3215.1074;360
2024-05-11T14:38:39.006;599616068822675646;3222.799;387
2024-05-11T14:38:39.014;599616068830367436;3230.491;423
2024-05-11T14:38:39.022;599616068838059226;3238.1826;425
2024-05-11T14:38:39.029;599616068845751016;3245.8745;416
2024-05-11T14:38:39.037;599616068853442806;3253.5662;413
2024-05-11T14:38:39.045;599616068861134596;3261.258;387
2024-05-11T14:38:39.052;599616068868826386;3268.9497;312
2024-05-11T14:38:39.060;599616068876518176;3276.6416;266
2024-05-11T14:38:39.068;599616068884209966;3284.3333;303
2024-05-11T14:38:39.076;599616068891901756;3292.0251;329
2024-05-11T14:38:39.083;599616068899593546;3299.7168;295
2024-05-11T14:38:39.091;599616068907285336;3307.4087;281
2024-05-11T14:38:39.099;599616068914977126;3315.1003;317
2024-05-11T14:38:39.106;599616068922668916;3322.7922;351
2024-05-11T14:38:39.114;599616068930360706;3330.484;355
2024-05-11T14:38:39.122;599616068938052496;3338.176;346
2024-05-11T14:38:39.129;599616068945744286;3345.8677;341
2024-05-11T14:38:39.137;599616068953436076;3353.5596;339
2024-05-11T14:38:39.145;599616068961127866;3361.2512;303
2024-05-11T14:38:39.152;599616068968839756;3368.9631;245
2024-05-11T14:38:39.160;599616068976531267;3376.6545;257
2024-05-11T14:38:39.168;599616068984222778;3384.3462;262
2024-05-11T14:38:39.176;599616068991914289;3392.0376;127
2024-05-11T14:38:39.183;599616068999605800;3399.7292;-12
2024-05-11T14:38:39.191;599616069007297311;3407.4207;-38
2024-05-11T14:38:39.199;599616069014988822;3415.1123;-72
2024-05-11T14:38:39.206;599616069022680333;3422.8037;-161
2024-05-11T14:38:39.214;599616069030371844;3430.495;-242
2024-05-11T14:38:39.222;599616069038063355;3438.1868;-290
2024-05-11T14:38:39.229;599616069045754866;3445.8782;-310
2024-05-11T14:38:39.237;599616069053446377;3453.5698;-317
2024-05-11T14:38:39.245;599616069061137888;3461.2612;-310
2024-05-11T14:38:39.252;599616069068829399;3468.953;-303
2024-05-11T14:38:39.260;599616069076520910;3476.6443;-322
2024-05-11T14:38:39.268;599616069084212421;3484.336;-281
2024-05-11T14:38:39.276;599616069091903932;3492.0273;-21
2024-05-11T14:38:39.283;599616069099595443;3499.719;348
2024-05-11T14:38:39.291;599616069107286954;3507.4104;423
2024-05-11T14:38:39.299;599616069114978465;3515.102;50
2024-05-11T14:38:39.306;599616069122669976;3522.7935;-331
2024-05-11T14:38:39.314;599616069130361487;3530.485;-358
2024-05-11T14:38:39.322;599616069138052998;3538.1765;-269
2024-05-11T14:38:39.329;599616069145744509;3545.8677;-290
2024-05-11T14:38:39.337;599616069153436020;3553.5593;-274
2024-05-11T14:38:39.345;599616069161127531;3561.2507;-189
2024-05-11T14:38:39.352;599616069168819042;3568.9424;-173
2024-05-11T14:38:39.360;599616069176510553;3576.6338;-199
2024-05-11T14:38:39.368;599616069184202064;3584.3254;-163
2024-05-11T14:38:39.376;599616069191893575;3592.0168;-103
2024-05-11T14:38:39.383;599616069199585086;3599.7085;-76
2024-05-11T14:38:39.391;599616069207276597;3607.4;-57
2024-05-11T14:38:39.399;599616069214968108;3615.0916;-21
2024-05-11T14:38:39.406;599616069222659619;3622.783;-24
2024-05-11T14:38:39.414;599616069230351130;3630.4746;-96
2024-05-11T14:38:39.422;599616069238042641;3638.166;-163
2024-05-11T14:38:39.429;599616069245734152;3645.8574;-134
2024-05-11T14:38:39.437;599616069253425663;3653.549;-72
2024-05-11T14:38:39.445;599616069261117174;3661.2405;-57
2024-05-11T14:38:39.452;599616069268808685;3668.9321;-50
2024-05-11T14:38:39.460;599616069276500196;3676.6235;-9
2024-05-11T14:38:39.468;599616069284191707;3684.3152;40
2024-05-11T14:38:39.476;599616069291883218;3692.0066;69
2024-05-11T14:38:39.483;599616069299574729;3699.6982;113
2024-05-11T14:38:39.491;599616069307266240;3707.3896;161
2024-05-11T14:38:39.499;599616069314957751;3715.0813;175
2024-05-11T14:38:39.506;599616069322649262;3722.7727;175
2024-05-11T14:38:39.514;599616069330340773;3730.4644;202
2024-05-11T14:38:39.522;599616069338032284;3738.1558;240
2024-05-11T14:38:39.529;599616069345723795;3745.8474;286
2024-05-11T14:38:39.537;599616069353415306;3753.5388;293
2024-05-11T14:38:39.545;599616069361106817;3761.23;230
2024-05-11T14:38:39.552;599616069368798328;3768.9216;182
2024-05-11T14:38:39.560;599616069376489839;3776.613;197
2024-05-11T14:38:39.568;599616069384181350;3784.3047;204
2024-05-11T14:38:39.575;599616069391872861;3791.996;199
2024-05-11T14:38:39.583;599616069399564372;3799.6877;209
2024-05-11T14:38:39.591;599616069407255883;3807.3792;199
2024-05-11T14:38:39.599;599616069414947394;3815.0708;175
2024-05-11T14:38:39.606;599616069422638905;3822.7622;194
2024-05-11T14:38:39.614;599616069430330416;3830.4539;245
2024-05-11T14:38:39.622;599616069438021927;3838.1453;269
2024-05-11T14:38:39.629;599616069445713438;3845.837;264
2024-05-11T14:38:39.637;599616069453404949;3853.5283;266
2024-05-11T14:38:39.645;599616069461096460;3861.2197;281
2024-05-11T14:38:39.652;599616069468787971;3868.9114;290
2024-05-11T14:38:39.660;599616069476479482;3876.6028;300
2024-05-11T14:38:39.668;599616069484170993;3884.2944;327
2024-05-11T14:38:39.675;599616069491862504;3891.9858;348
2024-05-11T14:38:39.683;599616069499554015;3899.6775;329
2024-05-11T14:38:39.691;599616069507245526;3907.369;312
2024-05-11T14:38:39.699;599616069514937037;3915.0605;339
2024-05-11T14:38:39.706;599616069522628548;3922.752;367
2024-05-11T14:38:39.714;599616069530310084;3930.4336;370
2024-05-11T14:38:39.722;599616069538001734;3938.125;365
2024-05-11T14:38:39.729;599616069545693384;3945.817;363
2024-05-11T14:38:39.737;599616069553385034;3953.5083;358
2024-05-11T14:38:39.745;599616069561076684;3961.2002;363
2024-05-11T14:38:39.752;599616069568768334;3968.8916;375
2024-05-11T14:38:39.760;599616069576459984;3976.5835;394
2024-05-11T14:38:39.768;599616069584151634;3984.275;377
2024-05-11T14:38:39.775;599616069591843284;3991.9668;274
2024-05-11T14:38:39.783;599616069599534934;3999.6582;149
2024-05-11T14:38:39.791;599616069607226584;4007.35;96
2024-05-11T14:38:39.799;599616069614918234;4015.0415;88
2024-05-11T14:38:39.806;599616069622609884;4022.7334;81
2024-05-11T14:38:39.814;599616069630301534;4030.4248;91
2024-05-11T14:38:39.822;599616069637993184;4038.1167;105
2024-05-11T14:38:39.829;599616069645684834;4045.808;110
2024-05-11T14:38:39.837;599616069653376484;4053.5;117
2024-05-11T14:38:39.845;599616069661068134;4061.1914;146
2024-05-11T14:38:39.852;599616069668759784;4068.8833;192
2024-05-11T14:38:39.860;599616069676451434;4076.5747;204
2024-05-11T14:38:39.868;599616069684143084;4084.2666;177
2024-05-11T14:38:39.875;599616069691834734;4091.958;180
2024-05-11T14:38:39.883;599616069699526384;4099.65;218
2024-05-11T14:38:39.891;599616069707218034;4107.3413;238
2024-05-11T14:38:39.899;599616069714909684;4115.033;240
2024-05-11T14:38:39.906;599616069722601334;4122.7246;245
2024-05-11T14:38:39.914;599616069730292984;4130.4165;175
2024-05-11T14:38:39.922;599616069737984634;4138.108;31
2024-05-11T14:38:39.929;599616069745676284;4145.8;-24
2024-05-11T14:38:39.937;599616069753367934;4153.491;33
2024-05-11T14:38:39.945;599616069761059584;4161.183;69
2024-05-11T14:38:39.952;599616069768751234;4168.8745;64
2024-05-11T14:38:39.960;599616069776442884;4176.5664;62
2024-05-11T14:38:39.968;599616069784134534;4184.258;79
2024-05-11T14:38:39.975;599616069791826184;4191.9497;110
2024-05-11T14:38:39.983;599616069799517834;4199.641;134
2024-05-11T14:38:39.991;599616069807209484;4207.333;153
2024-05-11T14:38:39.999;599616069814901134;4215.0244;177
2024-05-11T14:38:40.006;599616069822592784;4222.7163;185
2024-05-11T14:38:40.014;599616069830284434;4230.4077;168
2024-05-11T14:38:40.022;599616069837976084;4238.0996;168
2024-05-11T14:38:40.029;599616069845667734;4245.791;175
2024-05-11T14:38:40.037;599616069853359384;4253.483;139
2024-05-11T14:38:40.045;599616069861051034;4261.1743;84
2024-05-11T14:38:40.052;599616069868742684;4268.866;64
2024-05-11T14:38:40.060;599616069876434334;4276.5576;76
2024-05-11T14:38:40.068;599616069884125984;4284.2495;103
2024-05-11T14:38:40.075;599616069891817634;4291.941;125
2024-05-11T14:38:40.083;599616069899509284;4299.633;134
2024-05-11T14:38:40.091;599616069907200934;4307.324;149
2024-05-11T14:38:40.099;599616069914892584;4315.016;161
2024-05-11T14:38:40.106;599616069922584234;4322.7075;165
2024-05-11T14:38:40.114;599616069930275884;4330.3994;189
2024-05-11T14:38:40.122;599616069937967534;4338.091;223
2024-05-11T14:38:40.129;599616069945659184;4345.7827;230
2024-05-11T14:38:40.137;599616069953350834;4353.474;173
2024-05-11T14:38:40.145;599616069961042484;4361.166;88
2024-05-11T14:38:40.152;599616069968734134;4368.8574;64
2024-05-11T14:38:40.160;599616069976425784;4376.5493;76
2024-05-11T14:38:40.168;599616069984117434;4384.2407;67
2024-05-11T14:38:40.175;599616069991809084;4391.9326;43
2024-05-11T14:38:40.183;599616069999500734;4399.624;-7
2024-05-11T14:38:40.191;599616070007192384;4407.316;-103
2024-05-11T14:38:40.199;599616070014884034;4415.0073;-206
2024-05-11T14:38:40.206;599616070022575684;4422.699;-262
2024-05-11T14:38:40.214;599616070030267334;4430.3906;-177
2024-05-11T14:38:40.222;599616070037958984;4438.0825;79
2024-05-11T14:38:40.229;599616070045650634;4445.774;324
2024-05-11T14:38:40.237;599616070053342284;4453.466;250
2024-05-11T14:38:40.245;599616070061033934;4461.157;-137
2024-05-11T14:38:40.252;599616070068725584;4468.849;-423
2024-05-11T14:38:40.260;599616070076417234;4476.5405;-406
2024-05-11T14:38:40.268;599616070084108884;4484.2324;-331
2024-05-11T14:38:40.275;599616070091790514;4491.9136;-370
2024-05-11T14:38:40.283;599616070099482304;4499.6055;-435
2024-05-11T14:38:40.291;599616070107174094;4507.2974;-437
2024-05-11T14:38:40.298;599616070114865884;4514.9893;-389
2024-05-11T14:38:40.306;599616070122557674;4522.6807;-346
2024-05-11T14:38:40.314;599616070130249464;4530.3726;-324
2024-05-11T14:38:40.322;599616070137941254;4538.065;-315
2024-05-11T14:38:40.329;599616070145633044;4545.757;-303
2024-05-11T14:38:40.337;599616070153324834;4553.448;-303
2024-05-11T14:38:40.345;599616070161016624;4561.14;-360
2024-05-11T14:38:40.352;599616070168708414;4568.832;-418
2024-05-11T14:38:40.360;599616070176400204;4576.524;-367
2024-05-11T14:38:40.368;599616070184091994;4584.2153;-312
2024-05-11T14:38:40.375;599616070191783784;4591.907;-331
2024-05-11T14:38:40.383;599616070199475574;4599.599;-319
2024-05-11T14:38:40.391;599616070207167364;4607.291;-242
2024-05-11T14:38:40.398;599616070214859154;4614.9824;-197
2024-05-11T14:38:40.406;599616070222550944;4622.6743;-177
2024-05-11T14:38:40.414;599616070230242734;4630.366;-151
2024-05-11T14:38:40.422;599616070237934524;4638.058;-194
2024-05-11T14:38:40.429;599616070245626314;4645.75;-312
2024-05-11T14:38:40.437;599616070253318104;4653.4414;-343
2024-05-11T14:38:40.445;599616070261009894;4661.1333;-266
2024-05-11T14:38:40.452;599616070268701684;4668.825;-199
2024-05-11T14:38:40.460;599616070276393474;4676.517;-177
2024-05-11T14:38:40.468;599616070284085264;4684.2085;-175
2024-05-11T14:38:40.475;599616070291777054;4691.9004;-139
2024-05-11T14:38:40.483;599616070299468844;4699.5923;-76
2024-05-11T14:38:40.491;599616070307160634;4707.284;-48
2024-05-11T14:38:40.498;599616070314852424;4714.9756;-52
2024-05-11T14:38:40.506;599616070322544214;4722.6675;-45
2024-05-11T14:38:40.514;599616070330236004;4730.3594;-48
2024-05-11T14:38:40.522;599616070337927794;4738.0513;-72
2024-05-11T14:38:40.529;599616070345619584;4745.7427;-93
2024-05-11T14:38:40.537;599616070353311374;4753.4346;-91
2024-05-11T14:38:40.545;599616070361003164;4761.1265;-52
2024-05-11T14:38:40.552;599616070368694954;4768.8184;-33
2024-05-11T14:38:40.560;599616070376386744;4776.51;-57
2024-05-11T14:38:40.568;599616070384078534;4784.2017;-31
2024-05-11T14:38:40.575;599616070391770324;4791.8936;36
2024-05-11T14:38:40.583;599616070399462114;4799.5854;55
2024-05-11T14:38:40.591;599616070407153904;4807.277;67
2024-05-11T14:38:40.598;599616070414845694;4814.9688;105
2024-05-11T14:38:40.606;599616070422537484;4822.661;122
2024-05-11T14:38:40.614;599616070430229274;4830.353;113
2024-05-11T14:38:40.622;599616070437921064;4838.0444;125
2024-05-11T14:38:40.629;599616070445612854;4845.7363;180
2024-05-11T14:38:40.637;599616070453304644;4853.428;218
2024-05-11T14:38:40.645;599616070460996434;4861.12;197
2024-05-11T14:38:40.652;599616070468688224;4868.812;175
2024-05-11T14:38:40.660;599616070476380014;4876.5034;204
2024-05-11T14:38:40.668;599616070484071804;4884.1953;245
2024-05-11T14:38:40.675;599616070491763594;4891.887;259
2024-05-11T14:38:40.683;599616070499455384;4899.579;264
2024-05-11T14:38:40.691;599616070507147174;4907.2705;288
2024-05-11T14:38:40.698;599616070514838964;4914.9624;283
2024-05-11T14:38:40.706;599616070522530754;4922.6543;254
2024-05-11T14:38:40.714;599616070530222544;4930.346;269
2024-05-11T14:38:40.722;599616070537914334;4938.0376;315
2024-05-11T14:38:40.729;599616070545606124;4945.7295;327
2024-05-11T14:38:40.737;599616070553297914;4953.4214;312
2024-05-11T14:38:40.745;599616070560989704;4961.1133;305
2024-05-11T14:38:40.752;599616070568681494;4968.8047;319
2024-05-11T14:38:40.760;599616070576373284;4976.4966;348
2024-05-11T14:38:40.768;599616070584065074;4984.1885;351
2024-05-11T14:38:40.775;599616070591756864;4991.8804;303
2024-05-11T14:38:40.783;599616070599448654;4999.572;266
2024-05-11T14:38:40.791;599616070607140444;5007.2637;264
2024-05-11T14:38:40.798;599616070614832234;5014.9556;245
2024-05-11T14:38:40.806;599616070622524024;5022.6475;240
2024-05-11T14:38:40.814;599616070630215814;5030.339;283
2024-05-11T14:38:40.822;599616070637907604;5038.031;315
2024-05-11T14:38:40.829;599616070645599394;5045.7227;305
2024-05-11T14:38:40.837;599616070653321292;5053.445;295
2024-05-11T14:38:40.845;599616070661012664;5061.1357;307
2024-05-11T14:38:40.852;599616070668704036;5068.8276;307
2024-05-11T14:38:40.860;599616070676395408;5076.519;300
2024-05-11T14:38:40.868;599616070684086780;5084.21;324
2024-05-11T14:38:40.875;599616070691778152;5091.9014;334
2024-05-11T14:38:40.883;599616070699469524;5099.593;247
2024-05-11T14:38:40.891;599616070707160896;5107.2847;149
2024-05-11T14:38:40.898;599616070714852268;5114.9756;149
2024-05-11T14:38:40.906;599616070722543640;5122.667;189
2024-05-11T14:38:40.914;599616070730235012;5130.3584;189
2024-05-11T14:38:40.922;599616070737926384;5138.0493;163
2024-05-11T14:38:40.929;599616070745617756;5145.741;76
2024-05-11T14:38:40.937;599616070753309128;5153.4326;-45
2024-05-11T14:38:40.945;599616070761000500;5161.124;-76
2024-05-11T14:38:40.952;599616070768691872;5168.815;-24
2024-05-11T14:38:40.960;599616070776383244;5176.507;14
2024-05-11T14:38:40.968;599616070784074616;5184.198;24
2024-05-11T14:38:40.975;599616070791765988;5191.8896;16
2024-05-11T14:38:40.983;599616070799457360;5199.5806;26
2024-05-11T14:38:40.991;599616070807148732;5207.272;86
2024-05-11T14:38:40.998;599616070814840104;5214.964;141
2024-05-11T14:38:41.006;599616070822531476;5222.655;146
2024-05-11T14:38:41.014;599616070830222848;5230.346;125
2024-05-11T14:38:41.022;599616070837914220;5238.0376;69
2024-05-11T14:38:41.029;599616070845605592;5245.729;7
2024-05-11T14:38:41.037;599616070853296964;5253.4204;7
2024-05-11T14:38:41.045;599616070860988336;5261.112;50
2024-05-11T14:38:41.052;599616070868679708;5268.803;81
2024-05-11T14:38:41.060;599616070876371080;5276.494;96
2024-05-11T14:38:41.068;599616070884062452;5284.1855;86
2024-05-11T14:38:41.075;599616070891753824;5291.8774;72
2024-05-11T14:38:41.083;599616070899445196;5299.569;86
2024-05-11T14:38:41.091;599616070907136568;5307.26;149
2024-05-11T14:38:41.098;599616070914827940;5314.951;331
2024-05-11T14:38:41.106;599616070922519312;5322.643;644
2024-05-11T14:38:41.114;599616070930210684;5330.334;812
2024-05-11T14:38:41.122;599616070937902056;5338.0254;545
2024-05-11T14:38:41.129;599616070945593428;5345.717;81
2024-05-11T14:38:41.137;599616070953284800;5353.408;-69
2024-05-11T14:38:41.145;599616070960976172;5361.0996;52
2024-05-11T14:38:41.152;599616070968667544;5368.791;36
2024-05-11T14:38:41.160;599616070976358916;5376.4824;-132
2024-05-11T14:38:41.168;599616070984050288;5384.1733;-177
2024-05-11T14:38:41.175;599616070991741660;5391.8647;-165
2024-05-11T14:38:41.183;599616070999433032;5399.5566;-257
2024-05-11T14:38:41.191;599616071007124404;5407.248;-322
2024-05-11T14:38:41.198;599616071014815776;5414.939;-293
2024-05-11T14:38:41.206;599616071022507148;5422.6304;-298
2024-05-11T14:38:41.214;599616071030198520;5430.322;-348
2024-05-11T14:38:41.222;599616071037889892;5438.0137;-348
2024-05-11T14:38:41.229;599616071045581264;5445.7046;-312
2024-05-11T14:38:41.237;599616071053272636;5453.396;-290
2024-05-11T14:38:41.245;599616071060964008;5461.0874;-290
2024-05-11T14:38:41.252;599616071068655380;5468.779;-305
2024-05-11T14:38:41.260;599616071076346752;5476.47;-312
2024-05-11T14:38:41.268;599616071084038124;5484.1616;-343
2024-05-11T14:38:41.275;599616071091729496;5491.853;-391
2024-05-11T14:38:41.283;599616071099420868;5499.544;-365
2024-05-11T14:38:41.291;599616071107112240;5507.236;-298
2024-05-11T14:38:41.298;599616071114803612;5514.9272;-283
2024-05-11T14:38:41.306;599616071122494984;5522.618;-276
2024-05-11T14:38:41.314;599616071130186356;5530.3096;-230
2024-05-11T14:38:41.322;599616071137877728;5538.001;-175
2024-05-11T14:38:41.329;599616071145569100;5545.693;-132
2024-05-11T14:38:41.337;599616071153260472;5553.384;-117
2024-05-11T14:38:41.345;599616071160951844;5561.075;-110
2024-05-11T14:38:41.352;599616071168643216;5568.7666;-76
2024-05-11T14:38:41.360;599616071176334588;5576.4575;-33
2024-05-11T14:38:41.368;599616071184025960;5584.1494;-21
2024-05-11T14:38:41.375;599616071191717332;5591.841;-9
2024-05-11T14:38:41.383;599616071199408704;5599.532;9
2024-05-11T14:38:41.391;599616071207100076;5607.223;-12
2024-05-11T14:38:41.398;599616071214731264;5614.8545;-55
2024-05-11T14:38:41.406;599616071222423472;5622.547;-38
2024-05-11T14:38:41.414;599616071230115680;5630.2393;16
2024-05-11T14:38:41.421;599616071237807888;5637.9316;40
2024-05-11T14:38:41.429;599616071245500096;5645.6235;7
2024-05-11T14:38:41.437;599616071253192304;5653.3154;-98
2024-05-11T14:38:41.445;599616071260884512;5661.008;-216
2024-05-11T14:38:41.452;599616071268576720;5668.7;-286
2024-05-11T14:38:41.460;599616071276268928;5676.3926;-336
2024-05-11T14:38:41.468;599616071283961136;5684.085;-343
2024-05-11T14:38:41.475;599616071291653344;5691.7764;-295
2024-05-11T14:38:41.483;599616071299345552;5699.4688;-281
2024-05-11T14:38:41.491;599616071307037760;5707.161;-283
2024-05-11T14:38:41.498;599616071314729968;5714.8535;-223
2024-05-11T14:38:41.506;599616071322422176;5722.546;-170
2024-05-11T14:38:41.514;599616071330114384;5730.238;-187
2024-05-11T14:38:41.521;599616071337806592;5737.9297;-199
2024-05-11T14:38:41.529;599616071345498800;5745.622;-173
2024-05-11T14:38:41.537;599616071353191008;5753.3145;-141
2024-05-11T14:38:41.545;599616071360883216;5761.007;-110
2024-05-11T14:38:41.552;599616071368575424;5768.6987;-72
2024-05-11T14:38:41.560;599616071376267632;5776.391;-21
2024-05-11T14:38:41.568;599616071383959840;5784.0835;19
2024-05-11T14:38:41.575;599616071391652048;5791.7754;21
2024-05-11T14:38:41.583;599616071399344256;5799.4673;24
2024-05-11T14:38:41.591;599616071407036464;5807.1597;64
2024-05-11T14:38:41.598;599616071414728672;5814.852;105
2024-05-11T14:38:41.606;599616071422420880;5822.5444;125
2024-05-11T14:38:41.614;599616071430113088;5830.237;139
2024-05-11T14:38:41.621;599616071437805296;5837.928;144
2024-05-11T14:38:41.629;599616071445497504;5845.6206;146
2024-05-11T14:38:41.637;599616071453189712;5853.313;158
2024-05-11T14:38:41.645;599616071460881920;5861.0054;192
2024-05-11T14:38:41.652;599616071468574128;5868.6978;233
2024-05-11T14:38:41.660;599616071476266336;5876.3896;233
2024-05-11T14:38:41.668;599616071483958544;5884.082;199
2024-05-11T14:38:41.675;599616071491650752;5891.774;206
2024-05-11T14:38:41.683;599616071499342960;5899.4663;252
2024-05-11T14:38:41.691;599616071507035168;5907.1587;278
2024-05-11T14:38:41.698;599616071514727376;5914.8506;278
2024-05-11T14:38:41.706;599616071522419584;5922.543;286
2024-05-11T14:38:41.714;599616071530111792;5930.2354;293
2024-05-11T14:38:41.721;599616071537804000;5937.9272;290
2024-05-11T14:38:41.729;599616071545496208;5945.6196;283
2024-05-11T14:38:41.737;599616071553188416;5953.3115;298
2024-05-11T14:38:41.745;599616071560880624;5961.004;339
2024-05-11T14:38:41.752;599616071568572832;5968.6963;339
2024-05-11T14:38:41.760;599616071576265040;5976.3887;271
2024-05-11T14:38:41.768;599616071583957248;5984.0806;228
2024-05-11T14:38:41.775;599616071591649456;5991.7725;254
2024-05-11T14:38:41.783;599616071599341664;5999.465;269
2024-05-11T14:38:41.791;599616071607033872;6007.157;254
2024-05-11T14:38:41.798;599616071614726080;6014.8496;269
2024-05-11T14:38:41.806;599616071622418288;6022.542;281
2024-05-11T14:38:41.814;599616071630110496;6030.234;262
2024-05-11T14:38:41.821;599616071637802704;6037.926;259
2024-05-11T14:38:41.829;599616071645494912;6045.618;290
2024-05-11T14:38:41.837;599616071653187120;6053.3105;315
2024-05-11T14:38:41.845;599616071660879328;6061.003;298
2024-05-11T14:38:41.852;599616071668571536;6068.695;278
2024-05-11T14:38:41.860;599616071676263744;6076.387;310
2024-05-11T14:38:41.868;599616071683955952;6084.079;339
2024-05-11T14:38:41.875;599616071691648160;6091.7715;327
2024-05-11T14:38:41.883;599616071699340368;6099.464;331
2024-05-11T14:38:41.891;599616071707032576;6107.156;353
2024-05-11T14:38:41.898;599616071714724784;6114.848;327
2024-05-11T14:38:41.906;599616071722416992;6122.5405;276
2024-05-11T14:38:41.914;599616071730109200;6130.233;286
2024-05-11T14:38:41.921;599616071737801408;6137.925;329
2024-05-11T14:38:41.929;599616071745493616;6145.6167;341
2024-05-11T14:38:41.937;599616071753185824;6153.309;278
2024-05-11T14:38:41.945;599616071760878032;6161.0015;151
2024-05-11T14:38:41.952;599616071768570240;6168.694;62
2024-05-11T14:38:41.960;599616071776322654;6176.446;84
2024-05-11T14:38:41.968;599616071784014026;6184.137;223
2024-05-11T14:38:41.975;599616071791705398;6191.829;517
2024-05-11T14:38:41.983;599616071799396770;6199.52;800
2024-05-11T14:38:41.991;599616071807088142;6207.2114;656
2024-05-11T14:38:41.998;599616071814779514;6214.903;108
2024-05-11T14:38:42.006;599616071822470886;6222.594;-242
2024-05-11T14:38:42.014;599616071830162258;6230.2856;-189
2024-05-11T14:38:42.021;599616071837853630;6237.977;-137
2024-05-11T14:38:42.029;599616071845545002;6245.6685;-211
2024-05-11T14:38:42.037;599616071853236374;6253.3594;-221
2024-05-11T14:38:42.045;599616071860927746;6261.051;-211
2024-05-11T14:38:42.052;599616071868619118;6268.7427;-257
2024-05-11T14:38:42.060;599616071876310490;6276.434;-266
2024-05-11T14:38:42.068;599616071884001862;6284.125;-216
2024-05-11T14:38:42.075;599616071891693234;6291.8164;-194
2024-05-11T14:38:42.083;599616071899384606;6299.5083;-254
2024-05-11T14:38:42.091;599616071907075978;6307.1997;-329
2024-05-11T14:38:42.098;599616071914767350;6314.8906;-331
2024-05-11T14:38:42.106;599616071922458722;6322.582;-334
2024-05-11T14:38:42.114;599616071930150094;6330.2734;-413
2024-05-11T14:38:42.121;599616071937841466;6337.965;-461
2024-05-11T14:38:42.129;599616071945532838;6345.6562;-442
2024-05-11T14:38:42.137;599616071953224210;6353.3477;-440
2024-05-11T14:38:42.145;599616071960915582;6361.039;-459
2024-05-11T14:38:42.152;599616071968606954;6368.73;-435
2024-05-11T14:38:42.160;599616071976298326;6376.422;-375
2024-05-11T14:38:42.168;599616071983989698;6384.1133;-351
2024-05-11T14:38:42.175;599616071991681070;6391.804;-372
2024-05-11T14:38:42.183;599616071999372442;6399.4956;-363
2024-05-11T14:38:42.191;599616072007063814;6407.1875;-303
2024-05-11T14:38:42.198;599616072014755186;6414.879;-254
2024-05-11T14:38:42.206;599616072022446558;6422.57;-247
2024-05-11T14:38:42.214;599616072030137930;6430.261;-247
2024-05-11T14:38:42.221;599616072037829302;6437.9526;-235
2024-05-11T14:38:42.229;599616072045520674;6445.6445;-211
2024-05-11T14:38:42.237;599616072053212046;6453.3354;-202
2024-05-11T14:38:42.245;599616072060903418;6461.027;-218
2024-05-11T14:38:42.252;599616072068594790;6468.7183;-266
2024-05-11T14:38:42.260;599616072076286162;6476.409;-331
2024-05-11T14:38:42.268;599616072083977534;6484.101;-365
2024-05-11T14:38:42.275;599616072091668906;6491.7925;-353
2024-05-11T14:38:42.283;599616072099360278;6499.484;-327
2024-05-11T14:38:42.291;599616072107051650;6507.175;-298
2024-05-11T14:38:42.298;599616072114743022;6514.866;-262
2024-05-11T14:38:42.306;599616072122434394;6522.558;-233
2024-05-11T14:38:42.314;599616072130125766;6530.249;-223
2024-05-11T14:38:42.321;599616072137817138;6537.9404;-206
2024-05-11T14:38:42.329;599616072145508510;6545.632;-168
2024-05-11T14:38:42.337;599616072153199882;6553.3237;-117
2024-05-11T14:38:42.345;599616072160891254;6561.0146;-81
2024-05-11T14:38:42.352;599616072168582626;6568.706;-64
2024-05-11T14:38:42.360;599616072176273998;6576.3975;-64
2024-05-11T14:38:42.368;599616072183965370;6584.0884;-48
2024-05-11T14:38:42.375;599616072191656742;6591.7803;0
2024-05-11T14:38:42.383;599616072199348114;6599.4717;31
2024-05-11T14:38:42.391;599616072207039486;6607.163;33
2024-05-11T14:38:42.398;599616072214730858;6614.854;55
2024-05-11T14:38:42.406;599616072222422230;6622.5454;81
2024-05-11T14:38:42.414;599616072230113602;6630.2373;76
2024-05-11T14:38:42.421;599616072237804974;6637.928;84
2024-05-11T14:38:42.429;599616072245496346;6645.6196;122
2024-05-11T14:38:42.437;599616072253187718;6653.311;93
2024-05-11T14:38:42.445;599616072260879090;6661.0024;-45
2024-05-11T14:38:42.452;599616072268570462;6668.694;-129
2024-05-11T14:38:42.460;599616072276261834;6676.3853;-86
2024-05-11T14:38:42.468;599616072283953206;6684.0767;-45
2024-05-11T14:38:42.475;599616072291644578;6691.7676;-38
2024-05-11T14:38:42.483;599616072299335950;6699.4595;-9
2024-05-11T14:38:42.491;599616072307027322;6707.151;4
2024-05-11T14:38:42.498;599616072314718694;6714.8423;-50
2024-05-11T14:38:42.506;599616072322410066;6722.533;-108
2024-05-11T14:38:42.514;599616072330101438;6730.2246;-84
2024-05-11T14:38:42.521;599616072337792820;6737.9165;-36
2024-05-11T14:38:42.529;599616072345484192;6745.608;-7
2024-05-11T14:38:42.537;599616072353175564;6753.299;12
2024-05-11T14:38:42.544;599616072360866936;6760.99;9
2024-05-11T14:38:42.552;599616072368558308;6768.6816;12
2024-05-11T14:38:42.560;599616072376249680;6776.373;2
2024-05-11T14:38:42.568;599616072383941052;6784.0645;-69
2024-05-11T14:38:42.575;599616072391632424;6791.756;-105
2024-05-11T14:38:42.583;599616072399323796;6799.4473;-57
2024-05-11T14:38:42.591;599616072407015168;6807.138;-48
2024-05-11T14:38:42.598;599616072414706540;6814.83;-72
2024-05-11T14:38:42.606;599616072422397912;6822.5215;-31
2024-05-11T14:38:42.614;599616072430089284;6830.2124;36
2024-05-11T14:38:42.621;599616072437780656;6837.904;55
2024-05-11T14:38:42.629;599616072445472028;6845.5957;50
2024-05-11T14:38:42.637;599616072453163400;6853.287;62
2024-05-11T14:38:42.644;599616072460854772;6860.978;88
2024-05-11T14:38:42.652;599616072468546144;6868.6694;113
2024-05-11T14:38:42.660;599616072476237516;6876.361;129
2024-05-11T14:38:42.668;599616072483928888;6884.0522;161
2024-05-11T14:38:42.675;599616072491620260;6891.7437;185
2024-05-11T14:38:42.683;599616072499311632;6899.435;168
2024-05-11T14:38:42.691;599616072507003004;6907.1265;161
2024-05-11T14:38:42.698;599616072514694376;6914.8174;202
2024-05-11T14:38:42.706;599616072522385748;6922.5093;223
2024-05-11T14:38:42.714;599616072530077120;6930.2007;209
2024-05-11T14:38:42.721;599616072537768492;6937.8916;218
2024-05-11T14:38:42.729;599616072545459864;6945.583;250
2024-05-11T14:38:42.737;599616072553151236;6953.2744;252
2024-05-11T14:38:42.744;599616072560842608;6960.9663;218
2024-05-11T14:38:42.752;599616072568533980;6968.657;192
2024-05-11T14:38:42.760;599616072576225352;6976.3486;211
2024-05-11T14:38:42.768;599616072583916724;6984.04;221
2024-05-11T14:38:42.775;599616072591608096;6991.732;187
2024-05-11T14:38:42.783;599616072599299468;6999.423;180
2024-05-11T14:38:42.791;599616072606990840;7007.1143;216
2024-05-11T14:38:42.798;599616072614682212;7014.8057;238
2024-05-11T14:38:42.806;599616072622373584;7022.4966;238
2024-05-11T14:38:42.814;599616072630064956;7030.1885;238
2024-05-11T14:38:42.821;599616072637756328;7037.88;216
2024-05-11T14:38:42.829;599616072645447700;7045.5713;206
2024-05-11T14:38:42.837;599616072653139072;7053.262;319
2024-05-11T14:38:42.844;599616072660830444;7060.9536;610
2024-05-11T14:38:42.852;599616072668521816;7068.6455;904
2024-05-11T14:38:42.860;599616072676213188;7076.3364;863
2024-05-11T14:38:42.868;599616072683904560;7084.028;464
2024-05-11T14:38:42.875;599616072691595932;7091.719;177
2024-05-11T14:38:42.883;599616072699287304;7099.411;230
2024-05-11T14:38:42.891;599616072706978676;7107.102;300
2024-05-11T14:38:42.898;599616072714670048;7114.7935;240
2024-05-11T14:38:42.906;599616072722361420;7122.485;228
2024-05-11T14:38:42.914;599616072730052792;7130.176;259
2024-05-11T14:38:42.921;599616072737744164;7137.8677;240
2024-05-11T14:38:42.929;599616072745435536;7145.559;228
2024-05-11T14:38:42.937;599616072753126908;7153.2505;218
2024-05-11T14:38:42.944;599616072760818280;7160.9414;115
2024-05-11T14:38:42.952;599616072768509652;7168.633;-4
2024-05-11T14:38:42.960;599616072776201024;7176.3247;-26
2024-05-11T14:38:42.968;599616072783892396;7184.016;2
2024-05-11T14:38:42.975;599616072791583768;7191.707;36
2024-05-11T14:38:42.983;599616072799275140;7199.3984;28
2024-05-11T14:38:42.991;599616072806966512;7207.09;-60
2024-05-11T14:38:42.998;599616072814657884;7214.7812;-137
2024-05-11T14:38:43.006;599616072822349256;7222.4727;-134
2024-05-11T14:38:43.014;599616072830040628;7230.164;-129
2024-05-11T14:38:43.021;599616072837732000;7237.8555;-151
2024-05-11T14:38:43.029;599616072845423372;7245.547;-165
2024-05-11T14:38:43.037;599616072853114744;7253.2383;-189
2024-05-11T14:38:43.044;599616072860806116;7260.9297;-238
2024-05-11T14:38:43.052;599616072868497488;7268.6206;-303
2024-05-11T14:38:43.060;599616072876188860;7276.312;-346
2024-05-11T14:38:43.068;599616072883880232;7284.004;-343
2024-05-11T14:38:43.075;599616072891571604;7291.6953;-341
2024-05-11T14:38:43.083;599616072899232888;7299.356;-343
2024-05-11T14:38:43.091;599616072906924678;7307.048;-322
2024-05-11T14:38:43.098;599616072914616468;7314.7397;-319
2024-05-11T14:38:43.106;599616072922308258;7322.4316;-341
2024-05-11T14:38:43.114;599616072930000048;7330.123;-331
2024-05-11T14:38:43.121;599616072937691838;7337.815;-305
2024-05-11T14:38:43.129;599616072945383628;7345.507;-310
2024-05-11T14:38:43.137;599616072953075418;7353.1987;-343
2024-05-11T14:38:43.144;599616072960767208;7360.89;-372
2024-05-11T14:38:43.152;599616072968458998;7368.582;-365
2024-05-11T14:38:43.160;599616072976150788;7376.2744;-375
2024-05-11T14:38:43.167;599616072983842578;7383.9663;-447
2024-05-11T14:38:43.175;599616072991534368;7391.658;-476
2024-05-11T14:38:43.183;599616072999226158;7399.3496;-428
2024-05-11T14:38:43.191;599616073006917948;7407.0415;-420
2024-05-11T14:38:43.198;599616073014609738;7414.7334;-437
2024-05-11T14:38:43.206;599616073022301528;7422.4253;-384
2024-05-11T14:38:43.214;599616073029993318;7430.1167;-322
2024-05-11T14:38:43.221;599616073037685108;7437.8086;-315
2024-05-11T14:38:43.229;599616073045376898;7445.5005;-334
2024-05-11T14:38:43.237;599616073053068688;7453.1924;-372
2024-05-11T14:38:43.244;599616073060760478;7460.884;-399
2024-05-11T14:38:43.252;599616073068452268;7468.5757;-379
2024-05-11T14:38:43.260;599616073076144058;7476.2676;-339
2024-05-11T14:38:43.267;599616073083835848;7483.9595;-283
2024-05-11T14:38:43.275;599616073091527638;7491.651;-247
2024-05-11T14:38:43.283;599616073099219428;7499.343;-252
2024-05-11T14:38:43.291;599616073106911218;7507.0347;-240
2024-05-11T14:38:43.298;599616073114603008;7514.7266;-170
2024-05-11T14:38:43.306;599616073122294798;7522.418;-115
2024-05-11T14:38:43.314;599616073129986588;7530.11;-103
2024-05-11T14:38:43.321;599616073137678378;7537.802;-91
2024-05-11T14:38:43.329;599616073145370168;7545.4937;-67
2024-05-11T14:38:43.337;599616073153061958;7553.185;-45
2024-05-11T14:38:43.344;599616073160753748;7560.877;-24
2024-05-11T14:38:43.352;599616073168445538;7568.569;-2
2024-05-11T14:38:43.360;599616073176137328;7576.2607;33
2024-05-11T14:38:43.367;599616073183829118;7583.952;72
2024-05-11T14:38:43.375;599616073191520908;7591.644;62
2024-05-11T14:38:43.383;599616073199212698;7599.336;50
2024-05-11T14:38:43.391;599616073206904488;7607.028;93
2024-05-11T14:38:43.398;599616073214596278;7614.7197;137
2024-05-11T14:38:43.406;599616073222288068;7622.411;141
2024-05-11T14:38:43.414;599616073229979858;7630.103;149
2024-05-11T14:38:43.421;599616073237671648;7637.795;165
2024-05-11T14:38:43.429;599616073245363438;7645.487;168
2024-05-11T14:38:43.437;599616073253055228;7653.178;168
2024-05-11T14:38:43.444;599616073260747018;7660.8706;146
2024-05-11T14:38:43.452;599616073268438808;7668.5625;60
2024-05-11T14:38:43.460;599616073276130598;7676.2544;-26
2024-05-11T14:38:43.467;599616073283822388;7683.946;-43
2024-05-11T14:38:43.475;599616073291514178;7691.6377;-48
2024-05-11T14:38:43.483;599616073299205968;7699.3296;-86
2024-05-11T14:38:43.491;599616073306897758;7707.0215;-115
2024-05-11T14:38:43.498;599616073314589548;7714.713;-108
2024-05-11T14:38:43.506;599616073322281338;7722.405;-84
2024-05-11T14:38:43.514;599616073329973128;7730.0967;-60
2024-05-11T14:38:43.521;599616073337664918;7737.7886;-50
2024-05-11T14:38:43.529;599616073345356708;7745.48;-33
2024-05-11T14:38:43.537;599616073353048498;7753.172;7
2024-05-11T14:38:43.544;599616073360740288;7760.864;50
2024-05-11T14:38:43.552;599616073368432078;7768.5557;62
2024-05-11T14:38:43.560;599616073376123868;7776.247;52
2024-05-11T14:38:43.567;599616073383815658;7783.939;76
2024-05-11T14:38:43.575;599616073391507448;7791.631;137
2024-05-11T14:38:43.583;599616073399199238;7799.3228;161
2024-05-11T14:38:43.591;599616073406891028;7807.014;153
2024-05-11T14:38:43.598;599616073414582818;7814.706;173
2024-05-11T14:38:43.606;599616073422274608;7822.398;189
2024-05-11T14:38:43.614;599616073429966398;7830.09;165
2024-05-11T14:38:43.621;599616073437658188;7837.7817;168
2024-05-11T14:38:43.629;599616073445349978;7845.473;211
2024-05-11T14:38:43.637;599616073453041768;7853.165;235
2024-05-11T14:38:43.644;599616073460763666;7860.887;221
2024-05-11T14:38:43.652;599616073468455038;7868.578;204
2024-05-11T14:38:43.660;599616073476146410;7876.2695;199
2024-05-11T14:38:43.667;599616073483837782;7883.9614;221
2024-05-11T14:38:43.675;599616073491529154;7891.653;341
2024-05-11T14:38:43.683;599616073499220526;7899.3438;634
2024-05-11T14:38:43.691;599616073506911898;7907.035;940
2024-05-11T14:38:43.698;599616073514603270;7914.727;860
2024-05-11T14:38:43.706;599616073522294642;7922.418;341
2024-05-11T14:38:43.714;599616073529986014;7930.1094;-64
2024-05-11T14:38:43.721;599616073537677386;7937.801;-40
2024-05-11T14:38:43.729;599616073545368758;7945.492;0
2024-05-11T14:38:43.737;599616073553060130;7953.1836;-137
2024-05-11T14:38:43.744;599616073560751502;7960.875;-173
2024-05-11T14:38:43.752;599616073568442874;7968.5664;-91
2024-05-11T14:38:43.760;599616073576134246;7976.2573;-69
2024-05-11T14:38:43.767;599616073583825618;7983.9487;-79
2024-05-11T14:38:43.775;599616073591516990;7991.6406;-33
2024-05-11T14:38:43.783;599616073599208362;7999.332;14
2024-05-11T14:38:43.791;599616073606899734;8007.023;7
2024-05-11T14:38:43.798;599616073614591106;8014.7144;7
2024-05-11T14:38:43.806;599616073622282478;8022.406;48
2024-05-11T14:38:43.814;599616073629973850;8030.097;88
2024-05-11T14:38:43.821;599616073637665222;8037.7886;113
2024-05-11T14:38:43.829;599616073645356594;8045.48;115
2024-05-11T14:38:43.837;599616073653047966;8053.1714;115
2024-05-11T14:38:43.844;599616073660739338;8060.863;141
2024-05-11T14:38:43.852;599616073668430710;8068.554;165
2024-05-11T14:38:43.860;599616073676122082;8076.2456;170
2024-05-11T14:38:43.867;599616073683813454;8083.937;204
2024-05-11T14:38:43.875;599616073691504826;8091.628;242
2024-05-11T14:38:43.883;599616073699196198;8099.32;223
2024-05-11T14:38:43.891;599616073706887570;8107.011;204
2024-05-11T14:38:43.898;599616073714578942;8114.702;247
2024-05-11T14:38:43.906;599616073722270314;8122.3936;288
2024-05-11T14:38:43.914;599616073729961686;8130.085;281
2024-05-11T14:38:43.921;599616073737653058;8137.777;269
2024-05-11T14:38:43.929;599616073745344430;8145.468;238
2024-05-11T14:38:43.937;599616073753035802;8153.159;173
2024-05-11T14:38:43.944;599616073760727174;8160.8506;115
2024-05-11T14:38:43.952;599616073768418546;8168.5415;16
2024-05-11T14:38:43.960;599616073776109918;8176.2334;-120
2024-05-11T14:38:43.967;599616073783801290;8183.925;-202
2024-05-11T14:38:43.975;599616073791492662;8191.616;-290
2024-05-11T14:38:43.983;599616073799184034;8199.308;-399
2024-05-11T14:38:43.990;599616073806875406;8206.999;-437
2024-05-11T14:38:43.998;599616073814566778;8214.69;-473
2024-05-11T14:38:44.006;599616073822258150;8222.382;-529
2024-05-11T14:38:44.014;599616073829949522;8230.073;-529
2024-05-11T14:38:44.021;599616073837640894;8237.764;-512
2024-05-11T14:38:44.029;599616073845332266;8245.456;-519
2024-05-11T14:38:44.037;599616073853023638;8253.147;-514
2024-05-11T14:38:44.044;599616073860715010;8260.839;-476
2024-05-11T14:38:44.052;599616073868406382;8268.529;-430
2024-05-11T14:38:44.060;599616073876097754;8276.221;-435
2024-05-11T14:38:44.067;599616073883789126;8283.913;-459
2024-05-11T14:38:44.075;599616073891480498;8291.604;-428
2024-05-11T14:38:44.083;599616073899171870;8299.295;-372
2024-05-11T14:38:44.090;599616073906863242;8306.986;-355
2024-05-11T14:38:44.098;599616073914554614;8314.678;-341
2024-05-11T14:38:44.106;599616073922245986;8322.369;-307
2024-05-11T14:38:44.114;599616073929937358;8330.061;-293
2024-05-11T14:38:44.121;599616073937628730;8337.752;-298
2024-05-11T14:38:44.129;599616073945320102;8345.443;-271
2024-05-11T14:38:44.137;599616073953011474;8353.135;-223
2024-05-11T14:38:44.144;599616073960702846;8360.826;-185
2024-05-11T14:38:44.152;599616073968394218;8368.518;-177
2024-05-11T14:38:44.160;599616073976085590;8376.209;-182
2024-05-11T14:38:44.167;599616073983776962;8383.9;-161
2024-05-11T14:38:44.175;599616073991468334;8391.592;-122
2024-05-11T14:38:44.183;599616073999159706;8399.283;-93
2024-05-11T14:38:44.190;599616074006851078;8406.975;-74
2024-05-11T14:38:44.198;599616074014542450;8414.666;-52
2024-05-11T14:38:44.206;599616074022203734;8422.327;-43
2024-05-11T14:38:44.214;599616074029895524;8430.02;-48
2024-05-11T14:38:44.221;599616074037587314;8437.711;-69
2024-05-11T14:38:44.229;599616074045279104;8445.402;-81
2024-05-11T14:38:44.237;599616074052970894;8453.095;-62
2024-05-11T14:38:44.244;599616074060662684;8460.786;-64
2024-05-11T14:38:44.252;599616074068354474;8468.478;-88
2024-05-11T14:38:44.260;599616074076046264;8476.17;-60
2024-05-11T14:38:44.267;599616074083738054;8483.861;-36
2024-05-11T14:38:44.275;599616074091429844;8491.554;-101
2024-05-11T14:38:44.283;599616074099121634;8499.245;-153
2024-05-11T14:38:44.290;599616074106813424;8506.937;-125
2024-05-11T14:38:44.298;599616074114505214;8514.629;-110
2024-05-11T14:38:44.306;599616074122197004;8522.32;-120
2024-05-11T14:38:44.314;599616074129888794;8530.012;-88
2024-05-11T14:38:44.321;599616074137580584;8537.704;-38
2024-05-11T14:38:44.329;599616074145272374;8545.3955;2
2024-05-11T14:38:44.337;599616074152964164;8553.088;16
2024-05-11T14:38:44.344;599616074160655954;8560.779;16
2024-05-11T14:38:44.352;599616074168347744;8568.471;36
2024-05-11T14:38:44.360;599616074176039534;8576.163;67
2024-05-11T14:38:44.367;599616074183731324;8583.8545;84
2024-05-11T14:38:44.375;599616074191423114;8591.546;105
2024-05-11T14:38:44.383;599616074199114904;8599.238;137
2024-05-11T14:38:44.390;599616074206806694;8606.93;134
2024-05-11T14:38:44.398;599616074214498484;8614.622;113
2024-05-11T14:38:44.406;599616074222190274;8622.313;149
2024-05-11T14:38:44.414;599616074229882064;8630.006;223
2024-05-11T14:38:44.421;599616074237573854;8637.697;235
2024-05-11T14:38:44.429;599616074245265644;8645.39;211
2024-05-11T14:38:44.437;599616074252957434;8653.081;218
2024-05-11T14:38:44.444;599616074260649224;8660.772;230
2024-05-11T14:38:44.452;599616074268341014;8668.464;175
2024-05-11T14:38:44.460;599616074276032804;8676.156;50
2024-05-11T14:38:44.467;599616074283724594;8683.848;-33
2024-05-11T14:38:44.475;599616074291416384;8691.54;-60
2024-05-11T14:38:44.483;599616074299108174;8699.231;-93
2024-05-11T14:38:44.490;599616074306799964;8706.924;-108
2024-05-11T14:38:44.498;599616074314491754;8714.615;-76
2024-05-11T14:38:44.506;599616074322183544;8722.307;-43
2024-05-11T14:38:44.513;599616074329875334;8729.998;40
2024-05-11T14:38:44.521;599616074337567124;8737.69;293
2024-05-11T14:38:44.529;599616074345258914;8745.382;630
2024-05-11T14:38:44.537;599616074352950704;8753.074;733
2024-05-11T14:38:44.544;599616074360642494;8760.766;432
2024-05-11T14:38:44.552;599616074368334284;8768.458;69
2024-05-11T14:38:44.560;599616074376026074;8776.149;43
2024-05-11T14:38:44.567;599616074383717864;8783.841;149
2024-05-11T14:38:44.575;599616074391409654;8791.532;98
2024-05-11T14:38:44.583;599616074399101444;8799.225;48
2024-05-11T14:38:44.590;599616074406793234;8806.917;113
2024-05-11T14:38:44.598;599616074414485024;8814.608;161
2024-05-11T14:38:44.606;599616074422176814;8822.301;158
2024-05-11T14:38:44.613;599616074429868604;8829.992;168
2024-05-11T14:38:44.621;599616074437560394;8837.685;187
2024-05-11T14:38:44.629;599616074445252184;8845.375;185
2024-05-11T14:38:44.637;599616074452943974;8853.067;192
2024-05-11T14:38:44.644;599616074460635764;8860.759;216
2024-05-11T14:38:44.652;599616074468327554;8868.451;245
2024-05-11T14:38:44.660;599616074476019344;8876.143;252
2024-05-11T14:38:44.667;599616074483711134;8883.835;233
2024-05-11T14:38:44.675;599616074491402924;8891.526;233
2024-05-11T14:38:44.683;599616074499094714;8899.219;274
2024-05-11T14:38:44.690;599616074506786504;8906.91;295
2024-05-11T14:38:44.698;599616074514478294;8914.602;290
2024-05-11T14:38:44.706;599616074522170084;8922.293;286
2024-05-11T14:38:44.713;599616074529861874;8929.985;242
2024-05-11T14:38:44.721;599616074537553664;8937.677;168
2024-05-11T14:38:44.729;599616074545245454;8945.369;153
2024-05-11T14:38:44.737;599616074552937244;8953.061;192
2024-05-11T14:38:44.744;599616074560629034;8960.753;226
2024-05-11T14:38:44.752;599616074568320824;8968.444;233
2024-05-11T14:38:44.760;599616074576012614;8976.136;214
2024-05-11T14:38:44.767;599616074583704416;8983.827;216
2024-05-11T14:38:44.775;599616074591396206;8991.52;254
2024-05-11T14:38:44.783;599616074599087996;8999.211;271
2024-05-11T14:38:44.790;599616074606779786;9006.903;262
2024-05-11T14:38:44.798;599616074614471576;9014.595;262
2024-05-11T14:38:44.806;599616074622163366;9022.287;199
2024-05-11T14:38:44.813;599616074629855156;9029.979;9
2024-05-11T14:38:44.821;599616074637546946;9037.67;-153
2024-05-11T14:38:44.829;599616074645238736;9045.361;-158
2024-05-11T14:38:44.837;599616074652930526;9053.054;-134
2024-05-11T14:38:44.844;599616074660622316;9060.745;-185
2024-05-11T14:38:44.852;599616074668314106;9068.4375;-250
2024-05-11T14:38:44.860;599616074676005896;9076.13;-288
2024-05-11T14:38:44.867;599616074683697686;9083.821;-315
2024-05-11T14:38:44.875;599616074691389476;9091.514;-367
2024-05-11T14:38:44.883;599616074699081266;9099.205;-428
2024-05-11T14:38:44.890;599616074706773056;9106.896;-435
2024-05-11T14:38:44.898;599616074714464846;9114.588;-430
2024-05-11T14:38:44.906;599616074722156636;9122.28;-452
2024-05-11T14:38:44.913;599616074729848426;9129.972;-449
2024-05-11T14:38:44.921;599616074737540216;9137.664;-413
2024-05-11T14:38:44.929;599616074745232006;9145.355;-391
2024-05-11T14:38:44.937;599616074752923796;9153.048;-401
2024-05-11T14:38:44.944;599616074760615586;9160.739;-416
2024-05-11T14:38:44.952;599616074768307376;9168.431;-473
2024-05-11T14:38:44.960;599616074775999166;9176.122;-601
2024-05-11T14:38:44.967;599616074783690956;9183.814;-661
2024-05-11T14:38:44.975;599616074791382746;9191.506;-598
2024-05-11T14:38:44.983;599616074799074536;9199.198;-541
2024-05-11T14:38:44.990;599616074806766326;9206.89;-541
2024-05-11T14:38:44.998;599616074814458116;9214.582;-531
2024-05-11T14:38:45.006;599616074822149906;9222.273;-478
2024-05-11T14:38:45.013;599616074829841696;9229.965;-416
2024-05-11T14:38:45.021;599616074837533486;9237.656;-375
2024-05-11T14:38:45.029;599616074845225276;9245.349;-358
2024-05-11T14:38:45.037;599616074852917066;9253.04;-351
2024-05-11T14:38:45.044;599616074860608856;9260.732;-312
2024-05-11T14:38:45.052;599616074868300646;9268.424;-264
2024-05-11T14:38:45.060;599616074875992436;9276.116;-240
2024-05-11T14:38:45.067;599616074883684226;9283.808;-204
2024-05-11T14:38:45.075;599616074891376016;9291.5;-156
2024-05-11T14:38:45.083;599616074899067806;9299.19;-158
2024-05-11T14:38:45.090;599616074906759596;9306.883;-165
2024-05-11T14:38:45.098;599616074914451386;9314.574;-108
2024-05-11T14:38:45.106;599616074922143176;9322.267;-52
2024-05-11T14:38:45.113;599616074929834966;9329.958;-40
2024-05-11T14:38:45.121;599616074937526756;9337.65;-31
2024-05-11T14:38:45.129;599616074945218546;9345.342;-9
2024-05-11T14:38:45.137;599616074952910336;9353.034;14
2024-05-11T14:38:45.144;599616074960602126;9360.726;19
2024-05-11T14:38:45.152;599616074968293916;9368.417;36
2024-05-11T14:38:45.160;599616074975985706;9376.109;91
2024-05-11T14:38:45.167;599616074983677496;9383.801;122
2024-05-11T14:38:45.175;599616074991369286;9391.493;105
2024-05-11T14:38:45.183;599616074999061076;9399.185;96
2024-05-11T14:38:45.190;599616075006752866;9406.877;134
2024-05-11T14:38:45.198;599616075014444656;9414.568;175
2024-05-11T14:38:45.206;599616075022136446;9422.26;153
2024-05-11T14:38:45.213;599616075029828236;9429.951;103
2024-05-11T14:38:45.221;599616075037520026;9437.644;86
2024-05-11T14:38:45.229;599616075045211816;9445.335;93
2024-05-11T14:38:45.237;599616075052903606;9453.027;98
2024-05-11T14:38:45.244;599616075060595396;9460.719;117
2024-05-11T14:38:45.252;599616075068287186;9468.411;158
2024-05-11T14:38:45.260;599616075075978976;9476.103;185
2024-05-11T14:38:45.267;599616075083670766;9483.794;177
2024-05-11T14:38:45.275;599616075091362556;9491.485;177
2024-05-11T14:38:45.283;599616075099054346;9499.178;214
2024-05-11T14:38:45.290;599616075106746136;9506.869;242
2024-05-11T14:38:45.298;599616075114437926;9514.562;238
2024-05-11T14:38:45.306;599616075122129716;9522.253;240
2024-05-11T14:38:45.313;599616075129821506;9529.945;247
2024-05-11T14:38:45.321;599616075137513296;9537.637;242
2024-05-11T14:38:45.329;599616075145235194;9545.358;247
2024-05-11T14:38:45.337;599616075152926566;9553.05;274
2024-05-11T14:38:45.344;599616075160617938;9560.741;305
2024-05-11T14:38:45.352;599616075168309310;9568.434;286
2024-05-11T14:38:45.360;599616075176000682;9576.124;223
2024-05-11T14:38:45.367;599616075183692054;9583.815;259
2024-05-11T14:38:45.375;599616075191383426;9591.507;483
2024-05-11T14:38:45.383;599616075199074798;9599.198;764
2024-05-11T14:38:45.390;599616075206766170;9606.89;844
2024-05-11T14:38:45.398;599616075214457542;9614.581;579
2024-05-11T14:38:45.406;599616075222148914;9622.272;185
2024-05-11T14:38:45.413;599616075229840286;9629.963;28
2024-05-11T14:38:45.421;599616075237531658;9637.655;105
2024-05-11T14:38:45.429;599616075245223030;9645.347;141
2024-05-11T14:38:45.437;599616075252914402;9653.038;134
2024-05-11T14:38:45.444;599616075260605774;9660.7295;163
2024-05-11T14:38:45.452;599616075268297146;9668.421;115
2024-05-11T14:38:45.460;599616075275988518;9676.112;-28
2024-05-11T14:38:45.467;599616075283679890;9683.803;-96
2024-05-11T14:38:45.475;599616075291371262;9691.494;-64
2024-05-11T14:38:45.483;599616075299062634;9699.186;-45
2024-05-11T14:38:45.490;599616075306754006;9706.877;-24
2024-05-11T14:38:45.498;599616075314445378;9714.569;2
2024-05-11T14:38:45.506;599616075322136750;9722.261;0
2024-05-11T14:38:45.513;599616075329828122;9729.952;21
2024-05-11T14:38:45.521;599616075337519494;9737.643;79
2024-05-11T14:38:45.529;599616075345210866;9745.334;115
2024-05-11T14:38:45.537;599616075352902238;9753.025;113
2024-05-11T14:38:45.544;599616075360593610;9760.717;115
2024-05-11T14:38:45.552;599616075368284982;9768.408;139
2024-05-11T14:38:45.560;599616075375976354;9776.1;170
2024-05-11T14:38:45.567;599616075383667726;9783.792;192
2024-05-11T14:38:45.575;599616075391359098;9791.482;218
2024-05-11T14:38:45.583;599616075399050470;9799.174;247
2024-05-11T14:38:45.590;599616075406741842;9806.865;245
2024-05-11T14:38:45.598;599616075414433214;9814.557;230
2024-05-11T14:38:45.606;599616075422124586;9822.248;262
2024-05-11T14:38:45.613;599616075429815958;9829.939;310
2024-05-11T14:38:45.621;599616075437507330;9837.631;322
2024-05-11T14:38:45.629;599616075445198702;9845.321;305
2024-05-11T14:38:45.637;599616075452890074;9853.013;300
2024-05-11T14:38:45.644;599616075460581446;9860.705;305
2024-05-11T14:38:45.652;599616075468272818;9868.396;303
2024-05-11T14:38:45.660;599616075475964190;9876.088;288
2024-05-11T14:38:45.667;599616075483655562;9883.779;286
2024-05-11T14:38:45.675;599616075491346934;9891.471;274
2024-05-11T14:38:45.683;599616075499038306;9899.161;197
2024-05-11T14:38:45.690;599616075506729678;9906.853;98
2024-05-11T14:38:45.698;599616075514421050;9914.544;33
2024-05-11T14:38:45.706;599616075522112422;9922.235;-21
2024-05-11T14:38:45.713;599616075529803794;9929.928;-60
2024-05-11T14:38:45.721;599616075537495166;9937.619;-84
2024-05-11T14:38:45.729;599616075545186538;9945.311;-137
2024-05-11T14:38:45.737;599616075552877910;9953.002;-189
2024-05-11T14:38:45.744;599616075560569282;9960.692;-240
2024-05-11T14:38:45.752;599616075568260654;9968.384;-305
2024-05-11T14:38:45.760;599616075575952026;9976.075;-327
2024-05-11T14:38:45.767;599616075583643398;9983.767;-324
2024-05-11T14:38:45.775;599616075591334770;9991.458;-367
2024-05-11T14:38:45.783;599616075599026142;9999.149;-387
2024-05-11T14:38:45.790;599616075606717514;10006.842;-351
2024-05-11T14:38:45.798;599616075614408886;10014.532;-334
2024-05-11T14:38:45.806;599616075622100258;10022.224;-346
2024-05-11T14:38:45.813;599616075629791630;10029.915;-348
2024-05-11T14:38:45.821;599616075637483002;10037.606;-336
2024-05-11T14:38:45.829;599616075645174374;10045.298;-322
2024-05-11T14:38:45.836;599616075652865746;10052.989;-312
2024-05-11T14:38:45.844;599616075660557118;10060.681;-298
2024-05-11T14:38:45.852;599616075668248490;10068.371;-254
2024-05-11T14:38:45.860;599616075675939862;10076.063;-233
2024-05-11T14:38:45.867;599616075683631234;10083.755;-264
2024-05-11T14:38:45.875;599616075691322606;10091.446;-262
2024-05-11T14:38:45.883;599616075699013978;10099.138;-197
2024-05-11T14:38:45.890;599616075706675262;10106.799;-163
2024-05-11T14:38:45.898;599616075714367052;10114.49;-168
2024-05-11T14:38:45.906;599616075722058842;10122.183;-153
2024-05-11T14:38:45.913;599616075729750632;10129.874;-144
2024-05-11T14:38:45.921;599616075737442422;10137.566;-202
2024-05-11T14:38:45.929;599616075745134212;10145.258;-295
2024-05-11T14:38:45.936;599616075752826002;10152.95;-307
2024-05-11T14:38:45.944;599616075760517792;10160.641;-305
2024-05-11T14:38:45.952;599616075768209582;10168.333;-379
2024-05-11T14:38:45.960;599616075775901372;10176.024;-461
2024-05-11T14:38:45.967;599616075783593162;10183.717;-529
2024-05-11T14:38:45.975;599616075791284952;10191.408;-574
2024-05-11T14:38:45.983;599616075798976742;10199.101;-548
2024-05-11T14:38:45.990;599616075806668532;10206.792;-495
2024-05-11T14:38:45.998;599616075814360322;10214.484;-447
2024-05-11T14:38:46.006;599616075822052112;10222.175;-406
2024-05-11T14:38:46.013;599616075829743902;10229.867;-387
2024-05-11T14:38:46.021;599616075837435692;10237.559;-355
2024-05-11T14:38:46.029;599616075845127482;10245.251;-288
2024-05-11T14:38:46.036;599616075852819272;10252.942;-221
2024-05-11T14:38:46.044;599616075860511062;10260.635;-204
2024-05-11T14:38:46.052;599616075868202852;10268.326;-209
2024-05-11T14:38:46.060;599616075875894642;10276.019;-165
2024-05-11T14:38:46.067;599616075883586432;10283.709;-105
2024-05-11T14:38:46.075;599616075891278222;10291.401;-81
2024-05-11T14:38:46.083;599616075898970012;10299.093;-55
2024-05-11T14:38:46.090;599616075906661802;10306.785;-9
2024-05-11T14:38:46.098;599616075914353592;10314.477;4
2024-05-11T14:38:46.106;599616075922045382;10322.169;-2
2024-05-11T14:38:46.113;599616075929737172;10329.86;24
2024-05-11T14:38:46.121;599616075937428962;10337.553;79
2024-05-11T14:38:46.129;599616075945120752;10345.243;117
2024-05-11T14:38:46.136;599616075952812542;10352.936;113
2024-05-11T14:38:46.144;599616075960504332;10360.628;98
2024-05-11T14:38:46.152;599616075968196122;10368.319;120
2024-05-11T14:38:46.160;599616075975887912;10376.012;158
2024-05-11T14:38:46.167;599616075983579702;10383.703;182
2024-05-11T14:38:46.175;599616075991271492;10391.3955;211
2024-05-11T14:38:46.183;599616075998963282;10399.087;226
2024-05-11T14:38:46.190;599616076006655072;10406.779;175
2024-05-11T14:38:46.198;599616076014346862;10414.47;113
2024-05-11T14:38:46.206;599616076022038652;10422.162;120
2024-05-11T14:38:46.213;599616076029730442;10429.854;153
2024-05-11T14:38:46.221;599616076037422232;10437.546;156
2024-05-11T14:38:46.229;599616076045114022;10445.237;146
2024-05-11T14:38:46.236;599616076052805812;10452.93;146
2024-05-11T14:38:46.244;599616076060497602;10460.621;161
2024-05-11T14:38:46.252;599616076068189392;10468.313;144
2024-05-11T14:38:46.260;599616076075881182;10476.004;129
2024-05-11T14:38:46.267;599616076083572972;10483.696;245
2024-05-11T14:38:46.275;599616076091264762;10491.388;533
2024-05-11T14:38:46.283;599616076098956552;10499.08;832
2024-05-11T14:38:46.290;599616076106648342;10506.771;860
2024-05-11T14:38:46.298;599616076114340132;10514.464;521
2024-05-11T14:38:46.306;599616076122031922;10522.155;194
2024-05-11T14:38:46.313;599616076129723712;10529.848;187
2024-05-11T14:38:46.321;599616076137415502;10537.538;259
2024-05-11T14:38:46.329;599616076145107292;10545.23;216
2024-05-11T14:38:46.336;599616076152799082;10552.922;202
2024-05-11T14:38:46.344;599616076160490872;10560.614;230
2024-05-11T14:38:46.352;599616076168182662;10568.306;235
2024-05-11T14:38:46.359;599616076175874452;10575.998;257
2024-05-11T14:38:46.367;599616076183566242;10583.689;283
2024-05-11T14:38:46.375;599616076191258032;10591.382;259
2024-05-11T14:38:46.383;599616076198949822;10599.073;242
2024-05-11T14:38:46.390;599616076206641612;10606.765;286
2024-05-11T14:38:46.398;599616076214333402;10614.456;319
2024-05-11T14:38:46.406;599616076222025192;10622.148;305
2024-05-11T14:38:46.413;599616076229716982;10629.84;295
2024-05-11T14:38:46.421;599616076237408772;10637.532;315
2024-05-11T14:38:46.429;599616076245100562;10645.225;319
2024-05-11T14:38:46.436;599616076252792352;10652.916;293
2024-05-11T14:38:46.444;599616076260484142;10660.608;257
2024-05-11T14:38:46.452;599616076268175944;10668.299;259
2024-05-11T14:38:46.459;599616076275867734;10675.991;281
2024-05-11T14:38:46.467;599616076283559524;10683.683;235
2024-05-11T14:38:46.475;599616076291251314;10691.375;122
2024-05-11T14:38:46.483;599616076298943104;10699.066;84
2024-05-11T14:38:46.490;599616076306634894;10706.759;127
2024-05-11T14:38:46.498;599616076314326684;10714.45;137
2024-05-11T14:38:46.506;599616076322018474;10722.143;129
2024-05-11T14:38:46.513;599616076329710264;10729.833;141
2024-05-11T14:38:46.521;599616076337402054;10737.525;105
2024-05-11T14:38:46.529;599616076345093844;10745.217;33
2024-05-11T14:38:46.536;599616076352785634;10752.909;16
2024-05-11T14:38:46.544;599616076360477424;10760.601;38
2024-05-11T14:38:46.552;599616076368169214;10768.293;-19
2024-05-11T14:38:46.559;599616076375861004;10775.984;-125
2024-05-11T14:38:46.567;599616076383552794;10783.677;-151
2024-05-11T14:38:46.575;599616076391244584;10791.368;-117
2024-05-11T14:38:46.583;599616076398936374;10799.06;-127
2024-05-11T14:38:46.590;599616076406628164;10806.751;-165
2024-05-11T14:38:46.598;599616076414319954;10814.443;-194
2024-05-11T14:38:46.606;599616076422011744;10822.135;-240
2024-05-11T14:38:46.613;599616076429703534;10829.827;-322
2024-05-11T14:38:46.621;599616076437395324;10837.519;-399
2024-05-11T14:38:46.629;599616076445087114;10845.211;-406
2024-05-11T14:38:46.636;599616076452778904;10852.902;-375
2024-05-11T14:38:46.644;599616076460470694;10860.594;-399
2024-05-11T14:38:46.652;599616076468162484;10868.285;-442
2024-05-11T14:38:46.659;599616076475854274;10875.978;-428
2024-05-11T14:38:46.667;599616076483546064;10883.669;-394
2024-05-11T14:38:46.675;599616076491237854;10891.361;-404
2024-05-11T14:38:46.683;599616076498929644;10899.053;-442
2024-05-11T14:38:46.690;599616076506621434;10906.745;-488
2024-05-11T14:38:46.698;599616076514313224;10914.4375;-505
2024-05-11T14:38:46.706;599616076522005014;10922.128;-492
2024-05-11T14:38:46.713;599616076529696804;10929.82;-466
2024-05-11T14:38:46.721;599616076537388594;10937.512;-416
2024-05-11T14:38:46.729;599616076545080384;10945.204;-372
2024-05-11T14:38:46.736;599616076552772174;10952.8955;-367
2024-05-11T14:38:46.744;599616076560463964;10960.588;-365
2024-05-11T14:38:46.752;599616076568155754;10968.279;-322
2024-05-11T14:38:46.759;599616076575847544;10975.972;-283
2024-05-11T14:38:46.767;599616076583539334;10983.662;-266
2024-05-11T14:38:46.775;599616076591231124;10991.3545;-230
2024-05-11T14:38:46.783;599616076598922914;10999.046;-180
2024-05-11T14:38:46.790;599616076606614704;11006.738;-173
2024-05-11T14:38:46.798;599616076614306494;11014.43;-180
2024-05-11T14:38:46.806;599616076621998284;11022.122;-144
2024-05-11T14:38:46.813;599616076629690074;11029.813;-84
2024-05-11T14:38:46.821;599616076637381864;11037.506;-50
2024-05-11T14:38:46.829;599616076645073654;11045.197;-50
2024-05-11T14:38:46.836;599616076652765444;11052.889;-40
2024-05-11T14:38:46.844;599616076660457234;11060.58;-4
2024-05-11T14:38:46.852;599616076668149024;11068.272;12
2024-05-11T14:38:46.859;599616076675840814;11075.964;19
2024-05-11T14:38:46.867;599616076683532604;11083.656;62
2024-05-11T14:38:46.875;599616076691224394;11091.348;103
2024-05-11T14:38:46.883;599616076698916184;11099.04;93
2024-05-11T14:38:46.890;599616076706607974;11106.731;81
2024-05-11T14:38:46.898;599616076714299764;11114.423;110
2024-05-11T14:38:46.906;599616076721991554;11122.114;149
2024-05-11T14:38:46.913;599616076729683344;11129.807;165
2024-05-11T14:38:46.921;599616076737375134;11137.498;156
2024-05-11T14:38:46.929;599616076745066924;11145.19;105
2024-05-11T14:38:46.936;599616076752758714;11152.882;43
2024-05-11T14:38:46.944;599616076760450504;11160.574;31
2024-05-11T14:38:46.952;599616076768142294;11168.266;55
2024-05-11T14:38:46.959;599616076775834084;11175.957;84
2024-05-11T14:38:46.967;599616076783525874;11183.648;67
2024-05-11T14:38:46.975;599616076791217664;11191.341;-33
2024-05-11T14:38:46.983;599616076798909454;11199.033;-98
2024-05-11T14:38:46.990;599616076806601244;11206.725;-45
2024-05-11T14:38:46.998;599616076814293034;11214.417;9
2024-05-11T14:38:47.006;599616076821984824;11222.108;4
2024-05-11T14:38:47.013;599616076829706722;11229.83;14
2024-05-11T14:38:47.021;599616076837398094;11237.521;50
2024-05-11T14:38:47.029;599616076845089466;11245.213;86
2024-05-11T14:38:47.036;599616076852780838;11252.904;108
2024-05-11T14:38:47.044;599616076860472210;11260.595;129
2024-05-11T14:38:47.052;599616076868163582;11268.286;177
2024-05-11T14:38:47.059;599616076875854954;11275.979;199
2024-05-11T14:38:47.067;599616076883546326;11283.67;156
2024-05-11T14:38:47.075;599616076891237698;11291.361;137
2024-05-11T14:38:47.083;599616076898929070;11299.053;180
2024-05-11T14:38:47.090;599616076906620442;11306.744;165
2024-05-11T14:38:47.098;599616076914311814;11314.436;69
2024-05-11T14:38:47.106;599616076922003186;11322.126;26
2024-05-11T14:38:47.113;599616076929694558;11329.817;43
2024-05-11T14:38:47.121;599616076937385930;11337.509;14
2024-05-11T14:38:47.129;599616076945077302;11345.201;-2
2024-05-11T14:38:47.136;599616076952768674;11352.893;158
2024-05-11T14:38:47.144;599616076960460046;11360.584;507
2024-05-11T14:38:47.152;599616076968151418;11368.275;803
2024-05-11T14:38:47.159;599616076975842790;11375.966;731
2024-05-11T14:38:47.167;599616076983534162;11383.657;329
2024-05-11T14:38:47.175;599616076991225534;11391.349;9
2024-05-11T14:38:47.183;599616076998916906;11399.04;-24
2024-05-11T14:38:47.190;599616077006608278;11406.731;16
2024-05-11T14:38:47.198;599616077014299650;11414.423;0
2024-05-11T14:38:47.206;599616077021991022;11422.115;-9
2024-05-11T14:38:47.213;599616077029682394;11429.806;-4
2024-05-11T14:38:47.221;599616077037373766;11437.497;7
2024-05-11T14:38:47.229;599616077045065138;11445.188;45
2024-05-11T14:38:47.236;599616077052756510;11452.88;84
2024-05-11T14:38:47.244;599616077060447882;11460.571;79
2024-05-11T14:38:47.252;599616077068139254;11468.263;69
2024-05-11T14:38:47.259;599616077075830626;11475.954;98
2024-05-11T14:38:47.267;599616077083521998;11483.645;132
2024-05-11T14:38:47.275;599616077091213370;11491.337;141
2024-05-11T14:38:47.283;599616077098904742;11499.028;165
2024-05-11T14:38:47.290;599616077106596114;11506.72;202
2024-05-11T14:38:47.298;599616077114287486;11514.411;206
2024-05-11T14:38:47.306;599616077121978858;11522.103;189
2024-05-11T14:38:47.313;599616077129670230;11529.794;209
2024-05-11T14:38:47.321;599616077137361602;11537.484;259
2024-05-11T14:38:47.329;599616077145052974;11545.176;290
2024-05-11T14:38:47.336;599616077152744346;11552.867;288
2024-05-11T14:38:47.344;599616077160435718;11560.56;281
2024-05-11T14:38:47.352;599616077168127090;11568.251;303
2024-05-11T14:38:47.359;599616077175818462;11575.942;324
2024-05-11T14:38:47.367;599616077183509834;11583.634;331
2024-05-11T14:38:47.375;599616077191201206;11591.324;346
2024-05-11T14:38:47.383;599616077198892578;11599.016;358
2024-05-11T14:38:47.390;599616077206583950;11606.707;307
2024-05-11T14:38:47.398;599616077214275322;11614.398;223
2024-05-11T14:38:47.406;599616077221966694;11622.09;202
2024-05-11T14:38:47.413;599616077229658066;11629.781;214
2024-05-11T14:38:47.421;599616077237349438;11637.474;156
2024-05-11T14:38:47.429;599616077245040810;11645.164;52
2024-05-11T14:38:47.436;599616077252732182;11652.855;-36
2024-05-11T14:38:47.444;599616077260423554;11660.547;-103
2024-05-11T14:38:47.452;599616077268114926;11668.238;-163
2024-05-11T14:38:47.459;599616077275806298;11675.93;-240
2024-05-11T14:38:47.467;599616077283497670;11683.621;-319
2024-05-11T14:38:47.475;599616077291189042;11691.3125;-442
2024-05-11T14:38:47.483;599616077298880414;11699.003;-593
2024-05-11T14:38:47.490;599616077306571786;11706.695;-630
2024-05-11T14:38:47.498;599616077314263158;11714.387;-560
2024-05-11T14:38:47.506;599616077321954530;11722.078;-531
2024-05-11T14:38:47.513;599616077329645902;11729.77;-536
2024-05-11T14:38:47.521;599616077337337274;11737.461;-517
2024-05-11T14:38:47.529;599616077345028646;11745.152;-492
2024-05-11T14:38:47.536;599616077352720018;11752.844;-473
2024-05-11T14:38:47.544;599616077360411390;11760.534;-452
2024-05-11T14:38:47.552;599616077368102762;11768.226;-425
2024-05-11T14:38:47.559;599616077375794134;11775.917;-377
2024-05-11T14:38:47.567;599616077383485506;11783.609;-343
2024-05-11T14:38:47.575;599616077391146790;11791.27;-346
2024-05-11T14:38:47.582;599616077398838580;11798.962;-334
2024-05-11T14:38:47.590;599616077406530370;11806.653;-281
2024-05-11T14:38:47.598;599616077414222160;11814.346;-245
2024-05-11T14:38:47.606;599616077421913950;11822.037;-233
2024-05-11T14:38:47.613;599616077429605740;11829.7295;-214
2024-05-11T14:38:47.621;599616077437297530;11837.421;-194
2024-05-11T14:38:47.629;599616077444989320;11845.113;-211
2024-05-11T14:38:47.636;599616077452681110;11852.804;-276
2024-05-11T14:38:47.644;599616077460372900;11860.496;-305
2024-05-11T14:38:47.652;599616077468064690;11868.1875;-252
2024-05-11T14:38:47.659;599616077475756480;11875.88;-209
2024-05-11T14:38:47.667;599616077483448270;11883.571;-238
2024-05-11T14:38:47.675;599616077491140060;11891.264;-278
2024-05-11T14:38:47.682;599616077498831850;11898.955;-245
2024-05-11T14:38:47.690;599616077506523640;11906.647;-189
2024-05-11T14:38:47.698;599616077514215430;11914.339;-177
2024-05-11T14:38:47.706;599616077521907220;11922.03;-163
2024-05-11T14:38:47.713;599616077529599010;11929.723;-127
2024-05-11T14:38:47.721;599616077537290800;11937.414;-105
2024-05-11T14:38:47.729;599616077544982590;11945.106;-88
2024-05-11T14:38:47.736;599616077552674380;11952.798;-50
2024-05-11T14:38:47.744;599616077560366170;11960.49;2
2024-05-11T14:38:47.752;599616077568057960;11968.182;21
2024-05-11T14:38:47.759;599616077575749750;11975.874;9
2024-05-11T14:38:47.767;599616077583441540;11983.564;19
2024-05-11T14:38:47.775;599616077591133330;11991.257;62
2024-05-11T14:38:47.782;599616077598825120;11998.948;93
2024-05-11T14:38:47.790;599616077606516910;12006.641;115
2024-05-11T14:38:47.798;599616077614208700;12014.332;141
2024-05-11T14:38:47.806;599616077621900490;12022.024;146
2024-05-11T14:38:47.813;599616077629592280;12029.716;132
2024-05-11T14:38:47.821;599616077637284070;12037.408;146
2024-05-11T14:38:47.829;599616077644975860;12045.099;192
2024-05-11T14:38:47.836;599616077652667650;12052.791;230
2024-05-11T14:38:47.844;599616077660359440;12060.482;233
2024-05-11T14:38:47.852;599616077668051230;12068.175;206
2024-05-11T14:38:47.859;599616077675743020;12075.866;216
2024-05-11T14:38:47.867;599616077683434810;12083.559;257
2024-05-11T14:38:47.875;599616077691126600;12091.25;266
2024-05-11T14:38:47.882;599616077698818390;12098.942;271
2024-05-11T14:38:47.890;599616077706510180;12106.633;300
2024-05-11T14:38:47.898;599616077714201970;12114.325;295
2024-05-11T14:38:47.906;599616077721893760;12122.017;259
2024-05-11T14:38:47.913;599616077729585550;12129.709;223
2024-05-11T14:38:47.921;599616077737277340;12137.4;187
2024-05-11T14:38:47.929;599616077744969130;12145.093;185
2024-05-11T14:38:47.936;599616077752660920;12152.784;202
2024-05-11T14:38:47.944;599616077760352710;12160.477;187
2024-05-11T14:38:47.952;599616077768044500;12168.167;199
2024-05-11T14:38:47.959;599616077775736290;12175.859;235
2024-05-11T14:38:47.967;599616077783428080;12183.551;216
2024-05-11T14:38:47.975;599616077791119870;12191.243;146
2024-05-11T14:38:47.982;599616077798811660;12198.936;57
2024-05-11T14:38:47.990;599616077806503450;12206.627;-14
2024-05-11T14:38:47.998;599616077814195240;12214.319;-21
2024-05-11T14:38:48.006;599616077821887030;12222.011;12
2024-05-11T14:38:48.013;599616077829578820;12229.703;38
2024-05-11T14:38:48.021;599616077837270610;12237.394;36
2024-05-11T14:38:48.029;599616077844962400;12245.086;48
2024-05-11T14:38:48.036;599616077852654190;12252.777;192
2024-05-11T14:38:48.044;599616077860345980;12260.47;521
2024-05-11T14:38:48.052;599616077868037770;12268.161;800
2024-05-11T14:38:48.059;599616077875729560;12275.854;697
2024-05-11T14:38:48.067;599616077883421350;12283.545;315
2024-05-11T14:38:48.075;599616077891113140;12291.237;101
2024-05-11T14:38:48.082;599616077898804930;12298.928;139
2024-05-11T14:38:48.090;599616077906496720;12306.62;168
2024-05-11T14:38:48.098;599616077914188510;12314.312;146
2024-05-11T14:38:48.106;599616077921880300;12322.004;182
2024-05-11T14:38:48.113;599616077929572090;12329.695;211
2024-05-11T14:38:48.121;599616077937263880;12337.388;199
2024-05-11T14:38:48.129;599616077944955670;12345.079;204
2024-05-11T14:38:48.136;599616077952647472;12352.771;223
2024-05-11T14:38:48.144;599616077960339262;12360.462;226
2024-05-11T14:38:48.152;599616077968031052;12368.154;226
2024-05-11T14:38:48.159;599616077975722842;12375.846;216
2024-05-11T14:38:48.167;599616077983414632;12383.538;137
2024-05-11T14:38:48.175;599616077991106422;12391.2295;-2
2024-05-11T14:38:48.182;599616077998798212;12398.922;-88
2024-05-11T14:38:48.190;599616078006490002;12406.613;-57
2024-05-11T14:38:48.198;599616078014181792;12414.306;-4
2024-05-11T14:38:48.205;599616078021873582;12421.996;-7
2024-05-11T14:38:48.213;599616078029565372;12429.688;-7
2024-05-11T14:38:48.221;599616078037257162;12437.38;9
2024-05-11T14:38:48.229;599616078044948952;12445.072;-12
2024-05-11T14:38:48.236;599616078052640742;12452.764;-62
2024-05-11T14:38:48.244;599616078060332532;12460.456;-64
2024-05-11T14:38:48.252;599616078068024322;12468.147;-19
2024-05-11T14:38:48.259;599616078075716112;12475.84;-12
2024-05-11T14:38:48.267;599616078083407902;12483.532;-60
2024-05-11T14:38:48.275;599616078091099692;12491.223;-108
2024-05-11T14:38:48.282;599616078098791482;12498.915;-129
2024-05-11T14:38:48.290;599616078106483272;12506.606;-156
2024-05-11T14:38:48.298;599616078114175062;12514.299;-221
2024-05-11T14:38:48.305;599616078121866852;12521.99;-278
2024-05-11T14:38:48.313;599616078129558642;12529.683;-303
2024-05-11T14:38:48.321;599616078137250432;12537.374;-334
2024-05-11T14:38:48.329;599616078144942222;12545.066;-367
2024-05-11T14:38:48.336;599616078152634012;12552.757;-365
2024-05-11T14:38:48.344;599616078160325802;12560.449;-343
2024-05-11T14:38:48.352;599616078168017592;12568.141;-360
2024-05-11T14:38:48.359;599616078175709382;12575.833;-404
2024-05-11T14:38:48.367;599616078183401172;12583.524;-401
2024-05-11T14:38:48.375;599616078191092962;12591.217;-358
2024-05-11T14:38:48.382;599616078198784752;12598.908;-343
2024-05-11T14:38:48.390;599616078206476542;12606.601;-336
2024-05-11T14:38:48.398;599616078214168332;12614.291;-307
2024-05-11T14:38:48.405;599616078221860122;12621.983;-341
2024-05-11T14:38:48.413;599616078229551912;12629.675;-430
2024-05-11T14:38:48.421;599616078237243702;12637.367;-432
2024-05-11T14:38:48.429;599616078244935492;12645.059;-360
2024-05-11T14:38:48.436;599616078252627282;12652.751;-315
2024-05-11T14:38:48.444;599616078260319072;12660.442;-307
2024-05-11T14:38:48.452;599616078268010862;12668.135;-300
2024-05-11T14:38:48.459;599616078275702652;12675.825;-262
2024-05-11T14:38:48.467;599616078283394442;12683.518;-218
2024-05-11T14:38:48.475;599616078291086232;12691.209;-202
2024-05-11T14:38:48.482;599616078298778022;12698.901;-223
2024-05-11T14:38:48.490;599616078306469812;12706.593;-305
2024-05-11T14:38:48.498;599616078314161602;12714.285;-384
2024-05-11T14:38:48.505;599616078321853392;12721.977;-375
2024-05-11T14:38:48.513;599616078329545182;12729.669;-315
2024-05-11T14:38:48.521;599616078337236972;12737.36;-264
2024-05-11T14:38:48.529;599616078344928762;12745.052;-221
2024-05-11T14:38:48.536;599616078352620552;12752.744;-192
2024-05-11T14:38:48.544;599616078360312342;12760.436;-180
2024-05-11T14:38:48.552;599616078368004132;12768.128;-149
2024-05-11T14:38:48.559;599616078375695922;12775.819;-105
2024-05-11T14:38:48.567;599616078383387712;12783.512;-76
2024-05-11T14:38:48.575;599616078391079502;12791.203;-40
2024-05-11T14:38:48.582;599616078398771292;12798.8955;4
2024-05-11T14:38:48.590;599616078406463082;12806.586;14
2024-05-11T14:38:48.598;599616078414154872;12814.278;2
2024-05-11T14:38:48.605;599616078421846662;12821.97;36
2024-05-11T14:38:48.613;599616078429538452;12829.662;93
2024-05-11T14:38:48.621;599616078437230242;12837.354;117
2024-05-11T14:38:48.629;599616078444922032;12845.046;113
2024-05-11T14:38:48.636;599616078452613822;12852.737;115
2024-05-11T14:38:48.644;599616078460305612;12860.43;137
2024-05-11T14:38:48.652;599616078467997402;12868.12;132
2024-05-11T14:38:48.659;599616078475689192;12875.8125;105
2024-05-11T14:38:48.667;599616078483380982;12883.504;110
2024-05-11T14:38:48.675;599616078491072772;12891.196;144
2024-05-11T14:38:48.682;599616078498764562;12898.888;141
2024-05-11T14:38:48.690;599616078506456352;12906.58;137
2024-05-11T14:38:48.698;599616078514148154;12914.271;170
2024-05-11T14:38:48.705;599616078521839944;12921.964;214
2024-05-11T14:38:48.713;599616078529531734;12929.654;223
2024-05-11T14:38:48.721;599616078537223524;12937.347;221
2024-05-11T14:38:48.729;599616078544915314;12945.038;226
2024-05-11T14:38:48.736;599616078552607104;12952.73;214
2024-05-11T14:38:48.744;599616078560298894;12960.422;156
2024-05-11T14:38:48.752;599616078567990684;12968.114;96
2024-05-11T14:38:48.759;599616078575682474;12975.806;113
2024-05-11T14:38:48.767;599616078583374264;12983.498;149
2024-05-11T14:38:48.775;599616078591066054;12991.189;125
2024-05-11T14:38:48.782;599616078598757844;12998.881;108
2024-05-11T14:38:48.790;599616078606449634;13006.572;156
2024-05-11T14:38:48.798;599616078614141424;13014.265;197
2024-05-11T14:38:48.805;599616078621833214;13021.956;194
2024-05-11T14:38:48.813;599616078629525004;13029.648;206
2024-05-11T14:38:48.821;599616078637216794;13037.341;230
2024-05-11T14:38:48.829;599616078644908584;13045.032;226
2024-05-11T14:38:48.836;599616078652600374;13052.725;223
2024-05-11T14:38:48.844;599616078660292164;13060.415;259
2024-05-11T14:38:48.852;599616078667983954;13068.107;298
2024-05-11T14:38:48.859;599616078675675744;13075.799;310
2024-05-11T14:38:48.867;599616078683367534;13083.491;288
2024-05-11T14:38:48.875;599616078691059324;13091.183;274
2024-05-11T14:38:48.882;599616078698751114;13098.875;300
2024-05-11T14:38:48.890;599616078706442904;13106.566;334
2024-05-11T14:38:48.898;599616078714134694;13114.259;322
2024-05-11T14:38:48.905;599616078721826484;13121.949;264
2024-05-11T14:38:48.913;599616078729518274;13129.642;228
2024-05-11T14:38:48.921;599616078737210064;13137.333;230
2024-05-11T14:38:48.929;599616078744901854;13145.025;221
2024-05-11T14:38:48.936;599616078752593644;13152.717;230
2024-05-11T14:38:48.944;599616078760285434;13160.409;355
2024-05-11T14:38:48.952;599616078767977224;13168.101;622
2024-05-11T14:38:48.959;599616078775669014;13175.793;909
2024-05-11T14:38:48.967;599616078783360804;13183.484;930
2024-05-11T14:38:48.975;599616078791052594;13191.176;593
2024-05-11T14:38:48.982;599616078798744384;13198.867;240
2024-05-11T14:38:48.990;599616078806436174;13206.56;134
2024-05-11T14:38:48.998;599616078814127964;13214.251;110
2024-05-11T14:38:49.005;599616078821819754;13221.943;43
2024-05-11T14:38:49.013;599616078829511544;13229.635;14
2024-05-11T14:38:49.021;599616078837203334;13237.327;36
2024-05-11T14:38:49.029;599616078844895124;13245.019;72
2024-05-11T14:38:49.036;599616078852586914;13252.71;110
2024-05-11T14:38:49.044;599616078860278704;13260.401;117
2024-05-11T14:38:49.052;599616078867970494;13268.094;101
2024-05-11T14:38:49.059;599616078875662284;13275.785;120
2024-05-11T14:38:49.067;599616078883354074;13283.478;165
2024-05-11T14:38:49.075;599616078891045864;13291.169;165
2024-05-11T14:38:49.082;599616078898737654;13298.861;134
2024-05-11T14:38:49.090;599616078906429444;13306.553;103
2024-05-11T14:38:49.098;599616078914121234;13314.244;57
2024-05-11T14:38:49.105;599616078921813024;13321.937;26
2024-05-11T14:38:49.113;599616078929504814;13329.628;36
2024-05-11T14:38:49.121;599616078937196604;13337.32;55
2024-05-11T14:38:49.129;599616078944888394;13345.012;33
2024-05-11T14:38:49.136;599616078952580184;13352.704;-45
2024-05-11T14:38:49.144;599616078960271974;13360.3955;-153
2024-05-11T14:38:49.152;599616078967963764;13368.088;-276
2024-05-11T14:38:49.159;599616078975655554;13375.779;-358
2024-05-11T14:38:49.167;599616078983347344;13383.471;-367
2024-05-11T14:38:49.175;599616078991039134;13391.162;-355
2024-05-11T14:38:49.182;599616078998730924;13398.8545;-346
2024-05-11T14:38:49.190;599616079006422714;13406.546;-355
2024-05-11T14:38:49.198;599616079014114504;13414.238;-379
2024-05-11T14:38:49.205;599616079021806294;13421.93;-367
2024-05-11T14:38:49.213;599616079029498084;13429.622;-329
2024-05-11T14:38:49.221;599616079037189874;13437.313;-319
2024-05-11T14:38:49.229;599616079044881664;13445.005;-339
2024-05-11T14:38:49.236;599616079052573454;13452.696;-360
2024-05-11T14:38:49.244;599616079060265244;13460.389;-363
2024-05-11T14:38:49.252;599616079067957034;13468.08;-351
2024-05-11T14:38:49.259;599616079075678932;13475.802;-348
2024-05-11T14:38:49.267;599616079083370304;13483.493;-324
2024-05-11T14:38:49.275;599616079091061676;13491.185;-295
2024-05-11T14:38:49.282;599616079098753048;13498.877;-377
2024-05-11T14:38:49.290;599616079106444420;13506.568;-488
2024-05-11T14:38:49.298;599616079114135792;13514.26;-452
2024-05-11T14:38:49.305;599616079121827164;13521.951;-379
2024-05-11T14:38:49.313;599616079129518536;13529.642;-379
2024-05-11T14:38:49.321;599616079137209908;13537.333;-360
2024-05-11T14:38:49.329;599616079144901280;13545.024;-315
2024-05-11T14:38:49.336;599616079152592652;13552.716;-286
2024-05-11T14:38:49.344;599616079160284024;13560.407;-257
2024-05-11T14:38:49.352;599616079167975396;13568.099;-216
2024-05-11T14:38:49.359;599616079175666768;13575.791;-175
2024-05-11T14:38:49.367;599616079183358140;13583.481;-144
2024-05-11T14:38:49.375;599616079191049512;13591.173;-141
2024-05-11T14:38:49.382;599616079198740884;13598.864;-139
2024-05-11T14:38:49.390;599616079206432256;13606.556;-129
2024-05-11T14:38:49.398;599616079214123628;13614.247;-153
2024-05-11T14:38:49.405;599616079221815000;13621.938;-177
2024-05-11T14:38:49.413;599616079229506372;13629.63;-158
2024-05-11T14:38:49.421;599616079237197744;13637.32;-127
2024-05-11T14:38:49.429;599616079244889116;13645.013;-108
2024-05-11T14:38:49.436;599616079252580488;13652.704;-88
2024-05-11T14:38:49.444;599616079260271860;13660.3955;-48
2024-05-11T14:38:49.452;599616079267963232;13668.087;0
2024-05-11T14:38:49.459;599616079275654604;13675.778;21
2024-05-11T14:38:49.467;599616079283345976;13683.47;19
2024-05-11T14:38:49.475;599616079291037348;13691.16;28
2024-05-11T14:38:49.482;599616079298728720;13698.852;67
2024-05-11T14:38:49.490;599616079306420092;13706.543;98
2024-05-11T14:38:49.498;599616079314111464;13714.234;62
2024-05-11T14:38:49.505;599616079321802836;13721.927;-33
2024-05-11T14:38:49.513;599616079329494208;13729.618;-72
2024-05-11T14:38:49.521;599616079337185580;13737.31;-45
2024-05-11T14:38:49.529;599616079344876952;13745.0;-26
2024-05-11T14:38:49.536;599616079352568324;13752.691;7
2024-05-11T14:38:49.544;599616079360259696;13760.383;60
2024-05-11T14:38:49.552;599616079367951068;13768.074;72
2024-05-11T14:38:49.559;599616079375642440;13775.766;55
2024-05-11T14:38:49.567;599616079383333812;13783.457;79
2024-05-11T14:38:49.575;599616079391025184;13791.149;132
2024-05-11T14:38:49.582;599616079398716556;13798.84;146
2024-05-11T14:38:49.590;599616079406407928;13806.531;149
2024-05-11T14:38:49.598;599616079414099300;13814.223;187
2024-05-11T14:38:49.605;599616079421790672;13821.914;199
2024-05-11T14:38:49.613;599616079429482044;13829.605;180
2024-05-11T14:38:49.621;599616079437173416;13837.297;194
2024-05-11T14:38:49.628;599616079444864788;13844.988;228
2024-05-11T14:38:49.636;599616079452556160;13852.679;209
2024-05-11T14:38:49.644;599616079460247532;13860.37;144
2024-05-11T14:38:49.652;599616079467938904;13868.0625;105
2024-05-11T14:38:49.659;599616079475630276;13875.754;117
2024-05-11T14:38:49.667;599616079483321648;13883.445;134
2024-05-11T14:38:49.675;599616079491013020;13891.137;144
2024-05-11T14:38:49.682;599616079498704392;13898.828;163
2024-05-11T14:38:49.690;599616079506395764;13906.519;194
2024-05-11T14:38:49.698;599616079514087136;13914.21;199
2024-05-11T14:38:49.705;599616079521778508;13921.901;192
2024-05-11T14:38:49.713;599616079529469880;13929.593;218
2024-05-11T14:38:49.721;599616079537161252;13937.285;262
2024-05-11T14:38:49.728;599616079544852624;13944.977;281
2024-05-11T14:38:49.736;599616079552543996;13952.668;271
2024-05-11T14:38:49.744;599616079560235368;13960.359;250
2024-05-11T14:38:49.752;599616079567926740;13968.05;257
2024-05-11T14:38:49.759;599616079575618112;13975.741;286
2024-05-11T14:38:49.767;599616079583309484;13983.433;295
2024-05-11T14:38:49.775;599616079591000856;13991.124;300
2024-05-11T14:38:49.782;599616079598692228;13998.815;319
2024-05-11T14:38:49.790;599616079606383600;14006.507;317
2024-05-11T14:38:49.798;599616079614074972;14014.199;266
2024-05-11T14:38:49.805;599616079621766344;14021.89;245
2024-05-11T14:38:49.813;599616079629457716;14029.581;341
2024-05-11T14:38:49.821;599616079637119000;14037.243;603
2024-05-11T14:38:49.828;599616079644810790;14044.935;925
2024-05-11T14:38:49.836;599616079652502580;14052.626;1010
2024-05-11T14:38:49.844;599616079660194370;14060.317;685
2024-05-11T14:38:49.852;599616079667886160;14068.01;278
2024-05-11T14:38:49.859;599616079675577950;14075.701;211
2024-05-11T14:38:49.867;599616079683269740;14083.394;336
2024-05-11T14:38:49.875;599616079690961530;14091.085;324
2024-05-11T14:38:49.882;599616079698653320;14098.777;221
2024-05-11T14:38:49.890;599616079706345110;14106.469;165
2024-05-11T14:38:49.898;599616079714036900;14114.16;161
2024-05-11T14:38:49.905;599616079721728690;14121.852;173
2024-05-11T14:38:49.913;599616079729420480;14129.544;141
2024-05-11T14:38:49.921;599616079737112270;14137.235;57
2024-05-11T14:38:49.928;599616079744804060;14144.928;28
2024-05-11T14:38:49.936;599616079752495850;14152.619;57
2024-05-11T14:38:49.944;599616079760187640;14160.312;60
2024-05-11T14:38:49.952;599616079767879430;14168.003;60
2024-05-11T14:38:49.959;599616079775571220;14175.695;103
2024-05-11T14:38:49.967;599616079783263010;14183.386;141
2024-05-11T14:38:49.975;599616079790954800;14191.078;120
2024-05-11T14:38:49.982;599616079798646590;14198.77;62
2024-05-11T14:38:49.990;599616079806338380;14206.462;26
2024-05-11T14:38:49.998;599616079814030170;14214.153;-26
2024-05-11T14:38:50.005;599616079821721960;14221.846;-149
2024-05-11T14:38:50.013;599616079829413750;14229.537;-238
2024-05-11T14:38:50.021;599616079837105540;14237.2295;-238
2024-05-11T14:38:50.028;599616079844797330;14244.92;-264
2024-05-11T14:38:50.036;599616079852489120;14252.612;-327
2024-05-11T14:38:50.044;599616079860180910;14260.304;-343
2024-05-11T14:38:50.051;599616079867872700;14267.996;-358
2024-05-11T14:38:50.059;599616079875564490;14275.6875;-420
2024-05-11T14:38:50.067;599616079883256280;14283.38;-464
2024-05-11T14:38:50.075;599616079890948070;14291.071;-449
2024-05-11T14:38:50.082;599616079898639860;14298.764;-413
2024-05-11T14:38:50.090;599616079906331650;14306.454;-413
2024-05-11T14:38:50.098;599616079914023440;14314.146;-440
2024-05-11T14:38:50.105;599616079921715230;14321.839;-437
2024-05-11T14:38:50.113;599616079929407020;14329.53;-428
2024-05-11T14:38:50.121;599616079937098810;14337.223;-428
2024-05-11T14:38:50.128;599616079944790600;14344.914;-464
2024-05-11T14:38:50.136;599616079952482390;14352.606;-507
2024-05-11T14:38:50.144;599616079960174180;14360.298;-480
2024-05-11T14:38:50.151;599616079967865970;14367.99;-444
2024-05-11T14:38:50.159;599616079975557760;14375.681;-471
2024-05-11T14:38:50.167;599616079983249550;14383.373;-461
2024-05-11T14:38:50.175;599616079990941340;14391.064;-391
2024-05-11T14:38:50.182;599616079998633130;14398.757;-355
2024-05-11T14:38:50.190;599616080006324920;14406.448;-353
2024-05-11T14:38:50.198;599616080014016710;14414.141;-310
2024-05-11T14:38:50.205;599616080021708500;14421.832;-269
2024-05-11T14:38:50.213;599616080029400290;14429.524;-286
2024-05-11T14:38:50.221;599616080037092080;14437.215;-283
2024-05-11T14:38:50.228;599616080044783870;14444.907;-216
2024-05-11T14:38:50.236;599616080052475660;14452.599;-158
2024-05-11T14:38:50.244;599616080060167450;14460.291;-158
2024-05-11T14:38:50.251;599616080067859240;14467.982;-175
2024-05-11T14:38:50.259;599616080075551030;14475.675;-153
2024-05-11T14:38:50.267;599616080083242820;14483.366;-98
2024-05-11T14:38:50.275;599616080090934610;14491.059;-67
2024-05-11T14:38:50.282;599616080098626400;14498.749;-62
2024-05-11T14:38:50.290;599616080106318190;14506.441;-40
2024-05-11T14:38:50.298;599616080114009980;14514.133;-16
2024-05-11T14:38:50.305;599616080121701770;14521.825;-19
2024-05-11T14:38:50.313;599616080129393560;14529.517;2
2024-05-11T14:38:50.321;599616080137085350;14537.209;50
2024-05-11T14:38:50.328;599616080144777140;14544.9;88
2024-05-11T14:38:50.336;599616080152468930;14552.593;113
2024-05-11T14:38:50.344;599616080160160720;14560.283;108
2024-05-11T14:38:50.351;599616080167852510;14567.976;96
2024-05-11T14:38:50.359;599616080175544300;14575.667;108
2024-05-11T14:38:50.367;599616080183236090;14583.359;129
2024-05-11T14:38:50.375;599616080190927880;14591.052;117
2024-05-11T14:38:50.382;599616080198649778;14598.772;62
2024-05-11T14:38:50.390;599616080206341150;14606.465;38
2024-05-11T14:38:50.398;599616080214032522;14614.156;60
2024-05-11T14:38:50.405;599616080221723894;14621.848;55
2024-05-11T14:38:50.413;599616080229415266;14629.539;67
2024-05-11T14:38:50.421;599616080237106638;14637.23;134
2024-05-11T14:38:50.428;599616080244798010;14644.921;141
2024-05-11T14:38:50.436;599616080252489382;14652.612;96
2024-05-11T14:38:50.444;599616080260180754;14660.304;127
2024-05-11T14:38:50.451;599616080267872126;14667.995;146
2024-05-11T14:38:50.459;599616080275563498;14675.687;62
2024-05-11T14:38:50.467;599616080283254870;14683.379;31
2024-05-11T14:38:50.475;599616080290946242;14691.07;72
2024-05-11T14:38:50.482;599616080298637614;14698.761;57
2024-05-11T14:38:50.490;599616080306328986;14706.452;26
2024-05-11T14:38:50.498;599616080314020358;14714.144;36
2024-05-11T14:38:50.505;599616080321711730;14721.835;-2
2024-05-11T14:38:50.513;599616080329403102;14729.526;-115
2024-05-11T14:38:50.521;599616080337094474;14737.218;-173
2024-05-11T14:38:50.528;599616080344785846;14744.909;-149
2024-05-11T14:38:50.536;599616080352477218;14752.602;-122
2024-05-11T14:38:50.544;599616080360168590;14760.292;-84
2024-05-11T14:38:50.551;599616080367859962;14767.983;-21
2024-05-11T14:38:50.559;599616080375551334;14775.675;2
2024-05-11T14:38:50.567;599616080383242706;14783.366;-16
2024-05-11T14:38:50.575;599616080390934078;14791.058;-2
2024-05-11T14:38:50.582;599616080398625450;14798.749;38
2024-05-11T14:38:50.590;599616080406316822;14806.439;84
2024-05-11T14:38:50.598;599616080414008194;14814.131;122
2024-05-11T14:38:50.605;599616080421699566;14821.822;134
2024-05-11T14:38:50.613;599616080429390938;14829.515;153
2024-05-11T14:38:50.621;599616080437082310;14837.206;156
2024-05-11T14:38:50.628;599616080444773682;14844.897;50
2024-05-11T14:38:50.636;599616080452465054;14852.589;-40
2024-05-11T14:38:50.644;599616080460156426;14860.28;21
2024-05-11T14:38:50.651;599616080467847798;14867.971;96
2024-05-11T14:38:50.659;599616080475539170;14875.662;79
2024-05-11T14:38:50.667;599616080483230542;14883.354;43
2024-05-11T14:38:50.675;599616080490921914;14891.045;60
2024-05-11T14:38:50.682;599616080498613286;14898.737;211
2024-05-11T14:38:50.690;599616080506304658;14906.429;505
2024-05-11T14:38:50.698;599616080513996030;14914.12;762
2024-05-11T14:38:50.705;599616080521687402;14921.811;759
2024-05-11T14:38:50.713;599616080529378774;14929.502;430
2024-05-11T14:38:50.721;599616080537070146;14937.193;110
2024-05-11T14:38:50.728;599616080544761518;14944.885;129
2024-05-11T14:38:50.736;599616080552452890;14952.576;226
2024-05-11T14:38:50.744;599616080560144262;14960.268;175
2024-05-11T14:38:50.751;599616080567835634;14967.959;151
2024-05-11T14:38:50.759;599616080575527006;14975.65;192
2024-05-11T14:38:50.767;599616080583218378;14983.342;189
2024-05-11T14:38:50.775;599616080590909750;14991.033;189
2024-05-11T14:38:50.782;599616080598601122;14998.725;228
2024-05-11T14:38:50.790;599616080606292494;15006.416;245
2024-05-11T14:38:50.798;599616080613983866;15014.107;240
2024-05-11T14:38:50.805;599616080621675238;15021.799;245
2024-05-11T14:38:50.813;599616080629366610;15029.489;242
2024-05-11T14:38:50.821;599616080637057982;15037.181;233
2024-05-11T14:38:50.828;599616080644749354;15044.873;266
2024-05-11T14:38:50.836;599616080652440726;15052.564;307
2024-05-11T14:38:50.844;599616080660132098;15060.256;278
2024-05-11T14:38:50.851;599616080667823470;15067.947;214
2024-05-11T14:38:50.859;599616080675514842;15075.639;177
2024-05-11T14:38:50.867;599616080683206214;15083.329;139
2024-05-11T14:38:50.875;599616080690897586;15091.0205;64
2024-05-11T14:38:50.882;599616080698588958;15098.712;26
2024-05-11T14:38:50.890;599616080706280330;15106.403;16
2024-05-11T14:38:50.898;599616080713971702;15114.095;-40
2024-05-11T14:38:50.905;599616080721663074;15121.787;-105
2024-05-11T14:38:50.913;599616080729354446;15129.479;-137
2024-05-11T14:38:50.921;599616080737045818;15137.169;-177
2024-05-11T14:38:50.928;599616080744737190;15144.86;-216
2024-05-11T14:38:50.936;599616080752428562;15152.552;-226
2024-05-11T14:38:50.944;599616080760089846;15160.214;-252
2024-05-11T14:38:50.951;599616080767781636;15167.904;-276
2024-05-11T14:38:50.959;599616080775473426;15175.597;-264
2024-05-11T14:38:50.967;599616080783165216;15183.288;-264
2024-05-11T14:38:50.974;599616080790857006;15190.98;-281
2024-05-11T14:38:50.982;599616080798548796;15198.672;-298
2024-05-11T14:38:50.990;599616080806240586;15206.364;-367
2024-05-11T14:38:50.998;599616080813932376;15214.056;-483
2024-05-11T14:38:51.005;599616080821624166;15221.748;-529
2024-05-11T14:38:51.013;599616080829315956;15229.439;-562
2024-05-11T14:38:51.021;599616080837007746;15237.131;-673
2024-05-11T14:38:51.028;599616080844699536;15244.822;-726
2024-05-11T14:38:51.036;599616080852391326;15252.515;-666
2024-05-11T14:38:51.044;599616080860083116;15260.206;-608
2024-05-11T14:38:51.051;599616080867774906;15267.898;-596
2024-05-11T14:38:51.059;599616080875466696;15275.59;-562
2024-05-11T14:38:51.067;599616080883158486;15283.282;-483
2024-05-11T14:38:51.074;599616080890850276;15290.974;-432
2024-05-11T14:38:51.082;599616080898542066;15298.665;-432
2024-05-11T14:38:51.090;599616080906233856;15306.356;-420
2024-05-11T14:38:51.098;599616080913925646;15314.049;-351
2024-05-11T14:38:51.105;599616080921617436;15321.741;-290
2024-05-11T14:38:51.113;599616080929309226;15329.433;-293
2024-05-11T14:38:51.121;599616080937001016;15337.125;-319
2024-05-11T14:38:51.128;599616080944692806;15344.816;-310
2024-05-11T14:38:51.136;599616080952384596;15352.509;-274
2024-05-11T14:38:51.144;599616080960076386;15360.199;-247
2024-05-11T14:38:51.151;599616080967768176;15367.892;-214
2024-05-11T14:38:51.159;599616080975459966;15375.583;-170
2024-05-11T14:38:51.167;599616080983151756;15383.275;-144
2024-05-11T14:38:51.174;599616080990843546;15390.967;-134
2024-05-11T14:38:51.182;599616080998535336;15398.659;-113
2024-05-11T14:38:51.190;599616081006227126;15406.351;-72
2024-05-11T14:38:51.198;599616081013918916;15414.043;-19
2024-05-11T14:38:51.205;599616081021610706;15421.734;0
2024-05-11T14:38:51.213;599616081029302496;15429.426;-12
2024-05-11T14:38:51.221;599616081036994286;15437.117;-7
2024-05-11T14:38:51.228;599616081044686076;15444.81;19
2024-05-11T14:38:51.236;599616081052377866;15452.501;38
2024-05-11T14:38:51.244;599616081060069656;15460.193;60
2024-05-11T14:38:51.251;599616081067761446;15467.885;101
2024-05-11T14:38:51.259;599616081075453236;15475.577;115
2024-05-11T14:38:51.267;599616081083145026;15483.269;91
2024-05-11T14:38:51.274;599616081090836816;15490.96;98
2024-05-11T14:38:51.282;599616081098528606;15498.651;144
2024-05-11T14:38:51.290;599616081106220396;15506.344;161
2024-05-11T14:38:51.298;599616081113912186;15514.035;156
2024-05-11T14:38:51.305;599616081121603976;15521.728;175
2024-05-11T14:38:51.313;599616081129295766;15529.419;204
2024-05-11T14:38:51.321;599616081136987556;15537.111;206
2024-05-11T14:38:51.328;599616081144679346;15544.803;202
2024-05-11T14:38:51.336;599616081152371136;15552.494;226
2024-05-11T14:38:51.344;599616081160062926;15560.186;262
2024-05-11T14:38:51.351;599616081167754716;15567.878;276
2024-05-11T14:38:51.359;599616081175446506;15575.569;247
2024-05-11T14:38:51.367;599616081183138296;15583.262;194
2024-05-11T14:38:51.374;599616081190830086;15590.954;187
2024-05-11T14:38:51.382;599616081198521876;15598.6455;199
2024-05-11T14:38:51.390;599616081206213666;15606.338;180
2024-05-11T14:38:51.398;599616081213905456;15614.028;197
2024-05-11T14:38:51.405;599616081221597246;15621.721;242
2024-05-11T14:38:51.413;599616081229289036;15629.412;240
2024-05-11T14:38:51.421;599616081236980826;15637.1045;240
2024-05-11T14:38:51.428;599616081244672616;15644.796;278
2024-05-11T14:38:51.436;599616081252364406;15652.488;303
2024-05-11T14:38:51.444;599616081260056196;15660.18;286
2024-05-11T14:38:51.451;599616081267747986;15667.872;264
2024-05-11T14:38:51.459;599616081275439776;15675.563;271
2024-05-11T14:38:51.467;599616081283131566;15683.255;290
2024-05-11T14:38:51.474;599616081290823356;15690.946;300
2024-05-11T14:38:51.482;599616081298515146;15698.639;307
2024-05-11T14:38:51.490;599616081306206936;15706.33;317
2024-05-11T14:38:51.498;599616081313898726;15714.022;288
2024-05-11T14:38:51.505;599616081321620624;15721.744;226
2024-05-11T14:38:51.513;599616081329311996;15729.436;238
2024-05-11T14:38:51.521;599616081337003368;15737.127;379
2024-05-11T14:38:51.528;599616081344694740;15744.818;618
2024-05-11T14:38:51.536;599616081352386112;15752.51;743
2024-05-11T14:38:51.544;599616081360077484;15760.201;464
2024-05-11T14:38:51.551;599616081367768856;15767.892;48
2024-05-11T14:38:51.559;599616081375460228;15775.583;-57
2024-05-11T14:38:51.567;599616081383151600;15783.274;-33
2024-05-11T14:38:51.574;599616081390842972;15790.967;-127
2024-05-11T14:38:51.582;599616081398534344;15798.658;-168
2024-05-11T14:38:51.590;599616081406225716;15806.35;-113
2024-05-11T14:38:51.598;599616081413917088;15814.041;-108
2024-05-11T14:38:51.605;599616081421608460;15821.731;-144
2024-05-11T14:38:51.613;599616081429299832;15829.423;-168
2024-05-11T14:38:51.621;599616081436991204;15837.114;-175
2024-05-11T14:38:51.628;599616081444682576;15844.806;-161
2024-05-11T14:38:51.636;599616081452373948;15852.497;-134
2024-05-11T14:38:51.644;599616081460065320;15860.189;-103
2024-05-11T14:38:51.651;599616081467756692;15867.881;-67
2024-05-11T14:38:51.659;599616081475448064;15875.571;-55
2024-05-11T14:38:51.667;599616081483139436;15883.263;-48
2024-05-11T14:38:51.674;599616081490830808;15890.954;7
2024-05-11T14:38:51.682;599616081498522180;15898.6455;38
2024-05-11T14:38:51.690;599616081506213552;15906.337;21
2024-05-11T14:38:51.698;599616081513904924;15914.028;60
2024-05-11T14:38:51.705;599616081521596296;15921.72;115
