Phone timestamp;sensor timestamp [ns];timestamp [ms];ecg [uV]
2024-05-13T13:14:48.142;599616073674572774;0.0;16811
2024-05-13T13:14:48.149;599616073682264146;7.691372;19997
2024-05-13T13:14:48.157;599616073689955518;15.382744;19997
2024-05-13T13:14:48.165;599616073697646890;23.074116;19997
2024-05-13T13:14:48.172;599616073705338262;30.765488;19997
2024-05-13T13:14:48.180;599616073713029634;38.45686;19997
2024-05-13T13:14:48.188;599616073720721006;46.14823;19997
2024-05-13T13:14:48.195;599616073728412378;53.839603;19997
2024-05-13T13:14:48.203;599616073736103750;61.530975;19997
2024-05-13T13:14:48.211;599616073743795122;69.22235;19997
2024-05-13T13:14:48.218;599616073751486494;76.91372;19997
2024-05-13T13:14:48.226;599616073759177866;84.60509;19997
2024-05-13T13:14:48.234;599616073766869238;92.29646;19997
2024-05-13T13:14:48.241;599616073774560610;99.98784;19997
2024-05-13T13:14:48.249;599616073782251982;107.67921;19997
2024-05-13T13:14:48.257;599616073789943354;115.370575;19997
2024-05-13T13:14:48.265;599616073797634726;123.06195;19997
2024-05-13T13:14:48.272;599616073805326098;130.75333;19997
2024-05-13T13:14:48.280;599616073813017470;138.4447;19997
2024-05-13T13:14:48.288;599616073820708842;146.13606;19997
2024-05-13T13:14:48.295;599616073828400214;153.82744;19997
2024-05-13T13:14:48.303;599616073836091586;161.51881;19997
2024-05-13T13:14:48.311;599616073843782958;169.21017;19997
2024-05-13T13:14:48.318;599616073851474330;176.90155;19997
2024-05-13T13:14:48.326;599616073859165702;184.59293;19997
2024-05-13T13:14:48.334;599616073866857074;192.2843;19997
2024-05-13T13:14:48.341;599616073874548446;199.97568;19997
2024-05-13T13:14:48.349;599616073882239818;207.66704;19997
2024-05-13T13:14:48.357;599616073889931190;215.35841;19997
2024-05-13T13:14:48.365;599616073897622562;223.04979;19997
2024-05-13T13:14:48.372;599616073905313934;230.74115;19997
2024-05-13T13:14:48.380;599616073913005306;238.43253;19997
2024-05-13T13:14:48.388;599616073920696678;246.1239;19997
2024-05-13T13:14:48.395;599616073928388050;253.81528;19997
2024-05-13T13:14:48.403;599616073936079422;261.50665;19997
2024-05-13T13:14:48.411;599616073943770794;269.19803;19997
2024-05-13T13:14:48.418;599616073951462166;276.8894;19997
2024-05-13T13:14:48.426;599616073959153538;284.58078;19997
2024-05-13T13:14:48.434;599616073966844910;292.27213;19997
2024-05-13T13:14:48.441;599616073974536282;299.96353;19997
2024-05-13T13:14:48.449;599616073982227654;307.65488;19997
2024-05-13T13:14:48.457;599616073989919026;315.34625;19997
2024-05-13T13:14:48.465;599616073997610398;323.03763;19997
2024-05-13T13:14:48.472;599616074005301770;330.729;19997
2024-05-13T13:14:48.480;599616074012993142;338.42035;19997
2024-05-13T13:14:48.488;599616074020684514;346.11176;19997
2024-05-13T13:14:48.495;599616074028375886;353.8031;19997
2024-05-13T13:14:48.503;599616074036067258;361.4945;19997
2024-05-13T13:14:48.511;599616074043758630;369.18585;19997
2024-05-13T13:14:48.518;599616074051450002;376.87723;19997
2024-05-13T13:14:48.526;599616074059141374;384.5686;19997
2024-05-13T13:14:48.534;599616074066832746;392.25998;19997
2024-05-13T13:14:48.541;599616074074524118;399.95135;19997
2024-05-13T13:14:48.549;599616074082215490;407.64273;19997
2024-05-13T13:14:48.557;599616074089906862;415.33408;19997
2024-05-13T13:14:48.565;599616074097598234;423.02548;19997
2024-05-13T13:14:48.572;599616074105289606;430.71683;19997
2024-05-13T13:14:48.580;599616074112980978;438.4082;19997
2024-05-13T13:14:48.588;599616074120672350;446.09958;19997
2024-05-13T13:14:48.595;599616074128363722;453.79095;19997
2024-05-13T13:14:48.603;599616074136055094;461.4823;19997
2024-05-13T13:14:48.611;599616074143746466;469.1737;19997
2024-05-13T13:14:48.618;599616074151437838;476.86505;19997
2024-05-13T13:14:48.626;599616074159129210;484.55646;19997
2024-05-13T13:14:48.634;599616074166820582;492.2478;19997
2024-05-13T13:14:48.641;599616074174511954;499.93918;19997
2024-05-13T13:14:48.649;599616074182203326;507.63055;19997
2024-05-13T13:14:48.657;599616074189894698;515.3219;19997
2024-05-13T13:14:48.665;599616074197586070;523.0133;19997
2024-05-13T13:14:48.672;599616074205277442;530.70465;19997
2024-05-13T13:14:48.680;599616074212968814;538.39606;19997
2024-05-13T13:14:48.688;599616074220660186;546.0874;19997
2024-05-13T13:14:48.695;599616074228351558;553.7788;19997
2024-05-13T13:14:48.703;599616074236042938;561.47015;19997
2024-05-13T13:14:48.711;599616074243734310;569.16156;19997
2024-05-13T13:14:48.718;599616074251425682;576.8529;19997
2024-05-13T13:14:48.726;599616074259117054;584.54425;19997
2024-05-13T13:14:48.734;599616074266808426;592.23566;19997
2024-05-13T13:14:48.741;599616074274499798;599.92706;19997
2024-05-13T13:14:48.749;599616074282191170;607.61835;19997
2024-05-13T13:14:48.757;599616074289882542;615.30975;19997
2024-05-13T13:14:48.765;599616074297573914;623.00116;19997
2024-05-13T13:14:48.772;599616074305265286;630.6925;19997
2024-05-13T13:14:48.780;599616074312956658;638.38385;19997
2024-05-13T13:14:48.788;599616074320648030;646.07526;19997
2024-05-13T13:14:48.795;599616074328339402;653.76666;19997
2024-05-13T13:14:48.803;599616074336030774;661.458;19997
2024-05-13T13:14:48.811;599616074343722146;669.14935;19997
2024-05-13T13:14:48.818;599616074351413518;676.84076;19997
2024-05-13T13:14:48.826;599616074359104890;684.5321;19997
2024-05-13T13:14:48.834;599616074366796262;692.2235;19997
2024-05-13T13:14:48.841;599616074374487634;699.91486;19997
2024-05-13T13:14:48.849;599616074382179006;707.6062;19997
2024-05-13T13:14:48.857;599616074389870378;715.2976;19997
2024-05-13T13:14:48.864;599616074397561750;722.989;19997
2024-05-13T13:14:48.872;599616074405253122;730.6803;19997
2024-05-13T13:14:48.880;599616074412944494;738.3717;19997
2024-05-13T13:14:48.888;599616074420635866;746.0631;19997
2024-05-13T13:14:48.895;599616074428327238;753.7545;19997
2024-05-13T13:14:48.903;599616074436018610;761.4458;19997
2024-05-13T13:14:48.911;599616074443709982;769.1372;19997
2024-05-13T13:14:48.918;599616074451401354;776.8286;19997
2024-05-13T13:14:48.926;599616074459092726;784.51996;19978
2024-05-13T13:14:48.934;599616074466784098;792.2113;19890
2024-05-13T13:14:48.941;599616074474475470;799.9027;19953
2024-05-13T13:14:48.949;599616074482166842;807.59406;19885
2024-05-13T13:14:48.957;599616074489858214;815.28546;19582
2024-05-13T13:14:48.964;599616074497549586;822.9768;19431
2024-05-13T13:14:48.972;599616074505240958;830.66815;19509
2024-05-13T13:14:48.980;599616074512932330;838.35956;19541
2024-05-13T13:14:48.988;599616074520623702;846.05096;19543
2024-05-13T13:14:48.995;599616074528315074;853.74225;19511
2024-05-13T13:14:49.003;599616074536006446;861.43365;19230
2024-05-13T13:14:49.011;599616074543697818;869.12506;18820
2024-05-13T13:14:49.018;599616074551389190;876.8164;18610
2024-05-13T13:14:49.026;599616074559080562;884.50775;18593
2024-05-13T13:14:49.034;599616074566771934;892.19916;18598
2024-05-13T13:14:49.041;599616074574463306;899.89056;18464
2024-05-13T13:14:49.049;599616074582154678;907.5819;18222
2024-05-13T13:14:49.057;599616074589846050;915.27325;18217
2024-05-13T13:14:49.064;599616074597537422;922.96466;18330
2024-05-13T13:14:49.072;599616074605228794;930.656;18134
2024-05-13T13:14:49.080;599616074612920166;938.3474;17961
2024-05-13T13:14:49.088;599616074620611538;946.03876;18010
2024-05-13T13:14:49.095;599616074628302910;953.7301;17780
2024-05-13T13:14:49.103;599616074635994282;961.4215;17407
2024-05-13T13:14:49.111;599616074643685654;969.1129;17299
2024-05-13T13:14:49.118;599616074651377026;976.8042;17307
2024-05-13T13:14:49.126;599616074659068398;984.4956;17253
2024-05-13T13:14:49.134;599616074666759770;992.187;17080
2024-05-13T13:14:49.141;599616074674451142;999.8784;16843
2024-05-13T13:14:49.149;599616074682142514;1007.5697;16789
2024-05-13T13:14:49.157;599616074689833886;1015.2611;16909
2024-05-13T13:14:49.164;599616074697525258;1022.9525;16992
2024-05-13T13:14:49.172;599616074705216630;1030.6438;17014
2024-05-13T13:14:49.180;599616074712908002;1038.3352;16813
2024-05-13T13:14:49.188;599616074720599374;1046.0266;16315
2024-05-13T13:14:49.195;599616074728290746;1053.7179;15988
2024-05-13T13:14:49.203;599616074735982118;1061.4093;16008
2024-05-13T13:14:49.211;599616074743673490;1069.1007;16035
2024-05-13T13:14:49.218;599616074751364862;1076.7921;15952
2024-05-13T13:14:49.226;599616074759056234;1084.4834;15815
2024-05-13T13:14:49.234;599616074766747606;1092.1748;15717
2024-05-13T13:14:49.241;599616074774438978;1099.8662;15734
2024-05-13T13:14:49.249;599616074782130350;1107.5576;15607
2024-05-13T13:14:49.257;599616074789821722;1115.2489;15339
2024-05-13T13:14:49.264;599616074797483006;1122.9102;15312
2024-05-13T13:14:49.272;599616074805174796;1130.6019;15378
2024-05-13T13:14:49.280;599616074812866586;1138.2937;15305
2024-05-13T13:14:49.287;599616074820558376;1145.9857;15278
2024-05-13T13:14:49.295;599616074828250166;1153.6775;15114
2024-05-13T13:14:49.303;599616074835941956;1161.3693;14790
2024-05-13T13:14:49.311;599616074843633746;1169.061;14704
2024-05-13T13:14:49.318;599616074851325536;1176.7528;14677
2024-05-13T13:14:49.326;599616074859017326;1184.4446;14592
2024-05-13T13:14:49.334;599616074866709116;1192.1364;14689
2024-05-13T13:14:49.341;599616074874400906;1199.8281;14582
2024-05-13T13:14:49.349;599616074882092696;1207.5199;14179
2024-05-13T13:14:49.357;599616074889784486;1215.2118;14135
2024-05-13T13:14:49.364;599616074897476276;1222.9036;14260
2024-05-13T13:14:49.372;599616074905168066;1230.5953;14025
2024-05-13T13:14:49.380;599616074912859856;1238.2871;13801
2024-05-13T13:14:49.387;599616074920551646;1245.9789;13852
2024-05-13T13:14:49.395;599616074928243436;1253.6707;13850
2024-05-13T13:14:49.403;599616074935935226;1261.3624;13713
2024-05-13T13:14:49.411;599616074943627016;1269.0542;13613
2024-05-13T13:14:49.418;599616074951318806;1276.746;13544
2024-05-13T13:14:49.426;599616074959010596;1284.4377;13457
2024-05-13T13:14:49.434;599616074966702386;1292.1296;13327
2024-05-13T13:14:49.441;599616074974394176;1299.8214;13227
2024-05-13T13:14:49.449;599616074982085966;1307.5132;13254
2024-05-13T13:14:49.457;599616074989777756;1315.205;13215
2024-05-13T13:14:49.464;599616074997469546;1322.8967;12985
2024-05-13T13:14:49.472;599616075005161336;1330.5885;12839
2024-05-13T13:14:49.480;599616075012853126;1338.2803;12893
2024-05-13T13:14:49.487;599616075020544916;1345.972;12946
2024-05-13T13:14:49.495;599616075028236706;1353.6638;12849
2024-05-13T13:14:49.503;599616075035928496;1361.3558;12639
2024-05-13T13:14:49.511;599616075043620286;1369.0476;12519
2024-05-13T13:14:49.518;599616075051312076;1376.7394;12470
2024-05-13T13:14:49.526;599616075059003866;1384.4312;12338
2024-05-13T13:14:49.534;599616075066695656;1392.1229;12258
2024-05-13T13:14:49.541;599616075074387446;1399.8147;12312
2024-05-13T13:14:49.549;599616075082079236;1407.5065;12265
2024-05-13T13:14:49.557;599616075089771026;1415.1982;12050
2024-05-13T13:14:49.564;599616075097462816;1422.89;11943
2024-05-13T13:14:49.572;599616075105154606;1430.5819;11967
2024-05-13T13:14:49.580;599616075112846396;1438.2737;11904
2024-05-13T13:14:49.587;599616075120538186;1445.9655;11799
2024-05-13T13:14:49.595;599616075128229976;1453.6572;11760
2024-05-13T13:14:49.603;599616075135921766;1461.349;11699
2024-05-13T13:14:49.611;599616075143613556;1469.0408;11572
2024-05-13T13:14:49.618;599616075151305346;1476.7325;11467
2024-05-13T13:14:49.626;599616075158997136;1484.4243;11442
2024-05-13T13:14:49.634;599616075166688926;1492.1161;11455
2024-05-13T13:14:49.641;599616075174380716;1499.808;11362
2024-05-13T13:14:49.649;599616075182072506;1507.4998;11193
2024-05-13T13:14:49.657;599616075189764296;1515.1915;11137
2024-05-13T13:14:49.664;599616075197456086;1522.8833;11135
2024-05-13T13:14:49.672;599616075205147876;1530.5751;11032
2024-05-13T13:14:49.680;599616075212839666;1538.2668;10947
2024-05-13T13:14:49.687;599616075220531456;1545.9586;10949
2024-05-13T13:14:49.695;599616075228223246;1553.6504;10886
2024-05-13T13:14:49.703;599616075235915036;1561.3422;10742
2024-05-13T13:14:49.711;599616075243606826;1569.034;10668
2024-05-13T13:14:49.718;599616075251298616;1576.7258;10676
2024-05-13T13:14:49.726;599616075258990406;1584.4177;10708
2024-05-13T13:14:49.734;599616075266682196;1592.1095;10678
2024-05-13T13:14:49.741;599616075274373986;1599.8013;10488
2024-05-13T13:14:49.749;599616075282065776;1607.493;10312
2024-05-13T13:14:49.757;599616075289757566;1615.1848;10275
2024-05-13T13:14:49.764;599616075297449356;1622.8766;10202
2024-05-13T13:14:49.772;599616075305141146;1630.5684;10114
2024-05-13T13:14:49.780;599616075312832936;1638.2603;10151
2024-05-13T13:14:49.787;599616075320524726;1645.952;10202
2024-05-13T13:14:49.795;599616075328216516;1653.6438;10039
2024-05-13T13:14:49.803;599616075335908306;1661.3356;9768
2024-05-13T13:14:49.811;599616075343600096;1669.0273;9726
2024-05-13T13:14:49.818;599616075351291886;1676.7191;9777
2024-05-13T13:14:49.826;599616075358988728;1684.416;9653
2024-05-13T13:14:49.834;599616075366680448;1692.1077;9562
2024-05-13T13:14:49.841;599616075374372168;1699.7994;9641
2024-05-13T13:14:49.849;599616075382063888;1707.4911;9602
2024-05-13T13:14:49.857;599616075389755608;1715.1829;9394
2024-05-13T13:14:49.864;599616075397447328;1722.8745;9377
2024-05-13T13:14:49.872;599616075405139048;1730.5663;9479
2024-05-13T13:14:49.880;599616075412830768;1738.258;9304
2024-05-13T13:14:49.887;599616075420522488;1745.9497;9003
2024-05-13T13:14:49.895;599616075428214208;1753.6415;8972
2024-05-13T13:14:49.903;599616075435905928;1761.3331;9035
2024-05-13T13:14:49.911;599616075443597648;1769.0249;8955
2024-05-13T13:14:49.918;599616075451289368;1776.7166;8876
2024-05-13T13:14:49.926;599616075458981088;1784.4083;8850
2024-05-13T13:14:49.934;599616075466672808;1792.1001;8801
2024-05-13T13:14:49.941;599616075474364528;1799.7917;8850
2024-05-13T13:14:49.949;599616075482056248;1807.4835;9025
2024-05-13T13:14:49.957;599616075489747968;1815.1752;9086
2024-05-13T13:14:49.964;599616075497439688;1822.867;8808
2024-05-13T13:14:49.972;599616075505131408;1830.5586;8361
2024-05-13T13:14:49.980;599616075512823128;1838.2504;8200
2024-05-13T13:14:49.987;599616075520514848;1845.942;8251
2024-05-13T13:14:49.995;599616075528206568;1853.6338;8151
2024-05-13T13:14:50.003;599616075535898288;1861.3256;8027
2024-05-13T13:14:50.011;599616075543590008;1869.0172;8017
2024-05-13T13:14:50.018;599616075551281728;1876.709;7993
2024-05-13T13:14:50.026;599616075558973448;1884.4006;7944
2024-05-13T13:14:50.034;599616075566665168;1892.0924;7900
2024-05-13T13:14:50.041;599616075574356888;1899.784;7866
2024-05-13T13:14:50.049;599616075582048608;1907.4758;7888
2024-05-13T13:14:50.057;599616075589740328;1915.1676;7873
2024-05-13T13:14:50.064;599616075597432048;1922.8593;7756
2024-05-13T13:14:50.072;599616075605123768;1930.551;7700
2024-05-13T13:14:50.080;599616075612815488;1938.2427;7739
2024-05-13T13:14:50.087;599616075620507208;1945.9344;7717
2024-05-13T13:14:50.095;599616075628198928;1953.6261;7661
2024-05-13T13:14:50.103;599616075635890648;1961.3179;7651
2024-05-13T13:14:50.111;599616075643582368;1969.0095;7636
2024-05-13T13:14:50.118;599616075651274088;1976.7013;7590
2024-05-13T13:14:50.126;599616075658965808;1984.3931;7543
2024-05-13T13:14:50.134;599616075666657528;1992.0847;7529
2024-05-13T13:14:50.141;599616075674349248;1999.7765;7551
2024-05-13T13:14:50.149;599616075682040968;2007.4681;7524
2024-05-13T13:14:50.157;599616075689732688;2015.1599;7419
2024-05-13T13:14:50.164;599616075697424408;2022.8516;7387
2024-05-13T13:14:50.172;599616075705116128;2030.5433;7416
2024-05-13T13:14:50.180;599616075712807848;2038.2351;7365
2024-05-13T13:14:50.187;599616075720499568;2045.9268;7302
2024-05-13T13:14:50.195;599616075728191288;2053.6187;7292
2024-05-13T13:14:50.203;599616075735883008;2061.3103;7248
2024-05-13T13:14:50.211;599616075743574728;2069.002;7160
2024-05-13T13:14:50.218;599616075751266448;2076.6936;7124
2024-05-13T13:14:50.226;599616075758958168;2084.3855;7153
2024-05-13T13:14:50.234;599616075766649888;2092.0771;7119
2024-05-13T13:14:50.241;599616075774341608;2099.7688;6955
2024-05-13T13:14:50.249;599616075782033328;2107.4607;6838
2024-05-13T13:14:50.257;599616075789725048;2115.1523;6862
2024-05-13T13:14:50.264;599616075797416768;2122.844;6875
2024-05-13T13:14:50.272;599616075805108488;2130.5356;6816
2024-05-13T13:14:50.280;599616075812800208;2138.2275;6823
2024-05-13T13:14:50.287;599616075820491928;2145.9192;6904
2024-05-13T13:14:50.295;599616075828183648;2153.6108;6796
2024-05-13T13:14:50.303;599616075835875368;2161.3025;6542
2024-05-13T13:14:50.310;599616075843567088;2168.9944;6491
2024-05-13T13:14:50.318;599616075851258808;2176.686;6569
2024-05-13T13:14:50.326;599616075858950528;2184.378;6545
2024-05-13T13:14:50.334;599616075866642248;2192.0693;6472
2024-05-13T13:14:50.341;599616075874333968;2199.7612;6433
2024-05-13T13:14:50.349;599616075882025688;2207.453;6430
2024-05-13T13:14:50.357;599616075889717408;2215.1448;6420
2024-05-13T13:14:50.364;599616075897409128;2222.8364;6374
2024-05-13T13:14:50.372;599616075905100848;2230.528;6362
2024-05-13T13:14:50.380;599616075912792568;2238.2197;6369
2024-05-13T13:14:50.387;599616075920504410;2245.9316;6308
2024-05-13T13:14:50.395;599616075928195851;2253.623;6242
2024-05-13T13:14:50.403;599616075935887292;2261.3145;6237
2024-05-13T13:14:50.411;599616075943578733;2269.006;6250
2024-05-13T13:14:50.418;599616075951270174;2276.6973;6232
2024-05-13T13:14:50.426;599616075958961615;2284.389;6174
2024-05-13T13:14:50.434;599616075966653056;2292.0803;6132
2024-05-13T13:14:50.441;599616075974344497;2299.7717;6179
2024-05-13T13:14:50.449;599616075982035938;2307.4631;6140
2024-05-13T13:14:50.457;599616075989727379;2315.1548;5959
2024-05-13T13:14:50.464;599616075997418820;2322.846;5932
2024-05-13T13:14:50.472;599616076005110261;2330.5374;5998
2024-05-13T13:14:50.480;599616076012801702;2338.229;5888
2024-05-13T13:14:50.487;599616076020493143;2345.9202;5771
2024-05-13T13:14:50.495;599616076028184584;2353.6118;5805
2024-05-13T13:14:50.503;599616076035876025;2361.3032;5822
2024-05-13T13:14:50.510;599616076043567466;2368.9949;5759
2024-05-13T13:14:50.518;599616076051258907;2376.686;5710
2024-05-13T13:14:50.526;599616076058950348;2384.3777;5700
2024-05-13T13:14:50.534;599616076066641789;2392.069;5693
2024-05-13T13:14:50.541;599616076074333230;2399.7605;5654
2024-05-13T13:14:50.549;599616076082024671;2407.452;5612
2024-05-13T13:14:50.557;599616076089716112;2415.1433;5632
2024-05-13T13:14:50.564;599616076097407553;2422.8347;5642
2024-05-13T13:14:50.572;599616076105098994;2430.5261;5563
2024-05-13T13:14:50.580;599616076112790435;2438.2178;5502
2024-05-13T13:14:50.587;599616076120481876;2445.909;5529
2024-05-13T13:14:50.595;599616076128173317;2453.6006;5539
2024-05-13T13:14:50.603;599616076135864758;2461.292;5500
2024-05-13T13:14:50.610;599616076143556199;2468.9836;5480
2024-05-13T13:14:50.618;599616076151247640;2476.6748;5471
2024-05-13T13:14:50.626;599616076158939081;2484.3665;5437
2024-05-13T13:14:50.634;599616076166630522;2492.0579;5393
2024-05-13T13:14:50.641;599616076174321963;2499.749;5373
2024-05-13T13:14:50.649;599616076182013404;2507.4407;5393
2024-05-13T13:14:50.657;599616076189704845;2515.132;5375
2024-05-13T13:14:50.664;599616076197396286;2522.8235;5317
2024-05-13T13:14:50.672;599616076205087727;2530.515;5292
2024-05-13T13:14:50.680;599616076212779168;2538.2065;5256
2024-05-13T13:14:50.687;599616076220470609;2545.8977;5180
2024-05-13T13:14:50.695;599616076228162050;2553.5894;5119
2024-05-13T13:14:50.703;599616076235853491;2561.2808;5078
2024-05-13T13:14:50.710;599616076243544932;2568.972;5122
2024-05-13T13:14:50.718;599616076251236373;2576.6636;5329
2024-05-13T13:14:50.726;599616076258927814;2584.355;5529
2024-05-13T13:14:50.734;599616076266619255;2592.0466;5456
2024-05-13T13:14:50.741;599616076274310696;2599.7378;5126
2024-05-13T13:14:50.749;599616076282002137;2607.4294;4824
2024-05-13T13:14:50.757;599616076289693578;2615.1208;4733
2024-05-13T13:14:50.764;599616076297385019;2622.8123;4760
2024-05-13T13:14:50.772;599616076305076460;2630.5037;4736
2024-05-13T13:14:50.780;599616076312767901;2638.1953;4638
2024-05-13T13:14:50.787;599616076320459342;2645.8865;4619
2024-05-13T13:14:50.795;599616076328150783;2653.578;4628
2024-05-13T13:14:50.803;599616076335842224;2661.2695;4477
2024-05-13T13:14:50.810;599616076343533665;2668.9607;4340
2024-05-13T13:14:50.818;599616076351225106;2676.6523;4362
2024-05-13T13:14:50.826;599616076358916547;2684.3438;4394
2024-05-13T13:14:50.834;599616076366607988;2692.0354;4382
2024-05-13T13:14:50.841;599616076374299429;2699.7266;4348
2024-05-13T13:14:50.849;599616076381990870;2707.4182;4309
2024-05-13T13:14:50.857;599616076389682311;2715.1096;4316
2024-05-13T13:14:50.864;599616076397373752;2722.8008;4331
2024-05-13T13:14:50.872;599616076405065193;2730.4924;4309
2024-05-13T13:14:50.880;599616076412756634;2738.1838;4301
2024-05-13T13:14:50.887;599616076420448075;2745.8752;4316
2024-05-13T13:14:50.895;599616076428139516;2753.5667;4306
2024-05-13T13:14:50.903;599616076435830957;2761.2583;4279
2024-05-13T13:14:50.910;599616076443522398;2768.9495;4277
2024-05-13T13:14:50.918;599616076451213839;2776.641;4301
2024-05-13T13:14:50.926;599616076458905280;2784.3325;4304
2024-05-13T13:14:50.934;599616076466596721;2792.0242;4267
2024-05-13T13:14:50.941;599616076474288162;2799.7153;4230
2024-05-13T13:14:50.949;599616076481984630;2807.4119;4240
2024-05-13T13:14:50.957;599616076489676002;2815.1033;4260
2024-05-13T13:14:50.964;599616076497367374;2822.7944;4230
2024-05-13T13:14:50.972;599616076505058746;2830.486;4172
2024-05-13T13:14:50.980;599616076512750118;2838.1772;4130
2024-05-13T13:14:50.987;599616076520441490;2845.869;4062
2024-05-13T13:14:50.995;599616076528132862;2853.56;3952
2024-05-13T13:14:51.003;599616076535824234;2861.2515;3918
2024-05-13T13:14:51.010;599616076543515606;2868.9429;3959
2024-05-13T13:14:51.018;599616076551206978;2876.634;3962
2024-05-13T13:14:51.026;599616076558898350;2884.3257;3916
2024-05-13T13:14:51.034;599616076566589722;2892.0168;3901
2024-05-13T13:14:51.041;599616076574281094;2899.7085;3916
2024-05-13T13:14:51.049;599616076581972466;2907.3997;3911
2024-05-13T13:14:51.057;599616076589663838;2915.091;3896
2024-05-13T13:14:51.064;599616076597355210;2922.7825;3920
2024-05-13T13:14:51.072;599616076605046582;2930.4736;3942
2024-05-13T13:14:51.080;599616076612737954;2938.1653;3913
2024-05-13T13:14:51.087;599616076620429326;2945.8564;3896
2024-05-13T13:14:51.095;599616076628120698;2953.548;3925
2024-05-13T13:14:51.103;599616076635812070;2961.2393;3950
2024-05-13T13:14:51.110;599616076643503442;2968.9307;3940
2024-05-13T13:14:51.118;599616076651194814;2976.622;3908
2024-05-13T13:14:51.126;599616076658886186;2984.3132;3896
2024-05-13T13:14:51.134;599616076666577558;2992.005;3911
2024-05-13T13:14:51.141;599616076674268930;2999.696;3906
2024-05-13T13:14:51.149;599616076681960302;3007.3877;3894
2024-05-13T13:14:51.157;599616076689651674;3015.0789;3911
2024-05-13T13:14:51.164;599616076697343046;3022.7703;3906
2024-05-13T13:14:51.172;599616076705034418;3030.4617;3854
2024-05-13T13:14:51.180;599616076712725790;3038.153;3828
2024-05-13T13:14:51.187;599616076720417162;3045.8445;3857
2024-05-13T13:14:51.195;599616076728108534;3053.5356;3864
2024-05-13T13:14:51.203;599616076735799906;3061.227;3842
2024-05-13T13:14:51.210;599616076743491278;3068.9185;3828
2024-05-13T13:14:51.218;599616076751182650;3076.6099;3779
2024-05-13T13:14:51.226;599616076758874022;3084.3013;3715
2024-05-13T13:14:51.233;599616076766565394;3091.9927;3725
2024-05-13T13:14:51.241;599616076774256766;3099.684;3767
2024-05-13T13:14:51.249;599616076781948138;3107.3752;3779
2024-05-13T13:14:51.257;599616076789639510;3115.0667;3745
2024-05-13T13:14:51.264;599616076797330882;3122.758;3703
2024-05-13T13:14:51.272;599616076805022254;3130.4495;3715
2024-05-13T13:14:51.280;599616076812713626;3138.1409;3745
2024-05-13T13:14:51.287;599616076820404998;3145.8323;3735
2024-05-13T13:14:51.295;599616076828096370;3153.5237;3732
2024-05-13T13:14:51.303;599616076835787742;3161.215;3710
2024-05-13T13:14:51.310;599616076843479114;3168.9062;3581
2024-05-13T13:14:51.318;599616076851170486;3176.5977;3481
2024-05-13T13:14:51.326;599616076858861858;3184.289;3508
2024-05-13T13:14:51.333;599616076866553230;3191.9805;3547
2024-05-13T13:14:51.341;599616076874244602;3199.6719;3552
2024-05-13T13:14:51.349;599616076881935974;3207.363;3549
2024-05-13T13:14:51.357;599616076889627346;3215.0547;3532
2024-05-13T13:14:51.364;599616076897318718;3222.7458;3527
2024-05-13T13:14:51.372;599616076905010090;3230.4373;3540
2024-05-13T13:14:51.380;599616076912701462;3238.1287;3522
2024-05-13T13:14:51.387;599616076920392834;3245.82;3500
2024-05-13T13:14:51.395;599616076928084206;3253.5115;3491
2024-05-13T13:14:51.403;599616076935775578;3261.2026;3464
2024-05-13T13:14:51.410;599616076943466950;3268.8943;3437
2024-05-13T13:14:51.418;599616076951158322;3276.5854;3417
2024-05-13T13:14:51.426;599616076958849694;3284.277;3410
2024-05-13T13:14:51.433;599616076966541066;3291.9683;3405
2024-05-13T13:14:51.441;599616076974232438;3299.6597;3359
2024-05-13T13:14:51.449;599616076981923810;3307.351;3305
2024-05-13T13:14:51.457;599616076989615182;3315.0422;3312
2024-05-13T13:14:51.464;599616076997306554;3322.734;3247
2024-05-13T13:14:51.472;599616077004997926;3330.425;3076
2024-05-13T13:14:51.480;599616077012689298;3338.1167;3020
2024-05-13T13:14:51.487;599616077020380670;3345.8079;3125
2024-05-13T13:14:51.495;599616077028072042;3353.4995;3291
2024-05-13T13:14:51.503;599616077035763414;3361.1907;3432
2024-05-13T13:14:51.510;599616077043454794;3368.8818;3339
2024-05-13T13:14:51.518;599616077051146166;3376.5735;2995
2024-05-13T13:14:51.526;599616077058837538;3384.2646;2795
2024-05-13T13:14:51.533;599616077066528910;3391.9563;2863
2024-05-13T13:14:51.541;599616077074220282;3399.6475;2900
2024-05-13T13:14:51.549;599616077081911654;3407.339;2846
2024-05-13T13:14:51.557;599616077089603026;3415.0303;2814
2024-05-13T13:14:51.564;599616077097294398;3422.7214;2734
2024-05-13T13:14:51.572;599616077104985770;3430.413;2653
2024-05-13T13:14:51.580;599616077112677142;3438.1042;2656
2024-05-13T13:14:51.587;599616077120368514;3445.796;2648
2024-05-13T13:14:51.595;599616077128059886;3453.487;2624
2024-05-13T13:14:51.603;599616077135751258;3461.1785;2639
2024-05-13T13:14:51.610;599616077143442630;3468.8699;2661
2024-05-13T13:14:51.618;599616077151134002;3476.561;2653
2024-05-13T13:14:51.626;599616077158825374;3484.2527;2634
2024-05-13T13:14:51.633;599616077166516746;3491.9438;2656
2024-05-13T13:14:51.641;599616077174208118;3499.6355;2685
2024-05-13T13:14:51.649;599616077181899490;3507.3267;2673
2024-05-13T13:14:51.657;599616077189590862;3515.018;2656
2024-05-13T13:14:51.664;599616077197282234;3522.7095;2678
2024-05-13T13:14:51.672;599616077204973606;3530.401;2675
2024-05-13T13:14:51.680;599616077212664978;3538.0923;2624
2024-05-13T13:14:51.687;599616077220356350;3545.7834;2617
2024-05-13T13:14:51.695;599616077228047722;3553.475;2661
2024-05-13T13:14:51.703;599616077235739094;3561.1663;2666
2024-05-13T13:14:51.710;599616077243430466;3568.8577;2619
2024-05-13T13:14:51.718;599616077251121838;3576.549;2575
2024-05-13T13:14:51.726;599616077258813210;3584.2405;2575
2024-05-13T13:14:51.733;599616077266504582;3591.932;2583
2024-05-13T13:14:51.741;599616077274195954;3599.623;2553
2024-05-13T13:14:51.749;599616077281887326;3607.3145;2519
2024-05-13T13:14:51.757;599616077289578698;3615.0059;2514
2024-05-13T13:14:51.764;599616077297270070;3622.6973;2487
2024-05-13T13:14:51.772;599616077304961442;3630.3887;2429
2024-05-13T13:14:51.780;599616077312652814;3638.08;2392
2024-05-13T13:14:51.787;599616077320344186;3645.7715;2399
2024-05-13T13:14:51.795;599616077328035558;3653.463;2402
2024-05-13T13:14:51.803;599616077335726930;3661.154;2360
2024-05-13T13:14:51.810;599616077343418302;3668.8455;2275
2024-05-13T13:14:51.818;599616077351109674;3676.5369;2233
2024-05-13T13:14:51.826;599616077358801046;3684.2283;2270
2024-05-13T13:14:51.833;599616077366492418;3691.9197;2299
2024-05-13T13:14:51.841;599616077374183790;3699.611;2321
2024-05-13T13:14:51.849;599616077381875162;3707.3025;2368
2024-05-13T13:14:51.856;599616077389566534;3714.9937;2368
2024-05-13T13:14:51.864;599616077397257906;3722.6853;2331
2024-05-13T13:14:51.872;599616077404949278;3730.3765;2346
2024-05-13T13:14:51.880;599616077412640650;3738.0679;2385
2024-05-13T13:14:51.887;599616077420332022;3745.7593;2385
2024-05-13T13:14:51.895;599616077428023394;3753.4504;2377
2024-05-13T13:14:51.903;599616077435714766;3761.142;2402
2024-05-13T13:14:51.910;599616077443406138;3768.8333;2426
2024-05-13T13:14:51.918;599616077451097510;3776.525;2421
2024-05-13T13:14:51.926;599616077458788882;3784.216;2419
2024-05-13T13:14:51.933;599616077466480254;3791.9075;2451
2024-05-13T13:14:51.941;599616077474171626;3799.5989;2482
2024-05-13T13:14:51.949;599616077481862998;3807.29;2470
2024-05-13T13:14:51.956;599616077489554370;3814.9817;2424
2024-05-13T13:14:51.964;599616077497245742;3822.6729;2397
2024-05-13T13:14:51.972;599616077504937114;3830.3645;2419
2024-05-13T13:14:51.980;599616077512628486;3838.0557;2426
2024-05-13T13:14:51.987;599616077520319858;3845.7473;2419
2024-05-13T13:14:51.995;599616077528011230;3853.4385;2434
2024-05-13T13:14:52.003;599616077535702602;3861.1296;2443
2024-05-13T13:14:52.010;599616077543393974;3868.8213;2431
2024-05-13T13:14:52.018;599616077551085346;3876.5125;2434
2024-05-13T13:14:52.026;599616077558776718;3884.204;2458
2024-05-13T13:14:52.033;599616077566468090;3891.8953;2465
2024-05-13T13:14:52.041;599616077574159462;3899.5867;2429
2024-05-13T13:14:52.049;599616077581850834;3907.278;2395
2024-05-13T13:14:52.056;599616077589542206;3914.9692;2402
2024-05-13T13:14:52.064;599616077597233578;3922.661;2416
2024-05-13T13:14:52.072;599616077604909910;3930.337;2397
2024-05-13T13:14:52.080;599616077612601491;3938.0288;2382
2024-05-13T13:14:52.087;599616077620293072;3945.7202;2390
2024-05-13T13:14:52.095;599616077627984653;3953.4119;2387
2024-05-13T13:14:52.103;599616077635676234;3961.1033;2373
2024-05-13T13:14:52.110;599616077643367815;3968.7952;2387
2024-05-13T13:14:52.118;599616077651059396;3976.4866;2412
2024-05-13T13:14:52.126;599616077658750977;3984.1782;2409
2024-05-13T13:14:52.133;599616077666442558;3991.8696;2380
2024-05-13T13:14:52.141;599616077674134139;3999.5615;2368
2024-05-13T13:14:52.149;599616077681825720;4007.253;2392
2024-05-13T13:14:52.156;599616077689517301;4014.9446;2370
2024-05-13T13:14:52.164;599616077697208882;4022.636;2287
2024-05-13T13:14:52.172;599616077704900463;4030.328;2270
2024-05-13T13:14:52.180;599616077712592044;4038.0193;2285
2024-05-13T13:14:52.187;599616077720283625;4045.711;2241
2024-05-13T13:14:52.195;599616077727975206;4053.4023;2202
2024-05-13T13:14:52.203;599616077735666787;4061.094;2187
2024-05-13T13:14:52.210;599616077743358368;4068.7856;2163
2024-05-13T13:14:52.218;599616077751049949;4076.4773;2143
2024-05-13T13:14:52.226;599616077758741530;4084.1687;2124
2024-05-13T13:14:52.233;599616077766433111;4091.86;2104
2024-05-13T13:14:52.241;599616077774124692;4099.552;2104
2024-05-13T13:14:52.249;599616077781816273;4107.2437;2136
2024-05-13T13:14:52.256;599616077789507854;4114.935;2285
2024-05-13T13:14:52.264;599616077797199435;4122.6265;2561
2024-05-13T13:14:52.272;599616077804891016;4130.3184;2670
2024-05-13T13:14:52.280;599616077812582597;4138.01;2382
2024-05-13T13:14:52.287;599616077820274178;4145.701;2026
2024-05-13T13:14:52.295;599616077827965759;4153.393;1997
2024-05-13T13:14:52.303;599616077835657340;4161.0845;2116
2024-05-13T13:14:52.310;599616077843348921;4168.7764;2092
2024-05-13T13:14:52.318;599616077851040502;4176.468;1984
2024-05-13T13:14:52.326;599616077858732083;4184.159;1931
2024-05-13T13:14:52.333;599616077866423664;4191.851;1940
2024-05-13T13:14:52.341;599616077874115245;4199.5425;1955
2024-05-13T13:14:52.349;599616077881806826;4207.234;1960
2024-05-13T13:14:52.356;599616077889498407;4214.926;1992
2024-05-13T13:14:52.364;599616077897189988;4222.617;2004
2024-05-13T13:14:52.372;599616077904881569;4230.309;1977
2024-05-13T13:14:52.380;599616077912573150;4238.0005;1972
2024-05-13T13:14:52.387;599616077920264731;4245.692;2001
2024-05-13T13:14:52.395;599616077927956312;4253.3833;2016
2024-05-13T13:14:52.403;599616077935647893;4261.075;2009
2024-05-13T13:14:52.410;599616077943339474;4268.7666;2001
2024-05-13T13:14:52.418;599616077951031055;4276.458;2009
2024-05-13T13:14:52.426;599616077958722636;4284.15;2023
2024-05-13T13:14:52.433;599616077966414217;4291.8413;2026
2024-05-13T13:14:52.441;599616077974105798;4299.5327;2028
2024-05-13T13:14:52.449;599616077981797379;4307.2246;2011
2024-05-13T13:14:52.456;599616077989488960;4314.9165;1965
2024-05-13T13:14:52.464;599616077997180541;4322.6074;1940
2024-05-13T13:14:52.472;599616078004872122;4330.2993;1972
2024-05-13T13:14:52.479;599616078012563703;4337.991;1997
2024-05-13T13:14:52.487;599616078020255284;4345.6826;1982
2024-05-13T13:14:52.495;599616078027946865;4353.374;1960
2024-05-13T13:14:52.503;599616078035638446;4361.0654;1950
2024-05-13T13:14:52.510;599616078043330027;4368.7573;1940
2024-05-13T13:14:52.518;599616078051021608;4376.449;1918
2024-05-13T13:14:52.526;599616078058713189;4384.14;1909
2024-05-13T13:14:52.533;599616078066404770;4391.832;1916
2024-05-13T13:14:52.541;599616078074096351;4399.5234;1914
2024-05-13T13:14:52.549;599616078081787932;4407.2153;1887
2024-05-13T13:14:52.556;599616078089479513;4414.9067;1857
2024-05-13T13:14:52.564;599616078097171094;4422.598;1865
2024-05-13T13:14:52.572;599616078104862675;4430.29;1887
2024-05-13T13:14:52.579;599616078112554256;4437.982;1887
2024-05-13T13:14:52.587;599616078120245837;4445.673;1879
2024-05-13T13:14:52.595;599616078127937418;4453.3647;1872
2024-05-13T13:14:52.603;599616078135628999;4461.056;1870
2024-05-13T13:14:52.610;599616078143320580;4468.7476;1872
2024-05-13T13:14:52.618;599616078151012161;4476.4395;1877
2024-05-13T13:14:52.626;599616078158703742;4484.131;1887
2024-05-13T13:14:52.633;599616078166395332;4491.8228;1884
2024-05-13T13:14:52.641;599616078174086913;4499.514;1857
2024-05-13T13:14:52.649;599616078181778494;4507.2056;1835
2024-05-13T13:14:52.656;599616078189470075;4514.8975;1853
2024-05-13T13:14:52.664;599616078197161656;4522.589;1862
2024-05-13T13:14:52.672;599616078204853237;4530.2803;1850
2024-05-13T13:14:52.679;599616078212544818;4537.972;1848
2024-05-13T13:14:52.687;599616078220236399;4545.6636;1831
2024-05-13T13:14:52.695;599616078227927980;4553.3555;1730
2024-05-13T13:14:52.703;599616078235619561;4561.047;1611
2024-05-13T13:14:52.710;599616078243311142;4568.7383;1599
2024-05-13T13:14:52.718;599616078251002723;4576.43;1640
2024-05-13T13:14:52.726;599616078258694304;4584.1216;1638
2024-05-13T13:14:52.733;599616078266385885;4591.813;1618
2024-05-13T13:14:52.741;599616078274077466;4599.505;1628
2024-05-13T13:14:52.749;599616078281769047;4607.1963;1650
2024-05-13T13:14:52.756;599616078289460628;4614.8877;1655
2024-05-13T13:14:52.764;599616078297152209;4622.579;1650
2024-05-13T13:14:52.772;599616078304843790;4630.271;1660
2024-05-13T13:14:52.779;599616078312535371;4637.963;1660
2024-05-13T13:14:52.787;599616078320226952;4645.654;1643
2024-05-13T13:14:52.795;599616078327918533;4653.3457;1638
2024-05-13T13:14:52.803;599616078335610114;4661.0376;1650
2024-05-13T13:14:52.810;599616078343301695;4668.729;1674
2024-05-13T13:14:52.818;599616078350993276;4676.4204;1660
2024-05-13T13:14:52.826;599616078358684857;4684.112;1577
2024-05-13T13:14:52.833;599616078366376438;4691.8037;1511
2024-05-13T13:14:52.841;599616078374068019;4699.4956;1530
2024-05-13T13:14:52.849;599616078381759600;4707.1865;1550
2024-05-13T13:14:52.856;599616078389451181;4714.8784;1542
2024-05-13T13:14:52.864;599616078397142762;4722.5703;1560
2024-05-13T13:14:52.872;599616078404834343;4730.2617;1562
2024-05-13T13:14:52.879;599616078412525924;4737.953;1538
2024-05-13T13:14:52.887;599616078420217505;4745.6445;1550
2024-05-13T13:14:52.895;599616078427909086;4753.3364;1591
2024-05-13T13:14:52.903;599616078435600667;4761.0283;1601
2024-05-13T13:14:52.910;599616078443292248;4768.719;1582
2024-05-13T13:14:52.918;599616078450983829;4776.411;1560
2024-05-13T13:14:52.926;599616078458675410;4784.1025;1555
2024-05-13T13:14:52.933;599616078466366991;4791.794;1560
2024-05-13T13:14:52.941;599616078474058572;4799.486;1530
2024-05-13T13:14:52.949;599616078481750153;4807.1772;1496
2024-05-13T13:14:52.956;599616078489441734;4814.869;1513
2024-05-13T13:14:52.964;599616078497133315;4822.5605;1520
2024-05-13T13:14:52.972;599616078504824896;4830.252;1477
2024-05-13T13:14:52.979;599616078512516477;4837.944;1457
2024-05-13T13:14:52.987;599616078520208058;4845.6353;1518
2024-05-13T13:14:52.995;599616078527899639;4853.3267;1691
2024-05-13T13:14:53.003;599616078535591220;4861.0186;1945
2024-05-13T13:14:53.010;599616078543282801;4868.71;2043
2024-05-13T13:14:53.018;599616078550974382;4876.402;1779
2024-05-13T13:14:53.026;599616078558665963;4884.0933;1411
2024-05-13T13:14:53.033;599616078566357544;4891.7847;1340
2024-05-13T13:14:53.041;599616078574049125;4899.4766;1469
2024-05-13T13:14:53.049;599616078581740706;4907.168;1494
2024-05-13T13:14:53.056;599616078589432287;4914.8594;1433
2024-05-13T13:14:53.064;599616078597123868;4922.5513;1408
2024-05-13T13:14:53.072;599616078604815449;4930.2427;1401
2024-05-13T13:14:53.079;599616078612507030;4937.9346;1389
2024-05-13T13:14:53.087;599616078620198611;4945.6255;1391
2024-05-13T13:14:53.095;599616078627890192;4953.3174;1389
2024-05-13T13:14:53.103;599616078635581773;4961.0093;1376
2024-05-13T13:14:53.110;599616078643273354;4968.7;1372
2024-05-13T13:14:53.118;599616078650964935;4976.392;1367
2024-05-13T13:14:53.126;599616078658656516;4984.084;1359
2024-05-13T13:14:53.133;599616078666348097;4991.7754;1372
2024-05-13T13:14:53.141;599616078674039678;4999.467;1369
2024-05-13T13:14:53.149;599616078681731259;5007.158;1313
2024-05-13T13:14:53.156;599616078689422840;5014.85;1271
2024-05-13T13:14:53.164;599616078697114421;5022.542;1267
2024-05-13T13:14:53.172;599616078704806002;5030.233;1242
2024-05-13T13:14:53.179;599616078712497583;5037.925;1215
2024-05-13T13:14:53.187;599616078720189164;5045.6167;1191
2024-05-13T13:14:53.195;599616078727870748;5053.2983;1157
2024-05-13T13:14:53.202;599616078735562468;5060.9893;1145
2024-05-13T13:14:53.210;599616078743254188;5068.681;1149
2024-05-13T13:14:53.218;599616078750945908;5076.373;1149
2024-05-13T13:14:53.226;599616078758637628;5084.065;1157
2024-05-13T13:14:53.233;599616078766329348;5091.7563;1162
2024-05-13T13:14:53.241;599616078774021068;5099.448;1127
2024-05-13T13:14:53.249;599616078781712788;5107.14;1103
2024-05-13T13:14:53.256;599616078789404508;5114.832;1113
2024-05-13T13:14:53.264;599616078797096228;5122.5234;1079
2024-05-13T13:14:53.272;599616078804787948;5130.2153;1005
2024-05-13T13:14:53.279;599616078812479668;5137.9067;991
2024-05-13T13:14:53.287;599616078820171388;5145.5986;1005
2024-05-13T13:14:53.295;599616078827863108;5153.29;988
2024-05-13T13:14:53.302;599616078835554828;5160.982;981
2024-05-13T13:14:53.310;599616078843246548;5168.674;1015
2024-05-13T13:14:53.318;599616078850938268;5176.3657;1015
2024-05-13T13:14:53.326;599616078858629988;5184.057;937
2024-05-13T13:14:53.333;599616078866321708;5191.749;876
2024-05-13T13:14:53.341;599616078874013428;5199.441;903
2024-05-13T13:14:53.349;599616078881705148;5207.1323;947
2024-05-13T13:14:53.356;599616078889396868;5214.8237;947
2024-05-13T13:14:53.364;599616078897088588;5222.5156;961
2024-05-13T13:14:53.372;599616078904780308;5230.2075;996
2024-05-13T13:14:53.379;599616078912472028;5237.8994;1000
2024-05-13T13:14:53.387;599616078920163748;5245.591;986
2024-05-13T13:14:53.395;599616078927855468;5253.2827;996
2024-05-13T13:14:53.402;599616078935547188;5260.9746;1032
2024-05-13T13:14:53.410;599616078943238908;5268.6665;1054
2024-05-13T13:14:53.418;599616078950930628;5276.3574;1049
2024-05-13T13:14:53.426;599616078958622348;5284.0493;1027
2024-05-13T13:14:53.433;599616078966314068;5291.741;996
2024-05-13T13:14:53.441;599616078974005788;5299.433;979
2024-05-13T13:14:53.449;599616078981697508;5307.1245;996
2024-05-13T13:14:53.456;599616078989389228;5314.8164;1022
2024-05-13T13:14:53.464;599616078997080948;5322.5083;1044
2024-05-13T13:14:53.472;599616079004772668;5330.2;1047
2024-05-13T13:14:53.479;599616079012464388;5337.8916;1040
2024-05-13T13:14:53.487;599616079020156108;5345.583;1057
2024-05-13T13:14:53.495;599616079027847828;5353.275;1086
2024-05-13T13:14:53.502;599616079035539548;5360.967;1091
2024-05-13T13:14:53.510;599616079043231268;5368.658;1079
2024-05-13T13:14:53.518;599616079050922988;5376.35;1074
2024-05-13T13:14:53.526;599616079058614708;5384.042;1083
2024-05-13T13:14:53.533;599616079066306428;5391.734;1101
2024-05-13T13:14:53.541;599616079073998148;5399.4253;1098
2024-05-13T13:14:53.549;599616079081689868;5407.117;1103
2024-05-13T13:14:53.556;599616079089381588;5414.8086;1135
2024-05-13T13:14:53.564;599616079097073308;5422.5005;1135
2024-05-13T13:14:53.572;599616079104765028;5430.192;1105
2024-05-13T13:14:53.579;599616079112456748;5437.884;1115
2024-05-13T13:14:53.587;599616079120148468;5445.5757;1149
2024-05-13T13:14:53.595;599616079127840188;5453.2676;1152
2024-05-13T13:14:53.602;599616079135531908;5460.9595;1145
2024-05-13T13:14:53.610;599616079143223628;5468.651;1166
2024-05-13T13:14:53.618;599616079150915348;5476.343;1184
2024-05-13T13:14:53.626;599616079158607068;5484.034;1174
2024-05-13T13:14:53.633;599616079166298788;5491.7256;1171
2024-05-13T13:14:53.641;599616079173990508;5499.4175;1191
2024-05-13T13:14:53.649;599616079181682228;5507.1094;1193
2024-05-13T13:14:53.656;599616079189373948;5514.8013;1169
2024-05-13T13:14:53.664;599616079197065668;5522.493;1157
2024-05-13T13:14:53.672;599616079204757388;5530.1846;1159
2024-05-13T13:14:53.679;599616079212449108;5537.8765;1130
2024-05-13T13:14:53.687;599616079220140828;5545.5684;1088
2024-05-13T13:14:53.695;599616079227832548;5553.2593;1074
2024-05-13T13:14:53.702;599616079235524268;5560.951;1071
2024-05-13T13:14:53.710;599616079243215988;5568.643;1142
2024-05-13T13:14:53.718;599616079250907708;5576.335;1374
2024-05-13T13:14:53.726;599616079258599428;5584.027;1650
2024-05-13T13:14:53.733;599616079266291148;5591.7183;1665
2024-05-13T13:14:53.741;599616079273982868;5599.41;1311
2024-05-13T13:14:53.749;599616079281674588;5607.102;971
2024-05-13T13:14:53.756;599616079289386430;5614.8135;996
2024-05-13T13:14:53.764;599616079297077871;5622.505;1123
2024-05-13T13:14:53.772;599616079304769312;5630.197;1101
2024-05-13T13:14:53.779;599616079312460753;5637.888;1079
2024-05-13T13:14:53.787;599616079320152194;5645.579;1118
2024-05-13T13:14:53.795;599616079327843635;5653.271;1123
2024-05-13T13:14:53.802;599616079335535076;5660.9624;1086
2024-05-13T13:14:53.810;599616079343226517;5668.654;1037
2024-05-13T13:14:53.818;599616079350917958;5676.345;1022
2024-05-13T13:14:53.826;599616079358609399;5684.0366;1035
2024-05-13T13:14:53.833;599616079366300840;5691.728;969
2024-05-13T13:14:53.841;599616079373992281;5699.4194;859
2024-05-13T13:14:53.849;599616079381683722;5707.111;834
2024-05-13T13:14:53.856;599616079389375163;5714.8022;866
2024-05-13T13:14:53.864;599616079397066604;5722.494;874
2024-05-13T13:14:53.872;599616079404758045;5730.185;874
2024-05-13T13:14:53.879;599616079412449486;5737.8765;895
2024-05-13T13:14:53.887;599616079420140927;5745.5684;913
2024-05-13T13:14:53.895;599616079427832368;5753.2593;913
2024-05-13T13:14:53.902;599616079435523809;5760.9507;925
2024-05-13T13:14:53.910;599616079443215250;5768.6426;959
2024-05-13T13:14:53.918;599616079450906691;5776.334;976
2024-05-13T13:14:53.926;599616079458598132;5784.0254;930
2024-05-13T13:14:53.933;599616079466289573;5791.717;866
2024-05-13T13:14:53.941;599616079473981014;5799.408;844
2024-05-13T13:14:53.949;599616079481672455;5807.1;834
2024-05-13T13:14:53.956;599616079489363896;5814.791;798
2024-05-13T13:14:53.964;599616079497055337;5822.4824;783
2024-05-13T13:14:53.972;599616079504746778;5830.1743;788
2024-05-13T13:14:53.979;599616079512438219;5837.865;769
2024-05-13T13:14:53.987;599616079520129660;5845.5566;742
2024-05-13T13:14:53.995;599616079527821101;5853.2485;747
2024-05-13T13:14:54.002;599616079535512542;5860.94;764
2024-05-13T13:14:54.010;599616079543203983;5868.631;771
2024-05-13T13:14:54.018;599616079550895424;5876.3228;769
2024-05-13T13:14:54.026;599616079558586865;5884.014;756
2024-05-13T13:14:54.033;599616079566278306;5891.7056;761
2024-05-13T13:14:54.041;599616079573969747;5899.397;781
2024-05-13T13:14:54.049;599616079581661188;5907.0884;788
2024-05-13T13:14:54.056;599616079589352629;5914.78;798
2024-05-13T13:14:54.064;599616079597044070;5922.471;820
2024-05-13T13:14:54.072;599616079604735511;5930.1626;817
2024-05-13T13:14:54.079;599616079612426952;5937.854;800
2024-05-13T13:14:54.087;599616079620118393;5945.546;815
2024-05-13T13:14:54.095;599616079627809834;5953.237;849
2024-05-13T13:14:54.102;599616079635501275;5960.928;864
2024-05-13T13:14:54.110;599616079643192716;5968.62;859
2024-05-13T13:14:54.118;599616079650884157;5976.3115;859
2024-05-13T13:14:54.126;599616079658575598;5984.003;876
2024-05-13T13:14:54.133;599616079666267039;5991.6943;888
2024-05-13T13:14:54.141;599616079673958480;5999.3857;883
2024-05-13T13:14:54.149;599616079681649921;6007.077;895
2024-05-13T13:14:54.156;599616079689341362;6014.7686;917
2024-05-13T13:14:54.164;599616079697032803;6022.46;905
2024-05-13T13:14:54.172;599616079704724244;6030.152;864
2024-05-13T13:14:54.179;599616079712415685;6037.843;852
2024-05-13T13:14:54.187;599616079720107126;6045.534;881
2024-05-13T13:14:54.195;599616079727798567;6053.226;903
2024-05-13T13:14:54.202;599616079735490008;6060.9175;895
2024-05-13T13:14:54.210;599616079743181449;6068.6084;900
2024-05-13T13:14:54.218;599616079750872890;6076.3003;920
2024-05-13T13:14:54.225;599616079758564331;6083.9917;922
2024-05-13T13:14:54.233;599616079766255772;6091.6826;922
2024-05-13T13:14:54.241;599616079773947213;6099.3745;944
2024-05-13T13:14:54.249;599616079781638654;6107.066;971
2024-05-13T13:14:54.256;599616079789330095;6114.7573;957
2024-05-13T13:14:54.264;599616079797021536;6122.4487;937
2024-05-13T13:14:54.272;599616079804712977;6130.14;961
2024-05-13T13:14:54.279;599616079812404418;6137.8315;988
2024-05-13T13:14:54.287;599616079820095859;6145.5234;983
2024-05-13T13:14:54.295;599616079827787300;6153.2144;983
2024-05-13T13:14:54.302;599616079835478741;6160.906;993
2024-05-13T13:14:54.310;599616079843170182;6168.5977;996
2024-05-13T13:14:54.318;599616079850866650;6176.294;986
2024-05-13T13:14:54.325;599616079858558022;6183.9854;988
2024-05-13T13:14:54.333;599616079866249394;6191.6763;976
2024-05-13T13:14:54.341;599616079873940766;6199.368;895
2024-05-13T13:14:54.349;599616079881632138;6207.0596;822
2024-05-13T13:14:54.356;599616079889323510;6214.7505;849
2024-05-13T13:14:54.364;599616079897014882;6222.442;900
2024-05-13T13:14:54.372;599616079904706254;6230.1333;883
2024-05-13T13:14:54.379;599616079912397626;6237.825;825
2024-05-13T13:14:54.387;599616079920088998;6245.516;805
2024-05-13T13:14:54.395;599616079927780370;6253.2075;825
2024-05-13T13:14:54.402;599616079935471742;6260.899;842
2024-05-13T13:14:54.410;599616079943163114;6268.591;864
2024-05-13T13:14:54.418;599616079950854486;6276.2817;874
2024-05-13T13:14:54.425;599616079958545858;6283.973;842
2024-05-13T13:14:54.433;599616079966237230;6291.6646;808
2024-05-13T13:14:54.441;599616079973928602;6299.3555;795
2024-05-13T13:14:54.449;599616079981619974;6307.0474;783
2024-05-13T13:14:54.456;599616079989311346;6314.739;825
2024-05-13T13:14:54.464;599616079997002718;6322.43;998
2024-05-13T13:14:54.472;599616080004694090;6330.121;1271
2024-05-13T13:14:54.479;599616080012385462;6337.8125;1433
2024-05-13T13:14:54.487;599616080020076834;6345.5044;1232
2024-05-13T13:14:54.495;599616080027768206;6353.1953;830
2024-05-13T13:14:54.502;599616080035459578;6360.8867;700
2024-05-13T13:14:54.510;599616080043150950;6368.578;832
2024-05-13T13:14:54.518;599616080050842322;6376.2695;874
2024-05-13T13:14:54.525;599616080058533694;6383.961;825
2024-05-13T13:14:54.533;599616080066225066;6391.6523;834
2024-05-13T13:14:54.541;599616080073916438;6399.3438;864
2024-05-13T13:14:54.549;599616080081607810;6407.0347;878
2024-05-13T13:14:54.556;599616080089299182;6414.7266;888
2024-05-13T13:14:54.564;599616080096990554;6422.418;898
2024-05-13T13:14:54.572;599616080104681926;6430.1094;913
2024-05-13T13:14:54.579;599616080112373298;6437.8003;915
2024-05-13T13:14:54.587;599616080120064670;6445.4917;903
2024-05-13T13:14:54.595;599616080127756042;6453.1836;910
2024-05-13T13:14:54.602;599616080135447414;6460.8745;937
2024-05-13T13:14:54.610;599616080143138786;6468.566;952
2024-05-13T13:14:54.618;599616080150830158;6476.2573;920
2024-05-13T13:14:54.625;599616080158521530;6483.9487;869
2024-05-13T13:14:54.633;599616080166212902;6491.64;866
2024-05-13T13:14:54.641;599616080173904274;6499.3315;900
2024-05-13T13:14:54.649;599616080181595646;6507.023;900
2024-05-13T13:14:54.656;599616080189287018;6514.7144;881
2024-05-13T13:14:54.664;599616080196978390;6522.4053;861
2024-05-13T13:14:54.672;599616080204669762;6530.097;822
2024-05-13T13:14:54.679;599616080212361134;6537.7886;808
2024-05-13T13:14:54.687;599616080220052506;6545.4795;830
2024-05-13T13:14:54.695;599616080227743878;6553.171;827
2024-05-13T13:14:54.702;599616080235435250;6560.863;778
2024-05-13T13:14:54.710;599616080243126622;6568.554;734
2024-05-13T13:14:54.718;599616080250817994;6576.245;703
2024-05-13T13:14:54.725;599616080258509366;6583.9365;664
2024-05-13T13:14:54.733;599616080266200738;6591.628;642
2024-05-13T13:14:54.741;599616080273892110;6599.3193;634
2024-05-13T13:14:54.749;599616080281583482;6607.0107;629
2024-05-13T13:14:54.756;599616080289274854;6614.702;627
2024-05-13T13:14:54.764;599616080296966226;6622.3936;603
2024-05-13T13:14:54.772;599616080304657598;6630.0845;578
2024-05-13T13:14:54.779;599616080312348970;6637.7764;598
2024-05-13T13:14:54.787;599616080320040342;6645.468;629
2024-05-13T13:14:54.795;599616080327731714;6653.1587;625
2024-05-13T13:14:54.802;599616080335423086;6660.85;617
2024-05-13T13:14:54.810;599616080343114458;6668.5415;634
2024-05-13T13:14:54.818;599616080350805830;6676.2334;646
2024-05-13T13:14:54.825;599616080358497202;6683.9243;646
2024-05-13T13:14:54.833;599616080366188574;6691.6157;632
2024-05-13T13:14:54.841;599616080373879946;6699.307;578
2024-05-13T13:14:54.848;599616080381571318;6706.999;527
2024-05-13T13:14:54.856;599616080389262690;6714.69;524
2024-05-13T13:14:54.864;599616080396954062;6722.3813;539
2024-05-13T13:14:54.872;599616080404645434;6730.0728;563
2024-05-13T13:14:54.879;599616080412306718;6737.7344;593
2024-05-13T13:14:54.887;599616080419998508;6745.426;610
2024-05-13T13:14:54.895;599616080427690298;6753.1177;612
2024-05-13T13:14:54.902;599616080435382088;6760.8096;593
2024-05-13T13:14:54.910;599616080443073878;6768.5015;534
2024-05-13T13:14:54.918;599616080450765668;6776.193;451
2024-05-13T13:14:54.925;599616080458457458;6783.885;434
2024-05-13T13:14:54.933;599616080466149248;6791.5767;495
2024-05-13T13:14:54.941;599616080473841038;6799.2686;524
2024-05-13T13:14:54.948;599616080481532828;6806.96;502
2024-05-13T13:14:54.956;599616080489224618;6814.652;517
2024-05-13T13:14:54.964;599616080496916408;6822.3438;568
2024-05-13T13:14:54.972;599616080504608198;6830.0356;598
2024-05-13T13:14:54.979;599616080512299988;6837.727;603
2024-05-13T13:14:54.987;599616080519991778;6845.419;615
2024-05-13T13:14:54.995;599616080527683568;6853.111;625
2024-05-13T13:14:55.002;599616080535375358;6860.8027;627
2024-05-13T13:14:55.010;599616080543067148;6868.494;639
2024-05-13T13:14:55.018;599616080550758938;6876.186;659
2024-05-13T13:14:55.025;599616080558450728;6883.878;681
2024-05-13T13:14:55.033;599616080566142518;6891.57;688
2024-05-13T13:14:55.041;599616080573834308;6899.261;676
2024-05-13T13:14:55.048;599616080581526098;6906.953;678
2024-05-13T13:14:55.056;599616080589217888;6914.645;710
2024-05-13T13:14:55.064;599616080596909678;6922.337;722
2024-05-13T13:14:55.072;599616080604601468;6930.0283;715
2024-05-13T13:14:55.079;599616080612293258;6937.72;727
2024-05-13T13:14:55.087;599616080619985048;6945.412;747
2024-05-13T13:14:55.095;599616080627676838;6953.104;747
2024-05-13T13:14:55.102;599616080635368628;6960.7954;744
2024-05-13T13:14:55.110;599616080643060418;6968.4873;766
2024-05-13T13:14:55.118;599616080650752208;6976.179;793
2024-05-13T13:14:55.125;599616080658443998;6983.871;791
2024-05-13T13:14:55.133;599616080666135788;6991.5635;771
2024-05-13T13:14:55.141;599616080673827578;6999.255;769
2024-05-13T13:14:55.148;599616080681519368;7006.947;776
2024-05-13T13:14:55.156;599616080689211158;7014.6387;754
2024-05-13T13:14:55.164;599616080696902948;7022.3306;742
2024-05-13T13:14:55.172;599616080704594738;7030.022;778
2024-05-13T13:14:55.179;599616080712286528;7037.714;795
2024-05-13T13:14:55.187;599616080719978318;7045.406;776
2024-05-13T13:14:55.195;599616080727670108;7053.0977;781
2024-05-13T13:14:55.202;599616080735361898;7060.789;803
2024-05-13T13:14:55.210;599616080743053688;7068.481;803
2024-05-13T13:14:55.218;599616080750745478;7076.173;791
2024-05-13T13:14:55.225;599616080758437268;7083.8647;788
2024-05-13T13:14:55.233;599616080766129058;7091.556;795
2024-05-13T13:14:55.241;599616080773820848;7099.248;803
2024-05-13T13:14:55.248;599616080781512638;7106.94;803
2024-05-13T13:14:55.256;599616080789204428;7114.632;798
2024-05-13T13:14:55.264;599616080796896218;7122.323;798
2024-05-13T13:14:55.272;599616080804588008;7130.015;859
2024-05-13T13:14:55.279;599616080812279798;7137.707;1049
2024-05-13T13:14:55.287;599616080819971588;7145.399;1308
2024-05-13T13:14:55.295;599616080827663378;7153.0903;1340
2024-05-13T13:14:55.302;599616080835355168;7160.782;1005
2024-05-13T13:14:55.310;599616080843046958;7168.474;683
2024-05-13T13:14:55.318;599616080850738748;7176.166;700
2024-05-13T13:14:55.325;599616080858430538;7183.8574;803
2024-05-13T13:14:55.333;599616080866122328;7191.5493;773
2024-05-13T13:14:55.341;599616080873814118;7199.241;747
2024-05-13T13:14:55.348;599616080881505908;7206.933;729
2024-05-13T13:14:55.356;599616080889197698;7214.625;666
2024-05-13T13:14:55.364;599616080896889488;7222.3164;634
2024-05-13T13:14:55.372;599616080904581278;7230.0083;656
2024-05-13T13:14:55.379;599616080912273068;7237.7;678
2024-05-13T13:14:55.387;599616080919964858;7245.392;690
2024-05-13T13:14:55.395;599616080927656648;7253.0835;666
2024-05-13T13:14:55.402;599616080935348438;7260.7754;603
2024-05-13T13:14:55.410;599616080943040228;7268.4673;568
2024-05-13T13:14:55.418;599616080950732018;7276.1597;578
2024-05-13T13:14:55.425;599616080958423808;7283.851;590
2024-05-13T13:14:55.433;599616080966115598;7291.543;598
2024-05-13T13:14:55.441;599616080973837496;7299.2646;625
2024-05-13T13:14:55.448;599616080981528868;7306.956;646
2024-05-13T13:14:55.456;599616080989220240;7314.6475;634
2024-05-13T13:14:55.464;599616080996911612;7322.339;622
2024-05-13T13:14:55.472;599616081004602984;7330.0303;620
2024-05-13T13:14:55.479;599616081012294356;7337.721;598
2024-05-13T13:14:55.487;599616081019985728;7345.413;559
2024-05-13T13:14:55.495;599616081027677100;7353.1045;505
2024-05-13T13:14:55.502;599616081035368472;7360.7954;456
2024-05-13T13:14:55.510;599616081043059844;7368.487;422
2024-05-13T13:14:55.518;599616081050751216;7376.1787;354
2024-05-13T13:14:55.525;599616081058442588;7383.87;302
2024-05-13T13:14:55.533;599616081066133960;7391.561;324
2024-05-13T13:14:55.541;599616081073825332;7399.2524;336
2024-05-13T13:14:55.548;599616081081516704;7406.944;300
2024-05-13T13:14:55.556;599616081089208076;7414.6357;295
2024-05-13T13:14:55.564;599616081096899448;7422.3267;327
2024-05-13T13:14:55.572;599616081104590820;7430.018;332
2024-05-13T13:14:55.579;599616081112282192;7437.7095;324
2024-05-13T13:14:55.587;599616081119973564;7445.4004;341
2024-05-13T13:14:55.595;599616081127664936;7453.0923;351
2024-05-13T13:14:55.602;599616081135356308;7460.7837;344
2024-05-13T13:14:55.610;599616081143047680;7468.475;354
2024-05-13T13:14:55.618;599616081150739052;7476.166;383
2024-05-13T13:14:55.625;599616081158430424;7483.8574;405
2024-05-13T13:14:55.633;599616081166121796;7491.5493;405
2024-05-13T13:14:55.641;599616081173813168;7499.24;380
2024-05-13T13:14:55.648;599616081181504540;7506.9316;344
2024-05-13T13:14:55.656;599616081189195912;7514.623;339
2024-05-13T13:14:55.664;599616081196887284;7522.315;358
2024-05-13T13:14:55.672;599616081204578656;7530.006;373
2024-05-13T13:14:55.679;599616081212270028;7537.6973;388
2024-05-13T13:14:55.687;599616081219961400;7545.3887;405
2024-05-13T13:14:55.695;599616081227652772;7553.0796;405
2024-05-13T13:14:55.702;599616081235344144;7560.7715;410
2024-05-13T13:14:55.710;599616081243035516;7568.463;439
2024-05-13T13:14:55.718;599616081250726888;7576.1543;468
2024-05-13T13:14:55.725;599616081258418260;7583.845;468
2024-05-13T13:14:55.733;599616081266109632;7591.5366;456
2024-05-13T13:14:55.741;599616081273801004;7599.2285;468
2024-05-13T13:14:55.748;599616081281492376;7606.92;495
2024-05-13T13:14:55.756;599616081289183748;7614.611;502
2024-05-13T13:14:55.764;599616081296875120;7622.3022;512
2024-05-13T13:14:55.771;599616081304566492;7629.9937;529
2024-05-13T13:14:55.779;599616081312257864;7637.685;524
2024-05-13T13:14:55.787;599616081319949236;7645.3765;510
2024-05-13T13:14:55.795;599616081327640608;7653.068;522
2024-05-13T13:14:55.802;599616081335331980;7660.7593;556
2024-05-13T13:14:55.810;599616081343023352;7668.4507;576
2024-05-13T13:14:55.818;599616081350714724;7676.142;561
2024-05-13T13:14:55.825;599616081358406096;7683.8335;554
2024-05-13T13:14:55.833;599616081366097468;7691.5244;573
2024-05-13T13:14:55.841;599616081373788840;7699.216;585
2024-05-13T13:14:55.848;599616081381480212;7706.9077;563
2024-05-13T13:14:55.856;599616081389171584;7714.599;510
2024-05-13T13:14:55.864;599616081396862956;7722.29;446
2024-05-13T13:14:55.871;599616081404554328;7729.9814;427
2024-05-13T13:14:55.879;599616081412245700;7737.673;441
2024-05-13T13:14:55.887;599616081419937072;7745.3643;441
2024-05-13T13:14:55.895;599616081427628444;7753.0557;427
2024-05-13T13:14:55.902;599616081435319816;7760.747;417
2024-05-13T13:14:55.910;599616081443011188;7768.4385;419
2024-05-13T13:14:55.918;599616081450702560;7776.1294;422
2024-05-13T13:14:55.925;599616081458393932;7783.8213;441
2024-05-13T13:14:55.933;599616081466085304;7791.5127;466
2024-05-13T13:14:55.941;599616081473776676;7799.2036;471
2024-05-13T13:14:55.948;599616081481468048;7806.895;485
2024-05-13T13:14:55.956;599616081489159420;7814.587;507
2024-05-13T13:14:55.964;599616081496850792;7822.2783;498
2024-05-13T13:14:55.971;599616081504542164;7829.969;483
2024-05-13T13:14:55.979;599616081512233536;7837.6606;502
2024-05-13T13:14:55.987;599616081519924908;7845.352;532
2024-05-13T13:14:55.995;599616081527616280;7853.044;532
2024-05-13T13:14:56.002;599616081535287644;7860.715;524
2024-05-13T13:14:56.010;599616081542979294;7868.4062;529
2024-05-13T13:14:56.018;599616081550670944;7876.098;546
2024-05-13T13:14:56.025;599616081558362594;7883.79;561
2024-05-13T13:14:56.033;599616081566054244;7891.4814;556
2024-05-13T13:14:56.041;599616081573745894;7899.173;566
2024-05-13T13:14:56.048;599616081581437544;7906.8647;566
2024-05-13T13:14:56.056;599616081589129194;7914.5566;490
2024-05-13T13:14:56.064;599616081596820844;7922.248;410
2024-05-13T13:14:56.071;599616081604512494;7929.94;434
2024-05-13T13:14:56.079;599616081612204144;7937.6313;478
2024-05-13T13:14:56.087;599616081619895794;7945.323;466
2024-05-13T13:14:56.095;599616081627587444;7953.0146;454
2024-05-13T13:14:56.102;599616081635279094;7960.7065;458
2024-05-13T13:14:56.110;599616081642970744;7968.398;441
2024-05-13T13:14:56.118;599616081650662394;7976.09;461
2024-05-13T13:14:56.125;599616081658354044;7983.7812;629
2024-05-13T13:14:56.133;599616081666045694;7991.473;905
2024-05-13T13:14:56.141;599616081673737344;7999.1646;996
2024-05-13T13:14:56.148;599616081681428994;8006.856;686
2024-05-13T13:14:56.156;599616081689120644;8014.548;263
2024-05-13T13:14:56.164;599616081696812294;8022.2397;178
2024-05-13T13:14:56.171;599616081704503944;8029.931;292
2024-05-13T13:14:56.179;599616081712195594;8037.6226;278
2024-05-13T13:14:56.187;599616081719887244;8045.3145;227
2024-05-13T13:14:56.195;599616081727578894;8053.0063;253
2024-05-13T13:14:56.202;599616081735270544;8060.6978;263
2024-05-13T13:14:56.210;599616081742962194;8068.389;251
2024-05-13T13:14:56.218;599616081750653844;8076.081;273
2024-05-13T13:14:56.225;599616081758345494;8083.773;297
2024-05-13T13:14:56.233;599616081766037144;8091.4644;266
2024-05-13T13:14:56.241;599616081773728794;8099.156;200
2024-05-13T13:14:56.248;599616081781420444;8106.8477;168
2024-05-13T13:14:56.256;599616081789112094;8114.5396;156
2024-05-13T13:14:56.264;599616081796803744;8122.231;122
2024-05-13T13:14:56.271;599616081804495394;8129.9224;114
2024-05-13T13:14:56.279;599616081812187044;8137.6143;139
2024-05-13T13:14:56.287;599616081819878694;8145.306;131
2024-05-13T13:14:56.294;599616081827570344;8152.9976;100
2024-05-13T13:14:56.302;599616081835261994;8160.689;85
2024-05-13T13:14:56.310;599616081842953644;8168.381;87
2024-05-13T13:14:56.318;599616081850645294;8176.0728;80
2024-05-13T13:14:56.325;599616081858336944;8183.764;63
2024-05-13T13:14:56.333;599616081866028594;8191.4556;48
2024-05-13T13:14:56.341;599616081873720244;8199.147;53
2024-05-13T13:14:56.348;599616081881411894;8206.839;68
2024-05-13T13:14:56.356;599616081889103544;8214.53;56
2024-05-13T13:14:56.364;599616081896795194;8222.223;-12
2024-05-13T13:14:56.371;599616081904486844;8229.914;-85
2024-05-13T13:14:56.379;599616081912178494;8237.605;-104
2024-05-13T13:14:56.387;599616081919870144;8245.297;-119
2024-05-13T13:14:56.394;599616081927561794;8252.989;-134
2024-05-13T13:14:56.402;599616081935253444;8260.681;-95
2024-05-13T13:14:56.410;599616081942945094;8268.372;-53
2024-05-13T13:14:56.418;599616081950636744;8276.063;-70
2024-05-13T13:14:56.425;599616081958328394;8283.756;-83
2024-05-13T13:14:56.433;599616081966020044;8291.447;-41
2024-05-13T13:14:56.441;599616081973711694;8299.139;-7
2024-05-13T13:14:56.448;599616081981403344;8306.83;-4
2024-05-13T13:14:56.456;599616081989094994;8314.522;21
2024-05-13T13:14:56.464;599616081996786644;8322.214;65
2024-05-13T13:14:56.471;599616082004478294;8329.905;68
2024-05-13T13:14:56.479;599616082012169944;8337.597;58
2024-05-13T13:14:56.487;599616082019861594;8345.289;97
2024-05-13T13:14:56.494;599616082027553244;8352.98;141
2024-05-13T13:14:56.502;599616082035244894;8360.672;136
2024-05-13T13:14:56.510;599616082042936544;8368.363;124
2024-05-13T13:14:56.518;599616082050628194;8376.056;141
2024-05-13T13:14:56.525;599616082058319844;8383.747;161
2024-05-13T13:14:56.533;599616082066011494;8391.438;173
2024-05-13T13:14:56.541;599616082073703144;8399.131;185
2024-05-13T13:14:56.548;599616082081394794;8406.822;202
2024-05-13T13:14:56.556;599616082089086444;8414.514;222
2024-05-13T13:14:56.564;599616082096788160;8422.215;227
2024-05-13T13:14:56.571;599616082104479671;8429.907;222
2024-05-13T13:14:56.579;599616082112171182;8437.599;236
2024-05-13T13:14:56.587;599616082119862693;8445.29;270
2024-05-13T13:14:56.594;599616082127554204;8452.981;285
2024-05-13T13:14:56.602;599616082135245715;8460.673;285
2024-05-13T13:14:56.610;599616082142937226;8468.364;285
2024-05-13T13:14:56.618;599616082150628737;8476.056;297
2024-05-13T13:14:56.625;599616082158320248;8483.747;310
2024-05-13T13:14:56.633;599616082166011759;8491.439;290
2024-05-13T13:14:56.641;599616082173703270;8499.13;273
2024-05-13T13:14:56.648;599616082181394781;8506.822;273
2024-05-13T13:14:56.656;599616082189086292;8514.514;217
2024-05-13T13:14:56.664;599616082196777803;8522.205;158
2024-05-13T13:14:56.671;599616082204469314;8529.896;192
2024-05-13T13:14:56.679;599616082212160825;8537.588;241
2024-05-13T13:14:56.687;599616082219852336;8545.279;236
2024-05-13T13:14:56.694;599616082227543847;8552.972;231
2024-05-13T13:14:56.702;599616082235235358;8560.662;246
2024-05-13T13:14:56.710;599616082242926869;8568.3545;258
2024-05-13T13:14:56.718;599616082250618380;8576.046;268
2024-05-13T13:14:56.725;599616082258309891;8583.737;285
2024-05-13T13:14:56.733;599616082266001402;8591.429;314
2024-05-13T13:14:56.741;599616082273692913;8599.12;324
2024-05-13T13:14:56.748;599616082281384424;8606.8125;310
2024-05-13T13:14:56.756;599616082289075935;8614.504;312
2024-05-13T13:14:56.764;599616082296767446;8622.194;346
2024-05-13T13:14:56.771;599616082304458957;8629.886;358
2024-05-13T13:14:56.779;599616082312150468;8637.577;351
2024-05-13T13:14:56.787;599616082319841979;8645.27;356
2024-05-13T13:14:56.794;599616082327533490;8652.961;363
2024-05-13T13:14:56.802;599616082335225001;8660.652;356
2024-05-13T13:14:56.810;599616082342916512;8668.344;346
2024-05-13T13:14:56.818;599616082350608023;8676.035;351
2024-05-13T13:14:56.825;599616082358299534;8683.727;363
2024-05-13T13:14:56.833;599616082365991045;8691.418;358
2024-05-13T13:14:56.841;599616082373682556;8699.109;346
2024-05-13T13:14:56.848;599616082381374067;8706.802;366
2024-05-13T13:14:56.856;599616082389065578;8714.493;393
2024-05-13T13:14:56.864;599616082396757089;8722.185;388
2024-05-13T13:14:56.871;599616082404448600;8729.875;322
2024-05-13T13:14:56.879;599616082412140111;8737.567;200
2024-05-13T13:14:56.887;599616082419831622;8745.259;117
2024-05-13T13:14:56.894;599616082427523133;8752.95;95
2024-05-13T13:14:56.902;599616082435214644;8760.642;78
2024-05-13T13:14:56.910;599616082442906155;8768.334;100
2024-05-13T13:14:56.918;599616082450597666;8776.025;141
2024-05-13T13:14:56.925;599616082458289177;8783.717;129
2024-05-13T13:14:56.933;599616082465980688;8791.407;87
2024-05-13T13:14:56.941;599616082473672199;8799.1;104
2024-05-13T13:14:56.948;599616082481363710;8806.791;234
2024-05-13T13:14:56.956;599616082489055221;8814.482;485
2024-05-13T13:14:56.964;599616082496746732;8822.174;712
2024-05-13T13:14:56.971;599616082504438243;8829.865;603
2024-05-13T13:14:56.979;599616082512129754;8837.558;161
2024-05-13T13:14:56.987;599616082519821265;8845.248;-124
2024-05-13T13:14:56.994;599616082527512776;8852.939;-73
2024-05-13T13:14:57.002;599616082535204287;8860.631;-12
2024-05-13T13:14:57.010;599616082542895798;8868.323;-51
2024-05-13T13:14:57.018;599616082550587309;8876.015;-61
2024-05-13T13:14:57.025;599616082558278820;8883.706;-41
2024-05-13T13:14:57.033;599616082565970331;8891.397;-31
2024-05-13T13:14:57.041;599616082573661842;8899.09;-12
2024-05-13T13:14:57.048;599616082581353353;8906.78;7
2024-05-13T13:14:57.056;599616082589044864;8914.472;26
2024-05-13T13:14:57.064;599616082596736375;8922.163;48
2024-05-13T13:14:57.071;599616082604427886;8929.855;43
2024-05-13T13:14:57.079;599616082612119397;8937.547;26
2024-05-13T13:14:57.087;599616082619810908;8945.238;51
2024-05-13T13:14:57.094;599616082627502419;8952.93;90
2024-05-13T13:14:57.102;599616082635193930;8960.621;107
2024-05-13T13:14:57.110;599616082642885441;8968.3125;107
2024-05-13T13:14:57.118;599616082650576952;8976.004;102
2024-05-13T13:14:57.125;599616082658248410;8983.676;83
2024-05-13T13:14:57.133;599616082665940200;8991.367;70
2024-05-13T13:14:57.141;599616082673631990;8999.06;100
2024-05-13T13:14:57.148;599616082681323780;9006.751;146
2024-05-13T13:14:57.156;599616082689015570;9014.443;158
2024-05-13T13:14:57.164;599616082696707360;9022.134;104
2024-05-13T13:14:57.171;599616082704399150;9029.826;39
2024-05-13T13:14:57.179;599616082712090940;9037.518;58
2024-05-13T13:14:57.187;599616082719782730;9045.21;114
2024-05-13T13:14:57.194;599616082727474520;9052.901;117
2024-05-13T13:14:57.202;599616082735166310;9060.594;104
2024-05-13T13:14:57.210;599616082742858100;9068.285;122
2024-05-13T13:14:57.217;599616082750549890;9075.978;134
2024-05-13T13:14:57.225;599616082758241680;9083.669;131
2024-05-13T13:14:57.233;599616082765933470;9091.36;146
2024-05-13T13:14:57.241;599616082773625260;9099.052;173
2024-05-13T13:14:57.248;599616082781317050;9106.744;183
2024-05-13T13:14:57.256;599616082789008840;9114.436;170
2024-05-13T13:14:57.264;599616082796700630;9122.128;170
2024-05-13T13:14:57.271;599616082804392420;9129.819;207
2024-05-13T13:14:57.279;599616082812084210;9137.512;234
2024-05-13T13:14:57.287;599616082819776000;9145.204;239
2024-05-13T13:14:57.294;599616082827467790;9152.895;249
2024-05-13T13:14:57.302;599616082835159580;9160.587;261
2024-05-13T13:14:57.310;599616082842851370;9168.278;266
2024-05-13T13:14:57.317;599616082850543160;9175.971;270
2024-05-13T13:14:57.325;599616082858234950;9183.662;292
2024-05-13T13:14:57.333;599616082865926740;9191.3545;319
2024-05-13T13:14:57.341;599616082873618530;9199.046;324
2024-05-13T13:14:57.348;599616082881310320;9206.738;307
2024-05-13T13:14:57.356;599616082889002110;9214.429;314
2024-05-13T13:14:57.364;599616082896693900;9222.121;339
2024-05-13T13:14:57.371;599616082904385690;9229.8125;312
2024-05-13T13:14:57.379;599616082912077480;9237.505;231
2024-05-13T13:14:57.387;599616082919769270;9245.196;163
2024-05-13T13:14:57.394;599616082927461060;9252.889;158
2024-05-13T13:14:57.402;599616082935152850;9260.58;183
2024-05-13T13:14:57.410;599616082942844640;9268.272;197
2024-05-13T13:14:57.417;599616082950536430;9275.964;222
2024-05-13T13:14:57.425;599616082958228220;9283.655;266
2024-05-13T13:14:57.433;599616082965920010;9291.347;278
2024-05-13T13:14:57.441;599616082973611800;9299.039;258
2024-05-13T13:14:57.448;599616082981303590;9306.73;273
2024-05-13T13:14:57.456;599616082988995380;9314.423;310
2024-05-13T13:14:57.464;599616082996687170;9322.114;317
2024-05-13T13:14:57.471;599616083004378960;9329.807;322
2024-05-13T13:14:57.479;599616083012070750;9337.498;341
2024-05-13T13:14:57.487;599616083019762540;9345.189;349
2024-05-13T13:14:57.494;599616083027454330;9352.881;336
2024-05-13T13:14:57.502;599616083035146120;9360.573;336
2024-05-13T13:14:57.510;599616083042837910;9368.265;358
2024-05-13T13:14:57.517;599616083050529700;9375.957;385
2024-05-13T13:14:57.525;599616083058221490;9383.648;383
2024-05-13T13:14:57.533;599616083065913280;9391.341;366
2024-05-13T13:14:57.541;599616083073605070;9399.032;373
2024-05-13T13:14:57.548;599616083081296860;9406.724;397
2024-05-13T13:14:57.556;599616083088988650;9414.416;397
2024-05-13T13:14:57.564;599616083096680440;9422.107;397
2024-05-13T13:14:57.571;599616083104372230;9429.8;419
2024-05-13T13:14:57.579;599616083112064020;9437.491;419
2024-05-13T13:14:57.587;599616083119755810;9445.184;405
2024-05-13T13:14:57.594;599616083127447600;9452.875;415
2024-05-13T13:14:57.602;599616083135139390;9460.567;437
2024-05-13T13:14:57.610;599616083142831180;9468.259;417
2024-05-13T13:14:57.617;599616083150522970;9475.95;332
2024-05-13T13:14:57.625;599616083158214760;9483.642;268
2024-05-13T13:14:57.633;599616083165906550;9491.334;305
2024-05-13T13:14:57.641;599616083173598340;9499.025;344
2024-05-13T13:14:57.648;599616083181290130;9506.718;332
2024-05-13T13:14:57.656;599616083188981920;9514.409;336
2024-05-13T13:14:57.664;599616083196673710;9522.102;351
2024-05-13T13:14:57.671;599616083204365500;9529.793;332
2024-05-13T13:14:57.679;599616083212057290;9537.484;307
2024-05-13T13:14:57.687;599616083219774218;9545.202;312
2024-05-13T13:14:57.694;599616083227465659;9552.893;300
2024-05-13T13:14:57.702;599616083235157100;9560.584;268
2024-05-13T13:14:57.710;599616083242848541;9568.275;219
2024-05-13T13:14:57.717;599616083250539982;9575.967;139
2024-05-13T13:14:57.725;599616083258231423;9583.659;102
2024-05-13T13:14:57.733;599616083265922864;9591.351;170
2024-05-13T13:14:57.741;599616083273614305;9599.042;351
2024-05-13T13:14:57.748;599616083281305746;9606.732;605
2024-05-13T13:14:57.756;599616083288997187;9614.424;622
2024-05-13T13:14:57.764;599616083296688628;9622.116;229
2024-05-13T13:14:57.771;599616083304380069;9629.808;-102
2024-05-13T13:14:57.779;599616083312071510;9637.499;-19
2024-05-13T13:14:57.787;599616083319762951;9645.19;112
2024-05-13T13:14:57.794;599616083327454392;9652.882;61
2024-05-13T13:14:57.802;599616083335145833;9660.572;43
2024-05-13T13:14:57.810;599616083342837274;9668.265;102
2024-05-13T13:14:57.817;599616083350528715;9675.956;124
2024-05-13T13:14:57.825;599616083358220156;9683.647;129
2024-05-13T13:14:57.833;599616083365911597;9691.339;153
2024-05-13T13:14:57.841;599616083373603038;9699.03;185
2024-05-13T13:14:57.848;599616083381294479;9706.722;205
2024-05-13T13:14:57.856;599616083388985920;9714.413;200
2024-05-13T13:14:57.864;599616083396677361;9722.1045;173
2024-05-13T13:14:57.871;599616083404368802;9729.796;166
2024-05-13T13:14:57.879;599616083412060243;9737.487;170
2024-05-13T13:14:57.887;599616083419751684;9745.179;126
2024-05-13T13:14:57.894;599616083427443125;9752.87;83
2024-05-13T13:14:57.902;599616083435134566;9760.5625;117
2024-05-13T13:14:57.910;599616083442826007;9768.254;161
2024-05-13T13:14:57.917;599616083450517448;9775.944;175
2024-05-13T13:14:57.925;599616083458208889;9783.636;205
2024-05-13T13:14:57.933;599616083465900330;9791.327;256
2024-05-13T13:14:57.941;599616083473591771;9799.019;280
2024-05-13T13:14:57.948;599616083481283212;9806.711;273
2024-05-13T13:14:57.956;599616083488974653;9814.402;283
2024-05-13T13:14:57.964;599616083496666094;9822.094;317
2024-05-13T13:14:57.971;599616083504357535;9829.784;336
2024-05-13T13:14:57.979;599616083512048976;9837.476;332
2024-05-13T13:14:57.987;599616083519740417;9845.168;339
2024-05-13T13:14:57.994;599616083527431858;9852.859;351
2024-05-13T13:14:58.002;599616083535123299;9860.551;346
2024-05-13T13:14:58.010;599616083542814740;9868.242;332
2024-05-13T13:14:58.017;599616083550506181;9875.934;339
2024-05-13T13:14:58.025;599616083558197622;9883.624;361
2024-05-13T13:14:58.033;599616083565889063;9891.316;361
2024-05-13T13:14:58.041;599616083573580504;9899.008;332
2024-05-13T13:14:58.048;599616083581271945;9906.699;332
2024-05-13T13:14:58.056;599616083588963386;9914.391;366
2024-05-13T13:14:58.064;599616083596654827;9922.082;378
2024-05-13T13:14:58.071;599616083604346268;9929.773;373
2024-05-13T13:14:58.079;599616083612037709;9937.466;393
2024-05-13T13:14:58.087;599616083619729150;9945.156;407
2024-05-13T13:14:58.094;599616083627420591;9952.848;393
2024-05-13T13:14:58.102;599616083635112032;9960.539;380
2024-05-13T13:14:58.110;599616083642803473;9968.23;368
2024-05-13T13:14:58.117;599616083650494914;9975.922;351
2024-05-13T13:14:58.125;599616083658186355;9983.614;344
2024-05-13T13:14:58.133;599616083665877796;9991.306;339
2024-05-13T13:14:58.140;599616083673569237;9998.996;351
2024-05-13T13:14:58.148;599616083681260678;10006.6875;383
2024-05-13T13:14:58.156;599616083688952119;10014.379;393
2024-05-13T13:14:58.164;599616083696643560;10022.071;393
2024-05-13T13:14:58.171;599616083704335001;10029.763;412
2024-05-13T13:14:58.179;599616083712026442;10037.454;412
2024-05-13T13:14:58.187;599616083719717883;10045.1455;395
2024-05-13T13:14:58.194;599616083727409324;10052.836;402
2024-05-13T13:14:58.202;599616083735100765;10060.527;432
2024-05-13T13:14:58.210;599616083742792206;10068.22;446
2024-05-13T13:14:58.217;599616083750483647;10075.911;439
2024-05-13T13:14:58.225;599616083758175088;10083.603;424
2024-05-13T13:14:58.233;599616083765866529;10091.294;437
2024-05-13T13:14:58.240;599616083773557970;10098.985;458
2024-05-13T13:14:58.248;599616083781229382;10106.657;463
2024-05-13T13:14:58.256;599616083788921102;10114.348;471
2024-05-13T13:14:58.264;599616083796612822;10122.04;485
2024-05-13T13:14:58.271;599616083804304542;10129.731;444
2024-05-13T13:14:58.279;599616083811996262;10137.424;358
2024-05-13T13:14:58.287;599616083819687982;10145.115;332
2024-05-13T13:14:58.294;599616083827379702;10152.808;375
2024-05-13T13:14:58.302;599616083835071422;10160.499;393
2024-05-13T13:14:58.310;599616083842763142;10168.19;375
2024-05-13T13:14:58.317;599616083850454862;10175.882;378
2024-05-13T13:14:58.325;599616083858146582;10183.573;397
2024-05-13T13:14:58.333;599616083865838302;10191.266;405
2024-05-13T13:14:58.340;599616083873530022;10198.957;412
2024-05-13T13:14:58.348;599616083881221742;10206.649;427
2024-05-13T13:14:58.356;599616083888913462;10214.341;380
2024-05-13T13:14:58.364;599616083896605182;10222.033;280
2024-05-13T13:14:58.371;599616083904296902;10229.725;244
2024-05-13T13:14:58.379;599616083911988622;10237.415;263
2024-05-13T13:14:58.387;599616083919680342;10245.107;207
2024-05-13T13:14:58.394;599616083927372062;10252.799;122
2024-05-13T13:14:58.402;599616083935063782;10260.491;129
2024-05-13T13:14:58.410;599616083942755502;10268.183;178
2024-05-13T13:14:58.417;599616083950447222;10275.875;190
2024-05-13T13:14:58.425;599616083958138942;10283.566;195
2024-05-13T13:14:58.433;599616083965830662;10291.259;212
2024-05-13T13:14:58.440;599616083973522382;10298.949;202
2024-05-13T13:14:58.448;599616083981214102;10306.641;158
2024-05-13T13:14:58.456;599616083988905822;10314.333;109
2024-05-13T13:14:58.464;599616083996597542;10322.024;70
2024-05-13T13:14:58.471;599616084004289262;10329.717;63
2024-05-13T13:14:58.479;599616084011980982;10337.408;83
2024-05-13T13:14:58.487;599616084019672702;10345.101;78
2024-05-13T13:14:58.494;599616084027364422;10352.792;48
2024-05-13T13:14:58.502;599616084035056142;10360.483;21
2024-05-13T13:14:58.510;599616084042747862;10368.175;56
2024-05-13T13:14:58.517;599616084050439582;10375.866;236
2024-05-13T13:14:58.525;599616084058131302;10383.559;527
2024-05-13T13:14:58.533;599616084065823022;10391.25;666
2024-05-13T13:14:58.540;599616084073514742;10398.942;407
2024-05-13T13:14:58.548;599616084081206462;10406.634;7
2024-05-13T13:14:58.556;599616084088898182;10414.326;-56
2024-05-13T13:14:58.564;599616084096589902;10422.017;95
2024-05-13T13:14:58.571;599616084104281622;10429.709;107
2024-05-13T13:14:58.579;599616084111973342;10437.4;65
2024-05-13T13:14:58.587;599616084119665062;10445.092;112
2024-05-13T13:14:58.594;599616084127356782;10452.784;131
2024-05-13T13:14:58.602;599616084135048502;10460.476;80
2024-05-13T13:14:58.610;599616084142740222;10468.168;56
2024-05-13T13:14:58.617;599616084150431942;10475.859;97
2024-05-13T13:14:58.625;599616084158123662;10483.551;141
2024-05-13T13:14:58.633;599616084165815382;10491.242;146
2024-05-13T13:14:58.640;599616084173507102;10498.935;131
2024-05-13T13:14:58.648;599616084181198822;10506.626;153
2024-05-13T13:14:58.656;599616084188890542;10514.317;195
2024-05-13T13:14:58.664;599616084196582262;10522.01;212
2024-05-13T13:14:58.671;599616084204273982;10529.701;224
2024-05-13T13:14:58.679;599616084211965702;10537.394;251
2024-05-13T13:14:58.687;599616084219657422;10545.084;268
2024-05-13T13:14:58.694;599616084227349142;10552.776;270
2024-05-13T13:14:58.702;599616084235040862;10560.468;288
2024-05-13T13:14:58.710;599616084242732582;10568.16;324
2024-05-13T13:14:58.717;599616084250424302;10575.852;351
2024-05-13T13:14:58.725;599616084258116022;10583.543;354
2024-05-13T13:14:58.733;599616084265807742;10591.235;344
2024-05-13T13:14:58.740;599616084273499462;10598.927;358
2024-05-13T13:14:58.748;599616084281191182;10606.618;388
2024-05-13T13:14:58.756;599616084288882902;10614.31;388
2024-05-13T13:14:58.764;599616084296574622;10622.002;375
2024-05-13T13:14:58.771;599616084304266342;10629.693;388
2024-05-13T13:14:58.779;599616084311958062;10637.386;385
2024-05-13T13:14:58.787;599616084319649782;10645.077;354
2024-05-13T13:14:58.794;599616084327341502;10652.769;354
2024-05-13T13:14:58.802;599616084335033222;10660.461;378
2024-05-13T13:14:58.810;599616084342750034;10668.178;380
2024-05-13T13:14:58.817;599616084350441406;10675.869;361
2024-05-13T13:14:58.825;599616084358132778;10683.56;344
2024-05-13T13:14:58.833;599616084365824150;10691.251;354
2024-05-13T13:14:58.840;599616084373515522;10698.942;371
2024-05-13T13:14:58.848;599616084381206894;10706.634;354
2024-05-13T13:14:58.856;599616084388898266;10714.325;329
2024-05-13T13:14:58.864;599616084396589638;10722.018;339
2024-05-13T13:14:58.871;599616084404281010;10729.709;312
2024-05-13T13:14:58.879;599616084411972382;10737.399;229
2024-05-13T13:14:58.887;599616084419663754;10745.091;161
2024-05-13T13:14:58.894;599616084427355126;10752.782;122
2024-05-13T13:14:58.902;599616084435046498;10760.474;124
2024-05-13T13:14:58.910;599616084442737870;10768.165;144
2024-05-13T13:14:58.917;599616084450429242;10775.856;151
2024-05-13T13:14:58.925;599616084458120614;10783.548;175
2024-05-13T13:14:58.933;599616084465811986;10791.239;207
2024-05-13T13:14:58.940;599616084473503358;10798.931;222
2024-05-13T13:14:58.948;599616084481194730;10806.622;244
2024-05-13T13:14:58.956;599616084488886102;10814.313;266
2024-05-13T13:14:58.964;599616084496577474;10822.005;258
2024-05-13T13:14:58.971;599616084504268846;10829.696;246
2024-05-13T13:14:58.979;599616084511960218;10837.388;273
2024-05-13T13:14:58.987;599616084519651590;10845.078;310
2024-05-13T13:14:58.994;599616084527342962;10852.77;314
2024-05-13T13:14:59.002;599616084535034334;10860.461;307
2024-05-13T13:14:59.010;599616084542725706;10868.153;317
2024-05-13T13:14:59.017;599616084550417078;10875.845;334
2024-05-13T13:14:59.025;599616084558108450;10883.536;344
2024-05-13T13:14:59.033;599616084565799822;10891.228;349
2024-05-13T13:14:59.040;599616084573491194;10898.918;368
2024-05-13T13:14:59.048;599616084581182566;10906.609;380
2024-05-13T13:14:59.056;599616084588873938;10914.301;361
2024-05-13T13:14:59.063;599616084596565310;10921.992;354
2024-05-13T13:14:59.071;599616084604256682;10929.684;383
2024-05-13T13:14:59.079;599616084611948054;10937.376;410
2024-05-13T13:14:59.087;599616084619639426;10945.067;415
2024-05-13T13:14:59.094;599616084627330798;10952.758;385
2024-05-13T13:14:59.102;599616084635022170;10960.449;341
2024-05-13T13:14:59.110;599616084642713542;10968.141;336
2024-05-13T13:14:59.117;599616084650404914;10975.832;356
2024-05-13T13:14:59.125;599616084658096286;10983.523;366
2024-05-13T13:14:59.133;599616084665787658;10991.215;383
2024-05-13T13:14:59.140;599616084673479030;10998.906;393
2024-05-13T13:14:59.148;599616084681170402;11006.597;375
2024-05-13T13:14:59.156;599616084688861774;11014.289;371
2024-05-13T13:14:59.163;599616084696553146;11021.98;395
2024-05-13T13:14:59.171;599616084704244518;11029.672;390
2024-05-13T13:14:59.179;599616084711935890;11037.363;346
2024-05-13T13:14:59.187;599616084719627262;11045.055;334
2024-05-13T13:14:59.194;599616084727318634;11052.746;349
2024-05-13T13:14:59.202;599616084735010006;11060.437;334
2024-05-13T13:14:59.210;599616084742701378;11068.128;322
2024-05-13T13:14:59.217;599616084750392750;11075.819;329
2024-05-13T13:14:59.225;599616084758084122;11083.512;332
2024-05-13T13:14:59.233;599616084765775494;11091.203;302
2024-05-13T13:14:59.240;599616084773466866;11098.895;263
2024-05-13T13:14:59.248;599616084781158238;11106.586;246
2024-05-13T13:14:59.256;599616084788849610;11114.277;227
2024-05-13T13:14:59.263;599616084796540982;11121.968;180
2024-05-13T13:14:59.271;599616084804232354;11129.659;112
2024-05-13T13:14:59.279;599616084811923726;11137.351;41
2024-05-13T13:14:59.287;599616084819615098;11145.042;61
2024-05-13T13:14:59.294;599616084827306470;11152.734;241
2024-05-13T13:14:59.302;599616084834997842;11160.426;485
2024-05-13T13:14:59.310;599616084842689214;11168.117;522
2024-05-13T13:14:59.317;599616084850380586;11175.808;209
2024-05-13T13:14:59.325;599616084858071958;11183.499;-141
2024-05-13T13:14:59.333;599616084865763330;11191.19;-185
2024-05-13T13:14:59.340;599616084873454702;11198.882;-114
2024-05-13T13:14:59.348;599616084881146074;11206.573;-166
2024-05-13T13:14:59.356;599616084888837446;11214.265;-200
2024-05-13T13:14:59.363;599616084896528818;11221.956;-161
2024-05-13T13:14:59.371;599616084904190102;11229.617;-146
2024-05-13T13:14:59.379;599616084911881892;11237.31;-148
2024-05-13T13:14:59.387;599616084919573682;11245.001;-151
2024-05-13T13:14:59.394;599616084927265472;11252.693;-192
2024-05-13T13:14:59.402;599616084934957262;11260.384;-214
2024-05-13T13:14:59.410;599616084942649052;11268.076;-170
2024-05-13T13:14:59.417;599616084950340842;11275.768;-156
2024-05-13T13:14:59.425;599616084958032632;11283.46;-170
2024-05-13T13:14:59.433;599616084965724422;11291.151;-136
2024-05-13T13:14:59.440;599616084973416212;11298.844;-124
2024-05-13T13:14:59.448;599616084981108002;11306.535;-183
2024-05-13T13:14:59.456;599616084988799792;11314.228;-195
2024-05-13T13:14:59.463;599616084996491582;11321.919;-129
2024-05-13T13:14:59.471;599616085004183372;11329.61;-112
2024-05-13T13:14:59.479;599616085011875162;11337.302;-124
2024-05-13T13:14:59.486;599616085019566952;11344.994;-73
2024-05-13T13:14:59.494;599616085027258742;11352.686;-19
2024-05-13T13:14:59.502;599616085034950532;11360.378;-17
2024-05-13T13:14:59.510;599616085042642322;11368.069;-21
2024-05-13T13:14:59.517;599616085050334112;11375.762;-7
2024-05-13T13:14:59.525;599616085058025902;11383.453;19
2024-05-13T13:14:59.533;599616085065717692;11391.145;34
2024-05-13T13:14:59.540;599616085073409482;11398.836;39
2024-05-13T13:14:59.548;599616085081101272;11406.528;61
2024-05-13T13:14:59.556;599616085088793062;11414.221;80
2024-05-13T13:14:59.563;599616085096484852;11421.912;61
2024-05-13T13:14:59.571;599616085104176642;11429.6045;39
2024-05-13T13:14:59.579;599616085111868432;11437.296;43
2024-05-13T13:14:59.586;599616085119560222;11444.988;29
2024-05-13T13:14:59.594;599616085127252012;11452.679;-14
2024-05-13T13:14:59.602;599616085134943802;11460.371;-19
2024-05-13T13:14:59.610;599616085142635592;11468.0625;-2
2024-05-13T13:14:59.617;599616085150327382;11475.755;7
2024-05-13T13:14:59.625;599616085158019172;11483.446;24
2024-05-13T13:14:59.633;599616085165710962;11491.139;53
2024-05-13T13:14:59.640;599616085173402752;11498.83;85
2024-05-13T13:14:59.648;599616085181094542;11506.522;100
2024-05-13T13:14:59.656;599616085188786332;11514.213;83
2024-05-13T13:14:59.663;599616085196478122;11521.905;78
2024-05-13T13:14:59.671;599616085204169912;11529.597;109
2024-05-13T13:14:59.679;599616085211861702;11537.289;126
2024-05-13T13:14:59.686;599616085219553492;11544.98;122
2024-05-13T13:14:59.694;599616085227245282;11552.673;124
2024-05-13T13:14:59.702;599616085234937072;11560.364;134
2024-05-13T13:14:59.710;599616085242628862;11568.057;141
2024-05-13T13:14:59.717;599616085250320652;11575.748;141
2024-05-13T13:14:59.725;599616085258012442;11583.439;158
2024-05-13T13:14:59.733;599616085265704232;11591.131;187
2024-05-13T13:14:59.740;599616085273396022;11598.823;192
2024-05-13T13:14:59.748;599616085281087812;11606.515;173
2024-05-13T13:14:59.756;599616085288779602;11614.207;178
2024-05-13T13:14:59.763;599616085296471392;11621.898;209
2024-05-13T13:14:59.771;599616085304163182;11629.591;212
2024-05-13T13:14:59.779;599616085311854972;11637.282;202
2024-05-13T13:14:59.786;599616085319546762;11644.974;214
2024-05-13T13:14:59.794;599616085327238552;11652.665;217
2024-05-13T13:14:59.802;599616085334930342;11660.357;207
2024-05-13T13:14:59.810;599616085342622132;11668.049;214
2024-05-13T13:14:59.817;599616085350313922;11675.741;234
2024-05-13T13:14:59.825;599616085358005712;11683.433;246
2024-05-13T13:14:59.833;599616085365697502;11691.125;212
2024-05-13T13:14:59.840;599616085373389292;11698.817;158
2024-05-13T13:14:59.848;599616085381081082;11706.508;168
2024-05-13T13:14:59.856;599616085388772872;11714.2;207
2024-05-13T13:14:59.863;599616085396464662;11721.892;207
2024-05-13T13:14:59.871;599616085404156452;11729.584;200
2024-05-13T13:14:59.879;599616085411848242;11737.275;217
2024-05-13T13:14:59.886;599616085419540032;11744.968;222
2024-05-13T13:14:59.894;599616085427231822;11752.659;187
2024-05-13T13:14:59.902;599616085434923612;11760.352;129
2024-05-13T13:14:59.910;599616085442615402;11768.043;107
2024-05-13T13:14:59.917;599616085450307192;11775.734;139
2024-05-13T13:14:59.925;599616085457998982;11783.426;144
2024-05-13T13:14:59.933;599616085465695824;11791.123;124
2024-05-13T13:14:59.940;599616085473387544;11798.814;139
2024-05-13T13:14:59.948;599616085481079264;11806.506;166
2024-05-13T13:14:59.956;599616085488770984;11814.198;178
2024-05-13T13:14:59.963;599616085496462704;11821.89;202
2024-05-13T13:14:59.971;599616085504154424;11829.582;219
2024-05-13T13:14:59.979;599616085511846144;11837.273;187
2024-05-13T13:14:59.986;599616085519537864;11844.966;117
2024-05-13T13:14:59.994;599616085527229584;11852.656;78
2024-05-13T13:15:00.002;599616085534921304;11860.349;107
2024-05-13T13:15:00.010;599616085542613024;11868.04;141
2024-05-13T13:15:00.017;599616085550304744;11875.732;107
2024-05-13T13:15:00.025;599616085557996464;11883.424;53
2024-05-13T13:15:00.033;599616085565688184;11891.115;53
2024-05-13T13:15:00.040;599616085573379904;11898.808;68
2024-05-13T13:15:00.048;599616085581071624;11906.499;36
2024-05-13T13:15:00.056;599616085588763344;11914.19;41
2024-05-13T13:15:00.063;599616085596455064;11921.882;190
2024-05-13T13:15:00.071;599616085604146784;11929.574;437
2024-05-13T13:15:00.079;599616085611838504;11937.266;588
2024-05-13T13:15:00.086;599616085619530224;11944.958;412
2024-05-13T13:15:00.094;599616085627221944;11952.649;31
2024-05-13T13:15:00.102;599616085634913664;11960.341;-158
2024-05-13T13:15:00.110;599616085642605384;11968.033;-114
2024-05-13T13:15:00.117;599616085650297104;11975.724;-114
2024-05-13T13:15:00.125;599616085657988824;11983.416;-185
2024-05-13T13:15:00.133;599616085665680544;11991.107;-185
2024-05-13T13:15:00.140;599616085673372264;11998.8;-156
2024-05-13T13:15:00.148;599616085681063984;12006.491;-148
2024-05-13T13:15:00.156;599616085688755704;12014.184;-134
2024-05-13T13:15:00.163;599616085696447424;12021.875;-136
2024-05-13T13:15:00.171;599616085704139144;12029.566;-146
2024-05-13T13:15:00.179;599616085711830864;12037.258;-119
2024-05-13T13:15:00.186;599616085719522584;12044.949;-83
2024-05-13T13:15:00.194;599616085727214304;12052.642;-80
2024-05-13T13:15:00.202;599616085734906024;12060.333;-85
2024-05-13T13:15:00.210;599616085742597744;12068.025;-75
2024-05-13T13:15:00.217;599616085750289464;12075.717;-58
2024-05-13T13:15:00.225;599616085757981184;12083.409;-43
2024-05-13T13:15:00.233;599616085765672904;12091.101;-29
2024-05-13T13:15:00.240;599616085773364624;12098.791;4
2024-05-13T13:15:00.248;599616085781056344;12106.483;31
2024-05-13T13:15:00.256;599616085788748064;12114.175;21
2024-05-13T13:15:00.263;599616085796439784;12121.867;21
2024-05-13T13:15:00.271;599616085804131504;12129.559;56
2024-05-13T13:15:00.279;599616085811823224;12137.251;83
2024-05-13T13:15:00.286;599616085819514944;12144.942;83
2024-05-13T13:15:00.294;599616085827206664;12152.635;78
2024-05-13T13:15:00.302;599616085834898384;12160.325;85
2024-05-13T13:15:00.310;599616085842590104;12168.017;87
2024-05-13T13:15:00.317;599616085850281824;12175.709;75
2024-05-13T13:15:00.325;599616085857973544;12183.4;43
2024-05-13T13:15:00.333;599616085865665264;12191.093;17
2024-05-13T13:15:00.340;599616085873356984;12198.784;12
2024-05-13T13:15:00.348;599616085881048704;12206.477;2
2024-05-13T13:15:00.356;599616085888740424;12214.168;0
2024-05-13T13:15:00.363;599616085896432144;12221.859;29
2024-05-13T13:15:00.371;599616085904123864;12229.551;48
2024-05-13T13:15:00.379;599616085911815584;12237.242;53
2024-05-13T13:15:00.386;599616085919507304;12244.935;68
2024-05-13T13:15:00.394;599616085927199024;12252.626;83
2024-05-13T13:15:00.402;599616085934890744;12260.318;70
2024-05-13T13:15:00.410;599616085942582464;12268.01;21
2024-05-13T13:15:00.417;599616085950274184;12275.702;-14
2024-05-13T13:15:00.425;599616085957965904;12283.393;34
2024-05-13T13:15:00.433;599616085965657624;12291.085;80
2024-05-13T13:15:00.440;599616085973349344;12298.776;46
2024-05-13T13:15:00.448;599616085981041064;12306.468;34
2024-05-13T13:15:00.456;599616085988732784;12314.16;70
2024-05-13T13:15:00.463;599616085996424504;12321.852;78
2024-05-13T13:15:00.471;599616086004116224;12329.544;83
2024-05-13T13:15:00.479;599616086011807944;12337.235;112
2024-05-13T13:15:00.486;599616086019499664;12344.927;124
2024-05-13T13:15:00.494;599616086027241602;12352.669;119
2024-05-13T13:15:00.502;599616086034932625;12360.36;126
2024-05-13T13:15:00.510;599616086042623648;12368.051;151
2024-05-13T13:15:00.517;599616086050314671;12375.741;151
2024-05-13T13:15:00.525;599616086058005694;12383.433;122
2024-05-13T13:15:00.533;599616086065696717;12391.124;102
2024-05-13T13:15:00.540;599616086073387740;12398.815;119
2024-05-13T13:15:00.548;599616086081078763;12406.507;144
2024-05-13T13:15:00.556;599616086088769786;12414.196;119
2024-05-13T13:15:00.563;599616086096460809;12421.888;46
2024-05-13T13:15:00.571;599616086104151832;12429.579;-17
2024-05-13T13:15:00.579;599616086111842855;12437.2705;-41
2024-05-13T13:15:00.586;599616086119533878;12444.961;-31
2024-05-13T13:15:00.594;599616086127224901;12452.652;-7
2024-05-13T13:15:00.602;599616086134915924;12460.344;21
2024-05-13T13:15:00.610;599616086142606947;12468.034;43
2024-05-13T13:15:00.617;599616086150297970;12475.725;48
2024-05-13T13:15:00.625;599616086157988993;12483.416;56
2024-05-13T13:15:00.633;599616086165680016;12491.107;78
2024-05-13T13:15:00.640;599616086173371039;12498.799;97
2024-05-13T13:15:00.648;599616086181062062;12506.489;102
2024-05-13T13:15:00.656;599616086188753085;12514.18;117
2024-05-13T13:15:00.663;599616086196444108;12521.871;141
2024-05-13T13:15:00.671;599616086204135131;12529.5625;136
2024-05-13T13:15:00.679;599616086211826154;12537.254;122
2024-05-13T13:15:00.686;599616086219517177;12544.944;141
2024-05-13T13:15:00.694;599616086227208200;12552.636;178
2024-05-13T13:15:00.702;599616086234899223;12560.326;200
2024-05-13T13:15:00.710;599616086242590246;12568.018;200
2024-05-13T13:15:00.717;599616086250281269;12575.708;192
2024-05-13T13:15:00.725;599616086257972292;12583.399;209
2024-05-13T13:15:00.733;599616086265663315;12591.091;227
2024-05-13T13:15:00.740;599616086273354338;12598.782;222
2024-05-13T13:15:00.748;599616086281045361;12606.473;258
2024-05-13T13:15:00.756;599616086288736384;12614.163;297
2024-05-13T13:15:00.763;599616086296427407;12621.8545;256
2024-05-13T13:15:00.771;599616086304118430;12629.546;241
2024-05-13T13:15:00.779;599616086311809453;12637.236;305
2024-05-13T13:15:00.786;599616086319500476;12644.928;322
2024-05-13T13:15:00.794;599616086327191499;12652.619;322
2024-05-13T13:15:00.802;599616086334882522;12660.31;368
2024-05-13T13:15:00.810;599616086342573545;12668.001;478
2024-05-13T13:15:00.817;599616086350264568;12675.691;654
2024-05-13T13:15:00.825;599616086357955591;12683.383;627
2024-05-13T13:15:00.833;599616086365646614;12691.074;253
2024-05-13T13:15:00.840;599616086373337637;12698.766;-26
2024-05-13T13:15:00.848;599616086381028660;12706.455;9
2024-05-13T13:15:00.856;599616086388719683;12714.146;36
2024-05-13T13:15:00.863;599616086396410706;12721.838;-17
2024-05-13T13:15:00.871;599616086404101729;12729.529;19
2024-05-13T13:15:00.879;599616086411792752;12737.22;65
2024-05-13T13:15:00.886;599616086419483775;12744.911;46
2024-05-13T13:15:00.894;599616086427174798;12752.603;41
2024-05-13T13:15:00.902;599616086434865821;12760.293;41
2024-05-13T13:15:00.909;599616086442556844;12767.983;-29
2024-05-13T13:15:00.917;599616086450247867;12775.675;-104
2024-05-13T13:15:00.925;599616086457938890;12783.366;-92
2024-05-13T13:15:00.933;599616086465629913;12791.058;-85
2024-05-13T13:15:00.940;599616086473320936;12798.749;-124
2024-05-13T13:15:00.948;599616086481011959;12806.438;-163
2024-05-13T13:15:00.956;599616086488702982;12814.13;-178
2024-05-13T13:15:00.963;599616086496394005;12821.821;-148
2024-05-13T13:15:00.971;599616086504085028;12829.513;-122
2024-05-13T13:15:00.979;599616086511776051;12837.203;-129
2024-05-13T13:15:00.986;599616086519467074;12844.895;-124
2024-05-13T13:15:00.994;599616086527158097;12852.586;-104
2024-05-13T13:15:01.002;599616086534849120;12860.276;-95
2024-05-13T13:15:01.009;599616086542540143;12867.967;-85
2024-05-13T13:15:01.017;599616086550231166;12875.658;-58
2024-05-13T13:15:01.025;599616086557922189;12883.35;-34
2024-05-13T13:15:01.033;599616086565613212;12891.041;-43
2024-05-13T13:15:01.040;599616086573304235;12898.731;-63
2024-05-13T13:15:01.048;599616086580995258;12906.422;-46
2024-05-13T13:15:01.056;599616086588631112;12914.059;-24
2024-05-13T13:15:01.063;599616086596322902;12921.751;-51
2024-05-13T13:15:01.071;599616086604014692;12929.441;-87
2024-05-13T13:15:01.079;599616086611706482;12937.134;-92
2024-05-13T13:15:01.086;599616086619398272;12944.825;-100
2024-05-13T13:15:01.094;599616086627090062;12952.518;-156
2024-05-13T13:15:01.102;599616086634781852;12960.209;-195
2024-05-13T13:15:01.109;599616086642473642;12967.901;-163
2024-05-13T13:15:01.117;599616086650165432;12975.593;-122
2024-05-13T13:15:01.125;599616086657857222;12983.285;-124
2024-05-13T13:15:01.132;599616086665549012;12990.976;-129
2024-05-13T13:15:01.140;599616086673240802;12998.668;-100
2024-05-13T13:15:01.148;599616086680932592;13006.359;-56
2024-05-13T13:15:01.156;599616086688624382;13014.052;-43
2024-05-13T13:15:01.163;599616086696316172;13021.743;-39
2024-05-13T13:15:01.171;599616086704007962;13029.436;-9
2024-05-13T13:15:01.179;599616086711699752;13037.127;2
2024-05-13T13:15:01.186;599616086719391542;13044.819;-4
2024-05-13T13:15:01.194;599616086727083332;13052.51;9
2024-05-13T13:15:01.202;599616086734775122;13060.202;41
2024-05-13T13:15:01.209;599616086742466912;13067.894;63
2024-05-13T13:15:01.217;599616086750158702;13075.586;61
2024-05-13T13:15:01.225;599616086757850492;13083.277;58
2024-05-13T13:15:01.232;599616086765542282;13090.97;80
2024-05-13T13:15:01.240;599616086773234072;13098.661;104
2024-05-13T13:15:01.248;599616086780925862;13106.354;112
2024-05-13T13:15:01.256;599616086788617652;13114.044;129
2024-05-13T13:15:01.263;599616086796309442;13121.736;148
2024-05-13T13:15:01.271;599616086804001232;13129.428;141
2024-05-13T13:15:01.279;599616086811693022;13137.12;134
2024-05-13T13:15:01.286;599616086819384812;13144.8125;161
2024-05-13T13:15:01.294;599616086827076602;13152.504;195
2024-05-13T13:15:01.302;599616086834768392;13160.196;207
2024-05-13T13:15:01.309;599616086842460182;13167.888;180
2024-05-13T13:15:01.317;599616086850151972;13175.58;141
2024-05-13T13:15:01.325;599616086857843762;13183.2705;148
2024-05-13T13:15:01.332;599616086865535552;13190.963;178
2024-05-13T13:15:01.340;599616086873227342;13198.654;175
2024-05-13T13:15:01.348;599616086880919132;13206.347;185
2024-05-13T13:15:01.356;599616086888610922;13214.038;219
2024-05-13T13:15:01.363;599616086896302712;13221.73;212
2024-05-13T13:15:01.371;599616086903994502;13229.422;187
2024-05-13T13:15:01.379;599616086911686292;13237.114;209
2024-05-13T13:15:01.386;599616086919378082;13244.805;249
2024-05-13T13:15:01.394;599616086927069872;13252.497;263
2024-05-13T13:15:01.402;599616086934761662;13260.188;253
2024-05-13T13:15:01.409;599616086942453452;13267.881;195
2024-05-13T13:15:01.417;599616086950145242;13275.572;112
2024-05-13T13:15:01.425;599616086957837032;13283.265;97
2024-05-13T13:15:01.432;599616086965528822;13290.956;136
2024-05-13T13:15:01.440;599616086973220612;13298.648;163
2024-05-13T13:15:01.448;599616086980912402;13306.339;178
2024-05-13T13:15:01.456;599616086988604192;13314.031;178
2024-05-13T13:15:01.463;599616086996295982;13321.723;178
2024-05-13T13:15:01.471;599616087003987772;13329.415;195
2024-05-13T13:15:01.479;599616087011679562;13337.106;195
2024-05-13T13:15:01.486;599616087019371352;13344.799;197
2024-05-13T13:15:01.494;599616087027063142;13352.49;297
2024-05-13T13:15:01.502;599616087034754932;13360.183;551
2024-05-13T13:15:01.509;599616087042446722;13367.874;798
2024-05-13T13:15:01.517;599616087050138512;13375.565;708
2024-05-13T13:15:01.525;599616087057830302;13383.257;310
2024-05-13T13:15:01.532;599616087065522092;13390.949;92
2024-05-13T13:15:01.540;599616087073213882;13398.641;190
2024-05-13T13:15:01.548;599616087080905672;13406.333;229
2024-05-13T13:15:01.556;599616087088597462;13414.024;131
2024-05-13T13:15:01.563;599616087096289252;13421.717;117
2024-05-13T13:15:01.571;599616087103981042;13429.409;173
2024-05-13T13:15:01.579;599616087111672832;13437.1;183
2024-05-13T13:15:01.586;599616087119364622;13444.792;185
2024-05-13T13:15:01.594;599616087127056412;13452.483;214
2024-05-13T13:15:01.602;599616087134748202;13460.176;229
2024-05-13T13:15:01.609;599616087142439992;13467.867;229
2024-05-13T13:15:01.617;599616087150161890;13475.589;249
2024-05-13T13:15:01.625;599616087157853262;13483.28;278
2024-05-13T13:15:01.632;599616087165544634;13490.972;261
2024-05-13T13:15:01.640;599616087173236006;13498.663;202
2024-05-13T13:15:01.648;599616087180927378;13506.3545;187
2024-05-13T13:15:01.656;599616087188618750;13514.047;219
2024-05-13T13:15:01.663;599616087196310122;13521.737;197
2024-05-13T13:15:01.671;599616087204001494;13529.429;129
2024-05-13T13:15:01.679;599616087211692866;13537.12;117
2024-05-13T13:15:01.686;599616087219384238;13544.812;151
2024-05-13T13:15:01.694;599616087227075610;13552.503;156
2024-05-13T13:15:01.702;599616087234766982;13560.194;156
2024-05-13T13:15:01.709;599616087242458354;13567.886;178
2024-05-13T13:15:01.717;599616087250149726;13575.576;166
2024-05-13T13:15:01.725;599616087257841098;13583.268;109
2024-05-13T13:15:01.732;599616087265532470;13590.96;58
2024-05-13T13:15:01.740;599616087273223842;13598.651;29
2024-05-13T13:15:01.748;599616087280915214;13606.343;24
2024-05-13T13:15:01.756;599616087288606586;13614.034;17
2024-05-13T13:15:01.763;599616087296297958;13621.726;0
2024-05-13T13:15:01.771;599616087303989330;13629.416;2
2024-05-13T13:15:01.779;599616087311680702;13637.107;-4
2024-05-13T13:15:01.786;599616087319372074;13644.799;-24
2024-05-13T13:15:01.794;599616087327063446;13652.49;-24
2024-05-13T13:15:01.802;599616087334754818;13660.183;-34
2024-05-13T13:15:01.809;599616087342446190;13667.874;-68
2024-05-13T13:15:01.817;599616087350137562;13675.565;-78
2024-05-13T13:15:01.825;599616087357828934;13683.256;-63
2024-05-13T13:15:01.832;599616087365520306;13690.947;-41
2024-05-13T13:15:01.840;599616087373211678;13698.639;-9
2024-05-13T13:15:01.848;599616087380903050;13706.33;9
2024-05-13T13:15:01.856;599616087388594422;13714.021;24
2024-05-13T13:15:01.863;599616087396285794;13721.713;46
2024-05-13T13:15:01.871;599616087403977166;13729.404;53
2024-05-13T13:15:01.879;599616087411668538;13737.097;46
2024-05-13T13:15:01.886;599616087419359910;13744.787;73
2024-05-13T13:15:01.894;599616087427051282;13752.479;114
2024-05-13T13:15:01.902;599616087434742654;13760.17;126
2024-05-13T13:15:01.909;599616087442434026;13767.861;102
2024-05-13T13:15:01.917;599616087450125398;13775.553;53
2024-05-13T13:15:01.925;599616087457816770;13783.244;14
2024-05-13T13:15:01.932;599616087465508142;13790.935;-4
2024-05-13T13:15:01.940;599616087473199514;13798.626;4
2024-05-13T13:15:01.948;599616087480890886;13806.318;43
2024-05-13T13:15:01.956;599616087488582258;13814.01;73
2024-05-13T13:15:01.963;599616087496273630;13821.701;68
2024-05-13T13:15:01.971;599616087503965002;13829.393;70
2024-05-13T13:15:01.979;599616087511656374;13837.084;107
2024-05-13T13:15:01.986;599616087519347746;13844.775;156
2024-05-13T13:15:01.994;599616087527039118;13852.466;173
2024-05-13T13:15:02.002;599616087534730490;13860.157;163
2024-05-13T13:15:02.009;599616087542421862;13867.849;190
2024-05-13T13:15:02.017;599616087550113234;13875.54;244
2024-05-13T13:15:02.025;599616087557804606;13883.232;253
2024-05-13T13:15:02.032;599616087565495978;13890.924;214
2024-05-13T13:15:02.040;599616087573187350;13898.615;219
2024-05-13T13:15:02.048;599616087580878722;13906.306;229
2024-05-13T13:15:02.055;599616087588570094;13913.997;146
2024-05-13T13:15:02.063;599616087596261466;13921.688;109
2024-05-13T13:15:02.071;599616087603952838;13929.38;158
2024-05-13T13:15:02.079;599616087611644210;13937.071;173
2024-05-13T13:15:02.086;599616087619335582;13944.763;180
2024-05-13T13:15:02.094;599616087627026954;13952.455;209
2024-05-13T13:15:02.102;599616087634718326;13960.1455;212
2024-05-13T13:15:02.109;599616087642409698;13967.837;214
2024-05-13T13:15:02.117;599616087650101070;13975.528;229
2024-05-13T13:15:02.125;599616087657792442;13983.22;241
2024-05-13T13:15:02.132;599616087665483814;13990.911;268
2024-05-13T13:15:02.140;599616087673175186;13998.603;285
2024-05-13T13:15:02.148;599616087680866558;14006.294;256
2024-05-13T13:15:02.155;599616087688557930;14013.984;229
2024-05-13T13:15:02.163;599616087696249302;14021.676;266
2024-05-13T13:15:02.171;599616087703940674;14029.368;402
2024-05-13T13:15:02.179;599616087711601958;14037.029;661
2024-05-13T13:15:02.186;599616087719293748;14044.721;893
2024-05-13T13:15:02.194;599616087726985538;14052.412;776
2024-05-13T13:15:02.202;599616087734677328;14060.1045;351
2024-05-13T13:15:02.209;599616087742369118;14067.796;136
2024-05-13T13:15:02.217;599616087750060908;14075.488;251
2024-05-13T13:15:02.225;599616087757752698;14083.18;317
2024-05-13T13:15:02.232;599616087765444488;14090.872;256
2024-05-13T13:15:02.240;599616087773136278;14098.563;244
2024-05-13T13:15:02.248;599616087780828068;14106.255;280
2024-05-13T13:15:02.255;599616087788519858;14113.946;300
2024-05-13T13:15:02.263;599616087796211648;14121.639;275
2024-05-13T13:15:02.271;599616087803903438;14129.33;224
2024-05-13T13:15:02.279;599616087811595228;14137.022;219
2024-05-13T13:15:02.286;599616087819287018;14144.715;241
2024-05-13T13:15:02.294;599616087826978808;14152.406;219
2024-05-13T13:15:02.302;599616087834670598;14160.099;195
2024-05-13T13:15:02.309;599616087842362388;14167.79;219
2024-05-13T13:15:02.317;599616087850054178;14175.481;256
2024-05-13T13:15:02.325;599616087857745968;14183.173;256
2024-05-13T13:15:02.332;599616087865437758;14190.865;253
2024-05-13T13:15:02.340;599616087873129548;14198.557;297
2024-05-13T13:15:02.348;599616087880821338;14206.249;349
2024-05-13T13:15:02.355;599616087888513128;14213.94;349
2024-05-13T13:15:02.363;599616087896204918;14221.633;375
2024-05-13T13:15:02.371;599616087903896708;14229.324;449
2024-05-13T13:15:02.379;599616087911588498;14237.016;451
2024-05-13T13:15:02.386;599616087919280288;14244.707;410
2024-05-13T13:15:02.394;599616087926972078;14252.399;451
2024-05-13T13:15:02.402;599616087934663868;14260.091;500
2024-05-13T13:15:02.409;599616087942355658;14267.783;446
2024-05-13T13:15:02.417;599616087950047448;14275.475;310
2024-05-13T13:15:02.425;599616087957739238;14283.167;200
2024-05-13T13:15:02.432;599616087965431028;14290.858;195
2024-05-13T13:15:02.440;599616087973122818;14298.55;168
2024-05-13T13:15:02.448;599616087980814608;14306.241;73
2024-05-13T13:15:02.455;599616087988506398;14313.934;61
2024-05-13T13:15:02.463;599616087996198188;14321.625;122
2024-05-13T13:15:02.471;599616088003889978;14329.317;114
2024-05-13T13:15:02.479;599616088011581768;14337.009;85
2024-05-13T13:15:02.486;599616088019273558;14344.701;104
2024-05-13T13:15:02.494;599616088026965348;14352.393;104
2024-05-13T13:15:02.502;599616088034657138;14360.085;51
2024-05-13T13:15:02.509;599616088042348928;14367.775;7
2024-05-13T13:15:02.517;599616088050040718;14375.468;-31
2024-05-13T13:15:02.525;599616088057732508;14383.159;-63
2024-05-13T13:15:02.532;599616088065424298;14390.852;-53
2024-05-13T13:15:02.540;599616088073116088;14398.543;-51
2024-05-13T13:15:02.548;599616088080807878;14406.235;-85
2024-05-13T13:15:02.555;599616088088499668;14413.927;-95
2024-05-13T13:15:02.563;599616088096191458;14421.619;-95
2024-05-13T13:15:02.571;599616088103883248;14429.311;-107
2024-05-13T13:15:02.579;599616088111575038;14437.002;-87
2024-05-13T13:15:02.586;599616088119266828;14444.694;-51
2024-05-13T13:15:02.594;599616088126958618;14452.386;-43
2024-05-13T13:15:02.602;599616088134650408;14460.078;-48
2024-05-13T13:15:02.609;599616088142342198;14467.77;-41
2024-05-13T13:15:02.617;599616088150033988;14475.462;-24
2024-05-13T13:15:02.625;599616088157725778;14483.153;-9
2024-05-13T13:15:02.632;599616088165417568;14490.845;2
2024-05-13T13:15:02.640;599616088173109358;14498.536;21
2024-05-13T13:15:02.648;599616088180801148;14506.229;41
2024-05-13T13:15:02.655;599616088188492938;14513.92;31
2024-05-13T13:15:02.663;599616088196184728;14521.612;29
2024-05-13T13:15:02.671;599616088203876518;14529.304;63
2024-05-13T13:15:02.678;599616088211568308;14536.996;95
2024-05-13T13:15:02.686;599616088219260098;14544.6875;95
2024-05-13T13:15:02.694;599616088226951888;14552.379;90
2024-05-13T13:15:02.702;599616088234643678;14560.07;97
2024-05-13T13:15:02.709;599616088242335468;14567.763;107
2024-05-13T13:15:02.717;599616088250027258;14575.454;112
2024-05-13T13:15:02.725;599616088257719048;14583.146;122
2024-05-13T13:15:02.732;599616088265410838;14590.838;151
2024-05-13T13:15:02.740;599616088273132736;14598.56;168
2024-05-13T13:15:02.748;599616088280824108;14606.251;148
2024-05-13T13:15:02.755;599616088288515480;14613.942;156
2024-05-13T13:15:02.763;599616088296206852;14621.635;197
2024-05-13T13:15:02.771;599616088303898224;14629.326;202
2024-05-13T13:15:02.779;599616088311589596;14637.017;183
2024-05-13T13:15:02.786;599616088319280968;14644.708;158
2024-05-13T13:15:02.794;599616088326972340;14652.399;104
2024-05-13T13:15:02.802;599616088334663712;14660.091;53
2024-05-13T13:15:02.809;599616088342355084;14667.782;12
2024-05-13T13:15:02.817;599616088350046456;14675.474;-4
2024-05-13T13:15:02.825;599616088357737828;14683.165;19
2024-05-13T13:15:02.832;599616088365429200;14690.855;29
2024-05-13T13:15:02.840;599616088373120572;14698.548;63
2024-05-13T13:15:02.848;599616088380811944;14706.239;290
2024-05-13T13:15:02.855;599616088388503316;14713.931;622
2024-05-13T13:15:02.863;599616088396194688;14721.622;676
2024-05-13T13:15:02.871;599616088403886060;14729.313;327
2024-05-13T13:15:02.879;599616088411577432;14737.005;7
2024-05-13T13:15:02.886;599616088419268804;14744.696;29
2024-05-13T13:15:02.894;599616088426960176;14752.387;119
2024-05-13T13:15:02.902;599616088434651548;14760.078;87
2024-05-13T13:15:02.909;599616088442342920;14767.7705;85
2024-05-13T13:15:02.917;599616088450034292;14775.462;87
2024-05-13T13:15:02.925;599616088457725664;14783.153;0
2024-05-13T13:15:02.932;599616088465417036;14790.845;-34
2024-05-13T13:15:02.940;599616088473108408;14798.536;29
2024-05-13T13:15:02.948;599616088480799780;14806.227;73
2024-05-13T13:15:02.955;599616088488491152;14813.918;73
2024-05-13T13:15:02.963;599616088496182524;14821.609;87
2024-05-13T13:15:02.971;599616088503873896;14829.301;114
2024-05-13T13:15:02.978;599616088511565268;14836.992;126
2024-05-13T13:15:02.986;599616088519256640;14844.685;126
2024-05-13T13:15:02.994;599616088526948012;14852.376;146
2024-05-13T13:15:03.002;599616088534639384;14860.066;187
2024-05-13T13:15:03.009;599616088542330756;14867.758;214
2024-05-13T13:15:03.017;599616088550022128;14875.449;214
2024-05-13T13:15:03.025;599616088557713500;14883.141;207
2024-05-13T13:15:03.032;599616088565404872;14890.832;205
2024-05-13T13:15:03.040;599616088573096244;14898.523;187
2024-05-13T13:15:03.048;599616088580787616;14906.215;175
2024-05-13T13:15:03.055;599616088588478988;14913.906;195
2024-05-13T13:15:03.063;599616088596170360;14921.598;217
2024-05-13T13:15:03.071;599616088603861732;14929.289;209
2024-05-13T13:15:03.078;599616088611553104;14936.98;195
2024-05-13T13:15:03.086;599616088619244476;14944.672;209
2024-05-13T13:15:03.094;599616088626935848;14952.363;239
2024-05-13T13:15:03.102;599616088634627220;14960.055;241
2024-05-13T13:15:03.109;599616088642318592;14967.745;224
2024-05-13T13:15:03.117;599616088650009964;14975.437;209
2024-05-13T13:15:03.125;599616088657701336;14983.128;214
2024-05-13T13:15:03.132;599616088665392708;14990.82;217
2024-05-13T13:15:03.140;599616088673084080;14998.512;209
2024-05-13T13:15:03.148;599616088680775452;15006.203;222
2024-05-13T13:15:03.155;599616088688466824;15013.895;239
2024-05-13T13:15:03.163;599616088696158196;15021.585;222
2024-05-13T13:15:03.171;599616088703849568;15029.276;202
2024-05-13T13:15:03.178;599616088711540940;15036.968;227
2024-05-13T13:15:03.186;599616088719232312;15044.659;239
2024-05-13T13:15:03.194;599616088726923684;15052.351;190
2024-05-13T13:15:03.202;599616088734615056;15060.043;141
2024-05-13T13:15:03.209;599616088742306428;15067.734;139
2024-05-13T13:15:03.217;599616088749997800;15075.425;153
2024-05-13T13:15:03.225;599616088757689172;15083.116;151
2024-05-13T13:15:03.232;599616088765380544;15090.808;146
2024-05-13T13:15:03.240;599616088773071916;15098.499;163
2024-05-13T13:15:03.248;599616088780763288;15106.19;173
2024-05-13T13:15:03.255;599616088788454660;15113.882;153
2024-05-13T13:15:03.263;599616088796146032;15121.573;129
2024-05-13T13:15:03.271;599616088803837404;15129.264;114
2024-05-13T13:15:03.278;599616088811528776;15136.956;61
2024-05-13T13:15:03.286;599616088819220148;15144.647;-31
2024-05-13T13:15:03.294;599616088826911520;15152.339;-97
2024-05-13T13:15:03.302;599616088834577844;15160.005;-104
2024-05-13T13:15:03.309;599616088842269564;15167.697;-95
2024-05-13T13:15:03.317;599616088849961284;15175.388;-95
2024-05-13T13:15:03.325;599616088857653004;15183.08;-87
2024-05-13T13:15:03.332;599616088865344724;15190.771;-61
2024-05-13T13:15:03.340;599616088873036444;15198.464;-73
2024-05-13T13:15:03.348;599616088880728164;15206.155;-156
2024-05-13T13:15:03.355;599616088888419884;15213.848;-192
2024-05-13T13:15:03.363;599616088896111604;15221.539;-139
2024-05-13T13:15:03.371;599616088903803324;15229.23;-109
2024-05-13T13:15:03.378;599616088911495044;15236.923;-126
2024-05-13T13:15:03.386;599616088919186764;15244.613;-119
2024-05-13T13:15:03.394;599616088926878484;15252.306;-104
2024-05-13T13:15:03.401;599616088934570204;15259.997;-102
2024-05-13T13:15:03.409;599616088942261924;15267.689;-95
2024-05-13T13:15:03.417;599616088949953644;15275.381;-124
2024-05-13T13:15:03.425;599616088957645364;15283.073;-195
2024-05-13T13:15:03.432;599616088965337084;15290.765;-207
2024-05-13T13:15:03.440;599616088973028804;15298.455;-178
2024-05-13T13:15:03.448;599616088980720524;15306.147;-168
2024-05-13T13:15:03.455;599616088988412244;15313.839;-141
2024-05-13T13:15:03.463;599616088996103964;15321.531;-107
2024-05-13T13:15:03.471;599616089003795684;15329.223;-97
2024-05-13T13:15:03.478;599616089011487404;15336.915;-83
2024-05-13T13:15:03.486;599616089019179124;15344.606;-65
2024-05-13T13:15:03.494;599616089026870844;15352.299;-83
2024-05-13T13:15:03.501;599616089034562564;15359.99;-107
2024-05-13T13:15:03.509;599616089042254284;15367.681;-41
2024-05-13T13:15:03.517;599616089049946004;15375.373;168
2024-05-13T13:15:03.525;599616089057637724;15383.064;444
2024-05-13T13:15:03.532;599616089065329444;15390.757;524
2024-05-13T13:15:03.540;599616089073021164;15398.448;244
2024-05-13T13:15:03.548;599616089080712884;15406.141;-109
2024-05-13T13:15:03.555;599616089088404604;15413.832;-168
2024-05-13T13:15:03.563;599616089096096324;15421.524;-58
2024-05-13T13:15:03.571;599616089103788044;15429.215;-46
2024-05-13T13:15:03.578;599616089111479764;15436.906;-70
2024-05-13T13:15:03.586;599616089119171484;15444.599;-41
2024-05-13T13:15:03.594;599616089126863204;15452.29;-12
2024-05-13T13:15:03.601;599616089134554924;15459.982;17
2024-05-13T13:15:03.609;599616089142246644;15467.674;53
2024-05-13T13:15:03.617;599616089149938364;15475.366;61
2024-05-13T13:15:03.625;599616089157630084;15483.058;56
2024-05-13T13:15:03.632;599616089165321804;15490.749;78
2024-05-13T13:15:03.640;599616089173013524;15498.44;102
2024-05-13T13:15:03.648;599616089180705244;15506.132;104
2024-05-13T13:15:03.655;599616089188396964;15513.824;117
2024-05-13T13:15:03.663;599616089196088684;15521.516;146
2024-05-13T13:15:03.671;599616089203780404;15529.208;146
2024-05-13T13:15:03.678;599616089211472124;15536.899;136
2024-05-13T13:15:03.686;599616089219163844;15544.592;163
2024-05-13T13:15:03.694;599616089226855564;15552.282;202
2024-05-13T13:15:03.701;599616089234547284;15559.975;224
2024-05-13T13:15:03.709;599616089242239004;15567.666;227
2024-05-13T13:15:03.717;599616089249930724;15575.357;224
2024-05-13T13:15:03.725;599616089257622444;15583.05;244
2024-05-13T13:15:03.732;599616089265314164;15590.741;261
2024-05-13T13:15:03.740;599616089273005884;15598.434;249
2024-05-13T13:15:03.748;599616089280697604;15606.125;251
2024-05-13T13:15:03.755;599616089288389324;15613.816;273
2024-05-13T13:15:03.763;599616089296081044;15621.508;268
2024-05-13T13:15:03.771;599616089303772764;15629.2;239
2024-05-13T13:15:03.778;599616089311464484;15636.892;207
2024-05-13T13:15:03.786;599616089319156204;15644.584;192
2024-05-13T13:15:03.794;599616089326847924;15652.275;200
2024-05-13T13:15:03.801;599616089334539644;15659.967;192
2024-05-13T13:15:03.809;599616089342231364;15667.659;175
2024-05-13T13:15:03.817;599616089349923084;15675.35;183
2024-05-13T13:15:03.825;599616089357614804;15683.042;192
2024-05-13T13:15:03.832;599616089365306524;15690.733;190
2024-05-13T13:15:03.840;599616089372998244;15698.426;205
2024-05-13T13:15:03.848;599616089380689964;15706.117;222
2024-05-13T13:15:03.855;599616089388381684;15713.81;207
2024-05-13T13:15:03.863;599616089396093526;15721.521;202
2024-05-13T13:15:03.871;599616089403784967;15729.213;234
2024-05-13T13:15:03.878;599616089411476408;15736.903;256
2024-05-13T13:15:03.886;599616089419167849;15744.595;251
2024-05-13T13:15:03.894;599616089426859290;15752.286;239
2024-05-13T13:15:03.901;599616089434550731;15759.978;239
2024-05-13T13:15:03.909;599616089442242172;15767.67;227
2024-05-13T13:15:03.917;599616089449933613;15775.361;156
2024-05-13T13:15:03.925;599616089457625054;15783.053;48
2024-05-13T13:15:03.932;599616089465316495;15790.743;-9
2024-05-13T13:15:03.940;599616089473007936;15798.435;-7
2024-05-13T13:15:03.948;599616089480699377;15806.127;-2
2024-05-13T13:15:03.955;599616089488390818;15813.818;-7
2024-05-13T13:15:03.963;599616089496082259;15821.51;-7
2024-05-13T13:15:03.971;599616089503773700;15829.201;-17
2024-05-13T13:15:03.978;599616089511465141;15836.893;-19
2024-05-13T13:15:03.986;599616089519156582;15844.583;-7
2024-05-13T13:15:03.994;599616089526848023;15852.275;-2
2024-05-13T13:15:04.001;599616089534539464;15859.967;0
2024-05-13T13:15:04.009;599616089542230905;15867.658;2
2024-05-13T13:15:04.017;599616089549922346;15875.35;-7
2024-05-13T13:15:04.025;599616089557613787;15883.041;-31
2024-05-13T13:15:04.032;599616089565305228;15890.732;-51
