Phone timestamp;sensor timestamp [ns];timestamp [ms];ecg [uV]
2024-05-13T13:28:29.225;599616477318976296;0.0;67
2024-05-13T13:28:29.232;599616477326666832;7.690536;53
2024-05-13T13:28:29.240;599616477334357368;15.381072;67
2024-05-13T13:28:29.248;599616477342047904;23.071608;86
2024-05-13T13:28:29.255;599616477349738440;30.762144;84
2024-05-13T13:28:29.263;599616477357428976;38.45268;79
2024-05-13T13:28:29.271;599616477365119512;46.143215;108
2024-05-13T13:28:29.278;599616477372810048;53.83375;137
2024-05-13T13:28:29.286;599616477380500584;61.52429;135
2024-05-13T13:28:29.294;599616477388191120;69.21482;127
2024-05-13T13:28:29.301;599616477395881656;76.90536;137
2024-05-13T13:28:29.309;599616477403572192;84.595894;159
2024-05-13T13:28:29.317;599616477411262728;92.28643;168
2024-05-13T13:28:29.324;599616477418953264;99.97697;173
2024-05-13T13:28:29.332;599616477426643800;107.6675;154
2024-05-13T13:28:29.340;599616477434334336;115.35804;79
2024-05-13T13:28:29.348;599616477442024872;123.04858;14
2024-05-13T13:28:29.355;599616477449715408;130.7391;9
2024-05-13T13:28:29.363;599616477457405944;138.42964;38
2024-05-13T13:28:29.371;599616477465096480;146.1202;74
2024-05-13T13:28:29.378;599616477472787016;153.81071;94
2024-05-13T13:28:29.386;599616477480477552;161.50125;86
2024-05-13T13:28:29.394;599616477488168088;169.19179;96
2024-05-13T13:28:29.401;599616477495858624;176.88234;130
2024-05-13T13:28:29.409;599616477503549160;184.57286;149
2024-05-13T13:28:29.417;599616477511239696;192.2634;152
2024-05-13T13:28:29.424;599616477518930232;199.95393;171
2024-05-13T13:28:29.432;599616477526620768;207.64449;178
2024-05-13T13:28:29.440;599616477534311304;215.335;176
2024-05-13T13:28:29.448;599616477542001840;223.02554;200
2024-05-13T13:28:29.455;599616477549692376;230.71608;231
2024-05-13T13:28:29.463;599616477557382912;238.40663;246
2024-05-13T13:28:29.471;599616477565073448;246.09715;236
2024-05-13T13:28:29.478;599616477572763984;253.78767;221
2024-05-13T13:28:29.486;599616477580454520;261.4782;246
2024-05-13T13:28:29.494;599616477588145056;269.16876;291
2024-05-13T13:28:29.501;599616477595835592;276.85928;306
2024-05-13T13:28:29.509;599616477603526128;284.54984;311
2024-05-13T13:28:29.517;599616477611216664;292.2404;328
2024-05-13T13:28:29.524;599616477618907200;299.9309;311
2024-05-13T13:28:29.532;599616477626597736;307.62143;279
2024-05-13T13:28:29.540;599616477634288272;315.31198;296
2024-05-13T13:28:29.548;599616477641978808;323.0025;328
2024-05-13T13:28:29.555;599616477649669344;330.69305;328
2024-05-13T13:28:29.563;599616477657359880;338.38358;323
2024-05-13T13:28:29.571;599616477665050416;346.07413;311
2024-05-13T13:28:29.578;599616477672740952;353.76468;287
2024-05-13T13:28:29.586;599616477680431488;361.4552;289
2024-05-13T13:28:29.594;599616477688122024;369.14572;359
2024-05-13T13:28:29.601;599616477695812560;376.83624;588
2024-05-13T13:28:29.609;599616477703503096;384.5268;941
2024-05-13T13:28:29.617;599616477711193632;392.21735;1032
2024-05-13T13:28:29.624;599616477718884168;399.90787;634
2024-05-13T13:28:29.632;599616477726574704;407.5984;212
2024-05-13T13:28:29.640;599616477734265240;415.28897;197
2024-05-13T13:28:29.647;599616477741955776;422.9795;299
2024-05-13T13:28:29.655;599616477749646312;430.67;234
2024-05-13T13:28:29.663;599616477757336848;438.36053;190
2024-05-13T13:28:29.671;599616477765027384;446.0511;234
2024-05-13T13:28:29.678;599616477772717920;453.74164;236
2024-05-13T13:28:29.686;599616477780408456;461.43216;226
2024-05-13T13:28:29.694;599616477788098992;469.12268;263
2024-05-13T13:28:29.701;599616477795789528;476.81326;277
2024-05-13T13:28:29.709;599616477803480064;484.50378;246
2024-05-13T13:28:29.717;599616477811170600;492.1943;243
2024-05-13T13:28:29.724;599616477818861136;499.88483;275
2024-05-13T13:28:29.732;599616477826551672;507.57535;291
2024-05-13T13:28:29.740;599616477834242208;515.2659;291
2024-05-13T13:28:29.747;599616477841932744;522.9564;301
2024-05-13T13:28:29.755;599616477849623280;530.647;306
2024-05-13T13:28:29.763;599616477857313816;538.3375;306
2024-05-13T13:28:29.771;599616477865004352;546.028;306
2024-05-13T13:28:29.778;599616477872694888;553.71857;325
2024-05-13T13:28:29.786;599616477880385424;561.4092;361
2024-05-13T13:28:29.794;599616477888075960;569.0997;374
2024-05-13T13:28:29.801;599616477895766496;576.7902;349
2024-05-13T13:28:29.809;599616477903457032;584.4808;347
2024-05-13T13:28:29.817;599616477911147568;592.17126;388
2024-05-13T13:28:29.824;599616477918838104;599.8618;412
2024-05-13T13:28:29.832;599616477926528640;607.5523;364
2024-05-13T13:28:29.840;599616477934219176;615.24286;229
2024-05-13T13:28:29.847;599616477941909712;622.9334;96
2024-05-13T13:28:29.855;599616477949600248;630.62396;38
2024-05-13T13:28:29.863;599616477957290784;638.3145;-7
2024-05-13T13:28:29.871;599616477964981320;646.005;-38
2024-05-13T13:28:29.878;599616477972671856;653.69556;-24
2024-05-13T13:28:29.886;599616477980362392;661.3861;-36
2024-05-13T13:28:29.894;599616477988052928;669.0766;-89
2024-05-13T13:28:29.901;599616477995743464;676.76715;-96
2024-05-13T13:28:29.909;599616478003434000;684.4577;-60
2024-05-13T13:28:29.917;599616478011124536;692.14825;-69
2024-05-13T13:28:29.924;599616478018815072;699.8388;-110
2024-05-13T13:28:29.932;599616478026505608;707.52936;-123
2024-05-13T13:28:29.940;599616478034196144;715.21985;-144
2024-05-13T13:28:29.947;599616478041886680;722.9104;-207
2024-05-13T13:28:29.955;599616478049577216;730.6009;-226
2024-05-13T13:28:29.963;599616478057267752;738.29144;-195
2024-05-13T13:28:29.970;599616478064958288;745.982;-180
2024-05-13T13:28:29.978;599616478072648824;753.6725;-188
2024-05-13T13:28:29.986;599616478080339360;761.3631;-193
2024-05-13T13:28:29.994;599616478088029896;769.0536;-178
2024-05-13T13:28:30.001;599616478095720432;776.74414;-159
2024-05-13T13:28:30.009;599616478103410968;784.4347;-159
2024-05-13T13:28:30.017;599616478111101504;792.1252;-154
2024-05-13T13:28:30.024;599616478118792040;799.81573;-125
2024-05-13T13:28:30.032;599616478126482576;807.5063;-118
2024-05-13T13:28:30.040;599616478134173112;815.1968;-123
2024-05-13T13:28:30.047;599616478141863648;822.8874;-103
2024-05-13T13:28:30.055;599616478149554184;830.57794;-72
2024-05-13T13:28:30.063;599616478157244720;838.26843;-55
2024-05-13T13:28:30.070;599616478164935256;845.959;-55
2024-05-13T13:28:30.078;599616478172625792;853.6495;-60
2024-05-13T13:28:30.086;599616478180316328;861.34;-74
2024-05-13T13:28:30.094;599616478188006864;869.0306;-98
2024-05-13T13:28:30.101;599616478195697400;876.72107;-101
2024-05-13T13:28:30.109;599616478203387936;884.4116;-74
2024-05-13T13:28:30.117;599616478211078472;892.1022;-48
2024-05-13T13:28:30.124;599616478218769008;899.7927;-53
2024-05-13T13:28:30.132;599616478226459544;907.4833;-57
2024-05-13T13:28:30.140;599616478234150080;915.17377;-24
2024-05-13T13:28:30.147;599616478241840616;922.8643;19
2024-05-13T13:28:30.155;599616478249531152;930.5549;31
2024-05-13T13:28:30.163;599616478257221688;938.24536;26
2024-05-13T13:28:30.170;599616478264912224;945.9359;31
2024-05-13T13:28:30.178;599616478272602760;953.6265;60
2024-05-13T13:28:30.186;599616478280293296;961.317;84
2024-05-13T13:28:30.194;599616478287983832;969.00757;89
2024-05-13T13:28:30.201;599616478295674368;976.69806;101
2024-05-13T13:28:30.209;599616478303364904;984.3886;120
2024-05-13T13:28:30.217;599616478311055440;992.07916;118
2024-05-13T13:28:30.224;599616478318745976;999.76965;113
2024-05-13T13:28:30.232;599616478326436512;1007.4602;130
2024-05-13T13:28:30.240;599616478334127048;1015.1507;159
2024-05-13T13:28:30.247;599616478341817584;1022.8413;166
2024-05-13T13:28:30.255;599616478349508120;1030.5319;154
2024-05-13T13:28:30.263;599616478357198656;1038.2223;152
2024-05-13T13:28:30.270;599616478364889192;1045.9128;168
2024-05-13T13:28:30.278;599616478372579728;1053.6035;183
2024-05-13T13:28:30.286;599616478380270264;1061.294;209
2024-05-13T13:28:30.293;599616478387960800;1068.9845;243
2024-05-13T13:28:30.301;599616478395651336;1076.675;246
2024-05-13T13:28:30.309;599616478403341872;1084.3656;224
2024-05-13T13:28:30.317;599616478411032408;1092.056;214
2024-05-13T13:28:30.324;599616478418722944;1099.7467;224
2024-05-13T13:28:30.332;599616478426413480;1107.4371;212
2024-05-13T13:28:30.340;599616478434104016;1115.1277;159
2024-05-13T13:28:30.347;599616478441794552;1122.8184;74
2024-05-13T13:28:30.355;599616478449485088;1130.5088;16
2024-05-13T13:28:30.363;599616478457175624;1138.1993;28
2024-05-13T13:28:30.370;599616478464866160;1145.8899;45
2024-05-13T13:28:30.378;599616478472556696;1153.5804;26
2024-05-13T13:28:30.386;599616478480247232;1161.2709;67
2024-05-13T13:28:30.393;599616478487937768;1168.9615;258
2024-05-13T13:28:30.401;599616478495628304;1176.652;583
2024-05-13T13:28:30.409;599616478503318840;1184.3425;851
2024-05-13T13:28:30.417;599616478511009376;1192.0331;721
2024-05-13T13:28:30.424;599616478518699912;1199.7236;224
2024-05-13T13:28:30.432;599616478526390448;1207.4142;-86
2024-05-13T13:28:30.440;599616478534080984;1215.1046;-12
2024-05-13T13:28:30.447;599616478541771520;1222.7953;43
2024-05-13T13:28:30.455;599616478549462056;1230.4857;-33
2024-05-13T13:28:30.463;599616478557152592;1238.1763;-28
2024-05-13T13:28:30.470;599616478564843128;1245.8668;36
2024-05-13T13:28:30.478;599616478572533664;1253.5574;55
2024-05-13T13:28:30.486;599616478580224200;1261.2479;57
2024-05-13T13:28:30.493;599616478587914736;1268.9385;53
2024-05-13T13:28:30.501;599616478595605272;1276.629;60
2024-05-13T13:28:30.509;599616478603295808;1284.3195;101
2024-05-13T13:28:30.517;599616478610986344;1292.01;130
2024-05-13T13:28:30.524;599616478618676880;1299.7006;127
2024-05-13T13:28:30.532;599616478626367416;1307.3911;137
2024-05-13T13:28:30.540;599616478634057952;1315.0815;156
2024-05-13T13:28:30.547;599616478641748488;1322.7722;159
2024-05-13T13:28:30.555;599616478649439024;1330.4628;168
2024-05-13T13:28:30.563;599616478657129560;1338.1532;205
2024-05-13T13:28:30.570;599616478664820096;1345.8439;234
2024-05-13T13:28:30.578;599616478672510632;1353.5343;217
2024-05-13T13:28:30.586;599616478680201168;1361.2249;180
2024-05-13T13:28:30.593;599616478687891704;1368.9154;193
2024-05-13T13:28:30.601;599616478695582240;1376.606;238
2024-05-13T13:28:30.609;599616478703272776;1384.2965;253
2024-05-13T13:28:30.616;599616478710963312;1391.987;250
2024-05-13T13:28:30.624;599616478718653848;1399.6776;272
2024-05-13T13:28:30.632;599616478726344384;1407.368;279
2024-05-13T13:28:30.640;599616478734034920;1415.0587;267
2024-05-13T13:28:30.647;599616478741725456;1422.7491;277
2024-05-13T13:28:30.655;599616478749415992;1430.4397;294
2024-05-13T13:28:30.663;599616478757106528;1438.1301;279
2024-05-13T13:28:30.670;599616478764797064;1445.8208;241
2024-05-13T13:28:30.678;599616478772487600;1453.5114;202
2024-05-13T13:28:30.686;599616478780178136;1461.2018;154
2024-05-13T13:28:30.693;599616478787868672;1468.8925;106
2024-05-13T13:28:30.701;599616478795559208;1476.5829;86
2024-05-13T13:28:30.709;599616478803249744;1484.2734;94
2024-05-13T13:28:30.716;599616478810940280;1491.964;91
2024-05-13T13:28:30.724;599616478818630816;1499.6545;69
2024-05-13T13:28:30.732;599616478826321352;1507.345;57
2024-05-13T13:28:30.740;599616478834011888;1515.0356;77
2024-05-13T13:28:30.747;599616478841702424;1522.7262;101
2024-05-13T13:28:30.755;599616478849392960;1530.4166;108
2024-05-13T13:28:30.763;599616478857083496;1538.1072;89
2024-05-13T13:28:30.770;599616478864774032;1545.7977;50
2024-05-13T13:28:30.778;599616478872464568;1553.4883;19
2024-05-13T13:28:30.786;599616478880155104;1561.1787;-14
2024-05-13T13:28:30.793;599616478887845640;1568.8694;-62
2024-05-13T13:28:30.801;599616478895536176;1576.5598;-84
2024-05-13T13:28:30.809;599616478903226712;1584.2504;-69
2024-05-13T13:28:30.816;599616478910917248;1591.941;-79
2024-05-13T13:28:30.824;599616478918607784;1599.6315;-113
2024-05-13T13:28:30.832;599616478926298320;1607.322;-142
2024-05-13T13:28:30.840;599616478933988856;1615.0126;-156
2024-05-13T13:28:30.847;599616478941679392;1622.7031;-202
2024-05-13T13:28:30.855;599616478949369928;1630.3936;-258
2024-05-13T13:28:30.863;599616478957060464;1638.0842;-250
2024-05-13T13:28:30.870;599616478964751000;1645.7748;-224
2024-05-13T13:28:30.878;599616478972441536;1653.4652;-221
2024-05-13T13:28:30.886;599616478980132072;1661.1559;-205
2024-05-13T13:28:30.893;599616478987822608;1668.8463;-161
2024-05-13T13:28:30.901;599616478995513144;1676.5369;-139
2024-05-13T13:28:30.909;599616479003233848;1684.2576;-156
2024-05-13T13:28:30.916;599616479010923965;1691.9476;-154
2024-05-13T13:28:30.924;599616479018614082;1699.6378;-106
2024-05-13T13:28:30.932;599616479026304199;1707.3279;-77
2024-05-13T13:28:30.940;599616479033994316;1715.018;-86
2024-05-13T13:28:30.947;599616479041684433;1722.7081;-91
2024-05-13T13:28:30.955;599616479049374550;1730.3982;-74
2024-05-13T13:28:30.963;599616479057064667;1738.0884;-79
2024-05-13T13:28:30.970;599616479064754784;1745.7784;-132
2024-05-13T13:28:30.978;599616479072444901;1753.4685;-161
2024-05-13T13:28:30.986;599616479080135018;1761.1588;-115
2024-05-13T13:28:30.993;599616479087825135;1768.8489;-86
2024-05-13T13:28:31.001;599616479095515252;1776.5391;-108
2024-05-13T13:28:31.009;599616479103205369;1784.2291;-96
2024-05-13T13:28:31.016;599616479110895486;1791.9192;-38
2024-05-13T13:28:31.024;599616479118585603;1799.6094;-14
2024-05-13T13:28:31.032;599616479126275720;1807.2994;-16
2024-05-13T13:28:31.039;599616479133965837;1814.9896;2
2024-05-13T13:28:31.047;599616479141655954;1822.6797;24
2024-05-13T13:28:31.055;599616479149346071;1830.3698;28
2024-05-13T13:28:31.063;599616479157036188;1838.0599;33
2024-05-13T13:28:31.070;599616479164726305;1845.75;38
2024-05-13T13:28:31.078;599616479172416422;1853.4402;21
2024-05-13T13:28:31.086;599616479180106539;1861.1302;2
2024-05-13T13:28:31.093;599616479187796656;1868.8203;7
2024-05-13T13:28:31.101;599616479195486773;1876.5105;26
2024-05-13T13:28:31.109;599616479203176890;1884.2006;50
2024-05-13T13:28:31.116;599616479210867007;1891.8907;84
2024-05-13T13:28:31.124;599616479218557124;1899.5808;120
2024-05-13T13:28:31.132;599616479226247241;1907.2709;135
2024-05-13T13:28:31.139;599616479233937358;1914.961;132
2024-05-13T13:28:31.147;599616479241627475;1922.6511;132
2024-05-13T13:28:31.155;599616479249317592;1930.3413;142
2024-05-13T13:28:31.163;599616479257007709;1938.0314;161
2024-05-13T13:28:31.170;599616479264697826;1945.7214;178
2024-05-13T13:28:31.178;599616479272387943;1953.4116;171
2024-05-13T13:28:31.186;599616479280078060;1961.1018;161
2024-05-13T13:28:31.193;599616479287768177;1968.792;180
2024-05-13T13:28:31.201;599616479295458294;1976.482;197
2024-05-13T13:28:31.209;599616479303148411;1984.1721;173
2024-05-13T13:28:31.216;599616479310838528;1991.8623;173
2024-05-13T13:28:31.224;599616479318528645;1999.5524;316
2024-05-13T13:28:31.232;599616479326218762;2007.2426;622
2024-05-13T13:28:31.239;599616479333908879;2014.9326;924
2024-05-13T13:28:31.247;599616479341598996;2022.6227;887
2024-05-13T13:28:31.255;599616479349289113;2030.3129;468
2024-05-13T13:28:31.263;599616479356979230;2038.0029;144
2024-05-13T13:28:31.270;599616479364669347;2045.6931;178
2024-05-13T13:28:31.278;599616479372359464;2053.383;234
2024-05-13T13:28:31.286;599616479380049581;2061.0732;176
2024-05-13T13:28:31.293;599616479387739698;2068.7634;178
2024-05-13T13:28:31.301;599616479395429815;2076.4536;207
2024-05-13T13:28:31.309;599616479403119932;2084.1436;190
2024-05-13T13:28:31.316;599616479410810049;2091.8337;171
2024-05-13T13:28:31.324;599616479418500166;2099.524;135
2024-05-13T13:28:31.332;599616479426190283;2107.2139;106
2024-05-13T13:28:31.339;599616479433880400;2114.904;139
2024-05-13T13:28:31.347;599616479441570517;2122.5942;168
2024-05-13T13:28:31.355;599616479449260634;2130.2842;108
2024-05-13T13:28:31.362;599616479456950751;2137.9744;26
2024-05-13T13:28:31.370;599616479464640868;2145.6646;28
2024-05-13T13:28:31.378;599616479472330985;2153.3547;67
2024-05-13T13:28:31.386;599616479480021102;2161.0447;69
2024-05-13T13:28:31.393;599616479487711219;2168.7349;84
2024-05-13T13:28:31.401;599616479495401336;2176.425;137
2024-05-13T13:28:31.409;599616479503091453;2184.1152;164
2024-05-13T13:28:31.416;599616479510781570;2191.8052;152
2024-05-13T13:28:31.424;599616479518471687;2199.4954;164
2024-05-13T13:28:31.432;599616479526161804;2207.1853;205
2024-05-13T13:28:31.439;599616479533851921;2214.8757;236
2024-05-13T13:28:31.447;599616479541542038;2222.5657;248
2024-05-13T13:28:31.455;599616479549232155;2230.2559;250
2024-05-13T13:28:31.462;599616479556922272;2237.9458;255
2024-05-13T13:28:31.470;599616479564582290;2245.606;270
2024-05-13T13:28:31.478;599616479572272826;2253.2966;275
2024-05-13T13:28:31.485;599616479579963362;2260.987;263
2024-05-13T13:28:31.493;599616479587653898;2268.6777;265
2024-05-13T13:28:31.501;599616479595344434;2276.3682;250
2024-05-13T13:28:31.509;599616479603034970;2284.0586;180
2024-05-13T13:28:31.516;599616479610725506;2291.749;101
2024-05-13T13:28:31.524;599616479618416042;2299.44;74
2024-05-13T13:28:31.532;599616479626106578;2307.1304;62
2024-05-13T13:28:31.539;599616479633797114;2314.8208;7
2024-05-13T13:28:31.547;599616479641487650;2322.5115;-43
2024-05-13T13:28:31.555;599616479649178186;2330.202;-43
2024-05-13T13:28:31.562;599616479656868722;2337.8923;-45
2024-05-13T13:28:31.570;599616479664559258;2345.5828;-77
2024-05-13T13:28:31.578;599616479672249794;2353.2737;-69
2024-05-13T13:28:31.585;599616479679940330;2360.964;-28
2024-05-13T13:28:31.593;599616479687630866;2368.6545;-24
2024-05-13T13:28:31.601;599616479695321402;2376.345;-69
2024-05-13T13:28:31.609;599616479703011938;2384.0356;-108
2024-05-13T13:28:31.616;599616479710702474;2391.726;-106
2024-05-13T13:28:31.624;599616479718393010;2399.4167;-127
2024-05-13T13:28:31.632;599616479726083546;2407.1074;-173
2024-05-13T13:28:31.639;599616479733774082;2414.7979;-176
2024-05-13T13:28:31.647;599616479741464618;2422.4883;-164
2024-05-13T13:28:31.655;599616479749155154;2430.1787;-168
2024-05-13T13:28:31.662;599616479756845690;2437.8694;-168
2024-05-13T13:28:31.670;599616479764536226;2445.5598;-154
2024-05-13T13:28:31.678;599616479772226762;2453.2505;-132
2024-05-13T13:28:31.685;599616479779917298;2460.9412;-132
2024-05-13T13:28:31.693;599616479787607834;2468.6316;-144
2024-05-13T13:28:31.701;599616479795298370;2476.322;-127
2024-05-13T13:28:31.709;599616479802988906;2484.0125;-96
2024-05-13T13:28:31.716;599616479810679442;2491.7031;-86
2024-05-13T13:28:31.724;599616479818369978;2499.3938;-79
2024-05-13T13:28:31.732;599616479826060514;2507.0842;-55
2024-05-13T13:28:31.739;599616479833751050;2514.775;-48
2024-05-13T13:28:31.747;599616479841441586;2522.4653;-55
2024-05-13T13:28:31.755;599616479849132122;2530.1558;-45
2024-05-13T13:28:31.762;599616479856822658;2537.8462;-12
2024-05-13T13:28:31.770;599616479864513194;2545.537;14
2024-05-13T13:28:31.778;599616479872203730;2553.2275;7
2024-05-13T13:28:31.785;599616479879894266;2560.918;0
2024-05-13T13:28:31.793;599616479887584802;2568.6084;24
2024-05-13T13:28:31.801;599616479895275338;2576.299;48
2024-05-13T13:28:31.808;599616479902965874;2583.9895;43
2024-05-13T13:28:31.816;599616479910656410;2591.68;24
2024-05-13T13:28:31.824;599616479918346946;2599.3708;24
2024-05-13T13:28:31.832;599616479926037482;2607.0613;28
2024-05-13T13:28:31.839;599616479933728018;2614.7517;33
2024-05-13T13:28:31.847;599616479941418554;2622.4421;41
2024-05-13T13:28:31.855;599616479949109090;2630.1328;2
2024-05-13T13:28:31.862;599616479956799626;2637.8232;-65
2024-05-13T13:28:31.870;599616479964490162;2645.514;-74
2024-05-13T13:28:31.878;599616479972180698;2653.2046;-48
2024-05-13T13:28:31.885;599616479979871234;2660.895;-26
2024-05-13T13:28:31.893;599616479987561770;2668.5854;2
2024-05-13T13:28:31.901;599616479995252306;2676.276;21
2024-05-13T13:28:31.908;599616480002942842;2683.9666;43
2024-05-13T13:28:31.916;599616480010633378;2691.657;72
2024-05-13T13:28:31.924;599616480018323914;2699.3477;72
2024-05-13T13:28:31.932;599616480026014450;2707.038;65
2024-05-13T13:28:31.939;599616480033704986;2714.7288;89
2024-05-13T13:28:31.947;599616480041395522;2722.4192;123
2024-05-13T13:28:31.955;599616480049086058;2730.1096;130
2024-05-13T13:28:31.962;599616480056776594;2737.8003;120
2024-05-13T13:28:31.970;599616480064467130;2745.491;115
2024-05-13T13:28:31.978;599616480072157666;2753.1814;127
2024-05-13T13:28:31.985;599616480079848202;2760.8718;142
2024-05-13T13:28:31.993;599616480087538738;2768.5625;147
2024-05-13T13:28:32.001;599616480095229274;2776.253;171
2024-05-13T13:28:32.008;599616480102919810;2783.9434;214
2024-05-13T13:28:32.016;599616480110610346;2791.6343;214
2024-05-13T13:28:32.024;599616480118300882;2799.3247;195
2024-05-13T13:28:32.032;599616480125991418;2807.0151;217
2024-05-13T13:28:32.039;599616480133681954;2814.7056;238
2024-05-13T13:28:32.047;599616480141372490;2822.3962;229
2024-05-13T13:28:32.055;599616480149063026;2830.0867;195
2024-05-13T13:28:32.062;599616480156753562;2837.777;142
2024-05-13T13:28:32.070;599616480164444098;2845.468;115
2024-05-13T13:28:32.078;599616480172134634;2853.1584;94
2024-05-13T13:28:32.085;599616480179825170;2860.8489;55
2024-05-13T13:28:32.093;599616480187515706;2868.5393;53
2024-05-13T13:28:32.101;599616480195206242;2876.23;67
2024-05-13T13:28:32.108;599616480202896778;2883.9204;103
2024-05-13T13:28:32.116;599616480210587314;2891.611;328
2024-05-13T13:28:32.124;599616480218277850;2899.3015;716
2024-05-13T13:28:32.131;599616480225968386;2906.9922;887
2024-05-13T13:28:32.139;599616480233658922;2914.6826;571
2024-05-13T13:28:32.147;599616480241349458;2922.373;127
2024-05-13T13:28:32.155;599616480249039994;2930.0637;36
2024-05-13T13:28:32.162;599616480256730530;2937.7542;144
2024-05-13T13:28:32.170;599616480264421066;2945.4448;130
2024-05-13T13:28:32.178;599616480272111602;2953.1353;89
2024-05-13T13:28:32.185;599616480279802138;2960.826;142
2024-05-13T13:28:32.193;599616480287492674;2968.5164;176
2024-05-13T13:28:32.201;599616480295183210;2976.2068;144
2024-05-13T13:28:32.208;599616480302873746;2983.8975;132
2024-05-13T13:28:32.216;599616480310564282;2991.5881;171
2024-05-13T13:28:32.224;599616480318254818;2999.2786;202
2024-05-13T13:28:32.231;599616480325945354;3006.969;205
2024-05-13T13:28:32.239;599616480333635890;3014.6597;207
2024-05-13T13:28:32.247;599616480341326426;3022.35;217
2024-05-13T13:28:32.255;599616480349016962;3030.0405;221
2024-05-13T13:28:32.262;599616480356707498;3037.7314;229
2024-05-13T13:28:32.270;599616480364398034;3045.4219;250
2024-05-13T13:28:32.278;599616480372088570;3053.1123;277
2024-05-13T13:28:32.285;599616480379779106;3060.8027;282
2024-05-13T13:28:32.293;599616480387469642;3068.4934;270
2024-05-13T13:28:32.301;599616480395160178;3076.1838;258
2024-05-13T13:28:32.308;599616480402850714;3083.8743;241
2024-05-13T13:28:32.316;599616480410541250;3091.565;226
2024-05-13T13:28:32.324;599616480418231786;3099.2556;241
2024-05-13T13:28:32.331;599616480425922322;3106.946;253
2024-05-13T13:28:32.339;599616480433612858;3114.6365;219
2024-05-13T13:28:32.347;599616480441303394;3122.3271;185
2024-05-13T13:28:32.355;599616480448993930;3130.0176;190
2024-05-13T13:28:32.362;599616480456684466;3137.7083;161
2024-05-13T13:28:32.370;599616480464375002;3145.3987;69
2024-05-13T13:28:32.378;599616480472065538;3153.0894;12
2024-05-13T13:28:32.385;599616480479756074;3160.7798;0
2024-05-13T13:28:32.393;599616480487446610;3168.4702;-9
2024-05-13T13:28:32.401;599616480495137146;3176.161;-14
2024-05-13T13:28:32.408;599616480502827682;3183.8513;-16
2024-05-13T13:28:32.416;599616480510518218;3191.542;-45
2024-05-13T13:28:32.424;599616480518208754;3199.2324;-91
2024-05-13T13:28:32.431;599616480525899290;3206.923;-125
2024-05-13T13:28:32.439;599616480533589826;3214.6135;-159
2024-05-13T13:28:32.447;599616480541280362;3222.304;-195
2024-05-13T13:28:32.454;599616480548970898;3229.9944;-188
2024-05-13T13:28:32.462;599616480556661434;3237.6853;-171
2024-05-13T13:28:32.470;599616480564351970;3245.3757;-197
2024-05-13T13:28:32.478;599616480572042506;3253.0662;-212
2024-05-13T13:28:32.485;599616480579733042;3260.7568;-180
2024-05-13T13:28:32.493;599616480587423578;3268.4473;-154
2024-05-13T13:28:32.501;599616480595114114;3276.1377;-152
2024-05-13T13:28:32.508;599616480602804650;3283.8284;-132
2024-05-13T13:28:32.516;599616480610495186;3291.519;-103
2024-05-13T13:28:32.524;599616480618185722;3299.2095;-113
2024-05-13T13:28:32.531;599616480625876258;3306.9;-130
2024-05-13T13:28:32.539;599616480633566794;3314.5906;-108
2024-05-13T13:28:32.547;599616480641257330;3322.281;-98
2024-05-13T13:28:32.554;599616480648947866;3329.9714;-130
2024-05-13T13:28:32.562;599616480656638402;3337.662;-147
2024-05-13T13:28:32.570;599616480664328938;3345.3528;-130
2024-05-13T13:28:32.578;599616480672019474;3353.0432;-113
2024-05-13T13:28:32.585;599616480679710010;3360.7336;-98
2024-05-13T13:28:32.593;599616480687430714;3368.4543;-77
2024-05-13T13:28:32.601;599616480695120831;3376.1445;-55
2024-05-13T13:28:32.608;599616480702810948;3383.8347;-45
2024-05-13T13:28:32.616;599616480710501065;3391.525;-86
2024-05-13T13:28:32.624;599616480718191182;3399.2148;-147
2024-05-13T13:28:32.631;599616480725881299;3406.905;-130
2024-05-13T13:28:32.639;599616480733571416;3414.595;-79
2024-05-13T13:28:32.647;599616480741261533;3422.2854;-67
2024-05-13T13:28:32.654;599616480748951650;3429.9753;-65
2024-05-13T13:28:32.662;599616480756641767;3437.6655;-45
2024-05-13T13:28:32.670;599616480764331884;3445.3555;-31
2024-05-13T13:28:32.678;599616480772022001;3453.0457;-12
2024-05-13T13:28:32.685;599616480779712118;3460.7358;14
2024-05-13T13:28:32.693;599616480787402235;3468.426;43
2024-05-13T13:28:32.701;599616480795092352;3476.116;60
2024-05-13T13:28:32.708;599616480802782469;3483.8062;48
2024-05-13T13:28:32.716;599616480810472586;3491.496;48
2024-05-13T13:28:32.724;599616480818162703;3499.1865;94
2024-05-13T13:28:32.731;599616480825852820;3506.8765;125
2024-05-13T13:28:32.739;599616480833542937;3514.5667;123
2024-05-13T13:28:32.747;599616480841233054;3522.2566;135
2024-05-13T13:28:32.754;599616480848923171;3529.9468;154
2024-05-13T13:28:32.762;599616480856613288;3537.637;154
2024-05-13T13:28:32.770;599616480864303405;3545.3271;154
2024-05-13T13:28:32.778;599616480871993522;3553.0173;171
2024-05-13T13:28:32.785;599616480879683639;3560.7073;197
2024-05-13T13:28:32.793;599616480887373756;3568.3975;193
2024-05-13T13:28:32.801;599616480895063873;3576.0876;154
2024-05-13T13:28:32.808;599616480902753990;3583.7778;142
2024-05-13T13:28:32.816;599616480910444107;3591.4678;171
2024-05-13T13:28:32.824;599616480918134224;3599.158;193
2024-05-13T13:28:32.831;599616480925824341;3606.848;193
2024-05-13T13:28:32.839;599616480933514458;3614.5383;200
2024-05-13T13:28:32.847;599616480941204575;3622.2283;207
2024-05-13T13:28:32.854;599616480948894692;3629.9185;200
2024-05-13T13:28:32.862;599616480956584809;3637.6084;188
2024-05-13T13:28:32.870;599616480964274926;3645.2986;156
2024-05-13T13:28:32.877;599616480971965043;3652.9888;110
2024-05-13T13:28:32.885;599616480979655160;3660.679;106
2024-05-13T13:28:32.893;599616480987345277;3668.369;118
2024-05-13T13:28:32.901;599616480995035394;3676.059;125
2024-05-13T13:28:32.908;599616481002725511;3683.749;142
2024-05-13T13:28:32.916;599616481010415628;3691.4395;152
2024-05-13T13:28:32.924;599616481018105745;3699.1294;154
2024-05-13T13:28:32.931;599616481025795862;3706.8196;161
2024-05-13T13:28:32.939;599616481033485979;3714.5095;144
2024-05-13T13:28:32.947;599616481041176096;3722.1997;89
2024-05-13T13:28:32.954;599616481048866213;3729.89;62
2024-05-13T13:28:32.962;599616481056556330;3737.58;86
2024-05-13T13:28:32.970;599616481064246447;3745.2703;94
2024-05-13T13:28:32.977;599616481071936564;3752.9602;120
2024-05-13T13:28:32.985;599616481079626681;3760.6504;323
2024-05-13T13:28:32.993;599616481087316798;3768.3406;716
2024-05-13T13:28:33.001;599616481095006915;3776.0308;941
2024-05-13T13:28:33.008;599616481102697032;3783.7207;653
2024-05-13T13:28:33.016;599616481110387149;3791.411;173
2024-05-13T13:28:33.024;599616481118077266;3799.1008;55
2024-05-13T13:28:33.031;599616481125767383;3806.7913;178
2024-05-13T13:28:33.039;599616481133457500;3814.4812;147
2024-05-13T13:28:33.047;599616481141147617;3822.1714;60
2024-05-13T13:28:33.054;599616481148837734;3829.8613;84
2024-05-13T13:28:33.062;599616481156527851;3837.5515;120
2024-05-13T13:28:33.070;599616481164217968;3845.2417;101
2024-05-13T13:28:33.077;599616481171908085;3852.932;96
2024-05-13T13:28:33.085;599616481179598202;3860.6218;135
2024-05-13T13:28:33.093;599616481187288319;3868.312;156
2024-05-13T13:28:33.101;599616481194978436;3876.002;156
2024-05-13T13:28:33.108;599616481202668553;3883.6924;154
2024-05-13T13:28:33.116;599616481210358670;3891.3823;135
2024-05-13T13:28:33.124;599616481218048787;3899.0725;101
2024-05-13T13:28:33.131;599616481225738904;3906.7625;94
2024-05-13T13:28:33.139;599616481233429021;3914.4526;108
2024-05-13T13:28:33.147;599616481241119138;3922.1428;132
2024-05-13T13:28:33.154;599616481248779156;3929.8027;156
2024-05-13T13:28:33.162;599616481256469692;3937.4934;161
2024-05-13T13:28:33.170;599616481264160228;3945.184;154
2024-05-13T13:28:33.177;599616481271850764;3952.8745;166
2024-05-13T13:28:33.185;599616481279541300;3960.565;195
2024-05-13T13:28:33.193;599616481287231836;3968.2554;197
2024-05-13T13:28:33.200;599616481294922372;3975.946;176
2024-05-13T13:28:33.208;599616481302612908;3983.6367;149
2024-05-13T13:28:33.216;599616481310303444;3991.3271;77
2024-05-13T13:28:33.224;599616481317993980;3999.0178;-21
2024-05-13T13:28:33.231;599616481325684516;4006.7083;-36
2024-05-13T13:28:33.239;599616481333375052;4014.3987;-4
2024-05-13T13:28:33.247;599616481341065588;4022.089;-31
2024-05-13T13:28:33.254;599616481348756124;4029.7798;-69
2024-05-13T13:28:33.262;599616481356446660;4037.4705;-79
2024-05-13T13:28:33.270;599616481364137196;4045.161;-86
2024-05-13T13:28:33.277;599616481371827732;4052.8516;-103
2024-05-13T13:28:33.285;599616481379518268;4060.542;-130
2024-05-13T13:28:33.293;599616481387208804;4068.2324;-166
2024-05-13T13:28:33.300;599616481394899340;4075.9229;-190
2024-05-13T13:28:33.308;599616481402589876;4083.6138;-200
2024-05-13T13:28:33.316;599616481410280412;4091.3042;-190
2024-05-13T13:28:33.323;599616481417970948;4098.9946;-147
2024-05-13T13:28:33.331;599616481425661484;4106.685;-108
2024-05-13T13:28:33.339;599616481433352020;4114.3755;-103
2024-05-13T13:28:33.347;599616481441042556;4122.0664;-101
2024-05-13T13:28:33.354;599616481448733092;4129.757;-82
2024-05-13T13:28:33.362;599616481456423628;4137.4473;-60
2024-05-13T13:28:33.370;599616481464114164;4145.1377;-57
2024-05-13T13:28:33.377;599616481471804700;4152.8286;-108
2024-05-13T13:28:33.385;599616481479495236;4160.519;-152
2024-05-13T13:28:33.393;599616481487185772;4168.2095;-132
2024-05-13T13:28:33.400;599616481494876308;4175.9;-115
2024-05-13T13:28:33.408;599616481502566844;4183.591;-108
2024-05-13T13:28:33.416;599616481510257380;4191.2812;-62
2024-05-13T13:28:33.423;599616481517947916;4198.9717;-24
2024-05-13T13:28:33.431;599616481525638452;4206.662;-9
2024-05-13T13:28:33.439;599616481533328988;4214.3525;4
2024-05-13T13:28:33.447;599616481541019524;4222.043;26
2024-05-13T13:28:33.454;599616481548710060;4229.734;41
2024-05-13T13:28:33.462;599616481556400596;4237.4243;48
2024-05-13T13:28:33.470;599616481564091132;4245.1147;67
2024-05-13T13:28:33.477;599616481571781668;4252.805;108
2024-05-13T13:28:33.485;599616481579472204;4260.496;127
2024-05-13T13:28:33.493;599616481587162740;4268.1865;113
2024-05-13T13:28:33.500;599616481594853276;4275.877;123
2024-05-13T13:28:33.508;599616481602543812;4283.5674;161
2024-05-13T13:28:33.516;599616481610234348;4291.2583;173
2024-05-13T13:28:33.523;599616481617924884;4298.9487;173
2024-05-13T13:28:33.531;599616481625615420;4306.639;168
2024-05-13T13:28:33.539;599616481633305956;4314.3296;127
2024-05-13T13:28:33.547;599616481640996492;4322.0205;101
2024-05-13T13:28:33.554;599616481648687028;4329.7104;123
2024-05-13T13:28:33.562;599616481656377564;4337.4014;156
2024-05-13T13:28:33.570;599616481664068100;4345.092;173
2024-05-13T13:28:33.577;599616481671758636;4352.782;173
2024-05-13T13:28:33.585;599616481679449172;4360.473;166
2024-05-13T13:28:33.593;599616481687139708;4368.163;178
2024-05-13T13:28:33.600;599616481694830244;4375.854;212
2024-05-13T13:28:33.608;599616481702520780;4383.5444;221
2024-05-13T13:28:33.616;599616481710211316;4391.235;221
2024-05-13T13:28:33.623;599616481717901852;4398.9253;238
2024-05-13T13:28:33.631;599616481725592388;4406.616;243
2024-05-13T13:28:33.639;599616481733282924;4414.3066;234
2024-05-13T13:28:33.646;599616481740973460;4421.997;248
2024-05-13T13:28:33.654;599616481748663996;4429.688;279
2024-05-13T13:28:33.662;599616481756354532;4437.378;291
2024-05-13T13:28:33.670;599616481764045068;4445.069;277
2024-05-13T13:28:33.677;599616481771735604;4452.76;270
2024-05-13T13:28:33.685;599616481779426140;4460.4497;287
2024-05-13T13:28:33.693;599616481787116676;4468.1406;301
2024-05-13T13:28:33.700;599616481794807212;4475.8306;294
2024-05-13T13:28:33.708;599616481802497748;4483.5215;296
2024-05-13T13:28:33.716;599616481810188284;4491.212;313
2024-05-13T13:28:33.723;599616481817878820;4498.9023;311
2024-05-13T13:28:33.731;599616481825569356;4506.5933;304
2024-05-13T13:28:33.739;599616481833259892;4514.2837;316
2024-05-13T13:28:33.746;599616481840950428;4521.974;320
2024-05-13T13:28:33.754;599616481848640964;4529.6646;323
2024-05-13T13:28:33.762;599616481856331500;4537.3555;335
2024-05-13T13:28:33.770;599616481864022036;4545.0454;342
2024-05-13T13:28:33.777;599616481871712572;4552.7363;318
2024-05-13T13:28:33.785;599616481879403108;4560.4272;253
2024-05-13T13:28:33.793;599616481887093644;4568.117;193
2024-05-13T13:28:33.800;599616481894784180;4575.808;197
2024-05-13T13:28:33.808;599616481902474716;4583.498;224
2024-05-13T13:28:33.816;599616481910165252;4591.189;171
2024-05-13T13:28:33.823;599616481917855788;4598.88;84
2024-05-13T13:28:33.831;599616481925546324;4606.57;84
2024-05-13T13:28:33.839;599616481933236860;4614.2607;135
2024-05-13T13:28:33.846;599616481940927396;4621.951;132
2024-05-13T13:28:33.854;599616481948617932;4629.6416;94
2024-05-13T13:28:33.862;599616481956308468;4637.332;94
2024-05-13T13:28:33.870;599616481963999004;4645.023;202
2024-05-13T13:28:33.877;599616481971689540;4652.7134;446
2024-05-13T13:28:33.885;599616481979380076;4660.404;733
2024-05-13T13:28:33.893;599616481987070612;4668.094;786
2024-05-13T13:28:33.900;599616481994761148;4675.7847;415
2024-05-13T13:28:33.908;599616482002451684;4683.4756;-21
2024-05-13T13:28:33.916;599616482010142220;4691.1655;-82
2024-05-13T13:28:33.923;599616482017832756;4698.8564;21
2024-05-13T13:28:33.931;599616482025523292;4706.5474;-19
2024-05-13T13:28:33.939;599616482033213828;4714.2373;-65
2024-05-13T13:28:33.946;599616482040904364;4721.928;-28
2024-05-13T13:28:33.954;599616482048594900;4729.6187;-16
2024-05-13T13:28:33.962;599616482056285436;4737.309;-24
2024-05-13T13:28:33.969;599616482063975972;4744.9995;-9
2024-05-13T13:28:33.977;599616482071666508;4752.69;16
2024-05-13T13:28:33.985;599616482079357044;4760.381;36
2024-05-13T13:28:33.993;599616482087047580;4768.0713;14
2024-05-13T13:28:34.000;599616482094738116;4775.7617;-45
2024-05-13T13:28:34.008;599616482102428652;4783.452;-69
2024-05-13T13:28:34.016;599616482110119188;4791.143;-69
2024-05-13T13:28:34.023;599616482117809724;4798.8335;-96
2024-05-13T13:28:34.031;599616482125500260;4806.524;-130
2024-05-13T13:28:34.039;599616482133190796;4814.215;-139
2024-05-13T13:28:34.046;599616482140881332;4821.905;-127
2024-05-13T13:28:34.054;599616482148571868;4829.5957;-108
2024-05-13T13:28:34.062;599616482156262404;4837.2856;-91
2024-05-13T13:28:34.069;599616482163952940;4844.9766;-65
2024-05-13T13:28:34.077;599616482171643476;4852.6675;-28
2024-05-13T13:28:34.085;599616482179334012;4860.3574;-14
2024-05-13T13:28:34.093;599616482187024548;4868.0483;-16
2024-05-13T13:28:34.100;599616482194715084;4875.739;4
2024-05-13T13:28:34.108;599616482202405620;4883.429;45
2024-05-13T13:28:34.116;599616482210096156;4891.1196;57
2024-05-13T13:28:34.123;599616482217786692;4898.8105;62
2024-05-13T13:28:34.131;599616482225477228;4906.501;77
2024-05-13T13:28:34.139;599616482233167764;4914.1914;67
2024-05-13T13:28:34.146;599616482240858300;4921.8823;36
2024-05-13T13:28:34.154;599616482248548836;4929.5723;28
2024-05-13T13:28:34.162;599616482256239372;4937.263;43
2024-05-13T13:28:34.169;599616482263929908;4944.9536;53
2024-05-13T13:28:34.177;599616482271620444;4952.644;41
2024-05-13T13:28:34.185;599616482279310980;4960.335;12
2024-05-13T13:28:34.193;599616482287001516;4968.025;12
2024-05-13T13:28:34.200;599616482294692052;4975.716;45
2024-05-13T13:28:34.208;599616482302382588;4983.4062;62
2024-05-13T13:28:34.216;599616482310073124;4991.0967;67
2024-05-13T13:28:34.223;599616482317763660;4998.7876;89
2024-05-13T13:28:34.231;599616482325454196;5006.478;89
2024-05-13T13:28:34.239;599616482333144732;5014.1685;82
2024-05-13T13:28:34.246;599616482340835268;5021.859;96
2024-05-13T13:28:34.254;599616482348525804;5029.55;125
2024-05-13T13:28:34.262;599616482356216340;5037.2397;152
2024-05-13T13:28:34.269;599616482363906876;5044.9307;152
2024-05-13T13:28:34.277;599616482371627580;5052.6514;110
2024-05-13T13:28:34.285;599616482379317697;5060.3413;94
2024-05-13T13:28:34.293;599616482387007814;5068.0312;123
2024-05-13T13:28:34.300;599616482394697931;5075.7217;135
2024-05-13T13:28:34.308;599616482402388048;5083.412;135
2024-05-13T13:28:34.316;599616482410078165;5091.1016;159
2024-05-13T13:28:34.323;599616482417768282;5098.792;142
2024-05-13T13:28:34.331;599616482425458399;5106.482;69
2024-05-13T13:28:34.339;599616482433148516;5114.1724;48
2024-05-13T13:28:34.346;599616482440838633;5121.8623;96
2024-05-13T13:28:34.354;599616482448528750;5129.5522;115
2024-05-13T13:28:34.362;599616482456218867;5137.2427;91
2024-05-13T13:28:34.369;599616482463908984;5144.933;89
2024-05-13T13:28:34.377;599616482471599101;5152.6226;113
2024-05-13T13:28:34.385;599616482479289218;5160.313;94
2024-05-13T13:28:34.393;599616482486979335;5168.003;24
2024-05-13T13:28:34.400;599616482494669452;5175.6934;14
2024-05-13T13:28:34.408;599616482502359569;5183.383;60
2024-05-13T13:28:34.416;599616482510049686;5191.073;60
2024-05-13T13:28:34.423;599616482517739803;5198.7637;50
2024-05-13T13:28:34.431;599616482525429920;5206.4536;86
2024-05-13T13:28:34.439;599616482533120037;5214.1436;120
2024-05-13T13:28:34.446;599616482540810154;5221.8335;115
2024-05-13T13:28:34.454;599616482548500271;5229.524;113
2024-05-13T13:28:34.462;599616482556190388;5237.2144;130
2024-05-13T13:28:34.469;599616482563880505;5244.9043;152
2024-05-13T13:28:34.477;599616482571570622;5252.594;156
2024-05-13T13:28:34.485;599616482579260739;5260.284;156
2024-05-13T13:28:34.492;599616482586950856;5267.9746;178
2024-05-13T13:28:34.500;599616482594640973;5275.665;200
2024-05-13T13:28:34.508;599616482602331090;5283.3545;185
2024-05-13T13:28:34.516;599616482610021207;5291.045;152
2024-05-13T13:28:34.523;599616482617711324;5298.735;125
2024-05-13T13:28:34.531;599616482625401441;5306.4253;115
2024-05-13T13:28:34.539;599616482633091558;5314.115;130
2024-05-13T13:28:34.546;599616482640781675;5321.805;137
2024-05-13T13:28:34.554;599616482648471792;5329.4956;135
2024-05-13T13:28:34.562;599616482656161909;5337.186;142
2024-05-13T13:28:34.569;599616482663852026;5344.8755;154
2024-05-13T13:28:34.577;599616482671542143;5352.566;159
2024-05-13T13:28:34.585;599616482679232260;5360.256;176
2024-05-13T13:28:34.592;599616482686922377;5367.9463;195
2024-05-13T13:28:34.600;599616482694612494;5375.6357;180
2024-05-13T13:28:34.608;599616482702302611;5383.326;171
2024-05-13T13:28:34.616;599616482709992728;5391.0166;195
2024-05-13T13:28:34.623;599616482717682845;5398.7065;214
2024-05-13T13:28:34.631;599616482725372962;5406.3965;212
2024-05-13T13:28:34.639;599616482733063079;5414.0864;217
2024-05-13T13:28:34.646;599616482740753196;5421.777;221
2024-05-13T13:28:34.654;599616482748443313;5429.4673;212
2024-05-13T13:28:34.662;599616482756133430;5437.157;209
2024-05-13T13:28:34.669;599616482763823547;5444.847;226
2024-05-13T13:28:34.677;599616482771513664;5452.537;234
2024-05-13T13:28:34.685;599616482779203781;5460.2275;231
2024-05-13T13:28:34.692;599616482786893898;5467.918;246
2024-05-13T13:28:34.700;599616482794584015;5475.6074;258
2024-05-13T13:28:34.708;599616482802274132;5483.298;255
2024-05-13T13:28:34.715;599616482809964249;5490.988;255
2024-05-13T13:28:34.723;599616482817654366;5498.678;260
2024-05-13T13:28:34.731;599616482825344483;5506.368;250
2024-05-13T13:28:34.739;599616482833034600;5514.058;214
2024-05-13T13:28:34.746;599616482840724717;5521.7485;161
2024-05-13T13:28:34.754;599616482848414834;5529.4385;132
2024-05-13T13:28:34.762;599616482856104951;5537.1284;127
2024-05-13T13:28:34.769;599616482863795068;5544.819;89
2024-05-13T13:28:34.777;599616482871485185;5552.509;26
2024-05-13T13:28:34.785;599616482879175302;5560.199;-12
2024-05-13T13:28:34.792;599616482886865419;5567.8887;26
2024-05-13T13:28:34.800;599616482894555536;5575.579;219
2024-05-13T13:28:34.808;599616482902245653;5583.2695;567
2024-05-13T13:28:34.815;599616482909935770;5590.9595;810
2024-05-13T13:28:34.823;599616482917625887;5598.6494;598
2024-05-13T13:28:34.831;599616482925316004;5606.3394;79
2024-05-13T13:28:34.838;599616482932976022;5613.9995;-164
2024-05-13T13:28:34.846;599616482940666558;5621.6904;-101
2024-05-13T13:28:34.854;599616482948357094;5629.3804;-118
2024-05-13T13:28:34.862;599616482956047630;5637.0713;-195
2024-05-13T13:28:34.869;599616482963738166;5644.762;-190
2024-05-13T13:28:34.877;599616482971428702;5652.452;-195
2024-05-13T13:28:34.885;599616482979119238;5660.143;-214
2024-05-13T13:28:34.892;599616482986809774;5667.8335;-221
2024-05-13T13:28:34.900;599616482994500310;5675.524;-277
2024-05-13T13:28:34.908;599616483002190846;5683.2144;-296
2024-05-13T13:28:34.915;599616483009881382;5690.9053;-253
2024-05-13T13:28:34.923;599616483017571918;5698.5957;-275
2024-05-13T13:28:34.931;599616483025262454;5706.286;-352
2024-05-13T13:28:34.938;599616483032952990;5713.977;-359
2024-05-13T13:28:34.946;599616483040643526;5721.667;-299
2024-05-13T13:28:34.954;599616483048334062;5729.358;-267
2024-05-13T13:28:34.962;599616483056024598;5737.048;-267
2024-05-13T13:28:34.969;599616483063715134;5744.739;-243
2024-05-13T13:28:34.977;599616483071405670;5752.4297;-200
2024-05-13T13:28:34.985;599616483079096206;5760.1196;-168
2024-05-13T13:28:34.992;599616483086786742;5767.8105;-147
2024-05-13T13:28:35.000;599616483094477278;5775.501;-108
2024-05-13T13:28:35.008;599616483102167814;5783.1914;-89
2024-05-13T13:28:35.015;599616483109858350;5790.8823;-127
2024-05-13T13:28:35.023;599616483117548886;5798.5728;-142
2024-05-13T13:28:35.031;599616483125239422;5806.263;-82
2024-05-13T13:28:35.038;599616483132929958;5813.9536;-33
2024-05-13T13:28:35.046;599616483140620494;5821.6445;-33
2024-05-13T13:28:35.054;599616483148311030;5829.3345;-24
2024-05-13T13:28:35.062;599616483156001566;5837.0254;-7
2024-05-13T13:28:35.069;599616483163692102;5844.716;4
2024-05-13T13:28:35.077;599616483171382638;5852.4062;9
2024-05-13T13:28:35.085;599616483179073174;5860.097;0
2024-05-13T13:28:35.092;599616483186763710;5867.787;2
2024-05-13T13:28:35.100;599616483194454246;5875.478;12
2024-05-13T13:28:35.108;599616483202144782;5883.1685;-7
2024-05-13T13:28:35.115;599616483209835318;5890.859;-21
2024-05-13T13:28:35.123;599616483217525854;5898.55;14
2024-05-13T13:28:35.131;599616483225216390;5906.24;48
2024-05-13T13:28:35.138;599616483232906926;5913.9307;48
2024-05-13T13:28:35.146;599616483240597462;5921.621;43
2024-05-13T13:28:35.154;599616483248287998;5929.3115;55
2024-05-13T13:28:35.162;599616483255978534;5937.002;74
2024-05-13T13:28:35.169;599616483263669070;5944.693;91
2024-05-13T13:28:35.177;599616483271359606;5952.3833;108
2024-05-13T13:28:35.185;599616483279050142;5960.0737;135
2024-05-13T13:28:35.192;599616483286740678;5967.7646;149
2024-05-13T13:28:35.200;599616483294431214;5975.4546;127
2024-05-13T13:28:35.208;599616483302121750;5983.1455;125
2024-05-13T13:28:35.215;599616483309812286;5990.8364;161
2024-05-13T13:28:35.223;599616483317502822;5998.5264;183
2024-05-13T13:28:35.231;599616483325193358;6006.2173;178
2024-05-13T13:28:35.238;599616483332883894;6013.907;176
2024-05-13T13:28:35.246;599616483340574430;6021.598;185
2024-05-13T13:28:35.254;599616483348264966;6029.2886;183
2024-05-13T13:28:35.261;599616483355955502;6036.979;156
2024-05-13T13:28:35.269;599616483363646038;6044.67;144
2024-05-13T13:28:35.277;599616483371336574;6052.3604;171
2024-05-13T13:28:35.285;599616483379027110;6060.051;183
2024-05-13T13:28:35.292;599616483386717646;6067.741;161
2024-05-13T13:28:35.300;599616483394408182;6075.432;161
2024-05-13T13:28:35.308;599616483402098718;6083.122;190
2024-05-13T13:28:35.315;599616483409789254;6090.813;195
2024-05-13T13:28:35.323;599616483417479790;6098.504;190
2024-05-13T13:28:35.331;599616483425170326;6106.194;200
2024-05-13T13:28:35.338;599616483432860862;6113.885;207
2024-05-13T13:28:35.346;599616483440551398;6121.5747;205
2024-05-13T13:28:35.354;599616483448241934;6129.2656;209
2024-05-13T13:28:35.361;599616483455932470;6136.9565;231
2024-05-13T13:28:35.369;599616483463623006;6144.6465;246
2024-05-13T13:28:35.377;599616483471313542;6152.3374;241
2024-05-13T13:28:35.385;599616483479004078;6160.028;219
2024-05-13T13:28:35.392;599616483486694614;6167.7183;200
2024-05-13T13:28:35.400;599616483494415318;6175.439;142
2024-05-13T13:28:35.408;599616483502105435;6183.129;69
2024-05-13T13:28:35.415;599616483509795552;6190.8193;69
2024-05-13T13:28:35.423;599616483517485669;6198.51;96
2024-05-13T13:28:35.431;599616483525175786;6206.199;72
2024-05-13T13:28:35.438;599616483532865903;6213.8896;14
2024-05-13T13:28:35.446;599616483540556020;6221.5796;-4
2024-05-13T13:28:35.454;599616483548246137;6229.27;33
2024-05-13T13:28:35.461;599616483555936254;6236.96;57
2024-05-13T13:28:35.469;599616483563626371;6244.65;41
2024-05-13T13:28:35.477;599616483571316488;6252.3403;31
2024-05-13T13:28:35.485;599616483579006605;6260.0303;55
2024-05-13T13:28:35.492;599616483586696722;6267.72;91
2024-05-13T13:28:35.500;599616483594386839;6275.4106;101
2024-05-13T13:28:35.508;599616483602076956;6283.1006;82
2024-05-13T13:28:35.515;599616483609767073;6290.791;55
2024-05-13T13:28:35.523;599616483617457190;6298.4805;53
2024-05-13T13:28:35.531;599616483625147307;6306.171;57
2024-05-13T13:28:35.538;599616483632837424;6313.8613;72
2024-05-13T13:28:35.546;599616483640527541;6321.5513;108
2024-05-13T13:28:35.554;599616483648217658;6329.2417;123
2024-05-13T13:28:35.561;599616483655907775;6336.931;103
2024-05-13T13:28:35.569;599616483663597892;6344.6216;98
2024-05-13T13:28:35.577;599616483671288009;6352.312;118
2024-05-13T13:28:35.585;599616483678978126;6360.002;125
2024-05-13T13:28:35.592;599616483686668243;6367.692;123
2024-05-13T13:28:35.600;599616483694358360;6375.382;161
2024-05-13T13:28:35.608;599616483702048477;6383.0723;205
2024-05-13T13:28:35.615;599616483709738594;6390.7627;178
2024-05-13T13:28:35.623;599616483717428711;6398.452;137
2024-05-13T13:28:35.631;599616483725118828;6406.1426;130
2024-05-13T13:28:35.638;599616483732808945;6413.8325;113
2024-05-13T13:28:35.646;599616483740499062;6421.523;91
2024-05-13T13:28:35.654;599616483748189179;6429.213;86
2024-05-13T13:28:35.661;599616483755879296;6436.903;74
2024-05-13T13:28:35.669;599616483763569413;6444.5933;69
2024-05-13T13:28:35.677;599616483771259530;6452.283;82
2024-05-13T13:28:35.684;599616483778949647;6459.973;74
2024-05-13T13:28:35.692;599616483786639764;6467.6636;55
2024-05-13T13:28:35.700;599616483794329881;6475.3535;69
2024-05-13T13:28:35.708;599616483802019998;6483.044;173
2024-05-13T13:28:35.715;599616483809710115;6490.7334;436
2024-05-13T13:28:35.723;599616483817400232;6498.424;728
2024-05-13T13:28:35.731;599616483825090349;6506.1143;646
2024-05-13T13:28:35.738;599616483832780466;6513.804;139
2024-05-13T13:28:35.746;599616483840470583;6521.4946;-241
2024-05-13T13:28:35.754;599616483848160700;6529.184;-234
2024-05-13T13:28:35.761;599616483855850817;6536.8745;-205
2024-05-13T13:28:35.769;599616483863540934;6544.565;-277
2024-05-13T13:28:35.777;599616483871231051;6552.255;-270
2024-05-13T13:28:35.784;599616483878921168;6559.945;-214
2024-05-13T13:28:35.792;599616483886611285;6567.635;-217
2024-05-13T13:28:35.800;599616483894301402;6575.325;-241
2024-05-13T13:28:35.808;599616483901991519;6583.0156;-221
2024-05-13T13:28:35.815;599616483909681636;6590.705;-178
2024-05-13T13:28:35.823;599616483917371753;6598.3955;-154
2024-05-13T13:28:35.831;599616483925061870;6606.0854;-147
2024-05-13T13:28:35.838;599616483932751987;6613.776;-130
2024-05-13T13:28:35.846;599616483940442104;6621.466;-113
2024-05-13T13:28:35.854;599616483948132221;6629.156;-101
2024-05-13T13:28:35.861;599616483955822338;6636.846;-86
2024-05-13T13:28:35.869;599616483963512455;6644.536;-57
2024-05-13T13:28:35.877;599616483971202572;6652.226;-21
2024-05-13T13:28:35.884;599616483978892689;6659.9165;0
2024-05-13T13:28:35.892;599616483986582806;6667.6064;-26
2024-05-13T13:28:35.900;599616483994272923;6675.297;-84
2024-05-13T13:28:35.907;599616484001963040;6682.9863;-106
2024-05-13T13:28:35.915;599616484009653157;6690.677;-74
2024-05-13T13:28:35.923;599616484017343274;6698.367;-41
2024-05-13T13:28:35.931;599616484025033391;6706.057;-21
2024-05-13T13:28:35.938;599616484032723508;6713.7476;-4
2024-05-13T13:28:35.946;599616484040413625;6721.437;2
2024-05-13T13:28:35.954;599616484048103742;6729.1274;14
2024-05-13T13:28:35.961;599616484055723656;6736.7476;38
2024-05-13T13:28:35.969;599616484063414749;6744.4385;60
2024-05-13T13:28:35.977;599616484071105842;6752.1294;50
2024-05-13T13:28:35.984;599616484078796935;6759.821;19
2024-05-13T13:28:35.992;599616484086488028;6767.5117;-2
2024-05-13T13:28:36.000;599616484094179121;6775.2026;-43
2024-05-13T13:28:36.007;599616484101870214;6782.894;-139
2024-05-13T13:28:36.015;599616484109561307;6790.585;-197
2024-05-13T13:28:36.023;599616484117252400;6798.276;-178
2024-05-13T13:28:36.030;599616484124943493;6805.9673;-173
2024-05-13T13:28:36.038;599616484132634586;6813.658;-190
2024-05-13T13:28:36.046;599616484140325679;6821.3496;-156
2024-05-13T13:28:36.054;599616484148016772;6829.0405;-101
2024-05-13T13:28:36.061;599616484155707865;6836.7314;-77
2024-05-13T13:28:36.069;599616484163398958;6844.423;-77
2024-05-13T13:28:36.077;599616484171090051;6852.114;-67
2024-05-13T13:28:36.084;599616484178781144;6859.8047;-31
2024-05-13T13:28:36.092;599616484186472237;6867.496;0
2024-05-13T13:28:36.100;599616484194163330;6875.187;4
2024-05-13T13:28:36.107;599616484201854423;6882.878;24
2024-05-13T13:28:36.115;599616484209545516;6890.5693;62
2024-05-13T13:28:36.123;599616484217236609;6898.2603;62
2024-05-13T13:28:36.130;599616484224927702;6905.951;41
2024-05-13T13:28:36.138;599616484232618795;6913.6426;65
2024-05-13T13:28:36.146;599616484240309888;6921.334;110
2024-05-13T13:28:36.154;599616484248000981;6929.0244;125
2024-05-13T13:28:36.161;599616484255692074;6936.716;115
2024-05-13T13:28:36.169;599616484263383167;6944.407;118
2024-05-13T13:28:36.177;599616484271074260;6952.0977;137
2024-05-13T13:28:36.184;599616484278765353;6959.789;149
2024-05-13T13:28:36.192;599616484286456446;6967.4805;152
2024-05-13T13:28:36.200;599616484294147539;6975.171;171
2024-05-13T13:28:36.207;599616484301838632;6982.8623;188
2024-05-13T13:28:36.215;599616484309529725;6990.5537;183
2024-05-13T13:28:36.223;599616484317220818;6998.244;178
2024-05-13T13:28:36.230;599616484324911911;7005.9355;190
2024-05-13T13:28:36.238;599616484332603004;7013.627;200
2024-05-13T13:28:36.246;599616484340294097;7021.318;185
2024-05-13T13:28:36.254;599616484347985190;7029.009;166
2024-05-13T13:28:36.261;599616484355676283;7036.7;171
2024-05-13T13:28:36.269;599616484363367376;7044.391;185
2024-05-13T13:28:36.277;599616484371058469;7052.082;188
2024-05-13T13:28:36.284;599616484378749562;7059.7734;190
2024-05-13T13:28:36.292;599616484386440655;7067.4644;217
2024-05-13T13:28:36.300;599616484394131748;7075.1553;224
2024-05-13T13:28:36.307;599616484401822841;7082.8467;205
2024-05-13T13:28:36.315;599616484409513934;7090.5376;200
2024-05-13T13:28:36.323;599616484417205027;7098.2285;221
2024-05-13T13:28:36.330;599616484424896120;7105.92;238
2024-05-13T13:28:36.338;599616484432587213;7113.611;234
2024-05-13T13:28:36.346;599616484440278306;7121.3022;231
2024-05-13T13:28:36.353;599616484447969399;7128.993;236
2024-05-13T13:28:36.361;599616484455660492;7136.684;236
2024-05-13T13:28:36.369;599616484463351585;7144.3755;229
2024-05-13T13:28:36.377;599616484471042678;7152.0664;231
2024-05-13T13:28:36.384;599616484478733771;7159.7573;250
2024-05-13T13:28:36.392;599616484486424864;7167.4487;265
2024-05-13T13:28:36.400;599616484494115957;7175.1396;231
2024-05-13T13:28:36.407;599616484501807050;7182.8306;149
2024-05-13T13:28:36.415;599616484509498143;7190.522;115
2024-05-13T13:28:36.423;599616484517189236;7198.213;142
2024-05-13T13:28:36.430;599616484524880329;7205.904;142
2024-05-13T13:28:36.438;599616484532571422;7213.595;135
2024-05-13T13:28:36.446;599616484540262515;7221.2866;152
2024-05-13T13:28:36.453;599616484547953608;7228.977;164
2024-05-13T13:28:36.461;599616484555644701;7236.6685;176
2024-05-13T13:28:36.469;599616484563335794;7244.36;193
2024-05-13T13:28:36.477;599616484571026887;7252.0503;207
2024-05-13T13:28:36.484;599616484578717980;7259.7417;209
2024-05-13T13:28:36.492;599616484586409073;7267.433;159
2024-05-13T13:28:36.500;599616484594100166;7275.1235;82
2024-05-13T13:28:36.507;599616484601791259;7282.815;53
2024-05-13T13:28:36.515;599616484609482352;7290.5063;60
2024-05-13T13:28:36.523;599616484617268802;7298.293;60
2024-05-13T13:28:36.530;599616484624958571;7305.9824;60
2024-05-13T13:28:36.538;599616484632648340;7313.6724;55
2024-05-13T13:28:36.546;599616484640338109;7321.362;33
2024-05-13T13:28:36.554;599616484648027878;7329.052;14
2024-05-13T13:28:36.561;599616484655717647;7336.741;79
2024-05-13T13:28:36.569;599616484663407416;7344.431;318
2024-05-13T13:28:36.577;599616484671097185;7352.1206;670
2024-05-13T13:28:36.584;599616484678786954;7359.8105;810
2024-05-13T13:28:36.592;599616484686476723;7367.5005;475
2024-05-13T13:28:36.600;599616484694166492;7375.19;-36
2024-05-13T13:28:36.607;599616484701856261;7382.88;-246
2024-05-13T13:28:36.615;599616484709546030;7390.57;-217
2024-05-13T13:28:36.623;599616484717235799;7398.26;-219
2024-05-13T13:28:36.630;599616484724925568;7405.949;-265
2024-05-13T13:28:36.638;599616484732615337;7413.639;-275
2024-05-13T13:28:36.646;599616484740305106;7421.329;-255
2024-05-13T13:28:36.654;599616484747994875;7429.0186;-226
2024-05-13T13:28:36.661;599616484755684644;7436.7085;-205
2024-05-13T13:28:36.669;599616484763374413;7444.398;-207
2024-05-13T13:28:36.677;599616484771064182;7452.088;-205
2024-05-13T13:28:36.684;599616484778753951;7459.7773;-166
2024-05-13T13:28:36.692;599616484786443720;7467.4673;-135
2024-05-13T13:28:36.700;599616484794133489;7475.157;-137
2024-05-13T13:28:36.707;599616484801823258;7482.8467;-120
2024-05-13T13:28:36.715;599616484809513027;7490.537;-77
2024-05-13T13:28:36.723;599616484817202796;7498.2266;-60
2024-05-13T13:28:36.730;599616484824892565;7505.9165;-57
2024-05-13T13:28:36.738;599616484832582334;7513.606;-55
2024-05-13T13:28:36.746;599616484840272103;7521.296;-57
2024-05-13T13:28:36.753;599616484847961872;7528.986;-28
2024-05-13T13:28:36.761;599616484855651641;7536.6753;-2
2024-05-13T13:28:36.769;599616484863341410;7544.365;4
2024-05-13T13:28:36.777;599616484871031179;7552.0547;31
2024-05-13T13:28:36.784;599616484878720948;7559.7446;67
2024-05-13T13:28:36.792;599616484886410717;7567.434;82
2024-05-13T13:28:36.800;599616484894100486;7575.124;108
2024-05-13T13:28:36.807;599616484901790255;7582.814;139
2024-05-13T13:28:36.815;599616484909480024;7590.504;130
2024-05-13T13:28:36.823;599616484917169793;7598.194;113
2024-05-13T13:28:36.830;599616484924859562;7605.8833;132
2024-05-13T13:28:36.838;599616484932549331;7613.573;152
2024-05-13T13:28:36.846;599616484940239100;7621.2627;135
2024-05-13T13:28:36.853;599616484947928869;7628.9526;113
2024-05-13T13:28:36.861;599616484955618638;7636.642;106
2024-05-13T13:28:36.869;599616484963308407;7644.332;94
2024-05-13T13:28:36.877;599616484970998176;7652.022;79
2024-05-13T13:28:36.884;599616484978687945;7659.7114;86
2024-05-13T13:28:36.892;599616484986377714;7667.4014;115
2024-05-13T13:28:36.900;599616484994067483;7675.091;115
2024-05-13T13:28:36.907;599616485001757252;7682.7812;38
2024-05-13T13:28:36.915;599616485009447021;7690.4707;-28
2024-05-13T13:28:36.923;599616485017136790;7698.1606;7
2024-05-13T13:28:36.930;599616485024826559;7705.8506;62
2024-05-13T13:28:36.938;599616485032516328;7713.54;57
2024-05-13T13:28:36.946;599616485040206097;7721.23;45
2024-05-13T13:28:36.953;599616485047895866;7728.9194;67
2024-05-13T13:28:36.961;599616485055585635;7736.6094;82
2024-05-13T13:28:36.969;599616485063275404;7744.299;77
2024-05-13T13:28:36.976;599616485070965173;7751.989;82
2024-05-13T13:28:36.984;599616485078654942;7759.678;77
2024-05-13T13:28:36.992;599616485086344711;7767.368;43
2024-05-13T13:28:37.000;599616485094034480;7775.0586;21
2024-05-13T13:28:37.007;599616485101724249;7782.748;41
2024-05-13T13:28:37.015;599616485109414018;7790.438;72
2024-05-13T13:28:37.023;599616485117103787;7798.1274;86
2024-05-13T13:28:37.030;599616485124793556;7805.8174;98
2024-05-13T13:28:37.038;599616485132483325;7813.507;108
2024-05-13T13:28:37.046;599616485140173094;7821.197;108
2024-05-13T13:28:37.053;599616485147862863;7828.8867;118
2024-05-13T13:28:37.061;599616485155552632;7836.576;135
2024-05-13T13:28:37.069;599616485163242401;7844.266;149
2024-05-13T13:28:37.076;599616485170932170;7851.9556;173
2024-05-13T13:28:37.084;599616485178581803;7859.6055;183
2024-05-13T13:28:37.092;599616485186272130;7867.296;161
2024-05-13T13:28:37.099;599616485193962457;7874.986;166
2024-05-13T13:28:37.107;599616485201652784;7882.677;202
2024-05-13T13:28:37.115;599616485209343111;7890.367;207
2024-05-13T13:28:37.123;599616485217033438;7898.057;195
2024-05-13T13:28:37.130;599616485224723765;7905.7476;209
2024-05-13T13:28:37.138;599616485232414092;7913.4375;209
2024-05-13T13:28:37.146;599616485240104419;7921.128;149
2024-05-13T13:28:37.153;599616485247794746;7928.819;79
2024-05-13T13:28:37.161;599616485255485073;7936.509;91
2024-05-13T13:28:37.169;599616485263175400;7944.199;142
2024-05-13T13:28:37.176;599616485270865727;7951.8896;127
2024-05-13T13:28:37.184;599616485278556054;7959.5796;91
2024-05-13T13:28:37.192;599616485286246381;7967.27;108
2024-05-13T13:28:37.199;599616485293936708;7974.9604;147
2024-05-13T13:28:37.207;599616485301627035;7982.651;149
2024-05-13T13:28:37.215;599616485309317362;7990.3413;149
2024-05-13T13:28:37.223;599616485317007689;7998.0312;152
2024-05-13T13:28:37.230;599616485324698016;8005.7217;113
2024-05-13T13:28:37.238;599616485332388343;8013.4116;65
2024-05-13T13:28:37.246;599616485340078670;8021.1025;65
2024-05-13T13:28:37.253;599616485347768997;8028.793;96
2024-05-13T13:28:37.261;599616485355459324;8036.483;113
2024-05-13T13:28:37.269;599616485363149651;8044.1733;115
2024-05-13T13:28:37.276;599616485370839978;8051.864;110
2024-05-13T13:28:37.284;599616485378530305;8059.5537;120
2024-05-13T13:28:37.292;599616485386220632;8067.2446;156
2024-05-13T13:28:37.299;599616485393910959;8074.9346;176
2024-05-13T13:28:37.307;599616485401601286;8082.625;180
2024-05-13T13:28:37.315;599616485409291613;8090.3154;190
2024-05-13T13:28:37.323;599616485416981940;8098.0054;183
2024-05-13T13:28:37.330;599616485424672267;8105.696;164
2024-05-13T13:28:37.338;599616485432362594;8113.3867;171
2024-05-13T13:28:37.346;599616485440052921;8121.0767;197
2024-05-13T13:28:37.353;599616485447743248;8128.767;207
2024-05-13T13:28:37.361;599616485455433575;8136.457;197
2024-05-13T13:28:37.369;599616485463123902;8144.1475;180
2024-05-13T13:28:37.376;599616485470814229;8151.838;166
2024-05-13T13:28:37.384;599616485478504556;8159.5283;154
2024-05-13T13:28:37.392;599616485486194883;8167.2188;209
2024-05-13T13:28:37.399;599616485493885210;8174.9087;468
2024-05-13T13:28:37.407;599616485501575537;8182.599;817
2024-05-13T13:28:37.415;599616485509265864;8190.2896;820
2024-05-13T13:28:37.422;599616485516956191;8197.9795;340
2024-05-13T13:28:37.430;599616485524646518;8205.67;-82
2024-05-13T13:28:37.438;599616485532336845;8213.36;-69
2024-05-13T13:28:37.446;599616485540027172;8221.051;12
2024-05-13T13:28:37.453;599616485547717499;8228.741;-67
2024-05-13T13:28:37.461;599616485555407826;8236.432;-94
2024-05-13T13:28:37.469;599616485563098153;8244.122;-50
2024-05-13T13:28:37.476;599616485570788480;8251.8125;-106
2024-05-13T13:28:37.484;599616485578478807;8259.503;-180
2024-05-13T13:28:37.492;599616485586169134;8267.192;-180
2024-05-13T13:28:37.499;599616485593859461;8274.883;-193
2024-05-13T13:28:37.507;599616485601549788;8282.573;-236
2024-05-13T13:28:37.515;599616485609240115;8290.264;-236
2024-05-13T13:28:37.522;599616485616930442;8297.954;-202
2024-05-13T13:28:37.530;599616485624620769;8305.645;-176
2024-05-13T13:28:37.538;599616485632311096;8313.335;-171
2024-05-13T13:28:37.546;599616485640001423;8321.025;-168
2024-05-13T13:28:37.553;599616485647691750;8328.715;-156
2024-05-13T13:28:37.561;599616485655382077;8336.406;-139
2024-05-13T13:28:37.569;599616485663072404;8344.097;-118
2024-05-13T13:28:37.576;599616485670762731;8351.786;-94
2024-05-13T13:28:37.584;599616485678453058;8359.477;-60
2024-05-13T13:28:37.592;599616485686143385;8367.167;-43
2024-05-13T13:28:37.599;599616485693833712;8374.857;-43
2024-05-13T13:28:37.607;599616485701524039;8382.548;-21
2024-05-13T13:28:37.615;599616485709214366;8390.238;24
2024-05-13T13:28:37.622;599616485716904693;8397.929;48
2024-05-13T13:28:37.630;599616485724595020;8405.619;50
2024-05-13T13:28:37.638;599616485732285347;8413.309;57
2024-05-13T13:28:37.646;599616485739990794;8421.015;74
2024-05-13T13:28:37.653;599616485747680911;8428.705;79
2024-05-13T13:28:37.661;599616485755371028;8436.395;67
2024-05-13T13:28:37.669;599616485763061145;8444.085;72
2024-05-13T13:28:37.676;599616485770751262;8451.775;91
2024-05-13T13:28:37.684;599616485778441379;8459.465;69
2024-05-13T13:28:37.692;599616485786131496;8467.155;14
2024-05-13T13:28:37.699;599616485793821613;8474.845;4
2024-05-13T13:28:37.707;599616485801511730;8482.535;38
2024-05-13T13:28:37.715;599616485809201847;8490.226;50
2024-05-13T13:28:37.722;599616485816891964;8497.916;24
2024-05-13T13:28:37.730;599616485824582081;8505.605;4
2024-05-13T13:28:37.738;599616485832272198;8513.296;2
2024-05-13T13:28:37.745;599616485839962315;8520.986;-24
2024-05-13T13:28:37.753;599616485847652432;8528.677;-72
2024-05-13T13:28:37.761;599616485855342549;8536.366;-62
2024-05-13T13:28:37.769;599616485863032666;8544.057;-14
2024-05-13T13:28:37.776;599616485870722783;8551.746;-48
2024-05-13T13:28:37.784;599616485878412900;8559.437;-130
2024-05-13T13:28:37.792;599616485886103017;8567.127;-120
2024-05-13T13:28:37.799;599616485893793134;8574.816;-65
2024-05-13T13:28:37.807;599616485901483251;8582.507;-96
2024-05-13T13:28:37.815;599616485909173368;8590.196;-139
2024-05-13T13:28:37.822;599616485916863485;8597.887;-101
2024-05-13T13:28:37.830;599616485924553602;8605.577;-69
2024-05-13T13:28:37.838;599616485932243719;8613.268;-77
2024-05-13T13:28:37.845;599616485939933836;8620.958;-55
2024-05-13T13:28:37.853;599616485947623953;8628.647;-9
2024-05-13T13:28:37.861;599616485955314070;8636.338;16
2024-05-13T13:28:37.869;599616485963004187;8644.027;12
2024-05-13T13:28:37.876;599616485970694304;8651.718;12
2024-05-13T13:28:37.884;599616485978384421;8659.408;41
2024-05-13T13:28:37.892;599616485986074538;8667.098;62
2024-05-13T13:28:37.899;599616485993764655;8674.788;62
2024-05-13T13:28:37.907;599616486001454772;8682.479;69
2024-05-13T13:28:37.915;599616486009144889;8690.169;48
2024-05-13T13:28:37.922;599616486016835006;8697.859;-36
2024-05-13T13:28:37.930;599616486024525123;8705.549;-72
2024-05-13T13:28:37.938;599616486032215240;8713.238;-21
2024-05-13T13:28:37.945;599616486039905357;8720.929;9
2024-05-13T13:28:37.953;599616486047595474;8728.619;16
2024-05-13T13:28:37.961;599616486055285591;8736.31;12
2024-05-13T13:28:37.968;599616486062975708;8743.999;-26
2024-05-13T13:28:37.976;599616486070665825;8751.689;-55
2024-05-13T13:28:37.984;599616486078355942;8759.38;-33
2024-05-13T13:28:37.992;599616486086046059;8767.07;-7
2024-05-13T13:28:37.999;599616486093736176;8774.76;9
2024-05-13T13:28:38.007;599616486101426293;8782.449;41
2024-05-13T13:28:38.015;599616486109116410;8790.14;45
2024-05-13T13:28:38.022;599616486116806527;8797.83;31
2024-05-13T13:28:38.030;599616486124496644;8805.5205;57
2024-05-13T13:28:38.038;599616486132186761;8813.211;108
2024-05-13T13:28:38.045;599616486139876878;8820.9;127
2024-05-13T13:28:38.053;599616486147566995;8828.591;118
2024-05-13T13:28:38.061;599616486155257112;8836.28;115
2024-05-13T13:28:38.068;599616486162947229;8843.971;139
2024-05-13T13:28:38.076;599616486170637346;8851.661;156
2024-05-13T13:28:38.084;599616486178327463;8859.351;149
2024-05-13T13:28:38.092;599616486186017580;8867.041;166
2024-05-13T13:28:38.099;599616486193707697;8874.731;197
2024-05-13T13:28:38.107;599616486201397814;8882.422;190
2024-05-13T13:28:38.115;599616486209087931;8890.112;185
2024-05-13T13:28:38.122;599616486216778048;8897.802;224
2024-05-13T13:28:38.130;599616486224468165;8905.491;255
2024-05-13T13:28:38.138;599616486232158282;8913.182;255
2024-05-13T13:28:38.145;599616486239848399;8920.872;250
2024-05-13T13:28:38.153;599616486247538516;8928.5625;238
2024-05-13T13:28:38.161;599616486255228633;8936.252;231
2024-05-13T13:28:38.168;599616486262918750;8943.942;243
2024-05-13T13:28:38.176;599616486270608867;8951.633;253
2024-05-13T13:28:38.184;599616486278298984;8959.323;265
2024-05-13T13:28:38.192;599616486285989101;8967.013;265
2024-05-13T13:28:38.199;599616486293679218;8974.702;243
2024-05-13T13:28:38.207;599616486301339236;8982.363;217
2024-05-13T13:28:38.215;599616486309029772;8990.054;185
2024-05-13T13:28:38.222;599616486316720308;8997.743;224
2024-05-13T13:28:38.230;599616486324410844;9005.435;470
2024-05-13T13:28:38.238;599616486332101380;9013.125;837
2024-05-13T13:28:38.245;599616486339791916;9020.815;921
2024-05-13T13:28:38.253;599616486347482452;9028.507;516
2024-05-13T13:28:38.261;599616486355172988;9036.197;38
2024-05-13T13:28:38.268;599616486362863524;9043.887;-24
2024-05-13T13:28:38.276;599616486370554060;9051.577;101
2024-05-13T13:28:38.284;599616486378244596;9059.269;67
2024-05-13T13:28:38.291;599616486385935132;9066.959;-2
2024-05-13T13:28:38.299;599616486393625668;9074.649;26
2024-05-13T13:28:38.307;599616486401316204;9082.341;57
2024-05-13T13:28:38.315;599616486409006740;9090.03;38
2024-05-13T13:28:38.322;599616486416697276;9097.721;12
2024-05-13T13:28:38.330;599616486424387812;9105.411;9
2024-05-13T13:28:38.338;599616486432078348;9113.103;9
2024-05-13T13:28:38.345;599616486439768884;9120.793;14
2024-05-13T13:28:38.353;599616486447459420;9128.482;24
2024-05-13T13:28:38.361;599616486455149956;9136.174;36
2024-05-13T13:28:38.368;599616486462840492;9143.864;67
2024-05-13T13:28:38.376;599616486470531028;9151.555;77
2024-05-13T13:28:38.384;599616486478221564;9159.245;57
2024-05-13T13:28:38.391;599616486485912100;9166.937;65
2024-05-13T13:28:38.399;599616486493602636;9174.626;72
2024-05-13T13:28:38.407;599616486501293172;9182.316;31
2024-05-13T13:28:38.415;599616486508983708;9190.008;-4
2024-05-13T13:28:38.422;599616486516674244;9197.698;-77
2024-05-13T13:28:38.430;599616486524364780;9205.389;-180
2024-05-13T13:28:38.438;599616486532055316;9213.078;-193
2024-05-13T13:28:38.445;599616486539745852;9220.77;-149
2024-05-13T13:28:38.453;599616486547436388;9228.46;-139
2024-05-13T13:28:38.461;599616486555126924;9236.15;-164
2024-05-13T13:28:38.468;599616486562817460;9243.842;-207
2024-05-13T13:28:38.476;599616486570507996;9251.532;-221
2024-05-13T13:28:38.484;599616486578198532;9259.222;-193
2024-05-13T13:28:38.491;599616486585889068;9266.913;-173
2024-05-13T13:28:38.499;599616486593579604;9274.604;-176
2024-05-13T13:28:38.507;599616486601270140;9282.294;-164
2024-05-13T13:28:38.514;599616486608960676;9289.984;-149
2024-05-13T13:28:38.522;599616486616651212;9297.675;-168
2024-05-13T13:28:38.530;599616486624341748;9305.365;-193
2024-05-13T13:28:38.538;599616486632032284;9313.056;-178
2024-05-13T13:28:38.545;599616486639722820;9320.747;-147
2024-05-13T13:28:38.553;599616486647413356;9328.4375;-123
2024-05-13T13:28:38.561;599616486655103892;9336.128;-108
2024-05-13T13:28:38.568;599616486662794428;9343.817;-98
2024-05-13T13:28:38.576;599616486670484964;9351.509;-82
2024-05-13T13:28:38.584;599616486678175500;9359.199;-53
2024-05-13T13:28:38.591;599616486685866036;9366.89;-31
2024-05-13T13:28:38.599;599616486693556572;9374.581;-12
2024-05-13T13:28:38.607;599616486701247108;9382.2705;16
2024-05-13T13:28:38.614;599616486708937644;9389.961;16
2024-05-13T13:28:38.622;599616486716628180;9397.651;2
2024-05-13T13:28:38.630;599616486724318716;9405.343;28
2024-05-13T13:28:38.638;599616486732009252;9413.033;79
2024-05-13T13:28:38.645;599616486739699788;9420.724;94
2024-05-13T13:28:38.653;599616486747390324;9428.414;84
2024-05-13T13:28:38.661;599616486755080860;9436.1045;82
2024-05-13T13:28:38.668;599616486762771396;9443.795;103
2024-05-13T13:28:38.676;599616486770461932;9451.485;120
2024-05-13T13:28:38.684;599616486778152468;9459.177;123
2024-05-13T13:28:38.691;599616486785843004;9466.866;144
2024-05-13T13:28:38.699;599616486793533540;9474.557;164
2024-05-13T13:28:38.707;599616486801224076;9482.248;127
2024-05-13T13:28:38.714;599616486808914612;9489.938;79
2024-05-13T13:28:38.722;599616486816605148;9497.629;96
2024-05-13T13:28:38.730;599616486824295684;9505.319;154
2024-05-13T13:28:38.738;599616486831986220;9513.01;166
2024-05-13T13:28:38.745;599616486839676756;9520.7;139
2024-05-13T13:28:38.753;599616486847367292;9528.391;144
2024-05-13T13:28:38.761;599616486855057828;9536.082;166
2024-05-13T13:28:38.768;599616486862778532;9543.802;166
2024-05-13T13:28:38.776;599616486870468649;9551.492;168
2024-05-13T13:28:38.784;599616486878158766;9559.183;202
2024-05-13T13:28:38.791;599616486885848883;9566.873;207
2024-05-13T13:28:38.799;599616486893539000;9574.5625;132
2024-05-13T13:28:38.807;599616486901229117;9582.253;79
2024-05-13T13:28:38.814;599616486908919234;9589.943;125
2024-05-13T13:28:38.822;599616486916609351;9597.634;159
2024-05-13T13:28:38.830;599616486924299468;9605.322;144
2024-05-13T13:28:38.838;599616486931989585;9613.013;144
2024-05-13T13:28:38.845;599616486939679702;9620.703;154
2024-05-13T13:28:38.853;599616486947369819;9628.394;156
2024-05-13T13:28:38.861;599616486955059936;9636.084;164
2024-05-13T13:28:38.868;599616486962750053;9643.774;185
2024-05-13T13:28:38.876;599616486970440170;9651.464;212
2024-05-13T13:28:38.884;599616486978130287;9659.154;217
2024-05-13T13:28:38.891;599616486985820404;9666.844;200
2024-05-13T13:28:38.899;599616486993510521;9674.534;202
2024-05-13T13:28:38.907;599616487001200638;9682.225;231
2024-05-13T13:28:38.914;599616487008890755;9689.914;236
2024-05-13T13:28:38.922;599616487016580872;9697.6045;221
2024-05-13T13:28:38.930;599616487024270989;9705.295;185
2024-05-13T13:28:38.937;599616487031961106;9712.985;101
2024-05-13T13:28:38.945;599616487039651223;9720.676;60
2024-05-13T13:28:38.953;599616487047341340;9728.364;86
2024-05-13T13:28:38.961;599616487055031457;9736.055;91
2024-05-13T13:28:38.968;599616487062721574;9743.745;86
2024-05-13T13:28:38.976;599616487070411691;9751.436;106
2024-05-13T13:28:38.984;599616487078101808;9759.126;91
2024-05-13T13:28:38.991;599616487085791925;9766.815;77
2024-05-13T13:28:38.999;599616487093482042;9774.506;108
2024-05-13T13:28:39.007;599616487101172159;9782.196;135
2024-05-13T13:28:39.014;599616487108862276;9789.887;137
2024-05-13T13:28:39.022;599616487116552393;9797.575;142
2024-05-13T13:28:39.030;599616487124242510;9805.266;144
2024-05-13T13:28:39.037;599616487131932627;9812.956;127
2024-05-13T13:28:39.045;599616487139622744;9820.646;115
2024-05-13T13:28:39.053;599616487147312861;9828.337;166
2024-05-13T13:28:39.061;599616487155002978;9836.027;371
2024-05-13T13:28:39.068;599616487162693095;9843.717;706
2024-05-13T13:28:39.076;599616487170383212;9851.407;926
2024-05-13T13:28:39.084;599616487178073329;9859.097;733
2024-05-13T13:28:39.091;599616487185763446;9866.787;275
2024-05-13T13:28:39.099;599616487193453563;9874.478;72
2024-05-13T13:28:39.107;599616487201143680;9882.167;173
2024-05-13T13:28:39.114;599616487208833797;9889.857;195
2024-05-13T13:28:39.122;599616487216523914;9897.548;120
2024-05-13T13:28:39.130;599616487224214031;9905.238;127
2024-05-13T13:28:39.137;599616487231904148;9912.929;154
2024-05-13T13:28:39.145;599616487239594265;9920.617;156
2024-05-13T13:28:39.153;599616487247284382;9928.308;183
2024-05-13T13:28:39.160;599616487254974499;9935.998;197
2024-05-13T13:28:39.168;599616487262664616;9943.688;185
2024-05-13T13:28:39.176;599616487270354733;9951.379;188
2024-05-13T13:28:39.184;599616487278044850;9959.068;200
2024-05-13T13:28:39.191;599616487285734967;9966.759;190
2024-05-13T13:28:39.199;599616487293425084;9974.449;171
2024-05-13T13:28:39.207;599616487301115201;9982.14;147
2024-05-13T13:28:39.214;599616487308805318;9989.828;130
2024-05-13T13:28:39.222;599616487316495435;9997.519;108
2024-05-13T13:28:39.230;599616487324185552;10005.209;91
2024-05-13T13:28:39.237;599616487331875669;10012.899;94
2024-05-13T13:28:39.245;599616487339565786;10020.59;98
2024-05-13T13:28:39.253;599616487347255903;10028.28;103
2024-05-13T13:28:39.260;599616487354946020;10035.97;118
2024-05-13T13:28:39.268;599616487362636137;10043.66;132
2024-05-13T13:28:39.276;599616487370326254;10051.35;144
2024-05-13T13:28:39.284;599616487378016371;10059.04;147
2024-05-13T13:28:39.291;599616487385706488;10066.73;156
2024-05-13T13:28:39.299;599616487393396605;10074.42;171
2024-05-13T13:28:39.307;599616487401086722;10082.11;147
2024-05-13T13:28:39.314;599616487408776839;10089.801;96
2024-05-13T13:28:39.322;599616487416466956;10097.491;62
2024-05-13T13:28:39.330;599616487424126974;10105.15;16
2024-05-13T13:28:39.337;599616487431817510;10112.841;-43
2024-05-13T13:28:39.345;599616487439508046;10120.532;-84
2024-05-13T13:28:39.353;599616487447198582;10128.223;-108
2024-05-13T13:28:39.360;599616487454889118;10135.912;-139
2024-05-13T13:28:39.368;599616487462579654;10143.604;-217
2024-05-13T13:28:39.376;599616487470270190;10151.294;-284
2024-05-13T13:28:39.383;599616487477960726;10158.984;-258
2024-05-13T13:28:39.391;599616487485651262;10166.676;-217
2024-05-13T13:28:39.399;599616487493341798;10174.365;-243
2024-05-13T13:28:39.407;599616487501032334;10182.056;-255
2024-05-13T13:28:39.414;599616487508722870;10189.746;-212
2024-05-13T13:28:39.422;599616487516413406;10197.4375;-176
2024-05-13T13:28:39.430;599616487524103942;10205.128;-185
2024-05-13T13:28:39.437;599616487531794478;10212.818;-253
2024-05-13T13:28:39.445;599616487539485014;10220.509;-357
2024-05-13T13:28:39.453;599616487547175550;10228.199;-395
2024-05-13T13:28:39.460;599616487554866086;10235.89;-352
2024-05-13T13:28:39.468;599616487562556622;10243.58;-311
2024-05-13T13:28:39.476;599616487570247158;10251.271;-284
2024-05-13T13:28:39.483;599616487577937694;10258.961;-258
2024-05-13T13:28:39.491;599616487585628230;10266.651;-243
2024-05-13T13:28:39.499;599616487593318766;10274.343;-221
2024-05-13T13:28:39.507;599616487601009302;10282.033;-178
2024-05-13T13:28:39.514;599616487608699838;10289.724;-152
2024-05-13T13:28:39.522;599616487616390374;10297.414;-135
2024-05-13T13:28:39.530;599616487624080910;10305.1045;-113
2024-05-13T13:28:39.537;599616487631771446;10312.795;-94
2024-05-13T13:28:39.545;599616487639461982;10320.485;-77
2024-05-13T13:28:39.553;599616487647152518;10328.177;-57
2024-05-13T13:28:39.560;599616487654843054;10335.867;-38
2024-05-13T13:28:39.568;599616487662533590;10343.557;-4
2024-05-13T13:28:39.576;599616487670224126;10351.247;26
2024-05-13T13:28:39.583;599616487677914662;10358.938;19
2024-05-13T13:28:39.591;599616487685605198;10366.629;14
2024-05-13T13:28:39.599;599616487693295734;10374.319;43
2024-05-13T13:28:39.607;599616487700986270;10382.011;67
2024-05-13T13:28:39.614;599616487708676806;10389.7;77
2024-05-13T13:28:39.622;599616487716367342;10397.391;94
2024-05-13T13:28:39.630;599616487724057878;10405.081;106
2024-05-13T13:28:39.637;599616487731748414;10412.772;103
2024-05-13T13:28:39.645;599616487739438950;10420.463;115
2024-05-13T13:28:39.653;599616487747129486;10428.152;149
2024-05-13T13:28:39.660;599616487754820022;10435.844;176
2024-05-13T13:28:39.668;599616487762510558;10443.534;166
2024-05-13T13:28:39.676;599616487770201094;10451.225;154
2024-05-13T13:28:39.683;599616487777891630;10458.916;161
2024-05-13T13:28:39.691;599616487785582166;10466.606;144
2024-05-13T13:28:39.699;599616487793272702;10474.296;101
2024-05-13T13:28:39.706;599616487800963238;10481.986;103
2024-05-13T13:28:39.714;599616487808653774;10489.678;132
2024-05-13T13:28:39.722;599616487816344310;10497.368;132
2024-05-13T13:28:39.730;599616487824034846;10505.059;125
2024-05-13T13:28:39.737;599616487831725382;10512.75;139
2024-05-13T13:28:39.745;599616487839415918;10520.439;166
2024-05-13T13:28:39.753;599616487847106454;10528.13;188
2024-05-13T13:28:39.760;599616487854796990;10535.82;185
2024-05-13T13:28:39.768;599616487862487526;10543.512;161
2024-05-13T13:28:39.776;599616487870178062;10551.202;171
2024-05-13T13:28:39.783;599616487877868598;10558.892;212
2024-05-13T13:28:39.791;599616487885559134;10566.583;236
2024-05-13T13:28:39.799;599616487893249670;10574.273;250
2024-05-13T13:28:39.806;599616487900940206;10581.964;263
2024-05-13T13:28:39.814;599616487908630742;10589.654;253
2024-05-13T13:28:39.822;599616487916321278;10597.346;226
2024-05-13T13:28:39.830;599616487924011814;10605.035;229
2024-05-13T13:28:39.837;599616487931702350;10612.726;265
2024-05-13T13:28:39.845;599616487939392886;10620.417;270
2024-05-13T13:28:39.853;599616487947083422;10628.107;246
2024-05-13T13:28:39.860;599616487954773958;10635.798;241
2024-05-13T13:28:39.868;599616487962464494;10643.487;253
2024-05-13T13:28:39.876;599616487970155030;10651.179;246
2024-05-13T13:28:39.883;599616487977845566;10658.869;224
2024-05-13T13:28:39.891;599616487985566270;10666.59;258
2024-05-13T13:28:39.899;599616487993256387;10674.28;441
2024-05-13T13:28:39.906;599616488000946504;10681.971;774
2024-05-13T13:28:39.914;599616488008636621;10689.66;1018
2024-05-13T13:28:39.922;599616488016326738;10697.351;844
2024-05-13T13:28:39.930;599616488024016855;10705.04;369
2024-05-13T13:28:39.937;599616488031706972;10712.73;101
2024-05-13T13:28:39.945;599616488039397089;10720.421;77
2024-05-13T13:28:39.953;599616488047087206;10728.111;4
2024-05-13T13:28:39.960;599616488054777323;10735.802;-60
2024-05-13T13:28:39.968;599616488062467440;10743.491;-79
2024-05-13T13:28:39.976;599616488070157557;10751.181;-135
2024-05-13T13:28:39.983;599616488077847674;10758.871;-137
2024-05-13T13:28:39.991;599616488085537791;10766.562;-79
2024-05-13T13:28:39.999;599616488093227908;10774.252;-82
2024-05-13T13:28:40.006;599616488100918025;10781.941;-89
2024-05-13T13:28:40.014;599616488108608142;10789.632;-36
2024-05-13T13:28:40.022;599616488116298259;10797.322;2
2024-05-13T13:28:40.030;599616488123988376;10805.013;0
2024-05-13T13:28:40.037;599616488131678493;10812.702;16
2024-05-13T13:28:40.045;599616488139368610;10820.392;48
2024-05-13T13:28:40.053;599616488147058727;10828.082;65
2024-05-13T13:28:40.060;599616488154748844;10835.772;77
2024-05-13T13:28:40.068;599616488162438961;10843.463;101
2024-05-13T13:28:40.076;599616488170129078;10851.153;130
2024-05-13T13:28:40.083;599616488177819195;10858.843;110
2024-05-13T13:28:40.091;599616488185509312;10866.533;65
2024-05-13T13:28:40.099;599616488193199429;10874.224;72
2024-05-13T13:28:40.106;599616488200889546;10881.913;118
2024-05-13T13:28:40.114;599616488208579663;10889.604;135
2024-05-13T13:28:40.122;599616488216269780;10897.293;135
2024-05-13T13:28:40.129;599616488223959897;10904.983;147
2024-05-13T13:28:40.137;599616488231650014;10912.674;161
2024-05-13T13:28:40.145;599616488239340131;10920.364;156
2024-05-13T13:28:40.153;599616488247030248;10928.055;144
2024-05-13T13:28:40.160;599616488254720365;10935.744;135
2024-05-13T13:28:40.168;599616488262410482;10943.434;110
2024-05-13T13:28:40.176;599616488270100599;10951.124;62
2024-05-13T13:28:40.183;599616488277790716;10958.814;-21
2024-05-13T13:28:40.191;599616488285480833;10966.505;-115
2024-05-13T13:28:40.199;599616488293170950;10974.194;-152
2024-05-13T13:28:40.206;599616488300861067;10981.885;-147
2024-05-13T13:28:40.214;599616488308551184;10989.575;-156
2024-05-13T13:28:40.222;599616488316241301;10997.266;-168
2024-05-13T13:28:40.229;599616488323931418;11004.955;-168
2024-05-13T13:28:40.237;599616488331621535;11012.645;-161
2024-05-13T13:28:40.245;599616488339311652;11020.335;-147
2024-05-13T13:28:40.253;599616488347001769;11028.025;-130
2024-05-13T13:28:40.260;599616488354691886;11035.716;-108
2024-05-13T13:28:40.268;599616488362382003;11043.406;-101
2024-05-13T13:28:40.276;599616488370072120;11051.096;-110
2024-05-13T13:28:40.283;599616488377762237;11058.786;-89
2024-05-13T13:28:40.291;599616488385452354;11066.477;-50
2024-05-13T13:28:40.299;599616488393142471;11074.166;-43
2024-05-13T13:28:40.306;599616488400832588;11081.856;-43
2024-05-13T13:28:40.314;599616488408522705;11089.546;-21
2024-05-13T13:28:40.322;599616488416212822;11097.236;-9
2024-05-13T13:28:40.329;599616488423902939;11104.927;-16
2024-05-13T13:28:40.337;599616488431593056;11112.617;-2
2024-05-13T13:28:40.345;599616488439283173;11120.308;33
2024-05-13T13:28:40.352;599616488446973290;11127.997;60
2024-05-13T13:28:40.360;599616488454663407;11135.687;57
2024-05-13T13:28:40.368;599616488462353524;11143.377;43
2024-05-13T13:28:40.376;599616488470043641;11151.067;55
2024-05-13T13:28:40.383;599616488477733758;11158.758;84
2024-05-13T13:28:40.391;599616488485423875;11166.447;86
2024-05-13T13:28:40.399;599616488493113992;11174.138;91
2024-05-13T13:28:40.406;599616488500804109;11181.828;118
2024-05-13T13:28:40.414;599616488508494226;11189.519;120
2024-05-13T13:28:40.422;599616488516184343;11197.208;96
2024-05-13T13:28:40.429;599616488523874460;11204.897;82
2024-05-13T13:28:40.437;599616488531564577;11212.588;62
2024-05-13T13:28:40.445;599616488539254694;11220.278;12
2024-05-13T13:28:40.452;599616488546914712;11227.938;-50
2024-05-13T13:28:40.460;599616488554605248;11235.629;-57
2024-05-13T13:28:40.468;599616488562295784;11243.319;-19
2024-05-13T13:28:40.476;599616488569986320;11251.01;2
2024-05-13T13:28:40.483;599616488577676856;11258.701;7
2024-05-13T13:28:40.491;599616488585367392;11266.391;38
2024-05-13T13:28:40.499;599616488593057928;11274.081;69
2024-05-13T13:28:40.506;599616488600748464;11281.772;2
2024-05-13T13:28:40.514;599616488608439000;11289.463;-103
2024-05-13T13:28:40.522;599616488616129536;11297.153;-86
2024-05-13T13:28:40.529;599616488623820072;11304.844;-31
2024-05-13T13:28:40.537;599616488631510608;11312.534;-98
2024-05-13T13:28:40.545;599616488639201144;11320.225;-205
2024-05-13T13:28:40.552;599616488646891680;11327.915;-200
2024-05-13T13:28:40.560;599616488654582216;11335.606;-147
2024-05-13T13:28:40.568;599616488662272752;11343.297;-139
2024-05-13T13:28:40.575;599616488669963288;11350.986;-120
2024-05-13T13:28:40.583;599616488677653824;11358.678;-67
2024-05-13T13:28:40.591;599616488685344360;11366.368;-41
2024-05-13T13:28:40.599;599616488693034896;11374.059;-45
2024-05-13T13:28:40.606;599616488700725432;11381.749;-12
2024-05-13T13:28:40.614;599616488708415968;11389.44;45
2024-05-13T13:28:40.622;599616488716106504;11397.13;69
2024-05-13T13:28:40.629;599616488723797040;11404.82;74
2024-05-13T13:28:40.637;599616488731487576;11412.512;89
2024-05-13T13:28:40.645;599616488739178112;11420.202;101
2024-05-13T13:28:40.652;599616488746868648;11427.893;118
2024-05-13T13:28:40.660;599616488754559184;11435.582;130
2024-05-13T13:28:40.668;599616488762249720;11443.273;132
2024-05-13T13:28:40.675;599616488769940256;11450.964;125
2024-05-13T13:28:40.683;599616488777630792;11458.654;89
2024-05-13T13:28:40.691;599616488785321328;11466.346;43
2024-05-13T13:28:40.699;599616488793011864;11474.036;43
2024-05-13T13:28:40.706;599616488800702400;11481.726;144
2024-05-13T13:28:40.714;599616488808392936;11489.416;415
2024-05-13T13:28:40.722;599616488816083472;11497.107;796
2024-05-13T13:28:40.729;599616488823774008;11504.798;960
2024-05-13T13:28:40.737;599616488831464544;11512.488;620
2024-05-13T13:28:40.745;599616488839155080;11520.18;137
2024-05-13T13:28:40.752;599616488846845616;11527.869;50
2024-05-13T13:28:40.760;599616488854536152;11535.56;188
2024-05-13T13:28:40.768;599616488862226688;11543.25;180
2024-05-13T13:28:40.775;599616488869917224;11550.941;127
2024-05-13T13:28:40.783;599616488877607760;11558.632;142
2024-05-13T13:28:40.791;599616488885298296;11566.321;159
2024-05-13T13:28:40.799;599616488892988832;11574.013;176
2024-05-13T13:28:40.806;599616488900679368;11581.703;197
2024-05-13T13:28:40.814;599616488908369904;11589.394;200
2024-05-13T13:28:40.822;599616488916060440;11597.084;207
2024-05-13T13:28:40.829;599616488923750976;11604.775;226
2024-05-13T13:28:40.837;599616488931441512;11612.465;231
2024-05-13T13:28:40.845;599616488939132048;11620.155;231
2024-05-13T13:28:40.852;599616488946822584;11627.847;243
2024-05-13T13:28:40.860;599616488954513120;11635.537;270
2024-05-13T13:28:40.868;599616488962203656;11643.228;287
2024-05-13T13:28:40.875;599616488969894192;11650.918;275
2024-05-13T13:28:40.883;599616488977584728;11658.608;284
2024-05-13T13:28:40.891;599616488985275264;11666.299;318
2024-05-13T13:28:40.898;599616488992965800;11673.989;320
2024-05-13T13:28:40.906;599616489000656336;11681.681;306
2024-05-13T13:28:40.914;599616489008346872;11689.371;284
2024-05-13T13:28:40.922;599616489016037408;11697.061;231
2024-05-13T13:28:40.929;599616489023727944;11704.752;171
2024-05-13T13:28:40.937;599616489031418480;11712.442;154
2024-05-13T13:28:40.945;599616489039109016;11720.133;127
2024-05-13T13:28:40.952;599616489046799552;11727.823;53
2024-05-13T13:28:40.960;599616489054490088;11735.514;4
2024-05-13T13:28:40.968;599616489062180624;11743.204;16
2024-05-13T13:28:40.975;599616489069871160;11750.895;26
2024-05-13T13:28:40.983;599616489077561696;11758.586;14
2024-05-13T13:28:40.991;599616489085252232;11766.276;-14
2024-05-13T13:28:40.998;599616489092942768;11773.967;-53
2024-05-13T13:28:41.006;599616489100633304;11781.656;-89
2024-05-13T13:28:41.014;599616489108354008;11789.378;-142
2024-05-13T13:28:41.022;599616489116044125;11797.067;-200
2024-05-13T13:28:41.029;599616489123734242;11804.758;-209
2024-05-13T13:28:41.037;599616489131424359;11812.448;-183
2024-05-13T13:28:41.045;599616489139114476;11820.139;-173
2024-05-13T13:28:41.052;599616489146804593;11827.829;-185
2024-05-13T13:28:41.060;599616489154494710;11835.518;-188
2024-05-13T13:28:41.068;599616489162184827;11843.208;-171
2024-05-13T13:28:41.075;599616489169874944;11850.898;-188
2024-05-13T13:28:41.083;599616489177565061;11858.589;-253
2024-05-13T13:28:41.091;599616489185255178;11866.279;-253
2024-05-13T13:28:41.098;599616489192945295;11873.969;-202
2024-05-13T13:28:41.106;599616489200635412;11881.659;-202
2024-05-13T13:28:41.114;599616489208325529;11889.35;-214
2024-05-13T13:28:41.122;599616489216015646;11897.039;-173
2024-05-13T13:28:41.129;599616489223705763;11904.7295;-132
2024-05-13T13:28:41.137;599616489231395880;11912.419;-123
2024-05-13T13:28:41.145;599616489239085997;11920.109;-115
2024-05-13T13:28:41.152;599616489246776114;11927.8;-101
2024-05-13T13:28:41.160;599616489254466231;11935.49;-74
2024-05-13T13:28:41.168;599616489262156348;11943.181;-67
2024-05-13T13:28:41.175;599616489269846465;11950.87;-86
2024-05-13T13:28:41.183;599616489277536582;11958.561;-72
2024-05-13T13:28:41.191;599616489285226699;11966.25;-36
2024-05-13T13:28:41.198;599616489292916816;11973.94;-43
2024-05-13T13:28:41.206;599616489300606933;11981.631;-48
2024-05-13T13:28:41.214;599616489308297050;11989.32;-2
2024-05-13T13:28:41.222;599616489315987167;11997.011;36
2024-05-13T13:28:41.229;599616489323677284;12004.701;41
2024-05-13T13:28:41.237;599616489331367401;12012.392;53
2024-05-13T13:28:41.245;599616489339057518;12020.082;67
2024-05-13T13:28:41.252;599616489346747635;12027.7705;74
2024-05-13T13:28:41.260;599616489354437752;12035.461;89
2024-05-13T13:28:41.268;599616489362127869;12043.151;113
2024-05-13T13:28:41.275;599616489369817986;12050.842;144
2024-05-13T13:28:41.283;599616489377508103;12058.532;159
2024-05-13T13:28:41.291;599616489385198220;12066.222;149
2024-05-13T13:28:41.298;599616489392888337;12073.912;152
2024-05-13T13:28:41.306;599616489400578454;12081.603;188
2024-05-13T13:28:41.314;599616489408268571;12089.292;214
2024-05-13T13:28:41.321;599616489415958688;12096.982;212
2024-05-13T13:28:41.329;599616489423648805;12104.672;217
2024-05-13T13:28:41.337;599616489431338922;12112.362;231
2024-05-13T13:28:41.345;599616489439029039;12120.053;231
2024-05-13T13:28:41.352;599616489446719156;12127.743;234
2024-05-13T13:28:41.360;599616489454409273;12135.434;253
2024-05-13T13:28:41.368;599616489462099390;12143.123;265
2024-05-13T13:28:41.375;599616489469789507;12150.813;260
2024-05-13T13:28:41.383;599616489477479624;12158.503;248
2024-05-13T13:28:41.391;599616489485169741;12166.193;253
2024-05-13T13:28:41.398;599616489492859858;12173.884;279
2024-05-13T13:28:41.406;599616489500549975;12181.573;296
2024-05-13T13:28:41.414;599616489508240092;12189.264;282
2024-05-13T13:28:41.421;599616489515930209;12196.954;246
2024-05-13T13:28:41.429;599616489523620326;12204.645;224
2024-05-13T13:28:41.437;599616489531310443;12212.335;241
2024-05-13T13:28:41.445;599616489539000560;12220.023;255
2024-05-13T13:28:41.452;599616489546690677;12227.714;234
2024-05-13T13:28:41.460;599616489554380794;12235.404;173
2024-05-13T13:28:41.468;599616489562070911;12243.095;123
2024-05-13T13:28:41.475;599616489569761028;12250.785;110
2024-05-13T13:28:41.483;599616489577451145;12258.475;123
2024-05-13T13:28:41.491;599616489585141262;12266.165;142
2024-05-13T13:28:41.498;599616489592831379;12273.855;154
2024-05-13T13:28:41.506;599616489600521496;12281.545;166
2024-05-13T13:28:41.514;599616489608211613;12289.235;185
2024-05-13T13:28:41.521;599616489615901730;12296.925;185
2024-05-13T13:28:41.529;599616489623591847;12304.615;154
2024-05-13T13:28:41.537;599616489631281964;12312.306;168
2024-05-13T13:28:41.544;599616489638972081;12319.996;337
2024-05-13T13:28:41.552;599616489646662198;12327.687;685
2024-05-13T13:28:41.560;599616489654352315;12335.376;998
2024-05-13T13:28:41.568;599616489662042432;12343.066;907
2024-05-13T13:28:41.575;599616489669702450;12350.727;439
2024-05-13T13:28:41.583;599616489677392986;12358.416;137
2024-05-13T13:28:41.591;599616489685083522;12366.107;209
2024-05-13T13:28:41.598;599616489692774058;12373.798;277
2024-05-13T13:28:41.606;599616489700464594;12381.488;200
2024-05-13T13:28:41.614;599616489708155130;12389.179;152
2024-05-13T13:28:41.621;599616489715845666;12396.87;110
2024-05-13T13:28:41.629;599616489723536202;12404.56;77
2024-05-13T13:28:41.637;599616489731226738;12412.25;115
2024-05-13T13:28:41.644;599616489738917274;12419.941;149
2024-05-13T13:28:41.652;599616489746607810;12427.632;130
2024-05-13T13:28:41.660;599616489754298346;12435.322;98
2024-05-13T13:28:41.668;599616489761988882;12443.012;74
2024-05-13T13:28:41.675;599616489769679418;12450.703;69
2024-05-13T13:28:41.683;599616489777369954;12458.394;91
2024-05-13T13:28:41.691;599616489785060490;12466.084;127
2024-05-13T13:28:41.698;599616489792751026;12473.775;159
2024-05-13T13:28:41.706;599616489800441562;12481.466;164
2024-05-13T13:28:41.714;599616489808132098;12489.155;166
2024-05-13T13:28:41.721;599616489815822634;12496.847;190
2024-05-13T13:28:41.729;599616489823513170;12504.537;219
2024-05-13T13:28:41.737;599616489831203706;12512.228;224
2024-05-13T13:28:41.744;599616489838894242;12519.918;195
2024-05-13T13:28:41.752;599616489846584778;12527.608;176
2024-05-13T13:28:41.760;599616489854275314;12535.299;195
2024-05-13T13:28:41.767;599616489861965850;12542.989;214
2024-05-13T13:28:41.775;599616489869656386;12550.681;217
2024-05-13T13:28:41.783;599616489877346922;12558.371;231
2024-05-13T13:28:41.791;599616489885037458;12566.062;243
2024-05-13T13:28:41.798;599616489892727994;12573.751;221
2024-05-13T13:28:41.806;599616489900418530;12581.442;205
2024-05-13T13:28:41.814;599616489908109066;12589.133;217
2024-05-13T13:28:41.821;599616489915799602;12596.823;209
2024-05-13T13:28:41.829;599616489923490138;12604.515;154
2024-05-13T13:28:41.837;599616489931180674;12612.204;89
2024-05-13T13:28:41.844;599616489938871210;12619.895;38
2024-05-13T13:28:41.852;599616489946561746;12627.585;-12
2024-05-13T13:28:41.860;599616489954252282;12635.276;-45
2024-05-13T13:28:41.867;599616489961942818;12642.967;-50
2024-05-13T13:28:41.875;599616489969633354;12650.657;-43
2024-05-13T13:28:41.883;599616489977323890;12658.348;-43
2024-05-13T13:28:41.891;599616489985014426;12666.038;-55
2024-05-13T13:28:41.898;599616489992704962;12673.729;-55
2024-05-13T13:28:41.906;599616490000395498;12681.419;-50
2024-05-13T13:28:41.914;599616490008086034;12689.11;-86
2024-05-13T13:28:41.921;599616490015776570;12696.8;-113
2024-05-13T13:28:41.929;599616490023467106;12704.49;-94
2024-05-13T13:28:41.937;599616490031157642;12712.182;-84
2024-05-13T13:28:41.944;599616490038848178;12719.872;-96
2024-05-13T13:28:41.952;599616490046538714;12727.5625;-123
2024-05-13T13:28:41.960;599616490054229250;12735.253;-178
2024-05-13T13:28:41.967;599616490061919786;12742.943;-202
2024-05-13T13:28:41.975;599616490069610322;12750.634;-180
2024-05-13T13:28:41.983;599616490077300858;12758.324;-173
2024-05-13T13:28:41.991;599616490084991394;12766.016;-164
2024-05-13T13:28:41.998;599616490092681930;12773.706;-120
2024-05-13T13:28:42.006;599616490100372466;12781.3955;-82
2024-05-13T13:28:42.014;599616490108063002;12789.086;-65
2024-05-13T13:28:42.021;599616490115753538;12796.777;-45
2024-05-13T13:28:42.029;599616490123444074;12804.468;-33
2024-05-13T13:28:42.037;599616490131134610;12812.158;-33
2024-05-13T13:28:42.044;599616490138825146;12819.85;-16
2024-05-13T13:28:42.052;599616490146515682;12827.539;21
2024-05-13T13:28:42.060;599616490154206218;12835.2295;48
2024-05-13T13:28:42.067;599616490161896754;12842.921;50
2024-05-13T13:28:42.075;599616490169587290;12850.611;50
2024-05-13T13:28:42.083;599616490177277826;12858.302;67
2024-05-13T13:28:42.090;599616490184968362;12865.991;98
2024-05-13T13:28:42.098;599616490192658898;12873.683;118
2024-05-13T13:28:42.106;599616490200349434;12881.373;125
2024-05-13T13:28:42.114;599616490208039970;12889.063;139
2024-05-13T13:28:42.121;599616490215730506;12896.755;147
2024-05-13T13:28:42.129;599616490223421042;12904.445;147
2024-05-13T13:28:42.137;599616490231141746;12912.166;156
2024-05-13T13:28:42.144;599616490238831863;12919.855;188
2024-05-13T13:28:42.152;599616490246521980;12927.545;193
2024-05-13T13:28:42.160;599616490254212097;12935.235;149
2024-05-13T13:28:42.167;599616490261902214;12942.926;130
2024-05-13T13:28:42.175;599616490269592331;12950.616;159
2024-05-13T13:28:42.183;599616490277282448;12958.307;159
2024-05-13T13:28:42.190;599616490284972565;12965.996;103
2024-05-13T13:28:42.198;599616490292662682;12973.687;84
2024-05-13T13:28:42.206;599616490300352799;12981.376;127
2024-05-13T13:28:42.214;599616490308042916;12989.066;137
2024-05-13T13:28:42.221;599616490315733033;12996.757;108
2024-05-13T13:28:42.229;599616490323423150;13004.446;123
2024-05-13T13:28:42.237;599616490331113267;13012.137;168
2024-05-13T13:28:42.244;599616490338803384;13019.827;190
2024-05-13T13:28:42.252;599616490346493501;13027.518;183
2024-05-13T13:28:42.260;599616490354183618;13035.208;178
2024-05-13T13:28:42.267;599616490361873735;13042.897;190
2024-05-13T13:28:42.275;599616490369563852;13050.587;205
2024-05-13T13:28:42.283;599616490377253969;13058.277;202
2024-05-13T13:28:42.290;599616490384944086;13065.968;217
2024-05-13T13:28:42.298;599616490392634203;13073.658;255
2024-05-13T13:28:42.306;599616490400324320;13081.348;263
2024-05-13T13:28:42.314;599616490408014437;13089.038;243
2024-05-13T13:28:42.321;599616490415704554;13096.729;263
2024-05-13T13:28:42.329;599616490423394671;13104.419;291
2024-05-13T13:28:42.337;599616490431084788;13112.108;282
2024-05-13T13:28:42.344;599616490438774905;13119.798;260
2024-05-13T13:28:42.352;599616490446465022;13127.488;253
2024-05-13T13:28:42.360;599616490454155139;13135.179;255
2024-05-13T13:28:42.367;599616490461845256;13142.869;260
2024-05-13T13:28:42.375;599616490469535373;13150.56;263
2024-05-13T13:28:42.383;599616490477225490;13158.249;267
2024-05-13T13:28:42.390;599616490484915607;13165.939;253
2024-05-13T13:28:42.398;599616490492605724;13173.629;234
2024-05-13T13:28:42.406;599616490500295841;13181.319;337
2024-05-13T13:28:42.414;599616490507985958;13189.01;665
2024-05-13T13:28:42.421;599616490515676075;13196.699;989
2024-05-13T13:28:42.429;599616490523366192;13204.39;873
2024-05-13T13:28:42.437;599616490531056309;13212.08;378
2024-05-13T13:28:42.444;599616490538746426;13219.7705;94
2024-05-13T13:28:42.452;599616490546436543;13227.461;180
2024-05-13T13:28:42.460;599616490554126660;13235.15;219
2024-05-13T13:28:42.467;599616490561816777;13242.84;86
2024-05-13T13:28:42.475;599616490569506894;13250.53;28
2024-05-13T13:28:42.483;599616490577197011;13258.221;67
2024-05-13T13:28:42.490;599616490584887128;13265.911;60
2024-05-13T13:28:42.498;599616490592577245;13273.601;45
2024-05-13T13:28:42.506;599616490600267362;13281.291;89
2024-05-13T13:28:42.513;599616490607957479;13288.981;118
2024-05-13T13:28:42.521;599616490615647596;13296.672;108
2024-05-13T13:28:42.529;599616490623337713;13304.361;120
2024-05-13T13:28:42.537;599616490631027830;13312.051;142
2024-05-13T13:28:42.544;599616490638717947;13319.741;139
2024-05-13T13:28:42.552;599616490646408064;13327.432;142
2024-05-13T13:28:42.560;599616490654098181;13335.122;166
2024-05-13T13:28:42.567;599616490661788298;13342.8125;183
2024-05-13T13:28:42.575;599616490669478415;13350.502;156
2024-05-13T13:28:42.583;599616490677168532;13358.192;106
2024-05-13T13:28:42.590;599616490684858649;13365.882;101
2024-05-13T13:28:42.598;599616490692548766;13373.572;132
2024-05-13T13:28:42.606;599616490700238883;13381.263;137
2024-05-13T13:28:42.613;599616490707929000;13388.952;135
2024-05-13T13:28:42.621;599616490715619117;13396.643;154
2024-05-13T13:28:42.629;599616490723309234;13404.333;159
2024-05-13T13:28:42.637;599616490730999351;13412.023;144
2024-05-13T13:28:42.644;599616490738689468;13419.714;123
2024-05-13T13:28:42.652;599616490746379585;13427.403;79
2024-05-13T13:28:42.660;599616490754069702;13435.093;31
2024-05-13T13:28:42.667;599616490761759819;13442.783;-16
2024-05-13T13:28:42.675;599616490769449936;13450.474;-74
2024-05-13T13:28:42.683;599616490777140053;13458.164;-130
2024-05-13T13:28:42.690;599616490784830170;13465.854;-159
2024-05-13T13:28:42.698;599616490792490188;13473.514;-188
2024-05-13T13:28:42.706;599616490800180724;13481.205;-212
2024-05-13T13:28:42.713;599616490807871260;13488.895;-212
2024-05-13T13:28:42.721;599616490815561796;13496.585;-238
2024-05-13T13:28:42.729;599616490823252332;13504.276;-313
2024-05-13T13:28:42.736;599616490830942868;13511.967;-345
2024-05-13T13:28:42.744;599616490838633404;13519.657;-301
2024-05-13T13:28:42.752;599616490846323940;13527.348;-287
2024-05-13T13:28:42.760;599616490854014476;13535.038;-366
2024-05-13T13:28:42.767;599616490861705012;13542.729;-419
2024-05-13T13:28:42.775;599616490869395548;13550.419;-369
2024-05-13T13:28:42.783;599616490877086084;13558.11;-318
2024-05-13T13:28:42.790;599616490884776620;13565.801;-323
2024-05-13T13:28:42.798;599616490892467156;13573.49;-301
2024-05-13T13:28:42.806;599616490900157692;13581.181;-258
2024-05-13T13:28:42.813;599616490907848228;13588.872;-253
2024-05-13T13:28:42.821;599616490915538764;13596.5625;-255
2024-05-13T13:28:42.829;599616490923229300;13604.253;-219
2024-05-13T13:28:42.836;599616490930919836;13611.944;-173
2024-05-13T13:28:42.844;599616490938610372;13619.634;-149
2024-05-13T13:28:42.852;599616490946300908;13627.324;-137
2024-05-13T13:28:42.860;599616490953991444;13635.015;-127
2024-05-13T13:28:42.867;599616490961681980;13642.706;-110
2024-05-13T13:28:42.875;599616490969372516;13650.396;-89
2024-05-13T13:28:42.883;599616490977063052;13658.086;-77
2024-05-13T13:28:42.890;599616490984753588;13665.777;-82
2024-05-13T13:28:42.898;599616490992444124;13673.468;-106
2024-05-13T13:28:42.906;599616491000134660;13681.158;-137
2024-05-13T13:28:42.913;599616491007825196;13688.85;-130
2024-05-13T13:28:42.921;599616491015515732;13696.54;-84
2024-05-13T13:28:42.929;599616491023206268;13704.2295;-50
2024-05-13T13:28:42.936;599616491030896804;13711.92;-50
2024-05-13T13:28:42.944;599616491038587340;13719.611;-55
2024-05-13T13:28:42.952;599616491046277876;13727.302;-38
2024-05-13T13:28:42.959;599616491053968412;13734.992;-28
2024-05-13T13:28:42.967;599616491061658948;13742.684;-72
2024-05-13T13:28:42.975;599616491069349484;13750.373;-123
2024-05-13T13:28:42.983;599616491077040020;13758.063;-91
2024-05-13T13:28:42.990;599616491084730556;13765.754;-48
2024-05-13T13:28:42.998;599616491092421092;13773.445;-69
2024-05-13T13:28:43.006;599616491100111628;13781.136;-67
2024-05-13T13:28:43.013;599616491107802164;13788.825;-16
2024-05-13T13:28:43.021;599616491115492700;13796.517;12
2024-05-13T13:28:43.029;599616491123183236;13804.207;12
2024-05-13T13:28:43.036;599616491130873772;13811.897;16
2024-05-13T13:28:43.044;599616491138564308;13819.588;26
2024-05-13T13:28:43.052;599616491146254844;13827.279;38
2024-05-13T13:28:43.059;599616491153945380;13834.969;57
2024-05-13T13:28:43.067;599616491161635916;13842.659;79
2024-05-13T13:28:43.075;599616491169326452;13850.351;108
2024-05-13T13:28:43.083;599616491177016988;13858.041;125
2024-05-13T13:28:43.090;599616491184707524;13865.731;110
2024-05-13T13:28:43.098;599616491192398060;13873.421;110
2024-05-13T13:28:43.106;599616491200088596;13881.112;149
2024-05-13T13:28:43.113;599616491207779132;13888.803;166
2024-05-13T13:28:43.121;599616491215469668;13896.493;161
2024-05-13T13:28:43.129;599616491223160204;13904.185;176
2024-05-13T13:28:43.136;599616491230850740;13911.875;159
2024-05-13T13:28:43.144;599616491238541276;13919.564;101
2024-05-13T13:28:43.152;599616491246231812;13927.255;77
2024-05-13T13:28:43.159;599616491253922348;13934.946;101
2024-05-13T13:28:43.167;599616491261612884;13942.637;123
2024-05-13T13:28:43.175;599616491269303420;13950.327;120
2024-05-13T13:28:43.183;599616491276993956;13958.018;110
2024-05-13T13:28:43.190;599616491284684492;13965.708;137
2024-05-13T13:28:43.198;599616491292375028;13973.398;188
2024-05-13T13:28:43.206;599616491300065564;13981.089;190
2024-05-13T13:28:43.213;599616491307756100;13988.78;173
2024-05-13T13:28:43.221;599616491315446636;13996.471;190
2024-05-13T13:28:43.229;599616491323137172;14004.16;195
2024-05-13T13:28:43.236;599616491330827708;14011.852;176
2024-05-13T13:28:43.244;599616491338518244;14019.542;171
2024-05-13T13:28:43.252;599616491346208780;14027.232;197
2024-05-13T13:28:43.259;599616491353899316;14034.924;217
2024-05-13T13:28:43.267;599616491361589852;14042.613;207
2024-05-13T13:28:43.275;599616491369280388;14050.304;173
2024-05-13T13:28:43.282;599616491376970924;14057.994;149
2024-05-13T13:28:43.290;599616491384661460;14065.686;183
2024-05-13T13:28:43.298;599616491392351996;14073.376;349
2024-05-13T13:28:43.306;599616491400042532;14081.066;697
2024-05-13T13:28:43.313;599616491407733068;14088.757;994
2024-05-13T13:28:43.321;599616491415423604;14096.447;827
2024-05-13T13:28:43.329;599616491423114140;14104.138;270
2024-05-13T13:28:43.336;599616491430804676;14111.828;-38
2024-05-13T13:28:43.344;599616491438495212;14119.52;67
2024-05-13T13:28:43.352;599616491446185748;14127.209;127
2024-05-13T13:28:43.359;599616491453876284;14134.899;33
2024-05-13T13:28:43.367;599616491461566820;14142.591;19
2024-05-13T13:28:43.375;599616491469257356;14150.281;72
2024-05-13T13:28:43.382;599616491476947892;14157.972;62
2024-05-13T13:28:43.390;599616491484638428;14165.662;26
2024-05-13T13:28:43.398;599616491492328964;14173.353;31
2024-05-13T13:28:43.406;599616491500019500;14181.043;53
2024-05-13T13:28:43.413;599616491507710036;14188.733;24
2024-05-13T13:28:43.421;599616491515400572;14196.425;-21
2024-05-13T13:28:43.429;599616491523091108;14204.115;-19
2024-05-13T13:28:43.436;599616491530781644;14211.806;16
2024-05-13T13:28:43.444;599616491538472180;14219.495;31
2024-05-13T13:28:43.452;599616491546162716;14227.187;14
2024-05-13T13:28:43.459;599616491553853252;14234.877;7
2024-05-13T13:28:43.467;599616491561543788;14242.567;26
2024-05-13T13:28:43.475;599616491569234324;14250.259;7
2024-05-13T13:28:43.482;599616491576924860;14257.948;-57
2024-05-13T13:28:43.490;599616491584615396;14265.639;-60
2024-05-13T13:28:43.498;599616491592305932;14273.329;-38
2024-05-13T13:28:43.506;599616491599996468;14281.0205;-86
2024-05-13T13:28:43.513;599616491607687004;14288.711;-127
2024-05-13T13:28:43.521;599616491615377540;14296.401;-125
2024-05-13T13:28:43.529;599616491623068076;14304.092;-123
2024-05-13T13:28:43.536;599616491630758612;14311.782;-127
2024-05-13T13:28:43.544;599616491638449148;14319.473;-137
2024-05-13T13:28:43.552;599616491646139684;14327.163;-152
2024-05-13T13:28:43.559;599616491653830220;14334.8545;-149
2024-05-13T13:28:43.567;599616491661520756;14342.544;-137
2024-05-13T13:28:43.575;599616491669211292;14350.234;-144
2024-05-13T13:28:43.582;599616491676901828;14357.926;-149
2024-05-13T13:28:43.590;599616491684592364;14365.616;-156
2024-05-13T13:28:43.598;599616491692282900;14373.307;-193
2024-05-13T13:28:43.605;599616491699973436;14380.998;-214
2024-05-13T13:28:43.613;599616491707663972;14388.6875;-180
2024-05-13T13:28:43.621;599616491715354508;14396.378;-149
2024-05-13T13:28:43.629;599616491723045044;14404.068;-156
2024-05-13T13:28:43.636;599616491730735580;14411.76;-188
2024-05-13T13:28:43.644;599616491738426116;14419.45;-202
2024-05-13T13:28:43.652;599616491746116652;14427.14;-178
2024-05-13T13:28:43.659;599616491753807188;14434.831;-156
2024-05-13T13:28:43.667;599616491761497724;14442.521;-137
2024-05-13T13:28:43.675;599616491769188260;14450.212;-98
2024-05-13T13:28:43.682;599616491776878796;14457.902;-79
2024-05-13T13:28:43.690;599616491784569332;14465.594;-91
2024-05-13T13:28:43.698;599616491792259868;14473.283;-82
2024-05-13T13:28:43.705;599616491799950404;14480.974;-45
2024-05-13T13:28:43.713;599616491807640940;14488.665;-21
2024-05-13T13:28:43.721;599616491815331476;14496.355;-16
2024-05-13T13:28:43.729;599616491823022012;14504.046;-7
2024-05-13T13:28:43.736;599616491830712548;14511.735;4
2024-05-13T13:28:43.744;599616491838403084;14519.427;16
2024-05-13T13:28:43.752;599616491846093620;14527.117;21
2024-05-13T13:28:43.759;599616491853784156;14534.808;38
2024-05-13T13:28:43.767;599616491861474692;14542.499;69
2024-05-13T13:28:43.775;599616491869165228;14550.189;82
2024-05-13T13:28:43.782;599616491876855764;14557.879;62
2024-05-13T13:28:43.790;599616491884546300;14565.569;65
2024-05-13T13:28:43.798;599616491892236836;14573.261;103
2024-05-13T13:28:43.805;599616491899927372;14580.951;125
2024-05-13T13:28:43.813;599616491907617908;14588.642;118
2024-05-13T13:28:43.821;599616491915338612;14596.362;120
2024-05-13T13:28:43.829;599616491923028729;14604.053;130
2024-05-13T13:28:43.836;599616491930718846;14611.743;127
2024-05-13T13:28:43.844;599616491938408963;14619.433;125
2024-05-13T13:28:43.852;599616491946099080;14627.123;154
2024-05-13T13:28:43.859;599616491953789197;14634.8125;183
2024-05-13T13:28:43.867;599616491961479314;14642.503;166
2024-05-13T13:28:43.875;599616491969169431;14650.193;113
2024-05-13T13:28:43.882;599616491976859548;14657.883;79
2024-05-13T13:28:43.890;599616491984549665;14665.573;67
2024-05-13T13:28:43.898;599616491992239782;14673.264;21
2024-05-13T13:28:43.905;599616491999929899;14680.954;-28
2024-05-13T13:28:43.913;599616492007620016;14688.645;-4
2024-05-13T13:28:43.921;599616492015310133;14696.334;24
2024-05-13T13:28:43.929;599616492023000250;14704.023;0
2024-05-13T13:28:43.936;599616492030690367;14711.714;-2
2024-05-13T13:28:43.944;599616492038380484;14719.404;41
2024-05-13T13:28:43.952;599616492046070601;14727.095;65
2024-05-13T13:28:43.959;599616492053760718;14734.784;53
2024-05-13T13:28:43.967;599616492061450835;14742.475;38
2024-05-13T13:28:43.975;599616492069140952;14750.165;12
2024-05-13T13:28:43.982;599616492076831069;14757.855;-50
2024-05-13T13:28:43.990;599616492084521186;14765.545;-77
2024-05-13T13:28:43.998;599616492092211303;14773.234;-38
2024-05-13T13:28:44.005;599616492099901420;14780.925;-14
2024-05-13T13:28:44.013;599616492107591537;14788.615;-21
2024-05-13T13:28:44.021;599616492115281654;14796.306;-16
2024-05-13T13:28:44.028;599616492122971771;14803.996;16
2024-05-13T13:28:44.036;599616492130661888;14811.686;48
2024-05-13T13:28:44.044;599616492138352005;14819.376;57
2024-05-13T13:28:44.052;599616492146042122;14827.065;69
2024-05-13T13:28:44.059;599616492153732239;14834.756;106
2024-05-13T13:28:44.067;599616492161422356;14842.446;127
2024-05-13T13:28:44.075;599616492169112473;14850.136;120
2024-05-13T13:28:44.082;599616492176802590;14857.826;118
2024-05-13T13:28:44.090;599616492184492707;14865.517;137
2024-05-13T13:28:44.098;599616492192182824;14873.207;149
2024-05-13T13:28:44.105;599616492199872941;14880.897;137
2024-05-13T13:28:44.113;599616492207563058;14888.587;132
2024-05-13T13:28:44.121;599616492215253175;14896.276;135
2024-05-13T13:28:44.128;599616492222943292;14903.967;110
2024-05-13T13:28:44.136;599616492230633409;14911.657;72
2024-05-13T13:28:44.144;599616492238323526;14919.348;50
2024-05-13T13:28:44.152;599616492246013643;14927.037;74
2024-05-13T13:28:44.159;599616492253703760;14934.728;248
2024-05-13T13:28:44.167;599616492261393877;14942.418;610
2024-05-13T13:28:44.175;599616492269083994;14950.108;902
2024-05-13T13:28:44.182;599616492276774111;14957.798;760
2024-05-13T13:28:44.190;599616492284464228;14965.487;282
2024-05-13T13:28:44.198;599616492292154345;14973.178;14
2024-05-13T13:28:44.205;599616492299844462;14980.868;86
2024-05-13T13:28:44.213;599616492307534579;14988.559;149
2024-05-13T13:28:44.221;599616492315224696;14996.249;98
2024-05-13T13:28:44.228;599616492322914813;15003.938;62
2024-05-13T13:28:44.236;599616492330604930;15011.629;53
2024-05-13T13:28:44.244;599616492338295047;15019.318;45
2024-05-13T13:28:44.252;599616492345985164;15027.009;55
2024-05-13T13:28:44.259;599616492353675281;15034.699;60
2024-05-13T13:28:44.267;599616492361365398;15042.389;60
2024-05-13T13:28:44.275;599616492369055515;15050.079;84
2024-05-13T13:28:44.282;599616492376745632;15057.77;96
2024-05-13T13:28:44.290;599616492384435749;15065.46;77
2024-05-13T13:28:44.298;599616492392125866;15073.15;72
2024-05-13T13:28:44.305;599616492399815983;15080.84;89
2024-05-13T13:28:44.313;599616492407506100;15088.529;69
2024-05-13T13:28:44.321;599616492415196217;15096.22;33
2024-05-13T13:28:44.328;599616492422886334;15103.91;21
2024-05-13T13:28:44.336;599616492430576451;15111.601;-2
2024-05-13T13:28:44.344;599616492438266568;15119.29;-31
2024-05-13T13:28:44.351;599616492445956685;15126.98;-31
2024-05-13T13:28:44.359;599616492453646802;15134.671;-9
2024-05-13T13:28:44.367;599616492461336919;15142.361;-7
2024-05-13T13:28:44.375;599616492469027036;15150.051;-50
2024-05-13T13:28:44.382;599616492476687054;15157.711;-101
2024-05-13T13:28:44.390;599616492484377590;15165.401;-91
2024-05-13T13:28:44.398;599616492492068126;15173.092;-50
2024-05-13T13:28:44.405;599616492499758662;15180.782;-41
2024-05-13T13:28:44.413;599616492507449198;15188.473;-48
2024-05-13T13:28:44.421;599616492515139734;15196.163;-43
2024-05-13T13:28:44.428;599616492522830270;15203.8545;-50
2024-05-13T13:28:44.436;599616492530520806;15211.545;-106
2024-05-13T13:28:44.444;599616492538211342;15219.234;-164
2024-05-13T13:28:44.451;599616492545901878;15226.926;-166
2024-05-13T13:28:44.459;599616492553592414;15234.616;-144
2024-05-13T13:28:44.467;599616492561282950;15242.307;-159
2024-05-13T13:28:44.474;599616492568973486;15249.997;-209
2024-05-13T13:28:44.482;599616492576664022;15257.688;-272
2024-05-13T13:28:44.490;599616492584354558;15265.378;-304
2024-05-13T13:28:44.498;599616492592045094;15273.068;-279
2024-05-13T13:28:44.505;599616492599735630;15280.76;-238
2024-05-13T13:28:44.513;599616492607426166;15288.45;-214
2024-05-13T13:28:44.521;599616492615116702;15296.141;-195
2024-05-13T13:28:44.528;599616492622807238;15303.83;-176
2024-05-13T13:28:44.536;599616492630497774;15311.521;-149
2024-05-13T13:28:44.544;599616492638188310;15319.212;-106
2024-05-13T13:28:44.551;599616492645878846;15326.902;-77
2024-05-13T13:28:44.559;599616492653569382;15334.594;-74
2024-05-13T13:28:44.567;599616492661259918;15342.284;-67
2024-05-13T13:28:44.574;599616492668950454;15349.974;-31
2024-05-13T13:28:44.582;599616492676640990;15357.664;2
2024-05-13T13:28:44.590;599616492684331526;15365.355;9
2024-05-13T13:28:44.598;599616492692022062;15373.046;24
2024-05-13T13:28:44.605;599616492699712598;15380.736;45
2024-05-13T13:28:44.613;599616492707403134;15388.428;43
2024-05-13T13:28:44.621;599616492715093670;15396.117;14
2024-05-13T13:28:44.628;599616492722784206;15403.808;16
2024-05-13T13:28:44.636;599616492730474742;15411.498;57
2024-05-13T13:28:44.644;599616492738165278;15419.189;77
2024-05-13T13:28:44.651;599616492745855814;15426.88;74
2024-05-13T13:28:44.659;599616492753546350;15434.569;79
2024-05-13T13:28:44.667;599616492761236886;15442.261;96
2024-05-13T13:28:44.674;599616492768927422;15449.951;118
2024-05-13T13:28:44.682;599616492776617958;15457.642;132
2024-05-13T13:28:44.690;599616492784308494;15465.332;147
2024-05-13T13:28:44.698;599616492791999030;15473.023;166
2024-05-13T13:28:44.705;599616492799689566;15480.713;159
2024-05-13T13:28:44.713;599616492807380102;15488.403;152
2024-05-13T13:28:44.721;599616492815070638;15496.095;188
2024-05-13T13:28:44.728;599616492822761174;15503.785;219
2024-05-13T13:28:44.736;599616492830451710;15511.476;212
2024-05-13T13:28:44.744;599616492838142246;15519.165;207
2024-05-13T13:28:44.751;599616492845832782;15526.856;221
2024-05-13T13:28:44.759;599616492853523318;15534.547;234
2024-05-13T13:28:44.767;599616492861213854;15542.237;238
2024-05-13T13:28:44.774;599616492868904390;15549.929;238
2024-05-13T13:28:44.782;599616492876594926;15557.619;258
2024-05-13T13:28:44.790;599616492884285462;15565.309;277
2024-05-13T13:28:44.797;599616492891975998;15573.0;255
2024-05-13T13:28:44.805;599616492899666534;15580.69;234
2024-05-13T13:28:44.813;599616492907357070;15588.381;267
2024-05-13T13:28:44.821;599616492915047606;15596.071;296
2024-05-13T13:28:44.828;599616492922738142;15603.762;277
2024-05-13T13:28:44.836;599616492930428678;15611.452;250
2024-05-13T13:28:44.844;599616492938119214;15619.143;260
2024-05-13T13:28:44.851;599616492945809750;15626.834;279
2024-05-13T13:28:44.859;599616492953500286;15634.524;275
2024-05-13T13:28:44.867;599616492961190822;15642.215;243
2024-05-13T13:28:44.874;599616492968881358;15649.904;241
2024-05-13T13:28:44.882;599616492976571894;15657.596;270
2024-05-13T13:28:44.890;599616492984262430;15665.286;255
2024-05-13T13:28:44.897;599616492991952966;15672.977;238
2024-05-13T13:28:44.905;599616492999643502;15680.668;263
2024-05-13T13:28:44.913;599616493007334038;15688.357;272
2024-05-13T13:28:44.921;599616493015024574;15696.048;255
2024-05-13T13:28:44.928;599616493022715110;15703.738;248
2024-05-13T13:28:44.936;599616493030405646;15711.43;243
2024-05-13T13:28:44.944;599616493038096182;15719.12;236
2024-05-13T13:28:44.951;599616493045786718;15726.811;234
2024-05-13T13:28:44.959;599616493053477254;15734.501;226
2024-05-13T13:28:44.967;599616493061167790;15742.191;212
2024-05-13T13:28:44.974;599616493068858326;15749.882;250
2024-05-13T13:28:44.982;599616493076548862;15757.572;412
2024-05-13T13:28:44.990;599616493084239398;15765.264;709
2024-05-13T13:28:44.997;599616493091929934;15772.953;926
2024-05-13T13:28:45.005;599616493099620470;15780.644;673
2024-05-13T13:28:45.013;599616493107311006;15788.335;89
2024-05-13T13:28:45.021;599616493115001542;15796.025;-139
2024-05-13T13:28:45.028;599616493122692078;15803.716;7
2024-05-13T13:28:45.036;599616493130382614;15811.406;19
2024-05-13T13:28:45.044;599616493138073150;15819.097;-67
2024-05-13T13:28:45.051;599616493145763686;15826.787;-31
2024-05-13T13:28:45.059;599616493153454222;15834.478;-4
2024-05-13T13:28:45.067;599616493161144758;15842.169;-60
2024-05-13T13:28:45.074;599616493168835294;15849.859;-82
2024-05-13T13:28:45.082;599616493176525830;15857.549;-55
2024-05-13T13:28:45.090;599616493184216366;15865.24;-36
2024-05-13T13:28:45.097;599616493191906902;15872.931;-33
2024-05-13T13:28:45.105;599616493199597438;15880.621;-38
2024-05-13T13:28:45.113;599616493207287974;15888.312;-62
2024-05-13T13:28:45.121;599616493214978510;15896.003;-94
2024-05-13T13:28:45.128;599616493222669046;15903.692;-89
2024-05-13T13:28:45.136;599616493230359582;15911.383;-67
2024-05-13T13:28:45.144;599616493238050118;15919.074;-67
2024-05-13T13:28:45.151;599616493245740654;15926.765;-82
2024-05-13T13:28:45.159;599616493253431190;15934.455;-106
2024-05-13T13:28:45.167;599616493261121726;15942.1455;-147
2024-05-13T13:28:45.174;599616493268812262;15949.836;-161
2024-05-13T13:28:45.182;599616493276502798;15957.526;-135
2024-05-13T13:28:45.190;599616493284193334;15965.217;-115
2024-05-13T13:28:45.197;599616493291883870;15972.908;-106
2024-05-13T13:28:45.205;599616493299574406;15980.599;-91
2024-05-13T13:28:45.213;599616493307264942;15988.288;-91
2024-05-13T13:28:45.220;599616493314955478;15995.979;-98
2024-05-13T13:28:45.228;599616493322646014;16003.67;-79
2024-05-13T13:28:45.236;599616493330336550;16011.36;-48
2024-05-13T13:28:45.244;599616493338027086;16019.051;-36
2024-05-13T13:28:45.251;599616493345717622;16026.742;-55
