Phone timestamp;sensor timestamp [ns];timestamp [ms];ecg [uV]
2024-05-13T22:17:15.259;599616079308643758;0.0;19397
2024-05-13T22:17:15.266;599616079316335687;7.691929;19397
2024-05-13T22:17:15.274;599616079324027616;15.383858;19397
2024-05-13T22:17:15.282;599616079331719545;23.075788;19397
2024-05-13T22:17:15.289;599616079339411474;30.767715;19397
2024-05-13T22:17:15.297;599616079347103403;38.459644;19397
2024-05-13T22:17:15.305;599616079354795332;46.151577;19397
2024-05-13T22:17:15.312;599616079362487261;53.843506;19397
2024-05-13T22:17:15.320;599616079370179190;61.53543;19397
2024-05-13T22:17:15.328;599616079377871119;69.22736;19397
2024-05-13T22:17:15.335;599616079385563048;76.91929;19397
2024-05-13T22:17:15.343;599616079393254977;84.61121;19397
2024-05-13T22:17:15.351;599616079400946906;92.303154;19397
2024-05-13T22:17:15.358;599616079408638835;99.99508;19397
2024-05-13T22:17:15.366;599616079416330764;107.68701;19397
2024-05-13T22:17:15.374;599616079424022693;115.37894;19397
2024-05-13T22:17:15.382;599616079431714622;123.07086;19397
2024-05-13T22:17:15.389;599616079439406551;130.76279;19397
2024-05-13T22:17:15.397;599616079447098480;138.45473;19397
2024-05-13T22:17:15.405;599616079454790409;146.14665;19397
2024-05-13T22:17:15.412;599616079462482338;153.83858;19397
2024-05-13T22:17:15.420;599616079470174267;161.53052;19397
2024-05-13T22:17:15.428;599616079477866196;169.22243;19397
2024-05-13T22:17:15.435;599616079485558125;176.91437;19397
2024-05-13T22:17:15.443;599616079493250054;184.60631;19397
2024-05-13T22:17:15.451;599616079500941983;192.29822;19397
2024-05-13T22:17:15.458;599616079508633912;199.99016;19397
2024-05-13T22:17:15.466;599616079516325841;207.68208;19397
2024-05-13T22:17:15.474;599616079524017770;215.37402;19397
2024-05-13T22:17:15.482;599616079531709699;223.06593;19397
2024-05-13T22:17:15.489;599616079539401628;230.75787;19397
2024-05-13T22:17:15.497;599616079547093557;238.4498;19397
2024-05-13T22:17:15.505;599616079554785486;246.14172;19397
2024-05-13T22:17:15.512;599616079562477415;253.83366;19397
2024-05-13T22:17:15.520;599616079570169344;261.52557;19397
2024-05-13T22:17:15.528;599616079577861273;269.2175;19397
2024-05-13T22:17:15.535;599616079585553202;276.90945;19397
2024-05-13T22:17:15.543;599616079593245131;284.60138;19397
2024-05-13T22:17:15.551;599616079600937060;292.2933;19397
2024-05-13T22:17:15.558;599616079608628989;299.98523;19397
2024-05-13T22:17:15.566;599616079616320918;307.67715;19397
2024-05-13T22:17:15.574;599616079624012847;315.36908;19397
2024-05-13T22:17:15.582;599616079631704776;323.06104;19397
2024-05-13T22:17:15.589;599616079639396705;330.75296;19397
2024-05-13T22:17:15.597;599616079647088634;338.44485;19397
2024-05-13T22:17:15.605;599616079654780563;346.1368;19397
2024-05-13T22:17:15.612;599616079662472492;353.82874;19397
2024-05-13T22:17:15.620;599616079670164421;361.52066;19397
2024-05-13T22:17:15.628;599616079677856350;369.21262;19397
2024-05-13T22:17:15.635;599616079685548279;376.9045;19397
2024-05-13T22:17:15.643;599616079693240208;384.59644;19397
2024-05-13T22:17:15.651;599616079700932137;392.2884;19397
2024-05-13T22:17:15.658;599616079708624066;399.98032;19397
2024-05-13T22:17:15.666;599616079716315995;407.6722;19397
2024-05-13T22:17:15.674;599616079724007924;415.36417;19397
2024-05-13T22:17:15.682;599616079731699853;423.0561;19397
2024-05-13T22:17:15.689;599616079739391782;430.74805;19397
2024-05-13T22:17:15.697;599616079747083711;438.43997;19397
2024-05-13T22:17:15.705;599616079754775640;446.13187;19397
2024-05-13T22:17:15.712;599616079762467569;453.82382;19397
2024-05-13T22:17:15.720;599616079770159498;461.51575;19397
2024-05-13T22:17:15.728;599616079777851427;469.20767;19397
2024-05-13T22:17:15.735;599616079785543356;476.8996;19397
2024-05-13T22:17:15.743;599616079793235285;484.59152;19397
2024-05-13T22:17:15.751;599616079800927214;492.28345;19397
2024-05-13T22:17:15.758;599616079808619143;499.9754;19397
2024-05-13T22:17:15.766;599616079816311072;507.66733;19397
2024-05-13T22:17:15.774;599616079824003001;515.35925;19397
2024-05-13T22:17:15.782;599616079831694930;523.05115;19397
2024-05-13T22:17:15.789;599616079839386859;530.7431;19397
2024-05-13T22:17:15.797;599616079847078788;538.435;19397
2024-05-13T22:17:15.805;599616079854770717;546.12695;19397
2024-05-13T22:17:15.812;599616079862462646;553.8189;19397
2024-05-13T22:17:15.820;599616079870129556;561.48584;19397
2024-05-13T22:17:15.828;599616079877821833;569.17804;19397
2024-05-13T22:17:15.835;599616079885514110;576.87036;19397
2024-05-13T22:17:15.843;599616079893206387;584.5626;19397
2024-05-13T22:17:15.851;599616079900898664;592.2549;19397
2024-05-13T22:17:15.858;599616079908590941;599.9472;19397
2024-05-13T22:17:15.866;599616079916283218;607.63947;19397
2024-05-13T22:17:15.874;599616079923975495;615.3317;19397
2024-05-13T22:17:15.882;599616079931667772;623.024;19397
2024-05-13T22:17:15.889;599616079939360049;630.7163;19397
2024-05-13T22:17:15.897;599616079947052326;638.40857;19397
2024-05-13T22:17:15.905;599616079954744603;646.1009;19397
2024-05-13T22:17:15.912;599616079962436880;653.79315;19397
2024-05-13T22:17:15.920;599616079970129157;661.48535;19397
2024-05-13T22:17:15.928;599616079977821434;669.1777;19397
2024-05-13T22:17:15.935;599616079985513711;676.86993;19397
2024-05-13T22:17:15.943;599616079993205988;684.56226;19397
2024-05-13T22:17:15.951;599616080000898265;692.2545;19397
2024-05-13T22:17:15.958;599616080008590542;699.9468;19397
2024-05-13T22:17:15.966;599616080016282819;707.63904;19397
2024-05-13T22:17:15.974;599616080023975096;715.3313;19397
2024-05-13T22:17:15.982;599616080031667373;723.0236;19397
2024-05-13T22:17:15.989;599616080039359650;730.7159;19397
2024-05-13T22:17:15.997;599616080047051927;738.4082;19397
2024-05-13T22:17:16.005;599616080054744204;746.1004;19397
2024-05-13T22:17:16.012;599616080062436481;753.7927;19397
2024-05-13T22:17:16.020;599616080070128758;761.485;19397
2024-05-13T22:17:16.028;599616080077821035;769.1773;19397
2024-05-13T22:17:16.035;599616080085513312;776.86957;19397
2024-05-13T22:17:16.043;599616080093205589;784.5618;19397
2024-05-13T22:17:16.051;599616080100897866;792.2541;19397
2024-05-13T22:17:16.058;599616080108590143;799.94635;19397
2024-05-13T22:17:16.066;599616080116282420;807.6387;19397
2024-05-13T22:17:16.074;599616080123974697;815.33093;19397
2024-05-13T22:17:16.082;599616080131666974;823.02325;19397
2024-05-13T22:17:16.089;599616080139359251;830.7155;19364
2024-05-13T22:17:16.097;599616080147051528;838.4077;19257
2024-05-13T22:17:16.105;599616080154743805;846.10004;19319
2024-05-13T22:17:16.112;599616080162436082;853.7923;19272
2024-05-13T22:17:16.120;599616080170128359;861.4846;18992
2024-05-13T22:17:16.128;599616080177820636;869.1769;18824
2024-05-13T22:17:16.135;599616080185512913;876.8692;18919
2024-05-13T22:17:16.143;599616080193205190;884.5614;18990
2024-05-13T22:17:16.151;599616080200897467;892.2537;18822
2024-05-13T22:17:16.158;599616080208589744;899.946;18599
2024-05-13T22:17:16.166;599616080216282021;907.63824;18523
2024-05-13T22:17:16.174;599616080223974298;915.33057;18424
2024-05-13T22:17:16.182;599616080231666575;923.0228;18227
2024-05-13T22:17:16.189;599616080239358852;930.7151;18161
2024-05-13T22:17:16.197;599616080247051129;938.40735;18249
2024-05-13T22:17:16.205;599616080254743406;946.0997;18166
2024-05-13T22:17:16.212;599616080262435683;953.79193;17891
2024-05-13T22:17:16.220;599616080270127960;961.48425;17810
2024-05-13T22:17:16.228;599616080277820237;969.17645;17851
2024-05-13T22:17:16.235;599616080285512514;976.8687;17718
2024-05-13T22:17:16.243;599616080293204791;984.56104;17578
2024-05-13T22:17:16.251;599616080300897068;992.2533;17569
2024-05-13T22:17:16.258;599616080308589345;999.9456;17493
2024-05-13T22:17:16.266;599616080316281622;1007.6379;17304
2024-05-13T22:17:16.274;599616080323973899;1015.33014;17162
2024-05-13T22:17:16.282;599616080331666176;1023.0224;17147
2024-05-13T22:17:16.289;599616080339358453;1030.7147;17164
2024-05-13T22:17:16.297;599616080347050730;1038.407;17031
2024-05-13T22:17:16.305;599616080354743007;1046.0992;16799
2024-05-13T22:17:16.312;599616080362435284;1053.7915;16735
2024-05-13T22:17:16.320;599616080370127561;1061.4838;16745
2024-05-13T22:17:16.328;599616080377819838;1069.176;16662
2024-05-13T22:17:16.335;599616080385512115;1076.8684;16811
2024-05-13T22:17:16.343;599616080393204392;1084.5607;16925
2024-05-13T22:17:16.351;599616080400896669;1092.2529;16477
2024-05-13T22:17:16.358;599616080408588946;1099.9452;16115
2024-05-13T22:17:16.366;599616080416281223;1107.6375;16266
2024-05-13T22:17:16.374;599616080423973500;1115.3298;16387
2024-05-13T22:17:16.382;599616080431665842;1123.0221;16295
2024-05-13T22:17:16.389;599616080439358119;1130.7144;16160
2024-05-13T22:17:16.397;599616080447050396;1138.4066;15885
2024-05-13T22:17:16.405;599616080454742673;1146.099;15639
2024-05-13T22:17:16.412;599616080462434950;1153.7913;15603
2024-05-13T22:17:16.420;599616080470127227;1161.4835;15449
2024-05-13T22:17:16.428;599616080477819504;1169.1758;15385
2024-05-13T22:17:16.435;599616080485511781;1176.8679;15826
2024-05-13T22:17:16.443;599616080493204058;1184.5603;16086
2024-05-13T22:17:16.451;599616080500896335;1192.2526;15679
2024-05-13T22:17:16.458;599616080508588612;1199.9448;15222
2024-05-13T22:17:16.466;599616080516280889;1207.6371;14954
2024-05-13T22:17:16.474;599616080523973166;1215.3295;14772
2024-05-13T22:17:16.482;599616080531665443;1223.0217;14793
2024-05-13T22:17:16.489;599616080539357720;1230.714;14831
2024-05-13T22:17:16.497;599616080547049997;1238.4062;14725
2024-05-13T22:17:16.505;599616080554742274;1246.0985;14656
2024-05-13T22:17:16.512;599616080562434551;1253.7909;14578
2024-05-13T22:17:16.520;599616080570126828;1261.483;14452
2024-05-13T22:17:16.528;599616080577819105;1269.1753;14398
2024-05-13T22:17:16.535;599616080585511382;1276.8676;14277
2024-05-13T22:17:16.543;599616080593203659;1284.5598;14097
2024-05-13T22:17:16.551;599616080600895936;1292.2522;14076
2024-05-13T22:17:16.558;599616080608588213;1299.9445;14102
2024-05-13T22:17:16.566;599616080616280490;1307.6367;14019
2024-05-13T22:17:16.574;599616080623972767;1315.329;13905
2024-05-13T22:17:16.582;599616080631665044;1323.0214;13851
2024-05-13T22:17:16.589;599616080639357321;1330.7136;13811
2024-05-13T22:17:16.597;599616080647049598;1338.4059;13709
2024-05-13T22:17:16.605;599616080654741875;1346.0981;13614
2024-05-13T22:17:16.612;599616080662434152;1353.7903;13659
2024-05-13T22:17:16.620;599616080670126429;1361.4827;13683
2024-05-13T22:17:16.628;599616080677818706;1369.1749;13567
2024-05-13T22:17:16.635;599616080685510983;1376.8672;13538
2024-05-13T22:17:16.643;599616080693203260;1384.5594;13510
2024-05-13T22:17:16.651;599616080700895537;1392.2518;13325
2024-05-13T22:17:16.658;599616080708587814;1399.9441;13221
2024-05-13T22:17:16.666;599616080716280091;1407.6364;13207
2024-05-13T22:17:16.674;599616080723972368;1415.3286;13121
2024-05-13T22:17:16.682;599616080731664645;1423.0209;13029
2024-05-13T22:17:16.689;599616080739356922;1430.7133;12927
2024-05-13T22:17:16.697;599616080747049199;1438.4055;12849
2024-05-13T22:17:16.705;599616080754741476;1446.0977;12868
2024-05-13T22:17:16.712;599616080762433753;1453.7899;12825
2024-05-13T22:17:16.720;599616080770126030;1461.4823;12643
2024-05-13T22:17:16.728;599616080777818307;1469.1746;12551
2024-05-13T22:17:16.735;599616080785510584;1476.8668;12593
2024-05-13T22:17:16.743;599616080793202861;1484.5591;12553
2024-05-13T22:17:16.751;599616080800895138;1492.2513;12449
2024-05-13T22:17:16.758;599616080808587415;1499.9437;12425
2024-05-13T22:17:16.766;599616080816279692;1507.636;12392
2024-05-13T22:17:16.774;599616080823971969;1515.3282;12286
2024-05-13T22:17:16.782;599616080831664246;1523.0205;12193
2024-05-13T22:17:16.789;599616080839356523;1530.7126;12174
2024-05-13T22:17:16.797;599616080847048800;1538.405;12200
2024-05-13T22:17:16.805;599616080854741077;1546.0973;12132
2024-05-13T22:17:16.812;599616080862433354;1553.7896;11959
2024-05-13T22:17:16.820;599616080870125631;1561.4818;11907
2024-05-13T22:17:16.828;599616080877817908;1569.1742;11930
2024-05-13T22:17:16.835;599616080885510185;1576.8665;11871
2024-05-13T22:17:16.843;599616080893202462;1584.5587;11928
2024-05-13T22:17:16.851;599616080900894739;1592.251;11994
2024-05-13T22:17:16.858;599616080908587016;1599.9432;11703
2024-05-13T22:17:16.866;599616080916279293;1607.6356;11414
2024-05-13T22:17:16.874;599616080923971570;1615.3279;11473
2024-05-13T22:17:16.882;599616080931663847;1623.02;11580
2024-05-13T22:17:16.889;599616080939356124;1630.7123;11478
2024-05-13T22:17:16.897;599616080947048401;1638.4047;11272
2024-05-13T22:17:16.905;599616080954740678;1646.0969;11163
2024-05-13T22:17:16.912;599616080962432955;1653.7892;11168
2024-05-13T22:17:16.920;599616080970125232;1661.4814;11165
2024-05-13T22:17:16.928;599616080977817509;1669.1737;11087
2024-05-13T22:17:16.935;599616080985509786;1676.8661;11049
2024-05-13T22:17:16.943;599616080993202128;1684.5583;11071
2024-05-13T22:17:16.951;599616081000894405;1692.2506;10990
2024-05-13T22:17:16.958;599616081008586682;1699.9429;10862
2024-05-13T22:17:16.966;599616081016278959;1707.6353;10822
2024-05-13T22:17:16.974;599616081023971236;1715.3275;10860
2024-05-13T22:17:16.982;599616081031663513;1723.0198;10865
2024-05-13T22:17:16.989;599616081039355790;1730.712;10744
2024-05-13T22:17:16.997;599616081047048067;1738.4043;10630
2024-05-13T22:17:17.005;599616081054740344;1746.0967;10708
2024-05-13T22:17:17.012;599616081062432621;1753.7888;10718
2024-05-13T22:17:17.020;599616081070124898;1761.4811;10476
2024-05-13T22:17:17.028;599616081077817175;1769.1733;10363
2024-05-13T22:17:17.035;599616081085509452;1776.8657;10443
2024-05-13T22:17:17.043;599616081093201729;1784.558;10370
2024-05-13T22:17:17.051;599616081100894006;1792.2502;10204
2024-05-13T22:17:17.058;599616081108586283;1799.9425;10180
2024-05-13T22:17:17.066;599616081116278560;1807.6348;10228
2024-05-13T22:17:17.074;599616081123970837;1815.3271;10199
2024-05-13T22:17:17.082;599616081131663114;1823.0194;10149
2024-05-13T22:17:17.089;599616081139355391;1830.7117;10131
2024-05-13T22:17:17.097;599616081147047668;1838.4039;10071
2024-05-13T22:17:17.105;599616081154739945;1846.0961;9922
2024-05-13T22:17:17.112;599616081162432222;1853.7885;9825
2024-05-13T22:17:17.120;599616081170124499;1861.4807;9882
2024-05-13T22:17:17.128;599616081177816776;1869.173;9915
2024-05-13T22:17:17.135;599616081185509053;1876.8652;9749
2024-05-13T22:17:17.143;599616081193201330;1884.5576;9581
2024-05-13T22:17:17.151;599616081200893607;1892.2499;9583
2024-05-13T22:17:17.158;599616081208585884;1899.9421;9605
2024-05-13T22:17:17.166;599616081216278161;1907.6344;9541
2024-05-13T22:17:17.174;599616081223970438;1915.3267;9465
2024-05-13T22:17:17.182;599616081231662715;1923.019;9425
2024-05-13T22:17:17.189;599616081239354992;1930.7113;9396
2024-05-13T22:17:17.197;599616081247047269;1938.4034;9370
2024-05-13T22:17:17.205;599616081254739546;1946.0957;9366
2024-05-13T22:17:17.212;599616081262431823;1953.7881;9354
2024-05-13T22:17:17.220;599616081270124100;1961.4803;9309
2024-05-13T22:17:17.228;599616081277816377;1969.1726;9186
2024-05-13T22:17:17.235;599616081285508654;1976.8649;9029
2024-05-13T22:17:17.243;599616081293200931;1984.5571;8987
2024-05-13T22:17:17.251;599616081300893208;1992.2495;8982
2024-05-13T22:17:17.258;599616081308585485;1999.9418;8913
2024-05-13T22:17:17.266;599616081316277762;2007.634;8847
2024-05-13T22:17:17.274;599616081323970039;2015.3263;8811
2024-05-13T22:17:17.282;599616081331662316;2023.0186;8771
2024-05-13T22:17:17.289;599616081339354593;2030.7108;8698
2024-05-13T22:17:17.297;599616081347046870;2038.4031;8658
2024-05-13T22:17:17.305;599616081354739147;2046.0953;8681
2024-05-13T22:17:17.312;599616081362431424;2053.7876;8631
2024-05-13T22:17:17.320;599616081370123701;2061.48;8508
2024-05-13T22:17:17.328;599616081377815978;2069.172;8468
2024-05-13T22:17:17.335;599616081385508255;2076.8645;8494
2024-05-13T22:17:17.343;599616081393200532;2084.557;8489
2024-05-13T22:17:17.351;599616081400892809;2092.249;8489
2024-05-13T22:17:17.358;599616081408585086;2099.9414;8416
2024-05-13T22:17:17.366;599616081416277363;2107.6335;8324
2024-05-13T22:17:17.374;599616081423969640;2115.326;8525
2024-05-13T22:17:17.382;599616081431661917;2123.018;8740
2024-05-13T22:17:17.389;599616081439354194;2130.7104;8537
2024-05-13T22:17:17.397;599616081447046471;2138.4026;8146
2024-05-13T22:17:17.405;599616081454738748;2146.095;7867
2024-05-13T22:17:17.412;599616081462431025;2153.7874;7786
2024-05-13T22:17:17.420;599616081470123302;2161.4795;7850
2024-05-13T22:17:17.428;599616081477815579;2169.1716;7874
2024-05-13T22:17:17.435;599616081485507856;2176.864;7822
2024-05-13T22:17:17.443;599616081493200133;2184.5564;7807
2024-05-13T22:17:17.451;599616081500892410;2192.2485;7819
2024-05-13T22:17:17.458;599616081508584687;2199.941;7779
2024-05-13T22:17:17.466;599616081516276964;2207.633;7710
2024-05-13T22:17:17.474;599616081523969241;2215.3254;7677
2024-05-13T22:17:17.482;599616081531661518;2223.0178;7696
2024-05-13T22:17:17.489;599616081539353795;2230.71;7710
2024-05-13T22:17:17.497;599616081547046072;2238.4023;7658
2024-05-13T22:17:17.505;599616081554768510;2246.1248;7571
2024-05-13T22:17:17.512;599616081562460369;2253.8167;7556
2024-05-13T22:17:17.520;599616081570152228;2261.5083;7573
2024-05-13T22:17:17.528;599616081577844087;2269.2004;7518
2024-05-13T22:17:17.535;599616081585535946;2276.892;7504
2024-05-13T22:17:17.543;599616081593227805;2284.584;7589
2024-05-13T22:17:17.551;599616081600919664;2292.276;7571
2024-05-13T22:17:17.558;599616081608611523;2299.9678;7381
2024-05-13T22:17:17.566;599616081616303382;2307.6594;7286
2024-05-13T22:17:17.574;599616081623995241;2315.3516;7353
2024-05-13T22:17:17.582;599616081631687100;2323.0432;7369
2024-05-13T22:17:17.589;599616081639378959;2330.735;7279
2024-05-13T22:17:17.597;599616081647070818;2338.4272;7213
2024-05-13T22:17:17.605;599616081654762677;2346.119;7222
2024-05-13T22:17:17.612;599616081662454536;2353.8108;7220
2024-05-13T22:17:17.620;599616081670146395;2361.5027;7182
2024-05-13T22:17:17.628;599616081677838254;2369.1946;7104
2024-05-13T22:17:17.635;599616081685530113;2376.8862;7012
2024-05-13T22:17:17.643;599616081693221972;2384.5784;6936
2024-05-13T22:17:17.651;599616081700913831;2392.27;6872
2024-05-13T22:17:17.658;599616081708605690;2399.962;6853
2024-05-13T22:17:17.666;599616081716297549;2407.6538;6860
2024-05-13T22:17:17.674;599616081723989408;2415.3457;6841
2024-05-13T22:17:17.682;599616081731681267;2423.0374;6791
2024-05-13T22:17:17.689;599616081739373126;2430.7295;6737
2024-05-13T22:17:17.697;599616081747064985;2438.4211;6720
2024-05-13T22:17:17.705;599616081754756844;2446.113;6699
2024-05-13T22:17:17.712;599616081762448703;2453.8052;6652
2024-05-13T22:17:17.720;599616081770140562;2461.4968;6666
2024-05-13T22:17:17.728;599616081777832421;2469.1887;6673
2024-05-13T22:17:17.735;599616081785524280;2476.8806;6588
2024-05-13T22:17:17.743;599616081793216139;2484.5725;6521
2024-05-13T22:17:17.751;599616081800907998;2492.2642;6533
2024-05-13T22:17:17.758;599616081808599857;2499.9563;6531
2024-05-13T22:17:17.766;599616081816291716;2507.648;6481
2024-05-13T22:17:17.774;599616081823983575;2515.3398;6448
2024-05-13T22:17:17.782;599616081831675434;2523.0315;6460
2024-05-13T22:17:17.789;599616081839367293;2530.7236;6417
2024-05-13T22:17:17.797;599616081847059152;2538.4153;6294
2024-05-13T22:17:17.805;599616081854751011;2546.1072;6237
2024-05-13T22:17:17.812;599616081862442870;2553.799;6268
2024-05-13T22:17:17.820;599616081870134729;2561.491;6242
2024-05-13T22:17:17.828;599616081877826588;2569.1826;6135
2024-05-13T22:17:17.835;599616081885518447;2576.8748;6086
2024-05-13T22:17:17.843;599616081893210306;2584.5664;6109
2024-05-13T22:17:17.851;599616081900902165;2592.2583;6119
2024-05-13T22:17:17.858;599616081908594024;2599.9504;6128
2024-05-13T22:17:17.866;599616081916285883;2607.642;6031
2024-05-13T22:17:17.874;599616081923977742;2615.334;5820
2024-05-13T22:17:17.882;599616081931669601;2623.026;5728
2024-05-13T22:17:17.889;599616081939361460;2630.7178;5738
2024-05-13T22:17:17.897;599616081947053319;2638.4094;5735
2024-05-13T22:17:17.905;599616081954745178;2646.1016;5719
2024-05-13T22:17:17.912;599616081962437037;2653.7932;5657
2024-05-13T22:17:17.920;599616081970128896;2661.485;5562
2024-05-13T22:17:17.928;599616081977820755;2669.177;5475
2024-05-13T22:17:17.935;599616081985512614;2676.869;5425
2024-05-13T22:17:17.943;599616081993204473;2684.5605;5397
2024-05-13T22:17:17.951;599616082000896332;2692.2527;5344
2024-05-13T22:17:17.958;599616082008588191;2699.9443;5304
2024-05-13T22:17:17.966;599616082016280050;2707.6362;5266
2024-05-13T22:17:17.974;599616082023971909;2715.3284;5200
2024-05-13T22:17:17.982;599616082031663768;2723.02;5127
2024-05-13T22:17:17.989;599616082039355627;2730.712;5079
2024-05-13T22:17:17.997;599616082047047486;2738.4038;5063
2024-05-13T22:17:18.005;599616082054739345;2746.0957;5003
2024-05-13T22:17:18.012;599616082062431204;2753.7874;4902
2024-05-13T22:17:18.020;599616082070123063;2761.4795;4861
2024-05-13T22:17:18.028;599616082077814922;2769.1711;4845
2024-05-13T22:17:18.035;599616082085506781;2776.863;4771
2024-05-13T22:17:18.043;599616082093198640;2784.555;4712
2024-05-13T22:17:18.051;599616082100890499;2792.2468;4684
2024-05-13T22:17:18.058;599616082108582358;2799.9385;4620
2024-05-13T22:17:18.066;599616082116249152;2807.6055;4535
2024-05-13T22:17:18.074;599616082123941360;2815.2976;4497
2024-05-13T22:17:18.081;599616082131633568;2822.9897;4497
2024-05-13T22:17:18.089;599616082139325776;2830.6821;4466
2024-05-13T22:17:18.097;599616082147017984;2838.374;4395
2024-05-13T22:17:18.105;599616082154710192;2846.0664;4347
2024-05-13T22:17:18.112;599616082162402400;2853.7588;4352
2024-05-13T22:17:18.120;599616082170094608;2861.4507;4284
2024-05-13T22:17:18.128;599616082177786816;2869.143;4111
2024-05-13T22:17:18.135;599616082185479024;2876.8354;4059
2024-05-13T22:17:18.143;599616082193171232;2884.5273;4101
2024-05-13T22:17:18.151;599616082200863440;2892.2197;4040
2024-05-13T22:17:18.158;599616082208555648;2899.9119;3971
2024-05-13T22:17:18.166;599616082216247856;2907.6042;3992
2024-05-13T22:17:18.174;599616082223940064;2915.2961;4014
2024-05-13T22:17:18.181;599616082231632272;2922.9885;3990
2024-05-13T22:17:18.189;599616082239324480;2930.681;3950
2024-05-13T22:17:18.197;599616082247016688;2938.3728;3940
2024-05-13T22:17:18.205;599616082254708896;2946.0652;3954
2024-05-13T22:17:18.212;599616082262401104;2953.7573;3938
2024-05-13T22:17:18.220;599616082270093312;2961.4495;3912
2024-05-13T22:17:18.228;599616082277785520;2969.1418;3916
2024-05-13T22:17:18.235;599616082285477728;2976.834;3928
2024-05-13T22:17:18.243;599616082293169936;2984.5261;3888
2024-05-13T22:17:18.251;599616082300862144;2992.2183;3819
2024-05-13T22:17:18.258;599616082308554352;2999.9106;3800
2024-05-13T22:17:18.266;599616082316246560;3007.6028;3838
2024-05-13T22:17:18.274;599616082323938768;3015.295;3971
2024-05-13T22:17:18.281;599616082331630976;3022.9873;4227
2024-05-13T22:17:18.289;599616082339323184;3030.6794;4404
2024-05-13T22:17:18.297;599616082347015392;3038.3716;4248
2024-05-13T22:17:18.305;599616082354707600;3046.064;3819
2024-05-13T22:17:18.312;599616082362399808;3053.756;3552
2024-05-13T22:17:18.320;599616082370092016;3061.4482;3646
2024-05-13T22:17:18.328;599616082377784224;3069.1404;3748
2024-05-13T22:17:18.335;599616082385476432;3076.8328;3687
2024-05-13T22:17:18.343;599616082393168640;3084.525;3661
2024-05-13T22:17:18.351;599616082400860848;3092.217;3715
2024-05-13T22:17:18.358;599616082408553056;3099.9094;3763
2024-05-13T22:17:18.366;599616082416245264;3107.6013;3701
2024-05-13T22:17:18.374;599616082423937472;3115.2937;3566
2024-05-13T22:17:18.381;599616082431629680;3122.986;3564
2024-05-13T22:17:18.389;599616082439321888;3130.678;3675
2024-05-13T22:17:18.397;599616082447014096;3138.3704;3701
2024-05-13T22:17:18.405;599616082454706304;3146.0625;3658
2024-05-13T22:17:18.412;599616082462398512;3153.755;3651
2024-05-13T22:17:18.420;599616082470090720;3161.447;3606
2024-05-13T22:17:18.428;599616082477782928;3169.1392;3511
2024-05-13T22:17:18.435;599616082485475136;3176.8315;3516
2024-05-13T22:17:18.443;599616082493167344;3184.5234;3590
2024-05-13T22:17:18.451;599616082500859552;3192.2158;3594
2024-05-13T22:17:18.458;599616082508551760;3199.9082;3575
2024-05-13T22:17:18.466;599616082516243968;3207.6;3599
2024-05-13T22:17:18.474;599616082523936176;3215.2925;3623
2024-05-13T22:17:18.481;599616082531628384;3222.9846;3623
2024-05-13T22:17:18.489;599616082539320592;3230.6768;3611
2024-05-13T22:17:18.497;599616082547012800;3238.3691;3620
2024-05-13T22:17:18.505;599616082554705008;3246.0613;3642
2024-05-13T22:17:18.512;599616082562397216;3253.7534;3613
2024-05-13T22:17:18.520;599616082570089424;3261.4456;3554
2024-05-13T22:17:18.528;599616082577781632;3269.138;3528
2024-05-13T22:17:18.535;599616082585473840;3276.8303;3533
2024-05-13T22:17:18.543;599616082593166048;3284.5222;3514
2024-05-13T22:17:18.551;599616082600858256;3292.2146;3474
2024-05-13T22:17:18.558;599616082608550464;3299.9067;3450
2024-05-13T22:17:18.566;599616082616242672;3307.5989;3431
2024-05-13T22:17:18.574;599616082623934880;3315.291;3410
2024-05-13T22:17:18.581;599616082631627088;3322.9834;3412
2024-05-13T22:17:18.589;599616082639319296;3330.6755;3395
2024-05-13T22:17:18.597;599616082647011504;3338.3677;3362
2024-05-13T22:17:18.605;599616082654703712;3346.06;3358
2024-05-13T22:17:18.612;599616082662395920;3353.752;3386
2024-05-13T22:17:18.620;599616082670088128;3361.4443;3443
2024-05-13T22:17:18.628;599616082677810448;3369.1665;3367
2024-05-13T22:17:18.635;599616082685502238;3376.8584;3204
2024-05-13T22:17:18.643;599616082693194028;3384.55;3239
2024-05-13T22:17:18.651;599616082700885818;3392.2422;3350
2024-05-13T22:17:18.658;599616082708577608;3399.9338;3315
2024-05-13T22:17:18.666;599616082716269398;3407.6257;3225
2024-05-13T22:17:18.674;599616082723961188;3415.3174;3230
2024-05-13T22:17:18.682;599616082731652978;3423.0093;3265
2024-05-13T22:17:18.689;599616082739344768;3430.7012;3170
2024-05-13T22:17:18.697;599616082747036558;3438.3928;3005
2024-05-13T22:17:18.705;599616082754728348;3446.0847;2941
2024-05-13T22:17:18.712;599616082762420138;3453.7764;2974
2024-05-13T22:17:18.720;599616082770111928;3461.4683;2998
2024-05-13T22:17:18.728;599616082777803718;3469.16;2986
2024-05-13T22:17:18.735;599616082785495508;3476.8518;2998
2024-05-13T22:17:18.743;599616082793187298;3484.5435;3017
2024-05-13T22:17:18.751;599616082800879088;3492.2354;2957
2024-05-13T22:17:18.758;599616082808570878;3499.927;2863
2024-05-13T22:17:18.766;599616082816262668;3507.619;2827
2024-05-13T22:17:18.774;599616082823954458;3515.3105;2822
2024-05-13T22:17:18.782;599616082831646248;3523.0024;2754
2024-05-13T22:17:18.789;599616082839338038;3530.6943;2654
2024-05-13T22:17:18.797;599616082847029828;3538.3862;2654
2024-05-13T22:17:18.805;599616082854721618;3546.078;2661
2024-05-13T22:17:18.812;599616082862413408;3553.7698;2600
2024-05-13T22:17:18.820;599616082870105198;3561.4614;2614
2024-05-13T22:17:18.828;599616082877796988;3569.1533;2657
2024-05-13T22:17:18.835;599616082885488778;3576.845;2633
2024-05-13T22:17:18.843;599616082893180568;3584.5369;2609
2024-05-13T22:17:18.851;599616082900872358;3592.2285;2597
2024-05-13T22:17:18.858;599616082908564148;3599.9204;2567
2024-05-13T22:17:18.866;599616082916255938;3607.612;2496
2024-05-13T22:17:18.874;599616082923947728;3615.304;2413
2024-05-13T22:17:18.881;599616082931639518;3622.9956;2394
2024-05-13T22:17:18.889;599616082939331308;3630.6875;2408
2024-05-13T22:17:18.897;599616082947023098;3638.3792;2413
2024-05-13T22:17:18.905;599616082954714888;3646.071;2410
2024-05-13T22:17:18.912;599616082962406678;3653.7627;2413
2024-05-13T22:17:18.920;599616082970098468;3661.4546;2436
2024-05-13T22:17:18.928;599616082977790258;3669.1467;2436
2024-05-13T22:17:18.935;599616082985482048;3676.8384;2401
2024-05-13T22:17:18.943;599616082993173838;3684.5303;2403
2024-05-13T22:17:18.951;599616083000865628;3692.222;2434
2024-05-13T22:17:18.958;599616083008557418;3699.9138;2448
2024-05-13T22:17:18.966;599616083016249208;3707.6055;2439
2024-05-13T22:17:18.974;599616083023940998;3715.2974;2415
2024-05-13T22:17:18.981;599616083031632788;3722.989;2422
2024-05-13T22:17:18.989;599616083039324578;3730.681;2436
2024-05-13T22:17:18.997;599616083047016368;3738.3726;2425
2024-05-13T22:17:19.005;599616083054708158;3746.0645;2422
2024-05-13T22:17:19.012;599616083062399948;3753.756;2434
2024-05-13T22:17:19.020;599616083070091738;3761.448;2429
2024-05-13T22:17:19.028;599616083077783528;3769.1396;2401
2024-05-13T22:17:19.035;599616083085475318;3776.8315;2389
2024-05-13T22:17:19.043;599616083093167108;3784.5232;2398
2024-05-13T22:17:19.051;599616083100858898;3792.215;2370
2024-05-13T22:17:19.058;599616083108550688;3799.9067;2351
2024-05-13T22:17:19.066;599616083116242478;3807.5986;2436
2024-05-13T22:17:19.074;599616083123934268;3815.2905;2673
2024-05-13T22:17:19.081;599616083131626058;3822.9824;2960
2024-05-13T22:17:19.089;599616083139317848;3830.674;2995
2024-05-13T22:17:19.097;599616083147009638;3838.366;2623
2024-05-13T22:17:19.105;599616083154701428;3846.0576;2159
2024-05-13T22:17:19.112;599616083162393218;3853.7495;2038
2024-05-13T22:17:19.120;599616083170085008;3861.4412;2183
2024-05-13T22:17:19.128;599616083177776798;3869.133;2242
2024-05-13T22:17:19.135;599616083185468588;3876.825;2223
2024-05-13T22:17:19.143;599616083193160378;3884.5166;2247
2024-05-13T22:17:19.151;599616083200852168;3892.2085;2266
2024-05-13T22:17:19.158;599616083208543958;3899.9001;2273
2024-05-13T22:17:19.166;599616083216235748;3907.592;2285
2024-05-13T22:17:19.174;599616083223927538;3915.2837;2285
2024-05-13T22:17:19.181;599616083231619328;3922.9756;2290
2024-05-13T22:17:19.189;599616083239311130;3930.6672;2308
2024-05-13T22:17:19.197;599616083247002920;3938.3591;2323
2024-05-13T22:17:19.205;599616083254694710;3946.051;2311
2024-05-13T22:17:19.212;599616083262386500;3953.743;2294
2024-05-13T22:17:19.220;599616083270078290;3961.4346;2313
2024-05-13T22:17:19.228;599616083277770080;3969.1265;2337
2024-05-13T22:17:19.235;599616083285461870;3976.818;2332
2024-05-13T22:17:19.243;599616083293153660;3984.51;2346
2024-05-13T22:17:19.251;599616083300845450;3992.2017;2365
2024-05-13T22:17:19.258;599616083308537240;3999.8936;2351
2024-05-13T22:17:19.266;599616083316229030;4007.5852;2301
2024-05-13T22:17:19.274;599616083323920820;4015.277;2287
2024-05-13T22:17:19.281;599616083331612610;4022.9688;2332
2024-05-13T22:17:19.289;599616083339304400;4030.6606;2349
2024-05-13T22:17:19.297;599616083346996190;4038.3523;2306
2024-05-13T22:17:19.305;599616083354687980;4046.0442;2287
2024-05-13T22:17:19.312;599616083362379770;4053.7358;2299
2024-05-13T22:17:19.320;599616083370071560;4061.4277;2292
2024-05-13T22:17:19.328;599616083377763350;4069.1194;2249
2024-05-13T22:17:19.335;599616083385455140;4076.8113;2228
2024-05-13T22:17:19.343;599616083393146930;4084.5034;2207
2024-05-13T22:17:19.351;599616083400838720;4092.195;2126
2024-05-13T22:17:19.358;599616083408530510;4099.8867;2076
2024-05-13T22:17:19.366;599616083416222300;4107.5786;2079
2024-05-13T22:17:19.374;599616083423914090;4115.2705;2024
2024-05-13T22:17:19.381;599616083431605880;4122.9624;1960
2024-05-13T22:17:19.389;599616083439297670;4130.654;1963
2024-05-13T22:17:19.397;599616083446989460;4138.3457;2001
2024-05-13T22:17:19.405;599616083454681250;4146.0376;2029
2024-05-13T22:17:19.412;599616083462373040;4153.7295;2022
2024-05-13T22:17:19.420;599616083470064830;4161.421;2020
2024-05-13T22:17:19.428;599616083477756620;4169.113;2048
2024-05-13T22:17:19.435;599616083485448410;4176.8047;2050
2024-05-13T22:17:19.443;599616083493140200;4184.4966;2024
2024-05-13T22:17:19.451;599616083500831990;4192.188;2022
2024-05-13T22:17:19.458;599616083508523780;4199.88;2043
2024-05-13T22:17:19.466;599616083516215570;4207.572;2050
2024-05-13T22:17:19.474;599616083523907360;4215.2637;2034
2024-05-13T22:17:19.481;599616083531599150;4222.9556;2027
2024-05-13T22:17:19.489;599616083539290940;4230.6475;2029
2024-05-13T22:17:19.497;599616083546982730;4238.339;2036
2024-05-13T22:17:19.505;599616083554674520;4246.031;2024
2024-05-13T22:17:19.512;599616083562366310;4253.7227;2010
2024-05-13T22:17:19.520;599616083570058100;4261.4146;2034
2024-05-13T22:17:19.528;599616083577749890;4269.106;2031
2024-05-13T22:17:19.535;599616083585441680;4276.798;1989
2024-05-13T22:17:19.543;599616083593133470;4284.4897;1989
2024-05-13T22:17:19.551;599616083600825260;4292.1816;2020
2024-05-13T22:17:19.558;599616083608517050;4299.873;2022
2024-05-13T22:17:19.566;599616083616208840;4307.565;1998
2024-05-13T22:17:19.574;599616083623900630;4315.257;1986
2024-05-13T22:17:19.581;599616083631592420;4322.9487;1984
2024-05-13T22:17:19.589;599616083639284210;4330.6406;1937
2024-05-13T22:17:19.597;599616083646976000;4338.332;1873
2024-05-13T22:17:19.605;599616083654667790;4346.024;1863
2024-05-13T22:17:19.612;599616083662359580;4353.716;1875
2024-05-13T22:17:19.620;599616083670051370;4361.4077;1863
2024-05-13T22:17:19.628;599616083677743160;4369.099;1835
2024-05-13T22:17:19.635;599616083685434950;4376.791;1840
2024-05-13T22:17:19.643;599616083693126740;4384.483;1866
2024-05-13T22:17:19.651;599616083700818530;4392.175;1861
2024-05-13T22:17:19.658;599616083708510320;4399.866;1847
2024-05-13T22:17:19.666;599616083716202110;4407.558;1851
2024-05-13T22:17:19.674;599616083723893900;4415.25;1847
2024-05-13T22:17:19.681;599616083731585690;4422.942;1832
2024-05-13T22:17:19.689;599616083739277480;4430.6333;1832
2024-05-13T22:17:19.697;599616083746969270;4438.3257;1837
2024-05-13T22:17:19.705;599616083754661060;4446.0176;1814
2024-05-13T22:17:19.712;599616083762352850;4453.7095;1766
2024-05-13T22:17:19.720;599616083770044640;4461.401;1735
2024-05-13T22:17:19.728;599616083777736430;4469.093;1721
2024-05-13T22:17:19.735;599616083785428220;4476.7847;1709
2024-05-13T22:17:19.743;599616083793120010;4484.4766;1705
2024-05-13T22:17:19.751;599616083800811812;4492.168;1697
2024-05-13T22:17:19.758;599616083808503602;4499.86;1693
2024-05-13T22:17:19.766;599616083816195392;4507.552;1683
2024-05-13T22:17:19.774;599616083823887182;4515.2437;1671
2024-05-13T22:17:19.781;599616083831578972;4522.935;1669
2024-05-13T22:17:19.789;599616083839270762;4530.627;1652
2024-05-13T22:17:19.797;599616083846962552;4538.319;1657
2024-05-13T22:17:19.805;599616083854654342;4546.0107;1769
2024-05-13T22:17:19.812;599616083862346132;4553.7026;2036
2024-05-13T22:17:19.820;599616083870037922;4561.394;2297
2024-05-13T22:17:19.828;599616083877729712;4569.086;2216
2024-05-13T22:17:19.835;599616083885421502;4576.778;1778
2024-05-13T22:17:19.843;599616083893113292;4584.4697;1430
2024-05-13T22:17:19.851;599616083900805082;4592.161;1454
2024-05-13T22:17:19.858;599616083908496872;4599.853;1546
2024-05-13T22:17:19.866;599616083916188662;4607.545;1472
2024-05-13T22:17:19.874;599616083923880452;4615.237;1432
2024-05-13T22:17:19.881;599616083931572242;4622.928;1461
2024-05-13T22:17:19.889;599616083939264032;4630.62;1428
2024-05-13T22:17:19.897;599616083946955822;4638.312;1418
2024-05-13T22:17:19.905;599616083954647612;4646.004;1480
2024-05-13T22:17:19.912;599616083962339402;4653.6953;1520
2024-05-13T22:17:19.920;599616083970031192;4661.387;1536
2024-05-13T22:17:19.928;599616083977722982;4669.079;1548
2024-05-13T22:17:19.935;599616083985414772;4676.771;1574
2024-05-13T22:17:19.943;599616083993106562;4684.4624;1600
2024-05-13T22:17:19.951;599616084000798352;4692.1543;1593
2024-05-13T22:17:19.958;599616084008490142;4699.846;1607
2024-05-13T22:17:19.966;599616084016181932;4707.538;1655
2024-05-13T22:17:19.974;599616084023873722;4715.23;1690
2024-05-13T22:17:19.981;599616084031565512;4722.922;1700
2024-05-13T22:17:19.989;599616084039257302;4730.614;1697
2024-05-13T22:17:19.997;599616084046949092;4738.3057;1719
2024-05-13T22:17:20.004;599616084054640882;4745.997;1759
2024-05-13T22:17:20.012;599616084062332672;4753.689;1771
2024-05-13T22:17:20.020;599616084070024462;4761.381;1787
2024-05-13T22:17:20.028;599616084077716252;4769.0728;1814
2024-05-13T22:17:20.035;599616084085408042;4776.7646;1806
2024-05-13T22:17:20.043;599616084093099832;4784.456;1785
2024-05-13T22:17:20.051;599616084100791622;4792.148;1776
2024-05-13T22:17:20.058;599616084108483412;4799.84;1785
2024-05-13T22:17:20.066;599616084116175202;4807.5317;1778
2024-05-13T22:17:20.074;599616084123866992;4815.223;1752
2024-05-13T22:17:20.081;599616084131558782;4822.915;1724
2024-05-13T22:17:20.089;599616084139250572;4830.607;1674
2024-05-13T22:17:20.097;599616084146942362;4838.299;1648
2024-05-13T22:17:20.104;599616084154634152;4845.99;1660
2024-05-13T22:17:20.112;599616084162325942;4853.682;1671
2024-05-13T22:17:20.120;599616084170017732;4861.374;1693
2024-05-13T22:17:20.128;599616084177709522;4869.066;1700
2024-05-13T22:17:20.135;599616084185401312;4876.7573;1683
2024-05-13T22:17:20.143;599616084193093102;4884.449;1700
2024-05-13T22:17:20.151;599616084200784892;4892.141;1728
2024-05-13T22:17:20.158;599616084208476682;4899.833;1738
2024-05-13T22:17:20.166;599616084216168472;4907.5244;1731
2024-05-13T22:17:20.174;599616084223860262;4915.2163;1724
2024-05-13T22:17:20.181;599616084231552052;4922.908;1728
2024-05-13T22:17:20.189;599616084239243842;4930.6;1728
2024-05-13T22:17:20.197;599616084246935632;4938.2915;1726
2024-05-13T22:17:20.204;599616084254627422;4945.9834;1740
2024-05-13T22:17:20.212;599616084262319212;4953.6753;1750
2024-05-13T22:17:20.220;599616084270011002;4961.367;1735
2024-05-13T22:17:20.228;599616084277702792;4969.0586;1714
2024-05-13T22:17:20.235;599616084285394582;4976.7505;1728
2024-05-13T22:17:20.243;599616084293086372;4984.4424;1750
2024-05-13T22:17:20.251;599616084300778162;4992.135;1740
2024-05-13T22:17:20.258;599616084308469952;4999.8267;1735
2024-05-13T22:17:20.266;599616084316161742;5007.518;1738
2024-05-13T22:17:20.274;599616084323853532;5015.21;1733
2024-05-13T22:17:20.281;599616084331545322;5022.902;1735
2024-05-13T22:17:20.289;599616084339237112;5030.5938;1735
2024-05-13T22:17:20.297;599616084346928902;5038.285;1750
2024-05-13T22:17:20.304;599616084354620692;5045.977;1769
2024-05-13T22:17:20.312;599616084362287438;5053.6436;1750
2024-05-13T22:17:20.320;599616084369979576;5061.336;1742
2024-05-13T22:17:20.328;599616084377671714;5069.028;1752
2024-05-13T22:17:20.335;599616084385363852;5076.72;1728
2024-05-13T22:17:20.343;599616084393055990;5084.4126;1702
2024-05-13T22:17:20.351;599616084400748128;5092.104;1712
2024-05-13T22:17:20.358;599616084408440266;5099.7964;1731
2024-05-13T22:17:20.366;599616084416132404;5107.489;1705
2024-05-13T22:17:20.374;599616084423824542;5115.1807;1657
2024-05-13T22:17:20.381;599616084431516680;5122.873;1631
2024-05-13T22:17:20.389;599616084439208818;5130.565;1593
2024-05-13T22:17:20.397;599616084446900956;5138.2573;1553
2024-05-13T22:17:20.404;599616084454593094;5145.949;1551
2024-05-13T22:17:20.412;599616084462285232;5153.6416;1562
2024-05-13T22:17:20.420;599616084469977370;5161.334;1596
2024-05-13T22:17:20.428;599616084477669508;5169.0254;1622
2024-05-13T22:17:20.435;599616084485361646;5176.718;1624
2024-05-13T22:17:20.443;599616084493053784;5184.41;1634
2024-05-13T22:17:20.451;599616084500745922;5192.1025;1648
2024-05-13T22:17:20.458;599616084508438060;5199.794;1660
2024-05-13T22:17:20.466;599616084516130198;5207.4863;1664
2024-05-13T22:17:20.474;599616084523822336;5215.1787;1662
2024-05-13T22:17:20.481;599616084531514474;5222.8706;1679
2024-05-13T22:17:20.489;599616084539206612;5230.563;1681
2024-05-13T22:17:20.497;599616084546898750;5238.255;1669
2024-05-13T22:17:20.504;599616084554590888;5245.947;1681
2024-05-13T22:17:20.512;599616084562283026;5253.639;1702
2024-05-13T22:17:20.520;599616084569975164;5261.3315;1693
2024-05-13T22:17:20.528;599616084577667302;5269.024;1660
2024-05-13T22:17:20.535;599616084585359440;5276.7153;1690
2024-05-13T22:17:20.543;599616084593051578;5284.4077;1854
2024-05-13T22:17:20.551;599616084600743716;5292.1;2095
2024-05-13T22:17:20.558;599616084608435854;5299.792;2268
2024-05-13T22:17:20.566;599616084616127992;5307.4844;2138
2024-05-13T22:17:20.574;599616084623820130;5315.1763;1728
2024-05-13T22:17:20.581;599616084631512268;5322.8687;1468
2024-05-13T22:17:20.589;599616084639204406;5330.5605;1529
2024-05-13T22:17:20.597;599616084646896544;5338.253;1622
2024-05-13T22:17:20.604;599616084654588682;5345.9453;1612
2024-05-13T22:17:20.612;599616084662280820;5353.6367;1619
2024-05-13T22:17:20.620;599616084669972958;5361.329;1664
2024-05-13T22:17:20.628;599616084677665096;5369.0215;1679
2024-05-13T22:17:20.635;599616084685357234;5376.714;1671
2024-05-13T22:17:20.643;599616084693049372;5384.4053;1669
2024-05-13T22:17:20.651;599616084700741510;5392.0977;1679
2024-05-13T22:17:20.658;599616084708433648;5399.79;1705
2024-05-13T22:17:20.666;599616084716125786;5407.482;1724
2024-05-13T22:17:20.674;599616084723817924;5415.1743;1712
2024-05-13T22:17:20.681;599616084731510062;5422.866;1707
2024-05-13T22:17:20.689;599616084739202200;5430.558;1714
2024-05-13T22:17:20.697;599616084746894338;5438.2505;1726
2024-05-13T22:17:20.704;599616084754586476;5445.943;1735
2024-05-13T22:17:20.712;599616084762278614;5453.6353;1752
2024-05-13T22:17:20.720;599616084769970752;5461.3267;1787
2024-05-13T22:17:20.728;599616084777662890;5469.019;1795
2024-05-13T22:17:20.735;599616084785355028;5476.7114;1780
2024-05-13T22:17:20.743;599616084793047166;5484.4033;1809
2024-05-13T22:17:20.751;599616084800739304;5492.0957;1844
2024-05-13T22:17:20.758;599616084808431442;5499.7876;1851
2024-05-13T22:17:20.766;599616084816123580;5507.48;1840
2024-05-13T22:17:20.774;599616084823815718;5515.172;1828
2024-05-13T22:17:20.781;599616084831507856;5522.8643;1825
2024-05-13T22:17:20.789;599616084839199994;5530.5566;1814
2024-05-13T22:17:20.797;599616084846892132;5538.248;1795
2024-05-13T22:17:20.804;599616084854584270;5545.9404;1787
2024-05-13T22:17:20.812;599616084862276408;5553.633;1780
2024-05-13T22:17:20.820;599616084869968546;5561.3247;1750
2024-05-13T22:17:20.828;599616084877660684;5569.0166;1695
2024-05-13T22:17:20.835;599616084885352822;5576.709;1676
2024-05-13T22:17:20.843;599616084893044960;5584.4014;1707
2024-05-13T22:17:20.851;599616084900737098;5592.0933;1707
2024-05-13T22:17:20.858;599616084908429236;5599.7856;1705
2024-05-13T22:17:20.866;599616084916121374;5607.4775;1714
2024-05-13T22:17:20.874;599616084923833638;5615.19;1707
2024-05-13T22:17:20.881;599616084931525497;5622.882;1702
2024-05-13T22:17:20.889;599616084939217356;5630.5737;1695
2024-05-13T22:17:20.897;599616084946909215;5638.265;1660
2024-05-13T22:17:20.904;599616084954601074;5645.957;1612
2024-05-13T22:17:20.912;599616084962292933;5653.6494;1596
2024-05-13T22:17:20.920;599616084969984792;5661.3413;1612
2024-05-13T22:17:20.928;599616084977676651;5669.033;1626
2024-05-13T22:17:20.935;599616084985368510;5676.7246;1629
2024-05-13T22:17:20.943;599616084993060369;5684.4165;1591
2024-05-13T22:17:20.951;599616085000752228;5692.1084;1541
2024-05-13T22:17:20.958;599616085008444087;5699.801;1553
2024-05-13T22:17:20.966;599616085016135946;5707.492;1574
2024-05-13T22:17:20.974;599616085023827805;5715.184;1560
2024-05-13T22:17:20.981;599616085031519664;5722.876;1562
2024-05-13T22:17:20.989;599616085039211523;5730.568;1579
2024-05-13T22:17:20.997;599616085046903382;5738.2593;1584
2024-05-13T22:17:21.004;599616085054595241;5745.951;1570
2024-05-13T22:17:21.012;599616085062287100;5753.6436;1562
2024-05-13T22:17:21.020;599616085069978959;5761.3354;1591
2024-05-13T22:17:21.028;599616085077670818;5769.027;1596
2024-05-13T22:17:21.035;599616085085362677;5776.7188;1577
2024-05-13T22:17:21.043;599616085093054536;5784.4106;1589
2024-05-13T22:17:21.051;599616085100746395;5792.1025;1598
2024-05-13T22:17:21.058;599616085108438254;5799.795;1589
2024-05-13T22:17:21.066;599616085116130113;5807.4863;1572
2024-05-13T22:17:21.074;599616085123821972;5815.178;1546
2024-05-13T22:17:21.081;599616085131513831;5822.87;1539
2024-05-13T22:17:21.089;599616085139205690;5830.562;1546
2024-05-13T22:17:21.097;599616085146897549;5838.2534;1534
2024-05-13T22:17:21.104;599616085154589408;5845.946;1529
2024-05-13T22:17:21.112;599616085162281267;5853.6377;1551
2024-05-13T22:17:21.120;599616085169973126;5861.3296;1567
2024-05-13T22:17:21.128;599616085177664985;5869.021;1553
2024-05-13T22:17:21.135;599616085185356844;5876.713;1553
2024-05-13T22:17:21.143;599616085193048703;5884.405;1572
2024-05-13T22:17:21.151;599616085200740562;5892.097;1562
2024-05-13T22:17:21.158;599616085208432421;5899.7886;1558
2024-05-13T22:17:21.166;599616085216124280;5907.4805;1572
2024-05-13T22:17:21.174;599616085223816139;5915.1724;1586
2024-05-13T22:17:21.181;599616085231507998;5922.8643;1593
2024-05-13T22:17:21.189;599616085239199857;5930.5557;1574
2024-05-13T22:17:21.197;599616085246891716;5938.248;1570
2024-05-13T22:17:21.204;599616085254583575;5945.94;1591
2024-05-13T22:17:21.212;599616085262275434;5953.632;1598
2024-05-13T22:17:21.220;599616085269967293;5961.3237;1603
2024-05-13T22:17:21.228;599616085277659152;5969.015;1615
2024-05-13T22:17:21.235;599616085285351011;5976.707;1610
2024-05-13T22:17:21.243;599616085293042870;5984.3994;1591
2024-05-13T22:17:21.251;599616085300734729;5992.0913;1589
2024-05-13T22:17:21.258;599616085308426588;5999.7827;1622
2024-05-13T22:17:21.266;599616085316118447;6007.4746;1641
2024-05-13T22:17:21.274;599616085323810306;6015.1665;1624
2024-05-13T22:17:21.281;599616085331502165;6022.8584;1615
2024-05-13T22:17:21.289;599616085339194024;6030.55;1617
2024-05-13T22:17:21.297;599616085346885883;6038.242;1626
2024-05-13T22:17:21.304;599616085354577742;6045.934;1634
2024-05-13T22:17:21.312;599616085362269601;6053.626;1619
2024-05-13T22:17:21.320;599616085369961460;6061.318;1591
2024-05-13T22:17:21.328;599616085377653319;6069.0093;1551
2024-05-13T22:17:21.335;599616085385345178;6076.701;1536
2024-05-13T22:17:21.343;599616085393037037;6084.3936;1562
2024-05-13T22:17:21.351;599616085400728896;6092.0854;1581
2024-05-13T22:17:21.358;599616085408420755;6099.777;1584
2024-05-13T22:17:21.366;599616085416112614;6107.4688;1570
2024-05-13T22:17:21.374;599616085423804473;6115.1606;1560
2024-05-13T22:17:21.381;599616085431496332;6122.8525;1570
2024-05-13T22:17:21.389;599616085439188191;6130.5444;1567
2024-05-13T22:17:21.397;599616085446880050;6138.2363;1546
2024-05-13T22:17:21.404;599616085454571909;6145.928;1501
2024-05-13T22:17:21.412;599616085462263768;6153.62;1458
2024-05-13T22:17:21.420;599616085469955627;6161.3115;1465
2024-05-13T22:17:21.428;599616085477647486;6169.0034;1465
2024-05-13T22:17:21.435;599616085485339408;6176.696;1465
2024-05-13T22:17:21.443;599616085493031267;6184.3877;1499
2024-05-13T22:17:21.451;599616085500723126;6192.0796;1503
2024-05-13T22:17:21.458;599616085508414985;6199.771;1475
2024-05-13T22:17:21.466;599616085516106844;6207.463;1449
2024-05-13T22:17:21.474;599616085523798703;6215.1553;1458
2024-05-13T22:17:21.481;599616085531490562;6222.847;1560
2024-05-13T22:17:21.489;599616085539182421;6230.5386;1761
2024-05-13T22:17:21.497;599616085546874280;6238.2305;1956
2024-05-13T22:17:21.504;599616085554566139;6245.9224;1870
2024-05-13T22:17:21.512;599616085562257998;6253.6143;1456
2024-05-13T22:17:21.520;599616085569949857;6261.3057;1181
2024-05-13T22:17:21.527;599616085577641716;6268.998;1271
2024-05-13T22:17:21.535;599616085585333575;6276.69;1375
2024-05-13T22:17:21.543;599616085593025434;6284.382;1345
2024-05-13T22:17:21.551;599616085600717293;6292.073;1349
2024-05-13T22:17:21.558;599616085608409152;6299.765;1380
2024-05-13T22:17:21.566;599616085616101011;6307.457;1333
2024-05-13T22:17:21.574;599616085623792870;6315.1494;1290
2024-05-13T22:17:21.581;599616085631484729;6322.8413;1326
2024-05-13T22:17:21.589;599616085639176588;6330.5327;1349
2024-05-13T22:17:21.597;599616085646868447;6338.2246;1347
2024-05-13T22:17:21.604;599616085654560306;6345.9165;1340
2024-05-13T22:17:21.612;599616085662252165;6353.6084;1333
2024-05-13T22:17:21.620;599616085669944024;6361.3003;1359
2024-05-13T22:17:21.627;599616085677635883;6368.992;1378
2024-05-13T22:17:21.635;599616085685327742;6376.684;1373
2024-05-13T22:17:21.643;599616085693019601;6384.376;1387
2024-05-13T22:17:21.651;599616085700711460;6392.0674;1394
2024-05-13T22:17:21.658;599616085708403319;6399.7593;1387
2024-05-13T22:17:21.666;599616085716095178;6407.4517;1387
2024-05-13T22:17:21.674;599616085723787037;6415.1436;1409
2024-05-13T22:17:21.681;599616085731478896;6422.835;1444
2024-05-13T22:17:21.689;599616085739170755;6430.527;1444
2024-05-13T22:17:21.697;599616085746862614;6438.2188;1423
2024-05-13T22:17:21.704;599616085754554473;6445.9106;1428
2024-05-13T22:17:21.712;599616085762246332;6453.603;1437
2024-05-13T22:17:21.720;599616085769938191;6461.2944;1430
2024-05-13T22:17:21.727;599616085777630050;6468.9863;1406
2024-05-13T22:17:21.735;599616085785321909;6476.678;1392
2024-05-13T22:17:21.743;599616085793013768;6484.37;1380
2024-05-13T22:17:21.751;599616085800705627;6492.0615;1340
2024-05-13T22:17:21.758;599616085808397486;6499.754;1323
2024-05-13T22:17:21.766;599616085816089345;6507.446;1330
2024-05-13T22:17:21.774;599616085823781204;6515.1377;1316
2024-05-13T22:17:21.781;599616085831473063;6522.829;1300
2024-05-13T22:17:21.789;599616085839164922;6530.521;1276
2024-05-13T22:17:21.797;599616085846856781;6538.213;1266
2024-05-13T22:17:21.804;599616085854548640;6545.905;1274
2024-05-13T22:17:21.812;599616085862240499;6553.597;1252
2024-05-13T22:17:21.820;599616085869932358;6561.2886;1236
2024-05-13T22:17:21.827;599616085877624217;6568.9805;1245
2024-05-13T22:17:21.835;599616085885316076;6576.6724;1238
2024-05-13T22:17:21.843;599616085893007935;6584.3643;1221
2024-05-13T22:17:21.851;599616085900699794;6592.0557;1221
2024-05-13T22:17:21.858;599616085908391653;6599.748;1243
2024-05-13T22:17:21.866;599616085916083512;6607.44;1245
2024-05-13T22:17:21.874;599616085923775371;6615.132;1221
2024-05-13T22:17:21.881;599616085931467230;6622.823;1207
2024-05-13T22:17:21.889;599616085939159089;6630.515;1210
2024-05-13T22:17:21.897;599616085946850948;6638.207;1210
2024-05-13T22:17:21.904;599616085954542807;6645.8994;1162
2024-05-13T22:17:21.912;599616085962234666;6653.591;1091
2024-05-13T22:17:21.920;599616085969926525;6661.2827;1098
2024-05-13T22:17:21.927;599616085977618384;6668.9746;1110
2024-05-13T22:17:21.935;599616085985310243;6676.6665;1077
2024-05-13T22:17:21.943;599616085993002102;6684.358;1079
2024-05-13T22:17:21.951;599616086000693961;6692.0503;1103
2024-05-13T22:17:21.958;599616086008385820;6699.742;1101
2024-05-13T22:17:21.966;599616086016077679;6707.434;1086
2024-05-13T22:17:21.974;599616086023769538;6715.126;1075
2024-05-13T22:17:21.981;599616086031461397;6722.8174;1068
2024-05-13T22:17:21.989;599616086039153256;6730.5093;1049
2024-05-13T22:17:21.997;599616086046825088;6738.181;1046
2024-05-13T22:17:22.004;599616086054517226;6745.8735;1063
2024-05-13T22:17:22.012;599616086062209364;6753.566;1041
2024-05-13T22:17:22.020;599616086069901502;6761.258;978
2024-05-13T22:17:22.027;599616086077593640;6768.9497;907
2024-05-13T22:17:22.035;599616086085285778;6776.642;907
2024-05-13T22:17:22.043;599616086092977916;6784.3345;944
2024-05-13T22:17:22.051;599616086100670054;6792.026;921
2024-05-13T22:17:22.058;599616086108362192;6799.7183;873
2024-05-13T22:17:22.066;599616086116054330;6807.4106;850
2024-05-13T22:17:22.074;599616086123746468;6815.1025;838
2024-05-13T22:17:22.081;599616086131438606;6822.795;828
2024-05-13T22:17:22.089;599616086139130744;6830.487;807
2024-05-13T22:17:22.097;599616086146822882;6838.179;800
2024-05-13T22:17:22.104;599616086154515020;6845.871;793
2024-05-13T22:17:22.112;599616086162207158;6853.5635;757
2024-05-13T22:17:22.120;599616086169899296;6861.256;745
2024-05-13T22:17:22.127;599616086177591434;6868.9473;745
2024-05-13T22:17:22.135;599616086185283572;6876.6396;734
2024-05-13T22:17:22.143;599616086192975710;6884.332;724
2024-05-13T22:17:22.151;599616086200667848;6892.0244;698
2024-05-13T22:17:22.158;599616086208359986;6899.7163;665
2024-05-13T22:17:22.166;599616086216052124;6907.408;641
2024-05-13T22:17:22.174;599616086223744262;6915.1006;615
2024-05-13T22:17:22.181;599616086231436400;6922.7925;596
2024-05-13T22:17:22.189;599616086239128538;6930.485;582
2024-05-13T22:17:22.197;599616086246820676;6938.1772;561
2024-05-13T22:17:22.204;599616086254512814;6945.8687;516
2024-05-13T22:17:22.212;599616086262204952;6953.561;471
2024-05-13T22:17:22.220;599616086269897090;6961.2534;466
2024-05-13T22:17:22.227;599616086277589228;6968.946;461
2024-05-13T22:17:22.235;599616086285281366;6976.637;431
2024-05-13T22:17:22.243;599616086292973504;6984.3296;407
2024-05-13T22:17:22.251;599616086300665642;6992.022;388
2024-05-13T22:17:22.258;599616086308357780;6999.714;367
2024-05-13T22:17:22.266;599616086316049918;7007.4062;355
2024-05-13T22:17:22.274;599616086323742056;7015.098;343
2024-05-13T22:17:22.281;599616086331434194;7022.7905;324
2024-05-13T22:17:22.289;599616086339126332;7030.4824;281
2024-05-13T22:17:22.297;599616086346818470;7038.175;215
2024-05-13T22:17:22.304;599616086354510608;7045.867;146
2024-05-13T22:17:22.312;599616086362202746;7053.5586;116
2024-05-13T22:17:22.320;599616086369894884;7061.251;125
2024-05-13T22:17:22.327;599616086377587022;7068.9434;118
2024-05-13T22:17:22.335;599616086385279160;7076.6357;97
2024-05-13T22:17:22.343;599616086392971298;7084.3276;75
2024-05-13T22:17:22.351;599616086400663436;7092.0195;61
2024-05-13T22:17:22.358;599616086408355574;7099.712;73
2024-05-13T22:17:22.366;599616086416047712;7107.404;87
2024-05-13T22:17:22.374;599616086423739850;7115.096;78
2024-05-13T22:17:22.381;599616086431431988;7122.7886;52
2024-05-13T22:17:22.389;599616086439124126;7130.48;9
2024-05-13T22:17:22.397;599616086446816264;7138.1724;23
2024-05-13T22:17:22.404;599616086454508402;7145.8647;137
2024-05-13T22:17:22.412;599616086462200540;7153.557;326
2024-05-13T22:17:22.420;599616086469892678;7161.2485;518
2024-05-13T22:17:22.427;599616086477584816;7168.941;412
2024-05-13T22:17:22.435;599616086485276954;7176.6333;-73
2024-05-13T22:17:22.443;599616086492969092;7184.325;-414
2024-05-13T22:17:22.451;599616086500661230;7192.0176;-307
2024-05-13T22:17:22.458;599616086508353368;7199.7095;-153
2024-05-13T22:17:22.466;599616086516045506;7207.402;-184
2024-05-13T22:17:22.474;599616086523737644;7215.0938;-201
2024-05-13T22:17:22.481;599616086531429782;7222.786;-156
2024-05-13T22:17:22.489;599616086539121920;7230.4785;-142
2024-05-13T22:17:22.497;599616086546814058;7238.17;-137
2024-05-13T22:17:22.504;599616086554506196;7245.8623;-111
2024-05-13T22:17:22.512;599616086562198334;7253.5547;-87
2024-05-13T22:17:22.520;599616086569890472;7261.2466;-68
2024-05-13T22:17:22.527;599616086577582610;7268.939;-73
2024-05-13T22:17:22.535;599616086585274748;7276.631;-71
2024-05-13T22:17:22.543;599616086592966886;7284.323;-56
2024-05-13T22:17:22.551;599616086600659024;7292.015;-73
2024-05-13T22:17:22.558;599616086608361210;7299.718;-75
2024-05-13T22:17:22.566;599616086616053209;7307.409;-47
2024-05-13T22:17:22.574;599616086623745208;7315.1016;-26
2024-05-13T22:17:22.581;599616086631437207;7322.7935;11
2024-05-13T22:17:22.589;599616086639129206;7330.4854;52
2024-05-13T22:17:22.597;599616086646821205;7338.1777;82
2024-05-13T22:17:22.604;599616086654513204;7345.869;120
2024-05-13T22:17:22.612;599616086662205203;7353.5615;137
2024-05-13T22:17:22.620;599616086669897202;7361.2534;101
2024-05-13T22:17:22.627;599616086677589201;7368.946;71
2024-05-13T22:17:22.635;599616086685281200;7376.637;111
2024-05-13T22:17:22.643;599616086692973199;7384.329;142
2024-05-13T22:17:22.651;599616086700665198;7392.0215;123
2024-05-13T22:17:22.658;599616086708357197;7399.7134;123
2024-05-13T22:17:22.666;599616086716049196;7407.406;127
2024-05-13T22:17:22.674;599616086723741195;7415.097;101
2024-05-13T22:17:22.681;599616086731433194;7422.7896;87
2024-05-13T22:17:22.689;599616086739125193;7430.4814;94
2024-05-13T22:17:22.697;599616086746817192;7438.1733;108
2024-05-13T22:17:22.704;599616086754509191;7445.865;97
2024-05-13T22:17:22.712;599616086762201190;7453.557;66
2024-05-13T22:17:22.720;599616086769893189;7461.2495;89
2024-05-13T22:17:22.727;599616086777585188;7468.9414;132
2024-05-13T22:17:22.735;599616086785277187;7476.634;130
2024-05-13T22:17:22.743;599616086792969186;7484.325;127
2024-05-13T22:17:22.751;599616086800661185;7492.0176;144
2024-05-13T22:17:22.758;599616086808353184;7499.7095;153
2024-05-13T22:17:22.766;599616086816045183;7507.4014;142
2024-05-13T22:17:22.774;599616086823737182;7515.0933;130
2024-05-13T22:17:22.781;599616086831429181;7522.785;153
2024-05-13T22:17:22.789;599616086839121180;7530.4775;149
2024-05-13T22:17:22.797;599616086846813179;7538.1694;89
2024-05-13T22:17:22.804;599616086854505178;7545.862;49
2024-05-13T22:17:22.812;599616086862197177;7553.553;63
2024-05-13T22:17:22.820;599616086869889176;7561.245;99
2024-05-13T22:17:22.827;599616086877581175;7568.9375;101
2024-05-13T22:17:22.835;599616086885273174;7576.6294;92
2024-05-13T22:17:22.843;599616086892965173;7584.322;94
2024-05-13T22:17:22.851;599616086900657172;7592.013;85
2024-05-13T22:17:22.858;599616086908349171;7599.7056;78
2024-05-13T22:17:22.866;599616086916041170;7607.3975;85
2024-05-13T22:17:22.874;599616086923733169;7615.09;92
2024-05-13T22:17:22.881;599616086931425168;7622.7812;101
2024-05-13T22:17:22.889;599616086939117167;7630.473;89
2024-05-13T22:17:22.897;599616086946809166;7638.1655;73
2024-05-13T22:17:22.904;599616086954501165;7645.8574;85
2024-05-13T22:17:22.912;599616086962193164;7653.55;78
2024-05-13T22:17:22.920;599616086969885163;7661.241;21
2024-05-13T22:17:22.927;599616086977577162;7668.9336;-4
2024-05-13T22:17:22.935;599616086985269161;7676.6255;28
2024-05-13T22:17:22.943;599616086992961160;7684.3174;44
2024-05-13T22:17:22.951;599616087000653159;7692.0093;33
2024-05-13T22:17:22.958;599616087008345158;7699.701;54
2024-05-13T22:17:22.966;599616087016037157;7707.3936;85
2024-05-13T22:17:22.974;599616087023729156;7715.0854;85
2024-05-13T22:17:22.981;599616087031421155;7722.778;71
2024-05-13T22:17:22.989;599616087039113154;7730.469;59
2024-05-13T22:17:22.997;599616087046805153;7738.161;73
2024-05-13T22:17:23.004;599616087054497152;7745.8535;99
2024-05-13T22:17:23.012;599616087062189151;7753.5454;92
2024-05-13T22:17:23.020;599616087069881150;7761.2373;99
2024-05-13T22:17:23.027;599616087077573149;7768.929;111
2024-05-13T22:17:23.035;599616087085265148;7776.6216;92
2024-05-13T22:17:23.043;599616087092957147;7784.3135;59
2024-05-13T22:17:23.051;599616087100649146;7792.006;59
2024-05-13T22:17:23.058;599616087108341145;7799.6973;99
2024-05-13T22:17:23.066;599616087116033144;7807.389;116
2024-05-13T22:17:23.074;599616087123725143;7815.0815;97
2024-05-13T22:17:23.081;599616087131417142;7822.7734;106
2024-05-13T22:17:23.089;599616087139109141;7830.4653;130
2024-05-13T22:17:23.097;599616087146801140;7838.157;132
2024-05-13T22:17:23.104;599616087154493139;7845.8496;132
2024-05-13T22:17:23.112;599616087162185138;7853.5415;149
2024-05-13T22:17:23.120;599616087169877150;7861.233;168
2024-05-13T22:17:23.127;599616087177569149;7868.9253;153
2024-05-13T22:17:23.135;599616087185261148;7876.617;144
2024-05-13T22:17:23.143;599616087192953147;7884.3096;172
2024-05-13T22:17:23.151;599616087200645146;7892.0015;198
2024-05-13T22:17:23.158;599616087208337145;7899.6934;203
2024-05-13T22:17:23.166;599616087216029144;7907.3853;198
2024-05-13T22:17:23.174;599616087223721143;7915.0776;203
2024-05-13T22:17:23.181;599616087231413142;7922.7695;206
2024-05-13T22:17:23.189;599616087239105141;7930.4614;161
2024-05-13T22:17:23.197;599616087246797140;7938.1533;111
2024-05-13T22:17:23.204;599616087254489139;7945.845;111
2024-05-13T22:17:23.212;599616087262181138;7953.5376;101
2024-05-13T22:17:23.220;599616087269873137;7961.2295;78
2024-05-13T22:17:23.227;599616087277565136;7968.9214;80
2024-05-13T22:17:23.235;599616087285257135;7976.6133;94
2024-05-13T22:17:23.243;599616087292949134;7984.305;85
2024-05-13T22:17:23.250;599616087300641133;7991.9976;108
2024-05-13T22:17:23.258;599616087308333132;7999.6895;307
2024-05-13T22:17:23.266;599616087316025131;8007.3813;637
2024-05-13T22:17:23.274;599616087323717130;8015.073;814
2024-05-13T22:17:23.281;599616087331409129;8022.7656;589
2024-05-13T22:17:23.289;599616087339101128;8030.4575;87
2024-05-13T22:17:23.297;599616087346793127;8038.149;-153
2024-05-13T22:17:23.304;599616087354485126;8045.8413;-11
2024-05-13T22:17:23.312;599616087362177125;8053.533;68
2024-05-13T22:17:23.320;599616087369869124;8061.2256;7
2024-05-13T22:17:23.327;599616087377561123;8068.9175;11
2024-05-13T22:17:23.335;599616087385253122;8076.6094;42
2024-05-13T22:17:23.343;599616087392945121;8084.3013;16
2024-05-13T22:17:23.350;599616087400637120;8091.9937;0
2024-05-13T22:17:23.358;599616087408329119;8099.6855;23
2024-05-13T22:17:23.366;599616087416021118;8107.377;37
2024-05-13T22:17:23.374;599616087423713117;8115.0693;40
2024-05-13T22:17:23.381;599616087431405116;8122.761;71
2024-05-13T22:17:23.389;599616087439097115;8130.4536;97
2024-05-13T22:17:23.397;599616087446789114;8138.1455;94
2024-05-13T22:17:23.404;599616087454481113;8145.8374;85
2024-05-13T22:17:23.412;599616087462173112;8153.5293;97
2024-05-13T22:17:23.420;599616087469865111;8161.221;89
2024-05-13T22:17:23.427;599616087477557110;8168.9136;35
2024-05-13T22:17:23.435;599616087485249109;8176.605;40
2024-05-13T22:17:23.443;599616087492941108;8184.2974;108
2024-05-13T22:17:23.450;599616087500633107;8191.9893;127
2024-05-13T22:17:23.458;599616087508325106;8199.682;137
2024-05-13T22:17:23.466;599616087516017105;8207.373;182
2024-05-13T22:17:23.474;599616087523709104;8215.065;222
2024-05-13T22:17:23.481;599616087531401103;8222.758;251
2024-05-13T22:17:23.489;599616087539093102;8230.449;243
2024-05-13T22:17:23.497;599616087546785101;8238.142;222
2024-05-13T22:17:23.504;599616087554477100;8245.833;227
2024-05-13T22:17:23.512;599616087562169099;8253.525;236
2024-05-13T22:17:23.520;599616087569861098;8261.217;222
2024-05-13T22:17:23.527;599616087577553097;8268.909;182
2024-05-13T22:17:23.535;599616087585245096;8276.602;142
2024-05-13T22:17:23.543;599616087592937095;8284.293;116
2024-05-13T22:17:23.550;599616087600629094;8291.985;108
2024-05-13T22:17:23.558;599616087608321093;8299.677;127
2024-05-13T22:17:23.566;599616087616013092;8307.369;161
2024-05-13T22:17:23.574;599616087623705091;8315.062;179
2024-05-13T22:17:23.581;599616087631397090;8322.754;191
2024-05-13T22:17:23.589;599616087639089089;8330.445;191
2024-05-13T22:17:23.597;599616087646781088;8338.137;206
2024-05-13T22:17:23.604;599616087654473087;8345.829;236
2024-05-13T22:17:23.612;599616087662165086;8353.521;243
2024-05-13T22:17:23.620;599616087669857085;8361.214;253
2024-05-13T22:17:23.627;599616087677549084;8368.905;272
2024-05-13T22:17:23.635;599616087685241083;8376.598;265
2024-05-13T22:17:23.643;599616087692933082;8384.289;253
2024-05-13T22:17:23.650;599616087700625081;8391.981;267
2024-05-13T22:17:23.658;599616087708317080;8399.674;300
2024-05-13T22:17:23.666;599616087716009079;8407.365;307
2024-05-13T22:17:23.674;599616087723701078;8415.058;288
2024-05-13T22:17:23.681;599616087731383084;8422.739;291
2024-05-13T22:17:23.689;599616087739075222;8430.432;300
2024-05-13T22:17:23.697;599616087746767360;8438.123;310
2024-05-13T22:17:23.704;599616087754459498;8445.815;317
2024-05-13T22:17:23.712;599616087762151636;8453.508;329
2024-05-13T22:17:23.720;599616087769843774;8461.2;338
2024-05-13T22:17:23.727;599616087777535912;8468.893;293
2024-05-13T22:17:23.735;599616087785228050;8476.584;236
2024-05-13T22:17:23.743;599616087792920188;8484.276;258
2024-05-13T22:17:23.750;599616087800612326;8491.969;293
2024-05-13T22:17:23.758;599616087808304464;8499.661;293
2024-05-13T22:17:23.766;599616087815996602;8507.354;293
2024-05-13T22:17:23.774;599616087823688740;8515.045;286
2024-05-13T22:17:23.781;599616087831380878;8522.737;258
2024-05-13T22:17:23.789;599616087839073016;8530.43;239
2024-05-13T22:17:23.797;599616087846765154;8538.121;265
2024-05-13T22:17:23.804;599616087854457292;8545.813;300
2024-05-13T22:17:23.812;599616087862149430;8553.506;310
2024-05-13T22:17:23.820;599616087869841568;8561.197;300
2024-05-13T22:17:23.827;599616087877533706;8568.89;298
2024-05-13T22:17:23.835;599616087885225844;8576.582;326
2024-05-13T22:17:23.843;599616087892917982;8584.274;350
2024-05-13T22:17:23.850;599616087900610120;8591.966;343
2024-05-13T22:17:23.858;599616087908302258;8599.658;345
2024-05-13T22:17:23.866;599616087915994396;8607.351;359
2024-05-13T22:17:23.874;599616087923686534;8615.043;359
2024-05-13T22:17:23.881;599616087931378672;8622.735;362
2024-05-13T22:17:23.889;599616087939070810;8630.427;369
2024-05-13T22:17:23.897;599616087946762948;8638.119;393
2024-05-13T22:17:23.904;599616087954455086;8645.812;407
2024-05-13T22:17:23.912;599616087962147224;8653.504;378
2024-05-13T22:17:23.920;599616087969839362;8661.195;333
2024-05-13T22:17:23.927;599616087977531500;8668.888;288
2024-05-13T22:17:23.935;599616087985223638;8676.58;281
2024-05-13T22:17:23.943;599616087992915776;8684.271;312
2024-05-13T22:17:23.950;599616088000607914;8691.964;319
2024-05-13T22:17:23.958;599616088008300052;8699.656;326
2024-05-13T22:17:23.966;599616088015992190;8707.349;343
2024-05-13T22:17:23.974;599616088023684328;8715.041;343
2024-05-13T22:17:23.981;599616088031376466;8722.733;352
2024-05-13T22:17:23.989;599616088039068604;8730.426;371
2024-05-13T22:17:23.997;599616088046760742;8738.116;357
2024-05-13T22:17:24.004;599616088054452880;8745.809;312
2024-05-13T22:17:24.012;599616088062145018;8753.501;305
2024-05-13T22:17:24.020;599616088069837156;8761.193;331
2024-05-13T22:17:24.027;599616088077529294;8768.886;298
2024-05-13T22:17:24.035;599616088085221432;8776.578;274
2024-05-13T22:17:24.043;599616088092913570;8784.27;307
2024-05-13T22:17:24.050;599616088100605708;8791.962;312
2024-05-13T22:17:24.058;599616088108297846;8799.654;298
2024-05-13T22:17:24.066;599616088115989984;8807.346;319
2024-05-13T22:17:24.074;599616088123682122;8815.038;345
2024-05-13T22:17:24.081;599616088131374260;8822.73;367
2024-05-13T22:17:24.089;599616088139066398;8830.423;362
2024-05-13T22:17:24.097;599616088146758536;8838.114;333
2024-05-13T22:17:24.104;599616088154450674;8845.807;322
2024-05-13T22:17:24.112;599616088162142812;8853.499;374
2024-05-13T22:17:24.120;599616088169834950;8861.191;556
2024-05-13T22:17:24.127;599616088177527088;8868.884;826
2024-05-13T22:17:24.135;599616088185219226;8876.576;940
2024-05-13T22:17:24.143;599616088192911364;8884.268;648
2024-05-13T22:17:24.150;599616088200603502;8891.959;168
2024-05-13T22:17:24.158;599616088208295640;8899.651;14
2024-05-13T22:17:24.166;599616088215987778;8907.344;175
2024-05-13T22:17:24.174;599616088223679916;8915.036;241
2024-05-13T22:17:24.181;599616088231372054;8922.729;196
2024-05-13T22:17:24.189;599616088239064192;8930.421;213
2024-05-13T22:17:24.197;599616088246756330;8938.113;262
2024-05-13T22:17:24.204;599616088254448468;8945.805;279
2024-05-13T22:17:24.212;599616088262140606;8953.496;279
2024-05-13T22:17:24.220;599616088269832744;8961.188;305
2024-05-13T22:17:24.227;599616088277524882;8968.881;329
2024-05-13T22:17:24.235;599616088285217020;8976.573;331
2024-05-13T22:17:24.243;599616088292929284;8984.285;336
2024-05-13T22:17:24.250;599616088300621143;8991.978;355
2024-05-13T22:17:24.258;599616088308313002;8999.669;388
2024-05-13T22:17:24.266;599616088316004861;9007.361;400
2024-05-13T22:17:24.274;599616088323696720;9015.054;383
2024-05-13T22:17:24.281;599616088331388579;9022.744;383
2024-05-13T22:17:24.289;599616088339080438;9030.437;409
2024-05-13T22:17:24.297;599616088346772297;9038.128;416
2024-05-13T22:17:24.304;599616088354464156;9045.82;390
2024-05-13T22:17:24.312;599616088362156015;9053.513;409
2024-05-13T22:17:24.320;599616088369847874;9061.204;476
2024-05-13T22:17:24.327;599616088377539733;9068.896;490
2024-05-13T22:17:24.335;599616088385231592;9076.588;490
2024-05-13T22:17:24.343;599616088392923451;9084.28;539
2024-05-13T22:17:24.350;599616088400615310;9091.971;570
2024-05-13T22:17:24.358;599616088408307169;9099.663;561
2024-05-13T22:17:24.366;599616088415999028;9107.355;556
2024-05-13T22:17:24.374;599616088423690887;9115.047;556
2024-05-13T22:17:24.381;599616088431382746;9122.739;558
2024-05-13T22:17:24.389;599616088439074605;9130.431;549
2024-05-13T22:17:24.397;599616088446766464;9138.123;544
2024-05-13T22:17:24.404;599616088454458323;9145.815;563
2024-05-13T22:17:24.412;599616088462150182;9153.506;575
2024-05-13T22:17:24.420;599616088469842041;9161.198;568
2024-05-13T22:17:24.427;599616088477533900;9168.89;530
2024-05-13T22:17:24.435;599616088485225759;9176.582;490
2024-05-13T22:17:24.443;599616088492917618;9184.273;513
2024-05-13T22:17:24.450;599616088500609477;9191.966;551
2024-05-13T22:17:24.458;599616088508301336;9199.658;563
2024-05-13T22:17:24.466;599616088515993195;9207.35;577
2024-05-13T22:17:24.474;599616088523685054;9215.042;596
2024-05-13T22:17:24.481;599616088531376913;9222.732;613
2024-05-13T22:17:24.489;599616088539068772;9230.425;620
2024-05-13T22:17:24.497;599616088546760631;9238.117;641
2024-05-13T22:17:24.504;599616088554452490;9245.809;667
2024-05-13T22:17:24.512;599616088562144349;9253.501;653
2024-05-13T22:17:24.520;599616088569836208;9261.192;622
2024-05-13T22:17:24.527;599616088577528067;9268.885;618
2024-05-13T22:17:24.535;599616088585219926;9276.576;639
2024-05-13T22:17:24.543;599616088592911785;9284.268;655
2024-05-13T22:17:24.550;599616088600603644;9291.96;648
2024-05-13T22:17:24.558;599616088608295503;9299.651;663
2024-05-13T22:17:24.566;599616088615987362;9307.344;674
2024-05-13T22:17:24.574;599616088623679221;9315.035;674
2024-05-13T22:17:24.581;599616088631371080;9322.728;696
2024-05-13T22:17:24.589;599616088639062939;9330.419;717
2024-05-13T22:17:24.597;599616088646754798;9338.111;715
2024-05-13T22:17:24.604;599616088654446657;9345.804;705
2024-05-13T22:17:24.612;599616088662138516;9353.494;710
2024-05-13T22:17:24.620;599616088669830375;9361.187;738
2024-05-13T22:17:24.627;599616088677522234;9368.878;741
2024-05-13T22:17:24.635;599616088685214093;9376.57;729
2024-05-13T22:17:24.643;599616088692905952;9384.263;750
2024-05-13T22:17:24.650;599616088700597811;9391.954;755
2024-05-13T22:17:24.658;599616088708289670;9399.646;741
2024-05-13T22:17:24.666;599616088715981529;9407.338;743
2024-05-13T22:17:24.674;599616088723673388;9415.029;767
2024-05-13T22:17:24.681;599616088731365247;9422.721;786
2024-05-13T22:17:24.689;599616088739057106;9430.413;774
2024-05-13T22:17:24.697;599616088746748965;9438.105;762
2024-05-13T22:17:24.704;599616088754440824;9445.797;779
2024-05-13T22:17:24.712;599616088762132683;9453.489;793
2024-05-13T22:17:24.720;599616088769824542;9461.181;795
2024-05-13T22:17:24.727;599616088777516401;9468.873;781
2024-05-13T22:17:24.735;599616088785208260;9476.565;757
2024-05-13T22:17:24.743;599616088792900119;9484.256;736
2024-05-13T22:17:24.750;599616088800591978;9491.948;719
2024-05-13T22:17:24.758;599616088808283837;9499.64;712
2024-05-13T22:17:24.766;599616088815975696;9507.332;698
2024-05-13T22:17:24.774;599616088823667555;9515.023;682
2024-05-13T22:17:24.781;599616088831359414;9522.716;691
2024-05-13T22:17:24.789;599616088839051273;9530.408;693
2024-05-13T22:17:24.797;599616088846743132;9538.1;700
2024-05-13T22:17:24.804;599616088854409926;9545.766;719
2024-05-13T22:17:24.812;599616088862102134;9553.458;717
2024-05-13T22:17:24.820;599616088869794342;9561.15;724
2024-05-13T22:17:24.827;599616088877486550;9568.843;741
2024-05-13T22:17:24.835;599616088885178758;9576.535;715
2024-05-13T22:17:24.843;599616088892870966;9584.228;648
2024-05-13T22:17:24.850;599616088900563174;9591.92;599
2024-05-13T22:17:24.858;599616088908255382;9599.612;618
2024-05-13T22:17:24.866;599616088915947590;9607.304;620
2024-05-13T22:17:24.873;599616088923639798;9614.996;573
2024-05-13T22:17:24.881;599616088931332006;9622.6875;565
2024-05-13T22:17:24.889;599616088939024214;9630.38;589
2024-05-13T22:17:24.897;599616088946716422;9638.072;592
2024-05-13T22:17:24.904;599616088954408630;9645.765;592
2024-05-13T22:17:24.912;599616088962100838;9653.457;606
2024-05-13T22:17:24.920;599616088969793046;9661.149;627
2024-05-13T22:17:24.927;599616088977485254;9668.842;615
2024-05-13T22:17:24.935;599616088985177462;9676.534;568
2024-05-13T22:17:24.943;599616088992869670;9684.226;530
2024-05-13T22:17:24.950;599616089000561878;9691.918;544
2024-05-13T22:17:24.958;599616089008254086;9699.61;584
2024-05-13T22:17:24.966;599616089015946294;9707.303;594
2024-05-13T22:17:24.973;599616089023638502;9714.995;603
2024-05-13T22:17:24.981;599616089031330710;9722.687;632
2024-05-13T22:17:24.989;599616089039022918;9730.379;634
2024-05-13T22:17:24.997;599616089046715126;9738.071;639
2024-05-13T22:17:25.004;599616089054407334;9745.764;660
2024-05-13T22:17:25.012;599616089062099542;9753.456;639
2024-05-13T22:17:25.020;599616089069791750;9761.147;606
2024-05-13T22:17:25.027;599616089077483958;9768.84;615
2024-05-13T22:17:25.035;599616089085176166;9776.532;637
2024-05-13T22:17:25.043;599616089092868374;9784.225;641
2024-05-13T22:17:25.050;599616089100560582;9791.917;677
2024-05-13T22:17:25.058;599616089108252790;9799.609;859
2024-05-13T22:17:25.066;599616089115944998;9807.302;1143
2024-05-13T22:17:25.073;599616089123637206;9814.994;1293
2024-05-13T22:17:25.081;599616089131329414;9822.686;1096
2024-05-13T22:17:25.089;599616089139021622;9830.378;679
2024-05-13T22:17:25.097;599616089146713830;9838.069;494
2024-05-13T22:17:25.104;599616089154406038;9845.762;615
2024-05-13T22:17:25.112;599616089162098246;9853.454;670
2024-05-13T22:17:25.120;599616089169790454;9861.146;629
2024-05-13T22:17:25.127;599616089177482662;9868.839;674
2024-05-13T22:17:25.135;599616089185174870;9876.531;724
2024-05-13T22:17:25.143;599616089192867078;9884.224;717
2024-05-13T22:17:25.150;599616089200559286;9891.916;719
2024-05-13T22:17:25.158;599616089208251494;9899.608;741
2024-05-13T22:17:25.166;599616089215943702;9907.301;743
2024-05-13T22:17:25.173;599616089223635910;9914.992;741
2024-05-13T22:17:25.181;599616089231328118;9922.684;769
2024-05-13T22:17:25.189;599616089239020326;9930.376;788
2024-05-13T22:17:25.197;599616089246712534;9938.068;788
2024-05-13T22:17:25.204;599616089254404742;9945.761;779
2024-05-13T22:17:25.212;599616089262096950;9953.453;781
2024-05-13T22:17:25.220;599616089269789158;9961.1455;817
2024-05-13T22:17:25.227;599616089277481366;9968.838;833
2024-05-13T22:17:25.235;599616089285173574;9976.53;831
2024-05-13T22:17:25.243;599616089292865782;9984.223;852
2024-05-13T22:17:25.250;599616089300557990;9991.914;857
2024-05-13T22:17:25.258;599616089308250198;9999.606;831
2024-05-13T22:17:25.266;599616089315942406;10007.299;814
2024-05-13T22:17:25.273;599616089323634614;10014.991;843
2024-05-13T22:17:25.281;599616089331326822;10022.683;878
2024-05-13T22:17:25.289;599616089339019030;10030.375;869
2024-05-13T22:17:25.297;599616089346711238;10038.067;845
2024-05-13T22:17:25.304;599616089354403446;10045.76;843
2024-05-13T22:17:25.312;599616089362095654;10053.452;845
2024-05-13T22:17:25.320;599616089369787862;10061.145;840
2024-05-13T22:17:25.327;599616089377480070;10068.836;831
2024-05-13T22:17:25.335;599616089385172278;10076.528;826
2024-05-13T22:17:25.343;599616089392864486;10084.221;807
2024-05-13T22:17:25.350;599616089400556694;10091.913;774
2024-05-13T22:17:25.358;599616089408248902;10099.605;781
2024-05-13T22:17:25.366;599616089415971222;10107.327;805
2024-05-13T22:17:25.374;599616089423663012;10115.019;814
2024-05-13T22:17:25.381;599616089431354802;10122.711;812
2024-05-13T22:17:25.389;599616089439046592;10130.403;793
2024-05-13T22:17:25.397;599616089446738382;10138.095;802
2024-05-13T22:17:25.404;599616089454430172;10145.787;819
2024-05-13T22:17:25.412;599616089462121962;10153.479;772
2024-05-13T22:17:25.420;599616089469813752;10161.171;731
2024-05-13T22:17:25.427;599616089477505542;10168.861;755
2024-05-13T22:17:25.435;599616089485197332;10176.554;769
2024-05-13T22:17:25.443;599616089492889122;10184.245;727
2024-05-13T22:17:25.450;599616089500580912;10191.9375;674
2024-05-13T22:17:25.458;599616089508272702;10199.629;689
2024-05-13T22:17:25.466;599616089515964492;10207.321;705
2024-05-13T22:17:25.474;599616089523656282;10215.013;658
2024-05-13T22:17:25.481;599616089531348072;10222.705;637
2024-05-13T22:17:25.489;599616089539039862;10230.3955;658
2024-05-13T22:17:25.497;599616089546731652;10238.088;665
2024-05-13T22:17:25.504;599616089554423442;10245.779;646
2024-05-13T22:17:25.512;599616089562115232;10253.472;637
2024-05-13T22:17:25.520;599616089569807022;10261.163;658
2024-05-13T22:17:25.527;599616089577498812;10268.855;653
2024-05-13T22:17:25.535;599616089585190602;10276.547;637
2024-05-13T22:17:25.543;599616089592882392;10284.239;660
2024-05-13T22:17:25.550;599616089600574182;10291.93;682
2024-05-13T22:17:25.558;599616089608265972;10299.622;686
2024-05-13T22:17:25.566;599616089615957762;10307.313;686
2024-05-13T22:17:25.574;599616089623649552;10315.006;679
2024-05-13T22:17:25.581;599616089631341342;10322.697;667
2024-05-13T22:17:25.589;599616089639033132;10330.39;637
2024-05-13T22:17:25.597;599616089646724922;10338.081;615
2024-05-13T22:17:25.604;599616089654416712;10345.773;608
2024-05-13T22:17:25.612;599616089662108502;10353.464;584
2024-05-13T22:17:25.620;599616089669800292;10361.156;563
2024-05-13T22:17:25.627;599616089677492082;10368.848;556
2024-05-13T22:17:25.635;599616089685183872;10376.54;570
2024-05-13T22:17:25.643;599616089692875662;10384.231;594
2024-05-13T22:17:25.650;599616089700567452;10391.924;587
2024-05-13T22:17:25.658;599616089708259242;10399.615;575
2024-05-13T22:17:25.666;599616089715951032;10407.308;580
2024-05-13T22:17:25.673;599616089723642822;10415.0;582
2024-05-13T22:17:25.681;599616089731334612;10422.69;584
2024-05-13T22:17:25.689;599616089739026402;10430.383;592
2024-05-13T22:17:25.697;599616089746718192;10438.074;618
2024-05-13T22:17:25.704;599616089754409982;10445.767;622
2024-05-13T22:17:25.712;599616089762101772;10453.458;584
2024-05-13T22:17:25.720;599616089769793562;10461.15;589
2024-05-13T22:17:25.727;599616089777485352;10468.842;625
2024-05-13T22:17:25.735;599616089785177142;10476.534;634
2024-05-13T22:17:25.743;599616089792868932;10484.225;629
2024-05-13T22:17:25.750;599616089800560722;10491.917;599
2024-05-13T22:17:25.758;599616089808252512;10499.608;573
2024-05-13T22:17:25.766;599616089815944302;10507.301;582
2024-05-13T22:17:25.773;599616089823636092;10514.992;587
2024-05-13T22:17:25.781;599616089831327882;10522.685;589
2024-05-13T22:17:25.789;599616089839019672;10530.376;606
2024-05-13T22:17:25.797;599616089846711462;10538.068;615
2024-05-13T22:17:25.804;599616089854403252;10545.759;599
2024-05-13T22:17:25.812;599616089862095042;10553.451;594
2024-05-13T22:17:25.820;599616089869786832;10561.143;627
2024-05-13T22:17:25.827;599616089877478622;10568.835;634
2024-05-13T22:17:25.835;599616089885170412;10576.526;615
2024-05-13T22:17:25.843;599616089892862202;10584.219;622
2024-05-13T22:17:25.850;599616089900553992;10591.91;627
2024-05-13T22:17:25.858;599616089908245782;10599.603;618
2024-05-13T22:17:25.866;599616089915937572;10607.293;615
2024-05-13T22:17:25.873;599616089923629362;10614.985;627
2024-05-13T22:17:25.881;599616089931321152;10622.677;644
2024-05-13T22:17:25.889;599616089939012942;10630.369;629
2024-05-13T22:17:25.897;599616089946704732;10638.061;608
2024-05-13T22:17:25.904;599616089954396522;10645.753;625
2024-05-13T22:17:25.912;599616089962088312;10653.444;644
2024-05-13T22:17:25.920;599616089969780102;10661.137;637
2024-05-13T22:17:25.927;599616089977456856;10668.813;632
2024-05-13T22:17:25.935;599616089985148855;10676.506;653
2024-05-13T22:17:25.943;599616089992840854;10684.197;615
2024-05-13T22:17:25.950;599616090000532853;10691.889;513
2024-05-13T22:17:25.958;599616090008224852;10699.581;502
2024-05-13T22:17:25.966;599616090015916851;10707.272;551
2024-05-13T22:17:25.973;599616090023608850;10714.965;554
2024-05-13T22:17:25.981;599616090031300849;10722.657;537
2024-05-13T22:17:25.989;599616090038992848;10730.35;516
2024-05-13T22:17:25.997;599616090046684847;10738.041;471
2024-05-13T22:17:26.004;599616090054376846;10745.733;414
2024-05-13T22:17:26.012;599616090062068845;10753.426;393
2024-05-13T22:17:26.020;599616090069760844;10761.116;537
2024-05-13T22:17:26.027;599616090077452843;10768.809;845
2024-05-13T22:17:26.035;599616090085144842;10776.501;1034
2024-05-13T22:17:26.043;599616090092836841;10784.193;857
2024-05-13T22:17:26.050;599616090100528840;10791.885;442
2024-05-13T22:17:26.058;599616090108220839;10799.577;227
2024-05-13T22:17:26.066;599616090115912838;10807.27;314
2024-05-13T22:17:26.073;599616090123604837;10814.961;393
2024-05-13T22:17:26.081;599616090131296836;10822.653;374
2024-05-13T22:17:26.089;599616090138988835;10830.346;388
2024-05-13T22:17:26.097;599616090146680834;10838.037;431
2024-05-13T22:17:26.104;599616090154372833;10845.729;433
2024-05-13T22:17:26.112;599616090162064832;10853.421;438
2024-05-13T22:17:26.120;599616090169756831;10861.113;464
2024-05-13T22:17:26.127;599616090177448830;10868.805;449
2024-05-13T22:17:26.135;599616090185140829;10876.497;428
2024-05-13T22:17:26.143;599616090192832828;10884.189;454
2024-05-13T22:17:26.150;599616090200524827;10891.882;466
2024-05-13T22:17:26.158;599616090208216826;10899.572;449
2024-05-13T22:17:26.166;599616090215908825;10907.265;428
2024-05-13T22:17:26.173;599616090223600824;10914.957;419
2024-05-13T22:17:26.181;599616090231292823;10922.648;428
2024-05-13T22:17:26.189;599616090238984822;10930.341;431
2024-05-13T22:17:26.197;599616090246676821;10938.033;428
2024-05-13T22:17:26.204;599616090254368820;10945.726;447
2024-05-13T22:17:26.212;599616090262060819;10953.417;452
2024-05-13T22:17:26.220;599616090269752818;10961.109;435
2024-05-13T22:17:26.227;599616090277444817;10968.802;423
2024-05-13T22:17:26.235;599616090285136816;10976.493;433
2024-05-13T22:17:26.243;599616090292828815;10984.185;409
2024-05-13T22:17:26.250;599616090300520814;10991.877;352
2024-05-13T22:17:26.258;599616090308212813;10999.569;338
2024-05-13T22:17:26.266;599616090315904812;11007.261;331
2024-05-13T22:17:26.273;599616090323596811;11014.953;298
2024-05-13T22:17:26.281;599616090331288810;11022.6455;279
2024-05-13T22:17:26.289;599616090338980809;11030.338;251
2024-05-13T22:17:26.297;599616090346672808;11038.028;215
2024-05-13T22:17:26.304;599616090354364807;11045.721;187
2024-05-13T22:17:26.312;599616090362056806;11053.413;137
2024-05-13T22:17:26.320;599616090369748805;11061.1045;101
2024-05-13T22:17:26.327;599616090377440804;11068.797;99
2024-05-13T22:17:26.335;599616090385132803;11076.489;92
2024-05-13T22:17:26.343;599616090392824802;11084.182;61
2024-05-13T22:17:26.350;599616090400516801;11091.873;42
2024-05-13T22:17:26.358;599616090408208800;11099.565;37
2024-05-13T22:17:26.366;599616090415900799;11107.258;0
2024-05-13T22:17:26.373;599616090423592798;11114.948;-49
2024-05-13T22:17:26.381;599616090431284797;11122.641;-54
2024-05-13T22:17:26.389;599616090438976796;11130.333;-63
2024-05-13T22:17:26.397;599616090446668795;11138.025;-123
2024-05-13T22:17:26.404;599616090454360794;11145.717;-215
2024-05-13T22:17:26.412;599616090462052793;11153.409;-279
2024-05-13T22:17:26.420;599616090469744792;11161.102;-291
2024-05-13T22:17:26.427;599616090477436791;11168.793;-322
2024-05-13T22:17:26.435;599616090485128790;11176.485;-376
2024-05-13T22:17:26.443;599616090492820789;11184.177;-435
2024-05-13T22:17:26.450;599616090500512788;11191.869;-547
2024-05-13T22:17:26.458;599616090508204787;11199.561;-610
2024-05-13T22:17:26.466;599616090515896786;11207.253;-599
2024-05-13T22:17:26.473;599616090523588785;11214.945;-599
2024-05-13T22:17:26.481;599616090531280784;11222.637;-622
2024-05-13T22:17:26.489;599616090538972796;11230.329;-663
2024-05-13T22:17:26.497;599616090546664795;11238.021;-691
2024-05-13T22:17:26.504;599616090554356794;11245.714;-670
2024-05-13T22:17:26.512;599616090562048793;11253.404;-665
2024-05-13T22:17:26.520;599616090569740792;11261.097;-703
2024-05-13T22:17:26.527;599616090577432791;11268.789;-734
2024-05-13T22:17:26.535;599616090585124790;11276.481;-741
2024-05-13T22:17:26.543;599616090592816789;11284.173;-807
2024-05-13T22:17:26.550;599616090600508788;11291.865;-911
2024-05-13T22:17:26.558;599616090608200787;11299.558;-923
2024-05-13T22:17:26.566;599616090615892786;11307.249;-862
2024-05-13T22:17:26.573;599616090623584785;11314.941;-850
2024-05-13T22:17:26.581;599616090631276784;11322.633;-869
2024-05-13T22:17:26.589;599616090638968783;11330.325;-873
2024-05-13T22:17:26.597;599616090646660782;11338.017;-845
2024-05-13T22:17:26.604;599616090654352781;11345.709;-817
2024-05-13T22:17:26.612;599616090662044780;11353.401;-817
2024-05-13T22:17:26.620;599616090669736779;11361.093;-798
2024-05-13T22:17:26.627;599616090677428778;11368.785;-776
2024-05-13T22:17:26.635;599616090685120777;11376.478;-788
2024-05-13T22:17:26.643;599616090692812776;11384.17;-788
2024-05-13T22:17:26.650;599616090700504775;11391.86;-755
2024-05-13T22:17:26.658;599616090708196774;11399.553;-719
2024-05-13T22:17:26.666;599616090715888773;11407.245;-717
2024-05-13T22:17:26.673;599616090723580772;11414.937;-734
2024-05-13T22:17:26.681;599616090731272771;11422.629;-715
2024-05-13T22:17:26.689;599616090738964770;11430.321;-682
2024-05-13T22:17:26.697;599616090746656769;11438.014;-667
2024-05-13T22:17:26.704;599616090754348768;11445.705;-665
2024-05-13T22:17:26.712;599616090762040767;11453.397;-655
2024-05-13T22:17:26.720;599616090769732766;11461.089;-632
2024-05-13T22:17:26.727;599616090777424765;11468.78;-648
2024-05-13T22:17:26.735;599616090785116764;11476.473;-682
2024-05-13T22:17:26.743;599616090792808763;11484.165;-665
2024-05-13T22:17:26.750;599616090800500762;11491.857;-634
2024-05-13T22:17:26.758;599616090808192761;11499.549;-629
2024-05-13T22:17:26.766;599616090815884760;11507.241;-632
2024-05-13T22:17:26.773;599616090823576759;11514.934;-620
2024-05-13T22:17:26.781;599616090831268758;11522.625;-587
2024-05-13T22:17:26.789;599616090838960757;11530.316;-580
2024-05-13T22:17:26.797;599616090846652756;11538.009;-575
2024-05-13T22:17:26.804;599616090854344755;11545.701;-539
2024-05-13T22:17:26.812;599616090862036754;11553.393;-518
2024-05-13T22:17:26.820;599616090869728753;11561.085;-530
2024-05-13T22:17:26.827;599616090877420752;11568.777;-523
2024-05-13T22:17:26.835;599616090885112751;11576.47;-483
2024-05-13T22:17:26.843;599616090892804750;11584.161;-461
2024-05-13T22:17:26.850;599616090900496749;11591.854;-473
2024-05-13T22:17:26.858;599616090908188748;11599.545;-461
2024-05-13T22:17:26.866;599616090915880747;11607.236;-440
2024-05-13T22:17:26.873;599616090923572746;11614.929;-438
2024-05-13T22:17:26.881;599616090931264745;11622.621;-435
2024-05-13T22:17:26.889;599616090938956744;11630.313;-438
2024-05-13T22:17:26.897;599616090946648743;11638.005;-438
2024-05-13T22:17:26.904;599616090954340742;11645.697;-402
2024-05-13T22:17:26.912;599616090962032741;11653.39;-239
2024-05-13T22:17:26.920;599616090969724740;11661.081;92
2024-05-13T22:17:26.927;599616090977416739;11668.772;324
2024-05-13T22:17:26.935;599616090985108738;11676.465;139
2024-05-13T22:17:26.943;599616090992800737;11684.157;-350
2024-05-13T22:17:26.950;599616091000492736;11691.849;-667
2024-05-13T22:17:26.958;599616091008184735;11699.541;-613
2024-05-13T22:17:26.966;599616091015876734;11707.233;-485
2024-05-13T22:17:26.973;599616091023568733;11714.925;-497
2024-05-13T22:17:26.981;599616091031260732;11722.617;-520
2024-05-13T22:17:26.989;599616091038952731;11730.31;-478
2024-05-13T22:17:26.997;599616091046644730;11738.001;-442
2024-05-13T22:17:27.004;599616091054336729;11745.692;-440
2024-05-13T22:17:27.012;599616091062028728;11753.385;-409
2024-05-13T22:17:27.020;599616091069720727;11761.077;-343
2024-05-13T22:17:27.027;599616091077412726;11768.769;-319
2024-05-13T22:17:27.035;599616091085104725;11776.461;-312
2024-05-13T22:17:27.043;599616091092796724;11784.153;-281
2024-05-13T22:17:27.050;599616091100503786;11791.859;-269
2024-05-13T22:17:27.058;599616091108195576;11799.552;-262
2024-05-13T22:17:27.066;599616091115887366;11807.243;-229
2024-05-13T22:17:27.073;599616091123579156;11814.936;-196
2024-05-13T22:17:27.081;599616091131270946;11822.627;-158
2024-05-13T22:17:27.089;599616091138962736;11830.319;-146
2024-05-13T22:17:27.097;599616091146654526;11838.011;-146
2024-05-13T22:17:27.104;599616091154346316;11845.703;-111
2024-05-13T22:17:27.112;599616091162038106;11853.394;-78
2024-05-13T22:17:27.120;599616091169729896;11861.086;-92
2024-05-13T22:17:27.127;599616091177421686;11868.777;-113
2024-05-13T22:17:27.135;599616091185113476;11876.47;-82
2024-05-13T22:17:27.143;599616091192805266;11884.161;-56
2024-05-13T22:17:27.150;599616091200497056;11891.854;-73
2024-05-13T22:17:27.158;599616091208188846;11899.546;-68
2024-05-13T22:17:27.166;599616091215880636;11907.237;-44
2024-05-13T22:17:27.173;599616091223572426;11914.929;-47
2024-05-13T22:17:27.181;599616091231264216;11922.62;-71
2024-05-13T22:17:27.189;599616091238956006;11930.3125;-92
2024-05-13T22:17:27.197;599616091246647796;11938.004;-82
2024-05-13T22:17:27.204;599616091254339586;11945.696;-73
2024-05-13T22:17:27.212;599616091262031376;11953.388;-85
2024-05-13T22:17:27.220;599616091269723166;11961.08;-87
2024-05-13T22:17:27.227;599616091277414956;11968.771;-111
2024-05-13T22:17:27.235;599616091285106746;11976.463;-158
2024-05-13T22:17:27.243;599616091292798536;11984.154;-139
2024-05-13T22:17:27.250;599616091300490326;11991.847;-92
2024-05-13T22:17:27.258;599616091308182116;11999.538;-71
2024-05-13T22:17:27.266;599616091315873906;12007.23;-59
2024-05-13T22:17:27.273;599616091323565696;12014.922;-54
2024-05-13T22:17:27.281;599616091331257486;12022.614;-52
2024-05-13T22:17:27.289;599616091338949276;12030.306;-40
2024-05-13T22:17:27.296;599616091346641066;12037.998;-26
2024-05-13T22:17:27.304;599616091354332856;12045.688;-14
2024-05-13T22:17:27.312;599616091362024646;12053.381;-4
2024-05-13T22:17:27.320;599616091369716436;12061.072;4
2024-05-13T22:17:27.327;599616091377408226;12068.765;-30
2024-05-13T22:17:27.335;599616091385100016;12076.456;-68
2024-05-13T22:17:27.343;599616091392791806;12084.148;-44
2024-05-13T22:17:27.350;599616091400483596;12091.84;-21
2024-05-13T22:17:27.358;599616091408175386;12099.532;-28
2024-05-13T22:17:27.366;599616091415867176;12107.223;-33
2024-05-13T22:17:27.373;599616091423558966;12114.915;-28
2024-05-13T22:17:27.381;599616091431250756;12122.606;-14
2024-05-13T22:17:27.389;599616091438942546;12130.299;-11
2024-05-13T22:17:27.396;599616091446634336;12137.99;-9
2024-05-13T22:17:27.404;599616091454326126;12145.683;9
2024-05-13T22:17:27.412;599616091462017916;12153.374;21
2024-05-13T22:17:27.420;599616091469709706;12161.066;14
2024-05-13T22:17:27.427;599616091477401496;12168.757;4
2024-05-13T22:17:27.435;599616091485093286;12176.449;18
2024-05-13T22:17:27.443;599616091492785076;12184.142;9
2024-05-13T22:17:27.450;599616091500476866;12191.833;-68
2024-05-13T22:17:27.458;599616091508168656;12199.525;-151
2024-05-13T22:17:27.466;599616091515860446;12207.217;-189
2024-05-13T22:17:27.473;599616091523552236;12214.909;-217
2024-05-13T22:17:27.481;599616091531244026;12222.601;-232
2024-05-13T22:17:27.489;599616091538935816;12230.292;-203
2024-05-13T22:17:27.496;599616091546627606;12237.983;-153
2024-05-13T22:17:27.504;599616091554319396;12245.676;-142
2024-05-13T22:17:27.512;599616091562011186;12253.367;-163
2024-05-13T22:17:27.520;599616091569702976;12261.06;-142
2024-05-13T22:17:27.527;599616091577394766;12268.751;-94
2024-05-13T22:17:27.535;599616091585086556;12276.443;-87
2024-05-13T22:17:27.543;599616091592778346;12284.135;-87
2024-05-13T22:17:27.550;599616091600470136;12291.827;-73
2024-05-13T22:17:27.558;599616091608161926;12299.518;-59
2024-05-13T22:17:27.566;599616091615853716;12307.21;-59
2024-05-13T22:17:27.573;599616091623545506;12314.901;-52
2024-05-13T22:17:27.581;599616091631237296;12322.594;-18
2024-05-13T22:17:27.589;599616091638929086;12330.285;7
2024-05-13T22:17:27.596;599616091646620876;12337.978;9
2024-05-13T22:17:27.604;599616091654312666;12345.669;0
2024-05-13T22:17:27.612;599616091661974372;12353.33;9
2024-05-13T22:17:27.620;599616091669666580;12361.022;42
2024-05-13T22:17:27.627;599616091677358788;12368.715;49
2024-05-13T22:17:27.635;599616091685050996;12376.407;47
2024-05-13T22:17:27.643;599616091692743204;12384.1;66
2024-05-13T22:17:27.650;599616091700435412;12391.792;63
2024-05-13T22:17:27.658;599616091708127620;12399.484;26
2024-05-13T22:17:27.666;599616091715819828;12407.176;-11
2024-05-13T22:17:27.673;599616091723512036;12414.868;14
2024-05-13T22:17:27.681;599616091731204244;12422.561;75
2024-05-13T22:17:27.689;599616091738896452;12430.253;71
2024-05-13T22:17:27.696;599616091746588660;12437.945;49
2024-05-13T22:17:27.704;599616091754280868;12445.637;82
2024-05-13T22:17:27.712;599616091761973076;12453.329;104
2024-05-13T22:17:27.720;599616091769665284;12461.021;92
2024-05-13T22:17:27.727;599616091777357492;12468.714;87
2024-05-13T22:17:27.735;599616091785049700;12476.405;111
2024-05-13T22:17:27.743;599616091792741908;12484.098;108
2024-05-13T22:17:27.750;599616091800434116;12491.79;75
2024-05-13T22:17:27.758;599616091808126324;12499.482;144
2024-05-13T22:17:27.766;599616091815818532;12507.175;390
2024-05-13T22:17:27.773;599616091823510740;12514.867;705
2024-05-13T22:17:27.781;599616091831202948;12522.56;835
2024-05-13T22:17:27.789;599616091838895156;12530.252;565
2024-05-13T22:17:27.796;599616091846587364;12537.944;120
2024-05-13T22:17:27.804;599616091854279572;12545.636;-33
2024-05-13T22:17:27.812;599616091861971780;12553.327;99
2024-05-13T22:17:27.820;599616091869663988;12561.02;177
2024-05-13T22:17:27.827;599616091877356196;12568.712;156
2024-05-13T22:17:27.835;599616091885048404;12576.404;170
2024-05-13T22:17:27.843;599616091892740612;12584.097;201
2024-05-13T22:17:27.850;599616091900432820;12591.789;217
2024-05-13T22:17:27.858;599616091908125028;12599.481;253
2024-05-13T22:17:27.866;599616091915817236;12607.174;274
2024-05-13T22:17:27.873;599616091923509444;12614.866;265
2024-05-13T22:17:27.881;599616091931201652;12622.559;274
2024-05-13T22:17:27.889;599616091938893860;12630.251;303
2024-05-13T22:17:27.896;599616091946586068;12637.942;319
2024-05-13T22:17:27.904;599616091954278276;12645.634;329
2024-05-13T22:17:27.912;599616091961970484;12653.326;348
2024-05-13T22:17:27.920;599616091969662692;12661.019;381
2024-05-13T22:17:27.927;599616091977354900;12668.711;383
2024-05-13T22:17:27.935;599616091985047108;12676.403;381
2024-05-13T22:17:27.943;599616091992739316;12684.096;421
2024-05-13T22:17:27.950;599616092000431524;12691.788;459
2024-05-13T22:17:27.958;599616092008123732;12699.48;428
2024-05-13T22:17:27.966;599616092015815940;12707.172;348
2024-05-13T22:17:27.973;599616092023508148;12714.864;319
2024-05-13T22:17:27.981;599616092031200356;12722.557;376
2024-05-13T22:17:27.989;599616092038892564;12730.249;404
2024-05-13T22:17:27.996;599616092046584772;12737.941;407
2024-05-13T22:17:28.004;599616092054276980;12745.633;440
2024-05-13T22:17:28.012;599616092061969188;12753.325;457
2024-05-13T22:17:28.020;599616092069661396;12761.018;438
2024-05-13T22:17:28.027;599616092077353604;12768.71;428
2024-05-13T22:17:28.035;599616092085045812;12776.402;442
2024-05-13T22:17:28.043;599616092092738020;12784.094;447
2024-05-13T22:17:28.050;599616092100430228;12791.786;431
2024-05-13T22:17:28.058;599616092108122436;12799.479;426
2024-05-13T22:17:28.066;599616092115814644;12807.171;423
2024-05-13T22:17:28.073;599616092123506852;12814.863;428
2024-05-13T22:17:28.081;599616092131199060;12822.556;445
2024-05-13T22:17:28.089;599616092138891268;12830.248;454
2024-05-13T22:17:28.096;599616092146583476;12837.94;483
2024-05-13T22:17:28.104;599616092154275684;12845.632;506
2024-05-13T22:17:28.112;599616092161967892;12853.324;492
2024-05-13T22:17:28.120;599616092169660100;12861.016;499
2024-05-13T22:17:28.127;599616092177352308;12868.708;530
2024-05-13T22:17:28.135;599616092185044516;12876.4;542
2024-05-13T22:17:28.143;599616092192736724;12884.093;544
2024-05-13T22:17:28.150;599616092200428932;12891.785;537
2024-05-13T22:17:28.158;599616092208121140;12899.478;537
2024-05-13T22:17:28.166;599616092215813348;12907.17;547
2024-05-13T22:17:28.173;599616092223535668;12914.892;539
2024-05-13T22:17:28.181;599616092231227458;12922.584;513
2024-05-13T22:17:28.189;599616092238919248;12930.275;497
2024-05-13T22:17:28.196;599616092246611038;12937.968;502
2024-05-13T22:17:28.204;599616092254302828;12945.659;478
2024-05-13T22:17:28.212;599616092261994618;12953.352;433
2024-05-13T22:17:28.220;599616092269686408;12961.042;426
2024-05-13T22:17:28.227;599616092277378198;12968.734;416
2024-05-13T22:17:28.235;599616092285069988;12976.426;378
2024-05-13T22:17:28.243;599616092292761778;12984.118;386
2024-05-13T22:17:28.250;599616092300453568;12991.81;409
2024-05-13T22:17:28.258;599616092308145358;12999.502;407
2024-05-13T22:17:28.266;599616092315837148;13007.193;412
2024-05-13T22:17:28.273;599616092323528938;13014.886;442
2024-05-13T22:17:28.281;599616092331220728;13022.576;478
2024-05-13T22:17:28.289;599616092338912518;13030.269;461
2024-05-13T22:17:28.296;599616092346604308;13037.96;423
2024-05-13T22:17:28.304;599616092354296098;13045.652;419
2024-05-13T22:17:28.312;599616092361987888;13053.344;414
2024-05-13T22:17:28.320;599616092369679678;13061.036;386
2024-05-13T22:17:28.327;599616092377371468;13068.728;374
2024-05-13T22:17:28.335;599616092385063258;13076.42;395
2024-05-13T22:17:28.343;599616092392755048;13084.111;404
2024-05-13T22:17:28.350;599616092400446838;13091.803;386
2024-05-13T22:17:28.358;599616092408138628;13099.494;393
2024-05-13T22:17:28.366;599616092415830418;13107.187;419
2024-05-13T22:17:28.373;599616092423522208;13114.878;431
2024-05-13T22:17:28.381;599616092431213998;13122.57;421
2024-05-13T22:17:28.389;599616092438905788;13130.263;409
2024-05-13T22:17:28.396;599616092446597578;13137.954;428
2024-05-13T22:17:28.404;599616092454289368;13145.646;461
2024-05-13T22:17:28.412;599616092461981158;13153.337;464
2024-05-13T22:17:28.420;599616092469672948;13161.029;473
2024-05-13T22:17:28.427;599616092477364738;13168.721;492
2024-05-13T22:17:28.435;599616092485056528;13176.413;494
2024-05-13T22:17:28.443;599616092492748318;13184.1045;497
2024-05-13T22:17:28.450;599616092500440108;13191.797;502
2024-05-13T22:17:28.458;599616092508131898;13199.488;478
2024-05-13T22:17:28.466;599616092515823688;13207.181;404
2024-05-13T22:17:28.473;599616092523515478;13214.871;355
2024-05-13T22:17:28.481;599616092531207268;13222.563;388
2024-05-13T22:17:28.489;599616092538899058;13230.255;426
2024-05-13T22:17:28.496;599616092546590848;13237.947;440
2024-05-13T22:17:28.504;599616092554282638;13245.639;459
2024-05-13T22:17:28.512;599616092561974428;13253.331;483
2024-05-13T22:17:28.520;599616092569666218;13261.022;506
2024-05-13T22:17:28.527;599616092577358008;13268.715;502
2024-05-13T22:17:28.535;599616092585049798;13276.405;494
2024-05-13T22:17:28.543;599616092592741588;13284.098;520
2024-05-13T22:17:28.550;599616092600433378;13291.789;539
2024-05-13T22:17:28.558;599616092608125168;13299.481;542
2024-05-13T22:17:28.566;599616092615816958;13307.173;544
2024-05-13T22:17:28.573;599616092623508748;13314.865;544
2024-05-13T22:17:28.581;599616092631200538;13322.557;565
2024-05-13T22:17:28.589;599616092638892328;13330.249;582
2024-05-13T22:17:28.596;599616092646584118;13337.94;587
2024-05-13T22:17:28.604;599616092654275908;13345.632;596
2024-05-13T22:17:28.612;599616092661967698;13353.323;601
2024-05-13T22:17:28.620;599616092669659488;13361.016;589
2024-05-13T22:17:28.627;599616092677351278;13368.707;580
2024-05-13T22:17:28.635;599616092685043068;13376.399;601
2024-05-13T22:17:28.643;599616092692734858;13384.091;627
2024-05-13T22:17:28.650;599616092700426648;13391.783;606
2024-05-13T22:17:28.658;599616092708118438;13399.475;577
2024-05-13T22:17:28.666;599616092715810228;13407.166;608
2024-05-13T22:17:28.673;599616092723502018;13414.858;769
2024-05-13T22:17:28.681;599616092731193808;13422.55;1049
2024-05-13T22:17:28.689;599616092738885598;13430.242;1221
2024-05-13T22:17:28.696;599616092746577388;13437.934;1051
2024-05-13T22:17:28.704;599616092754269178;13445.626;603
2024-05-13T22:17:28.712;599616092761960968;13453.317;314
2024-05-13T22:17:28.720;599616092769652758;13461.01;412
2024-05-13T22:17:28.727;599616092777344548;13468.7;537
2024-05-13T22:17:28.735;599616092785036350;13476.393;513
2024-05-13T22:17:28.743;599616092792728140;13484.084;528
2024-05-13T22:17:28.750;599616092800419930;13491.776;570
2024-05-13T22:17:28.758;599616092808111720;13499.468;568
2024-05-13T22:17:28.766;599616092815803510;13507.16;547
2024-05-13T22:17:28.773;599616092823495300;13514.852;511
2024-05-13T22:17:28.781;599616092831187090;13522.544;506
2024-05-13T22:17:28.789;599616092838878880;13530.235;547
2024-05-13T22:17:28.796;599616092846570670;13537.927;565
2024-05-13T22:17:28.804;599616092854262460;13545.618;551
2024-05-13T22:17:28.812;599616092861954250;13553.311;561
2024-05-13T22:17:28.820;599616092869646040;13561.002;601
2024-05-13T22:17:28.827;599616092877337830;13568.694;615
2024-05-13T22:17:28.835;599616092885029620;13576.386;615
2024-05-13T22:17:28.843;599616092892721410;13584.078;639
2024-05-13T22:17:28.850;599616092900413200;13591.77;651
2024-05-13T22:17:28.858;599616092908104990;13599.461;651
2024-05-13T22:17:28.866;599616092915796780;13607.152;665
2024-05-13T22:17:28.873;599616092923488570;13614.845;689
2024-05-13T22:17:28.881;599616092931180360;13622.536;722
2024-05-13T22:17:28.889;599616092938872150;13630.229;729
2024-05-13T22:17:28.896;599616092946563940;13637.92;717
2024-05-13T22:17:28.904;599616092954255730;13645.612;727
2024-05-13T22:17:28.912;599616092961947520;13653.304;738
2024-05-13T22:17:28.919;599616092969639310;13660.995;734
2024-05-13T22:17:28.927;599616092977331100;13668.687;719
2024-05-13T22:17:28.935;599616092985022890;13676.379;712
2024-05-13T22:17:28.943;599616092992714680;13684.071;696
2024-05-13T22:17:28.950;599616093000406470;13691.763;644
2024-05-13T22:17:28.958;599616093008098260;13699.455;606
2024-05-13T22:17:28.966;599616093015790050;13707.146;565
2024-05-13T22:17:28.973;599616093023481840;13714.839;499
2024-05-13T22:17:28.981;599616093031173630;13722.53;480
2024-05-13T22:17:28.989;599616093038865420;13730.222;499
2024-05-13T22:17:28.996;599616093046557210;13737.913;518
2024-05-13T22:17:29.004;599616093054249000;13745.605;537
2024-05-13T22:17:29.012;599616093061940790;13753.297;547
2024-05-13T22:17:29.019;599616093069632580;13760.989;573
2024-05-13T22:17:29.027;599616093077324370;13768.681;601
2024-05-13T22:17:29.035;599616093085016160;13776.373;582
2024-05-13T22:17:29.043;599616093092707950;13784.064;544
2024-05-13T22:17:29.050;599616093100399740;13791.756;537
2024-05-13T22:17:29.058;599616093108091530;13799.447;558
2024-05-13T22:17:29.066;599616093115783320;13807.14;563
2024-05-13T22:17:29.073;599616093123475110;13814.831;547
2024-05-13T22:17:29.081;599616093131166900;13822.523;542
2024-05-13T22:17:29.089;599616093138858690;13830.215;544
2024-05-13T22:17:29.096;599616093146550480;13837.907;549
2024-05-13T22:17:29.104;599616093154242270;13845.599;556
2024-05-13T22:17:29.112;599616093161934060;13853.29;554
2024-05-13T22:17:29.119;599616093169625850;13860.981;561
2024-05-13T22:17:29.127;599616093177317640;13868.674;551
2024-05-13T22:17:29.135;599616093185009430;13876.365;532
2024-05-13T22:17:29.143;599616093192701220;13884.058;544
2024-05-13T22:17:29.150;599616093200393010;13891.749;547
2024-05-13T22:17:29.158;599616093208084800;13899.441;518
2024-05-13T22:17:29.166;599616093215776590;13907.133;478
2024-05-13T22:17:29.173;599616093223468380;13914.824;449
2024-05-13T22:17:29.181;599616093231160170;13922.516;440
2024-05-13T22:17:29.189;599616093238851960;13930.208;435
2024-05-13T22:17:29.196;599616093246543750;13937.899;414
2024-05-13T22:17:29.204;599616093254235540;13945.592;388
2024-05-13T22:17:29.212;599616093261927330;13953.283;388
2024-05-13T22:17:29.219;599616093269619120;13960.976;393
2024-05-13T22:17:29.227;599616093277310910;13968.668;378
2024-05-13T22:17:29.235;599616093285002700;13976.359;388
2024-05-13T22:17:29.243;599616093292694490;13984.051;419
2024-05-13T22:17:29.250;599616093300386280;13991.742;414
2024-05-13T22:17:29.258;599616093308078070;13999.435;409
2024-05-13T22:17:29.266;599616093315769860;14007.126;414
2024-05-13T22:17:29.273;599616093323461650;14014.818;412
2024-05-13T22:17:29.281;599616093331153440;14022.51;414
2024-05-13T22:17:29.289;599616093338845230;14030.202;419
2024-05-13T22:17:29.296;599616093346506936;14037.863;438
2024-05-13T22:17:29.304;599616093354199144;14045.556;445
2024-05-13T22:17:29.312;599616093361891352;14053.248;421
2024-05-13T22:17:29.319;599616093369583560;14060.94;426
2024-05-13T22:17:29.327;599616093377275768;14068.632;452
2024-05-13T22:17:29.335;599616093384967976;14076.324;457
2024-05-13T22:17:29.343;599616093392660184;14084.017;457
2024-05-13T22:17:29.350;599616093400352392;14091.708;457
2024-05-13T22:17:29.358;599616093408044600;14099.4;452
2024-05-13T22:17:29.366;599616093415736808;14107.093;421
2024-05-13T22:17:29.373;599616093423429016;14114.785;376
2024-05-13T22:17:29.381;599616093431121224;14122.478;381
2024-05-13T22:17:29.389;599616093438813432;14130.17;412
2024-05-13T22:17:29.396;599616093446505640;14137.862;409
2024-05-13T22:17:29.404;599616093454197848;14145.555;386
2024-05-13T22:17:29.412;599616093461890056;14153.247;390
2024-05-13T22:17:29.419;599616093469582264;14160.939;423
2024-05-13T22:17:29.427;599616093477274472;14168.63;431
2024-05-13T22:17:29.435;599616093484966680;14176.322;416
2024-05-13T22:17:29.443;599616093492658888;14184.015;397
2024-05-13T22:17:29.450;599616093500351096;14191.707;359
2024-05-13T22:17:29.458;599616093508043304;14199.399;355
2024-05-13T22:17:29.466;599616093515735512;14207.092;364
2024-05-13T22:17:29.473;599616093523427720;14214.784;326
2024-05-13T22:17:29.481;599616093531119928;14222.477;277
2024-05-13T22:17:29.489;599616093538812136;14230.169;269
2024-05-13T22:17:29.496;599616093546504344;14237.861;281
2024-05-13T22:17:29.504;599616093554196552;14245.553;296
2024-05-13T22:17:29.512;599616093561888760;14253.245;319
2024-05-13T22:17:29.519;599616093569580968;14260.937;338
2024-05-13T22:17:29.527;599616093577273176;14268.629;333
2024-05-13T22:17:29.535;599616093584965384;14276.321;348
2024-05-13T22:17:29.543;599616093592657592;14284.014;367
2024-05-13T22:17:29.550;599616093600349800;14291.706;341
2024-05-13T22:17:29.558;599616093608042008;14299.398;333
2024-05-13T22:17:29.566;599616093615734216;14307.091;364
2024-05-13T22:17:29.573;599616093623426424;14314.783;359
2024-05-13T22:17:29.581;599616093631118632;14322.475;336
2024-05-13T22:17:29.589;599616093638810840;14330.167;324
2024-05-13T22:17:29.596;599616093646503048;14337.859;329
2024-05-13T22:17:29.604;599616093654195256;14345.552;314
2024-05-13T22:17:29.612;599616093661887464;14353.244;286
2024-05-13T22:17:29.619;599616093669579672;14360.936;359
2024-05-13T22:17:29.627;599616093677271880;14368.628;594
2024-05-13T22:17:29.635;599616093684964088;14376.32;857
2024-05-13T22:17:29.643;599616093692656296;14384.013;888
2024-05-13T22:17:29.650;599616093700348504;14391.704;549
2024-05-13T22:17:29.658;599616093708040712;14399.396;139
2024-05-13T22:17:29.666;599616093715732920;14407.089;47
2024-05-13T22:17:29.673;599616093723425128;14414.781;158
2024-05-13T22:17:29.681;599616093731117336;14422.474;170
2024-05-13T22:17:29.689;599616093738809544;14430.166;104
2024-05-13T22:17:29.696;599616093746501752;14437.858;97
2024-05-13T22:17:29.704;599616093754193960;14445.551;111
2024-05-13T22:17:29.712;599616093761886168;14453.243;108
2024-05-13T22:17:29.719;599616093769578376;14460.935;116
2024-05-13T22:17:29.727;599616093777270584;14468.626;99
2024-05-13T22:17:29.735;599616093784962792;14476.318;56
2024-05-13T22:17:29.743;599616093792655000;14484.011;54
2024-05-13T22:17:29.750;599616093800347208;14491.703;71
2024-05-13T22:17:29.758;599616093808039416;14499.3955;56
2024-05-13T22:17:29.766;599616093815731624;14507.088;14
2024-05-13T22:17:29.773;599616093823423832;14514.78;-23
2024-05-13T22:17:29.781;599616093831116040;14522.473;-37
2024-05-13T22:17:29.789;599616093838808248;14530.165;-63
2024-05-13T22:17:29.796;599616093846500456;14537.857;-85
2024-05-13T22:17:29.804;599616093854192664;14545.549;-82
2024-05-13T22:17:29.812;599616093861884872;14553.241;-101
2024-05-13T22:17:29.819;599616093869577080;14560.933;-144
2024-05-13T22:17:29.827;599616093877269288;14568.625;-170
2024-05-13T22:17:29.835;599616093884961496;14576.317;-170
2024-05-13T22:17:29.843;599616093892653704;14584.01;-179
2024-05-13T22:17:29.850;599616093900345912;14591.702;-227
2024-05-13T22:17:29.858;599616093908078312;14599.435;-267
2024-05-13T22:17:29.866;599616093915769962;14607.127;-303
2024-05-13T22:17:29.873;599616093923461612;14614.817;-343
2024-05-13T22:17:29.881;599616093931153262;14622.509;-383
2024-05-13T22:17:29.889;599616093938844912;14630.201;-431
2024-05-13T22:17:29.896;599616093946536562;14637.893;-461
2024-05-13T22:17:29.904;599616093954228212;14645.585;-528
2024-05-13T22:17:29.912;599616093961919862;14653.276;-672
2024-05-13T22:17:29.919;599616093969611512;14660.968;-741
2024-05-13T22:17:29.927;599616093977303162;14668.66;-724
2024-05-13T22:17:29.935;599616093984994812;14676.351;-781
2024-05-13T22:17:29.943;599616093992686462;14684.042;-862
2024-05-13T22:17:29.950;599616094000378112;14691.734;-857
2024-05-13T22:17:29.958;599616094008069762;14699.426;-826
2024-05-13T22:17:29.966;599616094015761412;14707.118;-831
2024-05-13T22:17:29.973;599616094023453062;14714.81;-852
2024-05-13T22:17:29.981;599616094031144712;14722.501;-923
2024-05-13T22:17:29.989;599616094038836362;14730.193;-999
2024-05-13T22:17:29.996;599616094046528012;14737.884;-989
2024-05-13T22:17:30.004;599616094054219662;14745.575;-975
2024-05-13T22:17:30.012;599616094061911312;14753.268;-975
2024-05-13T22:17:30.019;599616094069602962;14760.959;-933
2024-05-13T22:17:30.027;599616094077294612;14768.651;-921
2024-05-13T22:17:30.035;599616094084986262;14776.343;-940
2024-05-13T22:17:30.043;599616094092677912;14784.034;-930
2024-05-13T22:17:30.050;599616094100369562;14791.727;-918
2024-05-13T22:17:30.058;599616094108061212;14799.417;-923
2024-05-13T22:17:30.066;599616094115752862;14807.108;-923
2024-05-13T22:17:30.073;599616094123444512;14814.801;-909
2024-05-13T22:17:30.081;599616094131136162;14822.492;-885
2024-05-13T22:17:30.089;599616094138827812;14830.185;-909
2024-05-13T22:17:30.096;599616094146519462;14837.876;-952
2024-05-13T22:17:30.104;599616094154211112;14845.567;-949
2024-05-13T22:17:30.112;599616094161902762;14853.259;-942
2024-05-13T22:17:30.119;599616094169594412;14860.95;-956
2024-05-13T22:17:30.127;599616094177286062;14868.642;-942
2024-05-13T22:17:30.135;599616094184977712;14876.334;-897
2024-05-13T22:17:30.143;599616094192669362;14884.025;-885
2024-05-13T22:17:30.150;599616094200361012;14891.718;-897
2024-05-13T22:17:30.158;599616094208052662;14899.409;-862
2024-05-13T22:17:30.166;599616094215744312;14907.101;-802
2024-05-13T22:17:30.173;599616094223435962;14914.792;-786
2024-05-13T22:17:30.181;599616094231127612;14922.483;-821
2024-05-13T22:17:30.189;599616094238819262;14930.176;-843
2024-05-13T22:17:30.196;599616094246510912;14937.867;-786
2024-05-13T22:17:30.204;599616094254202562;14945.559;-729
2024-05-13T22:17:30.212;599616094261894212;14953.251;-727
2024-05-13T22:17:30.219;599616094269585862;14960.942;-693
2024-05-13T22:17:30.227;599616094277277512;14968.634;-653
2024-05-13T22:17:30.235;599616094284969162;14976.325;-646
2024-05-13T22:17:30.243;599616094292660812;14984.017;-629
2024-05-13T22:17:30.250;599616094300352462;14991.709;-589
2024-05-13T22:17:30.258;599616094308044112;14999.4;-551
2024-05-13T22:17:30.266;599616094315735762;15007.092;-537
2024-05-13T22:17:30.273;599616094323427412;15014.784;-535
2024-05-13T22:17:30.281;599616094331119062;15022.476;-506
2024-05-13T22:17:30.289;599616094338810712;15030.167;-468
2024-05-13T22:17:30.296;599616094346502362;15037.858;-452
2024-05-13T22:17:30.304;599616094354194012;15045.55;-440
2024-05-13T22:17:30.312;599616094361885662;15053.242;-412
2024-05-13T22:17:30.319;599616094369577312;15060.934;-390
2024-05-13T22:17:30.327;599616094377268962;15068.625;-393
2024-05-13T22:17:30.335;599616094384960612;15076.317;-374
2024-05-13T22:17:30.343;599616094392652262;15084.009;-326
2024-05-13T22:17:30.350;599616094400343912;15091.7;-300
2024-05-13T22:17:30.358;599616094408035562;15099.392;-300
2024-05-13T22:17:30.366;599616094415727212;15107.083;-300
2024-05-13T22:17:30.373;599616094423418862;15114.775;-284
2024-05-13T22:17:30.381;599616094431110512;15122.467;-253
2024-05-13T22:17:30.389;599616094438802162;15130.158;-241
2024-05-13T22:17:30.396;599616094446493812;15137.851;-234
2024-05-13T22:17:30.404;599616094454185462;15145.542;-203
2024-05-13T22:17:30.412;599616094461877112;15153.232;-182
2024-05-13T22:17:30.419;599616094469523676;15160.88;-175
2024-05-13T22:17:30.427;599616094477215953;15168.572;-191
2024-05-13T22:17:30.435;599616094484908230;15176.265;-198
2024-05-13T22:17:30.442;599616094492600507;15183.957;-161
2024-05-13T22:17:30.450;599616094500292784;15191.649;-127
2024-05-13T22:17:30.458;599616094507985061;15199.342;-127
2024-05-13T22:17:30.466;599616094515677338;15207.034;-125
2024-05-13T22:17:30.473;599616094523369615;15214.727;-111
2024-05-13T22:17:30.481;599616094531061892;15222.418;-125
2024-05-13T22:17:30.489;599616094538754169;15230.11;-168
2024-05-13T22:17:30.496;599616094546446446;15237.803;-151
2024-05-13T22:17:30.504;599616094554138723;15245.495;-134
2024-05-13T22:17:30.512;599616094561831000;15253.1875;-217
2024-05-13T22:17:30.519;599616094569523277;15260.88;-246
2024-05-13T22:17:30.527;599616094577215554;15268.572;-92
2024-05-13T22:17:30.535;599616094584907831;15276.265;184
2024-05-13T22:17:30.542;599616094592600108;15283.957;466
2024-05-13T22:17:30.550;599616094600292385;15291.649;528
2024-05-13T22:17:30.558;599616094607984662;15299.342;203
2024-05-13T22:17:30.566;599616094615676939;15307.033;-224
2024-05-13T22:17:30.573;599616094623369216;15314.726;-303
2024-05-13T22:17:30.581;599616094631061493;15322.418;-130
2024-05-13T22:17:30.589;599616094638753770;15330.11;-80
2024-05-13T22:17:30.596;599616094646446047;15337.803;-108
2024-05-13T22:17:30.604;599616094654138324;15345.495;-78
2024-05-13T22:17:30.612;599616094661830601;15353.1875;-40
2024-05-13T22:17:30.619;599616094669522878;15360.88;-11
2024-05-13T22:17:30.627;599616094677215155;15368.572;14
2024-05-13T22:17:30.635;599616094684907432;15376.263;35
2024-05-13T22:17:30.642;599616094692599709;15383.955;59
2024-05-13T22:17:30.650;599616094700291986;15391.647;75
2024-05-13T22:17:30.658;599616094707984263;15399.34;94
2024-05-13T22:17:30.666;599616094715676540;15407.032;125
2024-05-13T22:17:30.673;599616094723368817;15414.725;125
2024-05-13T22:17:30.681;599616094731061094;15422.417;101
2024-05-13T22:17:30.689;599616094738753371;15430.109;118
2024-05-13T22:17:30.696;599616094746445648;15437.802;156
2024-05-13T22:17:30.704;599616094754137925;15445.494;184
2024-05-13T22:17:30.712;599616094761830202;15453.187;210
2024-05-13T22:17:30.719;599616094769522479;15460.878;241
2024-05-13T22:17:30.727;599616094777214756;15468.57;277
2024-05-13T22:17:30.735;599616094784907033;15476.263;317
2024-05-13T22:17:30.742;599616094792599310;15483.955;343
2024-05-13T22:17:30.750;599616094800291587;15491.647;350
2024-05-13T22:17:30.758;599616094807983864;15499.34;395
2024-05-13T22:17:30.766;599616094815676141;15507.032;457
2024-05-13T22:17:30.773;599616094823368418;15514.725;459
2024-05-13T22:17:30.781;599616094831060695;15522.417;414
2024-05-13T22:17:30.789;599616094838752972;15530.109;359
2024-05-13T22:17:30.796;599616094846445249;15537.801;305
2024-05-13T22:17:30.804;599616094854137526;15545.493;281
2024-05-13T22:17:30.812;599616094861829803;15553.186;281
2024-05-13T22:17:30.819;599616094869522080;15560.878;303
2024-05-13T22:17:30.827;599616094877214357;15568.57;322
2024-05-13T22:17:30.835;599616094884906634;15576.263;314
2024-05-13T22:17:30.842;599616094892598911;15583.955;312
2024-05-13T22:17:30.850;599616094900291188;15591.647;345
2024-05-13T22:17:30.858;599616094907983465;15599.34;374
2024-05-13T22:17:30.866;599616094915675742;15607.032;376
2024-05-13T22:17:30.873;599616094923368019;15614.724;374
2024-05-13T22:17:30.881;599616094931060296;15622.416;388
2024-05-13T22:17:30.889;599616094938752573;15630.108;412
2024-05-13T22:17:30.896;599616094946444850;15637.801;421
2024-05-13T22:17:30.904;599616094954137127;15645.493;409
2024-05-13T22:17:30.912;599616094961829404;15653.186;404
2024-05-13T22:17:30.919;599616094969521681;15660.878;400
2024-05-13T22:17:30.927;599616094977213958;15668.57;376
2024-05-13T22:17:30.935;599616094984906235;15676.263;352
2024-05-13T22:17:30.942;599616094992598512;15683.955;336
2024-05-13T22:17:30.950;599616095000290789;15691.647;324
2024-05-13T22:17:30.958;599616095007983066;15699.339;336
2024-05-13T22:17:30.966;599616095015675343;15707.031;348
2024-05-13T22:17:30.973;599616095023367620;15714.724;350
2024-05-13T22:17:30.981;599616095031059962;15722.416;359
2024-05-13T22:17:30.989;599616095038752239;15730.108;336
2024-05-13T22:17:30.996;599616095046444516;15737.801;288
2024-05-13T22:17:31.004;599616095054136793;15745.493;298
2024-05-13T22:17:31.012;599616095061829070;15753.186;307
2024-05-13T22:17:31.019;599616095069521347;15760.878;234
2024-05-13T22:17:31.027;599616095077213624;15768.57;177
2024-05-13T22:17:31.035;599616095084905901;15776.262;220
2024-05-13T22:17:31.042;599616095092598178;15783.954;272
2024-05-13T22:17:31.050;599616095100290455;15791.646;307
2024-05-13T22:17:31.058;599616095107982732;15799.339;352
2024-05-13T22:17:31.066;599616095115675009;15807.031;274
2024-05-13T22:17:31.073;599616095123367286;15814.724;179
2024-05-13T22:17:31.081;599616095131059563;15822.416;248
2024-05-13T22:17:31.089;599616095138751840;15830.108;322
2024-05-13T22:17:31.096;599616095146444117;15837.801;298
