Phone timestamp;sensor timestamp [ns];timestamp [ms];ecg [uV]
2024-05-14T12:07:48.314;599616038696592092;0.0;5392
2024-05-14T12:07:48.321;599616038704284648;7.692556;5892
2024-05-14T12:07:48.329;599616038711977204;15.385112;6738
2024-05-14T12:07:48.337;599616038719669760;23.077667;7499
2024-05-14T12:07:48.344;599616038727362316;30.770224;7897
2024-05-14T12:07:48.352;599616038735054872;38.46278;8257
2024-05-14T12:07:48.360;599616038742747428;46.155334;8693
2024-05-14T12:07:48.367;599616038750439984;53.847893;9075
2024-05-14T12:07:48.375;599616038758132540;61.540447;9433
2024-05-14T12:07:48.383;599616038765825096;69.23301;9838
2024-05-14T12:07:48.390;599616038773517652;76.92556;10154
2024-05-14T12:07:48.398;599616038781210208;84.61811;10380
2024-05-14T12:07:48.406;599616038788902764;92.31067;10634
2024-05-14T12:07:48.414;599616038796595320;100.003235;10938
2024-05-14T12:07:48.421;599616038804287876;107.695786;11355
2024-05-14T12:07:48.429;599616038811980432;115.388336;12036
2024-05-14T12:07:48.437;599616038819672988;123.080894;12785
2024-05-14T12:07:48.444;599616038827365544;130.77345;13028
2024-05-14T12:07:48.452;599616038835058100;138.46602;12618
2024-05-14T12:07:48.460;599616038842750656;146.15855;12217
2024-05-14T12:07:48.467;599616038850443212;153.85112;12399
2024-05-14T12:07:48.475;599616038858135768;161.54369;12788
2024-05-14T12:07:48.483;599616038865828324;169.23622;12865
2024-05-14T12:07:48.490;599616038873520880;176.92879;12872
2024-05-14T12:07:48.498;599616038881213436;184.62134;13103
2024-05-14T12:07:48.506;599616038888905992;192.3139;13362
2024-05-14T12:07:48.514;599616038896598548;200.00647;13504
2024-05-14T12:07:48.521;599616038904291104;207.699;13593
2024-05-14T12:07:48.529;599616038911983660;215.39157;13697
2024-05-14T12:07:48.537;599616038919676216;223.08412;13848
2024-05-14T12:07:48.544;599616038927368772;230.77667;13963
2024-05-14T12:07:48.552;599616038935061328;238.46924;14020
2024-05-14T12:07:48.560;599616038942753884;246.16179;14192
2024-05-14T12:07:48.567;599616038950446440;253.85435;14387
2024-05-14T12:07:48.575;599616038958138996;261.5469;14371
2024-05-14T12:07:48.583;599616038965831552;269.23944;14338
2024-05-14T12:07:48.590;599616038973524108;276.93204;14486
2024-05-14T12:07:48.598;599616038981216664;284.62457;14614
2024-05-14T12:07:48.606;599616038988909220;292.3171;14621
2024-05-14T12:07:48.614;599616038996601776;300.0097;14621
2024-05-14T12:07:48.621;599616039004294332;307.70224;14649
2024-05-14T12:07:48.629;599616039011986888;315.39478;14670
2024-05-14T12:07:48.637;599616039019679444;323.08737;14646
2024-05-14T12:07:48.644;599616039027372000;330.7799;14696
2024-05-14T12:07:48.652;599616039035064556;338.47244;14882
2024-05-14T12:07:48.660;599616039042757112;346.16504;14854
2024-05-14T12:07:48.667;599616039050449668;353.85757;14576
2024-05-14T12:07:48.675;599616039058142224;361.55014;14581
2024-05-14T12:07:48.683;599616039065834780;369.24268;14776
2024-05-14T12:07:48.690;599616039073527336;376.93524;14623
2024-05-14T12:07:48.698;599616039081219892;384.6278;14378
2024-05-14T12:07:48.706;599616039088912448;392.32034;14394
2024-05-14T12:07:48.714;599616039096605004;400.01294;14385
2024-05-14T12:07:48.721;599616039104297560;407.70547;14262
2024-05-14T12:07:48.729;599616039111990116;415.398;14173
2024-05-14T12:07:48.737;599616039119682672;423.0906;14159
2024-05-14T12:07:48.744;599616039127375228;430.78314;14222
2024-05-14T12:07:48.752;599616039135067784;438.47568;14196
2024-05-14T12:07:48.760;599616039142760340;446.16824;13996
2024-05-14T12:07:48.767;599616039150452896;453.8608;13914
2024-05-14T12:07:48.775;599616039158145452;461.55334;14062
2024-05-14T12:07:48.783;599616039165838008;469.2459;14083
2024-05-14T12:07:48.790;599616039173530564;476.93848;13890
2024-05-14T12:07:48.798;599616039181223120;484.63104;13836
2024-05-14T12:07:48.806;599616039188915676;492.32358;13827
2024-05-14T12:07:48.814;599616039196608232;500.0161;13565
2024-05-14T12:07:48.821;599616039204300788;507.7087;13341
2024-05-14T12:07:48.829;599616039211993344;515.40125;13353
2024-05-14T12:07:48.837;599616039219685900;523.0938;13377
2024-05-14T12:07:48.844;599616039227378456;530.7864;13370
2024-05-14T12:07:48.852;599616039235071012;538.4789;13289
2024-05-14T12:07:48.860;599616039242763568;546.17145;12967
2024-05-14T12:07:48.867;599616039250456124;553.8641;12646
2024-05-14T12:07:48.875;599616039258173780;561.5817;12583
2024-05-14T12:07:48.883;599616039265865988;569.2739;12755
2024-05-14T12:07:48.890;599616039273558196;576.96606;13158
2024-05-14T12:07:48.898;599616039281250404;584.6583;13445
2024-05-14T12:07:48.906;599616039288942612;592.3505;13101
2024-05-14T12:07:48.914;599616039296634820;600.0427;12354
2024-05-14T12:07:48.921;599616039304327028;607.7349;12017
2024-05-14T12:07:48.929;599616039312019236;615.4271;12144
2024-05-14T12:07:48.937;599616039319711444;623.1194;11996
2024-05-14T12:07:48.944;599616039327403652;630.8116;11650
2024-05-14T12:07:48.952;599616039335095860;638.5037;11699
2024-05-14T12:07:48.960;599616039342788068;646.196;11793
2024-05-14T12:07:48.967;599616039350480276;653.8882;11478
2024-05-14T12:07:48.975;599616039358172484;661.58044;11259
2024-05-14T12:07:48.983;599616039365864692;669.2726;11339
2024-05-14T12:07:48.990;599616039373556900;676.9648;11244
2024-05-14T12:07:48.998;599616039381249108;684.65704;11025
2024-05-14T12:07:49.006;599616039388941316;692.34924;10988
2024-05-14T12:07:49.014;599616039396633524;700.0414;11025
2024-05-14T12:07:49.021;599616039404325732;707.73364;10983
2024-05-14T12:07:49.029;599616039412017940;715.42584;10870
2024-05-14T12:07:49.037;599616039419710148;723.1181;10759
2024-05-14T12:07:49.044;599616039427402356;730.81024;10717
2024-05-14T12:07:49.052;599616039435094564;738.50244;10646
2024-05-14T12:07:49.060;599616039442786772;746.1947;10502
2024-05-14T12:07:49.067;599616039450478980;753.8869;10436
2024-05-14T12:07:49.075;599616039458171188;761.5791;10408
2024-05-14T12:07:49.083;599616039465863396;769.2713;10241
2024-05-14T12:07:49.090;599616039473555604;776.9635;10052
2024-05-14T12:07:49.098;599616039481247812;784.65576;10003
2024-05-14T12:07:49.106;599616039488940020;792.3479;9991
2024-05-14T12:07:49.114;599616039496632228;800.0401;9939
2024-05-14T12:07:49.121;599616039504324436;807.73236;9840
2024-05-14T12:07:49.129;599616039512016644;815.42456;9661
2024-05-14T12:07:49.137;599616039519708852;823.11676;9510
2024-05-14T12:07:49.144;599616039527401060;830.80896;9409
2024-05-14T12:07:49.152;599616039535093268;838.50116;9280
2024-05-14T12:07:49.160;599616039542785476;846.1934;9211
2024-05-14T12:07:49.167;599616039550477684;853.88556;9197
2024-05-14T12:07:49.175;599616039558169892;861.5778;9075
2024-05-14T12:07:49.183;599616039565862100;869.27;8851
2024-05-14T12:07:49.190;599616039573554308;876.9622;8717
2024-05-14T12:07:49.198;599616039581246516;884.6544;8674
2024-05-14T12:07:49.206;599616039588938724;892.3466;8575
2024-05-14T12:07:49.214;599616039596630932;900.0388;8443
2024-05-14T12:07:49.221;599616039604323140;907.7311;8351
2024-05-14T12:07:49.229;599616039612015348;915.4232;8274
2024-05-14T12:07:49.237;599616039619707556;923.1155;8177
2024-05-14T12:07:49.244;599616039627399764;930.8077;8123
2024-05-14T12:07:49.252;599616039635091972;938.4999;8111
2024-05-14T12:07:49.260;599616039642784180;946.1921;7989
2024-05-14T12:07:49.267;599616039650476388;953.8843;7791
2024-05-14T12:07:49.275;599616039658168596;961.57654;7666
2024-05-14T12:07:49.283;599616039665860804;969.26874;7555
2024-05-14T12:07:49.290;599616039673553012;976.9609;7423
2024-05-14T12:07:49.298;599616039681245220;984.65314;7317
2024-05-14T12:07:49.306;599616039688937428;992.34534;7225
2024-05-14T12:07:49.314;599616039696629636;1000.0376;7131
2024-05-14T12:07:49.321;599616039704321844;1007.72974;7008
2024-05-14T12:07:49.329;599616039712014052;1015.42194;6853
2024-05-14T12:07:49.337;599616039719706260;1023.1142;6827
2024-05-14T12:07:49.344;599616039727398468;1030.8064;7133
2024-05-14T12:07:49.352;599616039735090676;1038.4985;7619
2024-05-14T12:07:49.360;599616039742782884;1046.1908;7668
2024-05-14T12:07:49.367;599616039750475092;1053.883;7023
2024-05-14T12:07:49.375;599616039758167300;1061.5752;6330
2024-05-14T12:07:49.383;599616039765859508;1069.2673;6137
2024-05-14T12:07:49.390;599616039773551716;1076.9596;6158
2024-05-14T12:07:49.398;599616039781243924;1084.6517;6068
2024-05-14T12:07:49.406;599616039788936132;1092.3441;5967
2024-05-14T12:07:49.414;599616039796628340;1100.0363;5946
2024-05-14T12:07:49.421;599616039804320548;1107.7285;5878
2024-05-14T12:07:49.429;599616039812012756;1115.4207;5741
2024-05-14T12:07:49.437;599616039819674884;1123.0828;5673
2024-05-14T12:07:49.444;599616039827367510;1130.7754;5626
2024-05-14T12:07:49.452;599616039835060136;1138.4681;5524
2024-05-14T12:07:49.460;599616039842752762;1146.1606;5498
2024-05-14T12:07:49.467;599616039850445388;1153.8533;5515
2024-05-14T12:07:49.475;599616039858138014;1161.546;5456
2024-05-14T12:07:49.483;599616039865830640;1169.2385;5421
2024-05-14T12:07:49.490;599616039873523266;1176.9312;5451
2024-05-14T12:07:49.498;599616039881215892;1184.6238;5392
2024-05-14T12:07:49.506;599616039888908518;1192.3164;5190
2024-05-14T12:07:49.514;599616039896601144;1200.009;5046
2024-05-14T12:07:49.521;599616039904293770;1207.7017;5041
2024-05-14T12:07:49.529;599616039911986396;1215.3943;5011
2024-05-14T12:07:49.537;599616039919679022;1223.087;4900
2024-05-14T12:07:49.544;599616039927371648;1230.7795;4810
2024-05-14T12:07:49.552;599616039935064274;1238.4722;4777
2024-05-14T12:07:49.560;599616039942756900;1246.1649;4737
2024-05-14T12:07:49.567;599616039950449526;1253.8574;4667
2024-05-14T12:07:49.575;599616039958142152;1261.55;4648
2024-05-14T12:07:49.583;599616039965834778;1269.2427;4631
2024-05-14T12:07:49.590;599616039973527404;1276.9353;4488
2024-05-14T12:07:49.598;599616039981220030;1284.6279;4346
2024-05-14T12:07:49.606;599616039988912656;1292.3206;4330
2024-05-14T12:07:49.614;599616039996605282;1300.0132;4327
2024-05-14T12:07:49.621;599616040004297908;1307.7058;4254
2024-05-14T12:07:49.629;599616040011990534;1315.3984;4158
2024-05-14T12:07:49.637;599616040019683160;1323.0911;4089
2024-05-14T12:07:49.644;599616040027375786;1330.7837;4056
2024-05-14T12:07:49.652;599616040035068412;1338.4763;4002
2024-05-14T12:07:49.660;599616040042761038;1346.169;3936
2024-05-14T12:07:49.667;599616040050453664;1353.8616;3884
2024-05-14T12:07:49.675;599616040058146290;1361.5542;3771
2024-05-14T12:07:49.683;599616040065838916;1369.2468;3632
2024-05-14T12:07:49.690;599616040073531542;1376.9393;3585
2024-05-14T12:07:49.698;599616040081224168;1384.6321;3590
2024-05-14T12:07:49.706;599616040088916794;1392.3247;3578
2024-05-14T12:07:49.714;599616040096609420;1400.0173;3515
2024-05-14T12:07:49.721;599616040104302046;1407.71;3399
2024-05-14T12:07:49.729;599616040111994672;1415.4026;3331
2024-05-14T12:07:49.737;599616040119687298;1423.0952;3277
2024-05-14T12:07:49.744;599616040127379924;1430.7878;3166
2024-05-14T12:07:49.752;599616040135072550;1438.4805;3095
2024-05-14T12:07:49.760;599616040142765176;1446.1731;3098
2024-05-14T12:07:49.767;599616040150457802;1453.8657;3050
2024-05-14T12:07:49.775;599616040158150428;1461.5582;2961
2024-05-14T12:07:49.783;599616040165843054;1469.251;2919
2024-05-14T12:07:49.790;599616040173535680;1476.9436;2890
2024-05-14T12:07:49.798;599616040181228306;1484.6361;2817
2024-05-14T12:07:49.806;599616040188920932;1492.3289;2831
2024-05-14T12:07:49.814;599616040196613558;1500.0215;3107
2024-05-14T12:07:49.821;599616040204306184;1507.714;3541
2024-05-14T12:07:49.829;599616040211998810;1515.4067;3696
2024-05-14T12:07:49.837;599616040219691436;1523.0994;3274
2024-05-14T12:07:49.844;599616040227384062;1530.792;2690
2024-05-14T12:07:49.852;599616040235076688;1538.4846;2535
2024-05-14T12:07:49.860;599616040242769314;1546.1772;2558
2024-05-14T12:07:49.867;599616040250461940;1553.8699;2377
2024-05-14T12:07:49.875;599616040258154566;1561.5625;2282
2024-05-14T12:07:49.883;599616040265847192;1569.255;2370
2024-05-14T12:07:49.890;599616040273539818;1576.9478;2367
2024-05-14T12:07:49.898;599616040281232444;1584.6404;2311
2024-05-14T12:07:49.906;599616040288925070;1592.3329;2325
2024-05-14T12:07:49.914;599616040296617696;1600.0256;2308
2024-05-14T12:07:49.921;599616040304310322;1607.7183;2226
2024-05-14T12:07:49.929;599616040312002948;1615.4108;2200
2024-05-14T12:07:49.937;599616040319695574;1623.1035;2242
2024-05-14T12:07:49.944;599616040327388200;1630.7961;2266
2024-05-14T12:07:49.952;599616040335080826;1638.4886;2249
2024-05-14T12:07:49.960;599616040342773452;1646.1814;2238
2024-05-14T12:07:49.967;599616040350466078;1653.874;2259
2024-05-14T12:07:49.975;599616040358158704;1661.5667;2275
2024-05-14T12:07:49.983;599616040365851330;1669.2593;2245
2024-05-14T12:07:49.990;599616040373543956;1676.9518;2209
2024-05-14T12:07:49.998;599616040381266698;1684.6746;2193
2024-05-14T12:07:50.006;599616040388958906;1692.3668;2158
2024-05-14T12:07:50.014;599616040396651114;1700.059;2113
2024-05-14T12:07:50.021;599616040404343322;1707.7512;2099
2024-05-14T12:07:50.029;599616040412035530;1715.4435;2099
2024-05-14T12:07:50.037;599616040419727738;1723.1356;2075
2024-05-14T12:07:50.044;599616040427419946;1730.8279;1993
2024-05-14T12:07:50.052;599616040435112154;1738.52;1913
2024-05-14T12:07:50.060;599616040442804362;1746.2123;1894
2024-05-14T12:07:50.067;599616040450496570;1753.9045;1840
2024-05-14T12:07:50.075;599616040458188778;1761.5967;1715
2024-05-14T12:07:50.083;599616040465880986;1769.2888;1656
2024-05-14T12:07:50.090;599616040473573194;1776.9811;1668
2024-05-14T12:07:50.098;599616040481265402;1784.6733;1630
2024-05-14T12:07:50.106;599616040488957610;1792.3656;1580
2024-05-14T12:07:50.114;599616040496649818;1800.0577;1590
2024-05-14T12:07:50.121;599616040504342026;1807.7499;1616
2024-05-14T12:07:50.129;599616040512034234;1815.4421;1594
2024-05-14T12:07:50.137;599616040519726442;1823.1343;1547
2024-05-14T12:07:50.144;599616040527418650;1830.8265;1531
2024-05-14T12:07:50.152;599616040535110858;1838.5188;1543
2024-05-14T12:07:50.160;599616040542803066;1846.2109;1512
2024-05-14T12:07:50.167;599616040550495274;1853.9032;1432
2024-05-14T12:07:50.175;599616040558187482;1861.5953;1371
2024-05-14T12:07:50.183;599616040565879690;1869.2876;1328
2024-05-14T12:07:50.190;599616040573571898;1876.9799;1265
2024-05-14T12:07:50.198;599616040581264106;1884.672;1194
2024-05-14T12:07:50.206;599616040588956314;1892.3641;1166
2024-05-14T12:07:50.214;599616040596648522;1900.0564;1182
2024-05-14T12:07:50.221;599616040604340730;1907.7487;1163
2024-05-14T12:07:50.229;599616040612032938;1915.4409;1107
2024-05-14T12:07:50.237;599616040619725146;1923.133;1095
2024-05-14T12:07:50.244;599616040627417354;1930.8252;1114
2024-05-14T12:07:50.252;599616040635109562;1938.5175;1107
2024-05-14T12:07:50.260;599616040642801770;1946.2097;1095
2024-05-14T12:07:50.267;599616040650493978;1953.9019;1090
2024-05-14T12:07:50.275;599616040658186186;1961.5941;1041
2024-05-14T12:07:50.283;599616040665878394;1969.2863;1029
2024-05-14T12:07:50.290;599616040673570602;1976.9785;1279
2024-05-14T12:07:50.298;599616040681262810;1984.6708;1774
2024-05-14T12:07:50.306;599616040688955018;1992.3629;2049
2024-05-14T12:07:50.314;599616040696647226;2000.0552;1731
2024-05-14T12:07:50.321;599616040704339434;2007.7473;1140
2024-05-14T12:07:50.329;599616040712031642;2015.4395;911
2024-05-14T12:07:50.337;599616040719723850;2023.1318;1020
2024-05-14T12:07:50.344;599616040727416058;2030.824;1031
2024-05-14T12:07:50.352;599616040735108266;2038.5162;970
2024-05-14T12:07:50.360;599616040742800474;2046.2084;970
2024-05-14T12:07:50.367;599616040750492682;2053.9006;871
2024-05-14T12:07:50.375;599616040758184890;2061.5928;758
2024-05-14T12:07:50.383;599616040765877098;2069.285;810
2024-05-14T12:07:50.390;599616040773569306;2076.977;890
2024-05-14T12:07:50.398;599616040781261514;2084.6694;902
2024-05-14T12:07:50.406;599616040788953722;2092.3616;895
2024-05-14T12:07:50.414;599616040796645930;2100.054;869
2024-05-14T12:07:50.421;599616040804338138;2107.746;869
2024-05-14T12:07:50.429;599616040812030346;2115.4382;907
2024-05-14T12:07:50.437;599616040819722554;2123.1306;949
2024-05-14T12:07:50.444;599616040827414762;2130.8228;998
2024-05-14T12:07:50.452;599616040835106970;2138.515;1036
2024-05-14T12:07:50.460;599616040842799178;2146.207;1013
2024-05-14T12:07:50.467;599616040850491386;2153.8992;980
2024-05-14T12:07:50.475;599616040858183594;2161.5916;1015
2024-05-14T12:07:50.483;599616040865875802;2169.2837;1050
2024-05-14T12:07:50.490;599616040873568010;2176.9758;1024
2024-05-14T12:07:50.498;599616040881260218;2184.6682;984
2024-05-14T12:07:50.506;599616040888952426;2192.3604;937
2024-05-14T12:07:50.514;599616040896644634;2200.0525;876
2024-05-14T12:07:50.521;599616040904336842;2207.7449;845
2024-05-14T12:07:50.529;599616040912029050;2215.437;855
2024-05-14T12:07:50.537;599616040919721258;2223.1292;869
2024-05-14T12:07:50.544;599616040927413466;2230.8213;859
2024-05-14T12:07:50.552;599616040935105674;2238.5137;817
2024-05-14T12:07:50.560;599616040942767802;2246.1758;784
2024-05-14T12:07:50.567;599616040950460428;2253.8684;796
2024-05-14T12:07:50.575;599616040958153054;2261.561;812
2024-05-14T12:07:50.583;599616040965845680;2269.2537;796
2024-05-14T12:07:50.590;599616040973538306;2276.9463;784
2024-05-14T12:07:50.598;599616040981230932;2284.6387;775
2024-05-14T12:07:50.606;599616040988923558;2292.3315;711
2024-05-14T12:07:50.614;599616040996616184;2300.0242;617
2024-05-14T12:07:50.621;599616041004308810;2307.7166;593
2024-05-14T12:07:50.629;599616041012001436;2315.4094;617
2024-05-14T12:07:50.637;599616041019694062;2323.102;567
2024-05-14T12:07:50.644;599616041027386688;2330.7944;471
2024-05-14T12:07:50.652;599616041035079314;2338.4873;398
2024-05-14T12:07:50.660;599616041042771940;2346.18;322
2024-05-14T12:07:50.667;599616041050464566;2353.8723;256
2024-05-14T12:07:50.675;599616041058157192;2361.5652;254
2024-05-14T12:07:50.683;599616041065849818;2369.2578;285
2024-05-14T12:07:50.690;599616041073542444;2376.9502;282
2024-05-14T12:07:50.698;599616041081235070;2384.643;266
2024-05-14T12:07:50.706;599616041088927696;2392.3357;275
2024-05-14T12:07:50.714;599616041096620322;2400.028;310
2024-05-14T12:07:50.721;599616041104312948;2407.721;348
2024-05-14T12:07:50.729;599616041112005574;2415.4136;346
2024-05-14T12:07:50.737;599616041119698200;2423.106;294
2024-05-14T12:07:50.744;599616041127390826;2430.7988;254
2024-05-14T12:07:50.752;599616041135083452;2438.4915;365
2024-05-14T12:07:50.760;599616041142776078;2446.1838;737
2024-05-14T12:07:50.767;599616041150468704;2453.8767;1251
2024-05-14T12:07:50.775;599616041158161330;2461.5693;1444
2024-05-14T12:07:50.783;599616041165853956;2469.2617;994
2024-05-14T12:07:50.790;599616041173546582;2476.9543;369
2024-05-14T12:07:50.798;599616041181239208;2484.6472;266
2024-05-14T12:07:50.806;599616041188931834;2492.3396;466
2024-05-14T12:07:50.814;599616041196624460;2500.0322;461
2024-05-14T12:07:50.821;599616041204317086;2507.725;384
2024-05-14T12:07:50.829;599616041212009712;2515.4175;424
2024-05-14T12:07:50.837;599616041219702338;2523.11;457
2024-05-14T12:07:50.844;599616041227394964;2530.803;457
2024-05-14T12:07:50.852;599616041235087590;2538.4956;497
2024-05-14T12:07:50.860;599616041242780216;2546.188;520
2024-05-14T12:07:50.867;599616041250472842;2553.8809;447
2024-05-14T12:07:50.875;599616041258165468;2561.5735;348
2024-05-14T12:07:50.883;599616041265858094;2569.2659;346
2024-05-14T12:07:50.890;599616041273550720;2576.9587;407
2024-05-14T12:07:50.898;599616041281243346;2584.6514;419
2024-05-14T12:07:50.906;599616041288935972;2592.3438;393
2024-05-14T12:07:50.914;599616041296628598;2600.0366;409
2024-05-14T12:07:50.921;599616041304321224;2607.7292;440
2024-05-14T12:07:50.929;599616041312013850;2615.4216;459
2024-05-14T12:07:50.937;599616041319706476;2623.1145;487
2024-05-14T12:07:50.944;599616041327399102;2630.8071;504
2024-05-14T12:07:50.952;599616041335091728;2638.4995;513
2024-05-14T12:07:50.960;599616041342784354;2646.1924;534
2024-05-14T12:07:50.967;599616041350476980;2653.885;515
2024-05-14T12:07:50.975;599616041358169606;2661.5774;449
2024-05-14T12:07:50.983;599616041365862232;2669.27;419
2024-05-14T12:07:50.990;599616041373554858;2676.963;435
2024-05-14T12:07:50.998;599616041381247484;2684.6553;428
2024-05-14T12:07:51.006;599616041388940110;2692.348;400
2024-05-14T12:07:51.014;599616041396632736;2700.0408;405
2024-05-14T12:07:51.021;599616041404325362;2707.7332;421
2024-05-14T12:07:51.029;599616041412017988;2715.4258;417
2024-05-14T12:07:51.037;599616041419710614;2723.1187;417
2024-05-14T12:07:51.044;599616041427403240;2730.811;449
2024-05-14T12:07:51.052;599616041435095866;2738.5037;471
2024-05-14T12:07:51.060;599616041442788492;2746.1965;431
2024-05-14T12:07:51.067;599616041450481118;2753.889;400
2024-05-14T12:07:51.075;599616041458173744;2761.5815;435
2024-05-14T12:07:51.083;599616041465866370;2769.2744;466
2024-05-14T12:07:51.090;599616041473558996;2776.9668;459
2024-05-14T12:07:51.098;599616041481251622;2784.6594;452
2024-05-14T12:07:51.106;599616041488944248;2792.3523;419
2024-05-14T12:07:51.114;599616041496636874;2800.045;360
2024-05-14T12:07:51.121;599616041504329520;2807.7373;322
2024-05-14T12:07:51.129;599616041512022146;2815.4302;282
2024-05-14T12:07:51.137;599616041519714772;2823.1228;242
2024-05-14T12:07:51.144;599616041527407398;2830.8152;202
2024-05-14T12:07:51.152;599616041535100024;2838.508;115
2024-05-14T12:07:51.160;599616041542792650;2846.2007;73
2024-05-14T12:07:51.167;599616041550485276;2853.893;124
2024-05-14T12:07:51.175;599616041558177902;2861.586;115
2024-05-14T12:07:51.183;599616041565870528;2869.2786;23
2024-05-14T12:07:51.190;599616041573563154;2876.971;-2
2024-05-14T12:07:51.198;599616041581255780;2884.6638;18
2024-05-14T12:07:51.206;599616041588948406;2892.3564;-35
2024-05-14T12:07:51.214;599616041596641032;2900.0488;-47
2024-05-14T12:07:51.221;599616041604333658;2907.7415;195
2024-05-14T12:07:51.229;599616041612026284;2915.4343;713
2024-05-14T12:07:51.237;599616041619718910;2923.1267;1147
2024-05-14T12:07:51.244;599616041627411536;2930.8193;1008
2024-05-14T12:07:51.252;599616041635104162;2938.5122;374
2024-05-14T12:07:51.260;599616041642796788;2946.2046;-16
2024-05-14T12:07:51.267;599616041650489414;2953.8972;87
2024-05-14T12:07:51.275;599616041658182040;2961.59;183
2024-05-14T12:07:51.283;599616041665874666;2969.2825;117
2024-05-14T12:07:51.290;599616041673567292;2976.975;134
2024-05-14T12:07:51.298;599616041681259918;2984.668;181
2024-05-14T12:07:51.306;599616041688952544;2992.3604;181
2024-05-14T12:07:51.314;599616041696645170;3000.053;221
2024-05-14T12:07:51.321;599616041704337796;3007.7458;285
2024-05-14T12:07:51.329;599616041712030422;3015.4382;299
2024-05-14T12:07:51.337;599616041719723048;3023.1309;296
2024-05-14T12:07:51.344;599616041727415674;3030.8237;327
2024-05-14T12:07:51.352;599616041735108300;3038.516;376
2024-05-14T12:07:51.360;599616041742800926;3046.2087;400
2024-05-14T12:07:51.367;599616041750493552;3053.9016;362
2024-05-14T12:07:51.375;599616041758186178;3061.594;296
2024-05-14T12:07:51.383;599616041765878804;3069.2866;280
2024-05-14T12:07:51.390;599616041773571430;3076.9795;270
2024-05-14T12:07:51.398;599616041781264056;3084.672;228
2024-05-14T12:07:51.406;599616041788956682;3092.3645;233
2024-05-14T12:07:51.414;599616041796649308;3100.0571;273
2024-05-14T12:07:51.421;599616041804341934;3107.75;263
2024-05-14T12:07:51.429;599616041812034560;3115.4424;242
2024-05-14T12:07:51.437;599616041819727186;3123.135;249
2024-05-14T12:07:51.444;599616041827419812;3130.828;233
2024-05-14T12:07:51.452;599616041835112438;3138.5203;186
2024-05-14T12:07:51.460;599616041842805064;3146.213;188
2024-05-14T12:07:51.467;599616041850497690;3153.9058;219
2024-05-14T12:07:51.475;599616041858190316;3161.5981;209
2024-05-14T12:07:51.483;599616041865882942;3169.2908;195
2024-05-14T12:07:51.490;599616041873575568;3176.9836;219
2024-05-14T12:07:51.498;599616041881268194;3184.676;261
2024-05-14T12:07:51.506;599616041888960820;3192.3687;278
2024-05-14T12:07:51.514;599616041896653446;3200.0615;266
2024-05-14T12:07:51.521;599616041904346072;3207.754;256
2024-05-14T12:07:51.529;599616041912038698;3215.4465;266
2024-05-14T12:07:51.537;599616041919731324;3223.1394;275
2024-05-14T12:07:51.544;599616041927423950;3230.8318;275
2024-05-14T12:07:51.552;599616041935116576;3238.5244;289
2024-05-14T12:07:51.560;599616041942809202;3246.2173;315
2024-05-14T12:07:51.567;599616041950501828;3253.9097;287
2024-05-14T12:07:51.575;599616041958194454;3261.6023;221
2024-05-14T12:07:51.583;599616041965887080;3269.2952;195
2024-05-14T12:07:51.590;599616041973579706;3276.9875;193
2024-05-14T12:07:51.598;599616041981272332;3284.6802;146
2024-05-14T12:07:51.606;599616041988964958;3292.373;91
2024-05-14T12:07:51.614;599616041996657584;3300.0654;87
2024-05-14T12:07:51.621;599616042004350210;3307.758;101
2024-05-14T12:07:51.629;599616042012042836;3315.4507;106
2024-05-14T12:07:51.637;599616042019735462;3323.1433;80
2024-05-14T12:07:51.644;599616042027428088;3330.836;35
2024-05-14T12:07:51.652;599616042035120714;3338.5286;28
2024-05-14T12:07:51.660;599616042042813340;3346.2212;16
2024-05-14T12:07:51.667;599616042050505966;3353.9138;-32
2024-05-14T12:07:51.675;599616042058198592;3361.6064;-51
2024-05-14T12:07:51.683;599616042065911326;3369.319;21
2024-05-14T12:07:51.691;599616042073603673;3377.0115;301
2024-05-14T12:07:51.698;599616042081296020;3384.704;791
2024-05-14T12:07:51.706;599616042088988367;3392.3962;1116
2024-05-14T12:07:51.714;599616042096680714;3400.0886;819
2024-05-14T12:07:51.721;599616042104373061;3407.7808;94
2024-05-14T12:07:51.729;599616042112065408;3415.4734;-249
2024-05-14T12:07:51.737;599616042119757755;3423.1658;-80
2024-05-14T12:07:51.744;599616042127450102;3430.858;-25
2024-05-14T12:07:51.752;599616042135142449;3438.5503;-136
2024-05-14T12:07:51.760;599616042142834796;3446.243;-87
2024-05-14T12:07:51.767;599616042150527143;3453.935;4
2024-05-14T12:07:51.775;599616042158219490;3461.6274;16
2024-05-14T12:07:51.783;599616042165911837;3469.3196;32
2024-05-14T12:07:51.791;599616042173604184;3477.012;63
2024-05-14T12:07:51.798;599616042181296531;3484.7046;68
2024-05-14T12:07:51.806;599616042188988878;3492.3967;91
2024-05-14T12:07:51.814;599616042196681225;3500.089;136
2024-05-14T12:07:51.821;599616042204373572;3507.7815;190
2024-05-14T12:07:51.829;599616042212065919;3515.4739;275
2024-05-14T12:07:51.837;599616042219758266;3523.1663;329
2024-05-14T12:07:51.844;599616042227450613;3530.8584;313
2024-05-14T12:07:51.852;599616042235142960;3538.5508;327
2024-05-14T12:07:51.860;599616042242835307;3546.2434;381
2024-05-14T12:07:51.867;599616042250527654;3553.9355;369
2024-05-14T12:07:51.875;599616042258220001;3561.628;278
2024-05-14T12:07:51.883;599616042265912348;3569.3203;157
2024-05-14T12:07:51.891;599616042273604695;3577.0125;63
2024-05-14T12:07:51.898;599616042281297042;3584.705;18
2024-05-14T12:07:51.906;599616042288989389;3592.3972;-2
2024-05-14T12:07:51.914;599616042296681736;3600.0896;-2
2024-05-14T12:07:51.921;599616042304374083;3607.782;23
2024-05-14T12:07:51.929;599616042312066430;3615.4744;30
2024-05-14T12:07:51.937;599616042319758777;3623.1667;21
2024-05-14T12:07:51.944;599616042327451124;3630.859;37
2024-05-14T12:07:51.952;599616042335143471;3638.5513;80
2024-05-14T12:07:51.960;599616042342835818;3646.244;98
2024-05-14T12:07:51.967;599616042350528165;3653.936;98
2024-05-14T12:07:51.975;599616042358220512;3661.6284;124
2024-05-14T12:07:51.983;599616042365912859;3669.3208;143
2024-05-14T12:07:51.991;599616042373605206;3677.013;139
2024-05-14T12:07:51.998;599616042381297553;3684.7056;162
2024-05-14T12:07:52.006;599616042388989900;3692.3977;197
2024-05-14T12:07:52.014;599616042396682247;3700.09;207
2024-05-14T12:07:52.021;599616042404374594;3707.7825;190
2024-05-14T12:07:52.029;599616042412066941;3715.4749;167
2024-05-14T12:07:52.037;599616042419759288;3723.1672;153
2024-05-14T12:07:52.044;599616042427451635;3730.8596;122
2024-05-14T12:07:52.052;599616042435143982;3738.5518;75
2024-05-14T12:07:52.060;599616042442836329;3746.2444;49
2024-05-14T12:07:52.067;599616042450528676;3753.9365;35
2024-05-14T12:07:52.075;599616042458221023;3761.629;4
2024-05-14T12:07:52.083;599616042465913370;3769.3213;-16
2024-05-14T12:07:52.091;599616042473605717;3777.0134;7
2024-05-14T12:07:52.098;599616042481298064;3784.706;42
2024-05-14T12:07:52.106;599616042488990411;3792.3984;47
2024-05-14T12:07:52.114;599616042496682758;3800.0906;35
2024-05-14T12:07:52.121;599616042504375105;3807.783;35
2024-05-14T12:07:52.129;599616042512067452;3815.4753;0
2024-05-14T12:07:52.137;599616042519759799;3823.1677;-75
2024-05-14T12:07:52.144;599616042527452146;3830.86;-117
2024-05-14T12:07:52.152;599616042535144493;3838.5522;-113
2024-05-14T12:07:52.160;599616042542836840;3846.2449;-2
2024-05-14T12:07:52.167;599616042550529187;3853.9373;336
2024-05-14T12:07:52.175;599616042558221534;3861.6294;815
2024-05-14T12:07:52.183;599616042565913881;3869.3218;1022
2024-05-14T12:07:52.191;599616042573606228;3877.014;654
2024-05-14T12:07:52.198;599616042581298575;3884.7065;80
2024-05-14T12:07:52.206;599616042588990922;3892.399;-73
2024-05-14T12:07:52.214;599616042596683269;3900.091;54
2024-05-14T12:07:52.221;599616042604375616;3907.7834;37
2024-05-14T12:07:52.229;599616042612067963;3915.476;-2
2024-05-14T12:07:52.237;599616042619760310;3923.1682;56
2024-05-14T12:07:52.244;599616042627442690;3930.8506;108
2024-05-14T12:07:52.252;599616042635135176;3938.5432;141
2024-05-14T12:07:52.260;599616042642827662;3946.2356;160
2024-05-14T12:07:52.267;599616042650520148;3953.928;174
2024-05-14T12:07:52.275;599616042658212634;3961.6204;209
2024-05-14T12:07:52.283;599616042665905120;3969.313;249
2024-05-14T12:07:52.291;599616042673597606;3977.0056;282
2024-05-14T12:07:52.298;599616042681290092;3984.698;336
2024-05-14T12:07:52.306;599616042688982578;3992.3904;376
2024-05-14T12:07:52.314;599616042696675064;4000.083;351
2024-05-14T12:07:52.321;599616042704367550;4007.7754;282
2024-05-14T12:07:52.329;599616042712060036;4015.468;266
2024-05-14T12:07:52.337;599616042719752522;4023.1604;313
2024-05-14T12:07:52.344;599616042727445008;4030.8528;318
2024-05-14T12:07:52.352;599616042735137494;4038.5454;270
2024-05-14T12:07:52.360;599616042742829980;4046.238;235
2024-05-14T12:07:52.367;599616042750522466;4053.9304;200
2024-05-14T12:07:52.375;599616042758214952;4061.6228;117
2024-05-14T12:07:52.383;599616042765907438;4069.3154;21
2024-05-14T12:07:52.391;599616042773599924;4077.0078;-11
2024-05-14T12:07:52.398;599616042781292410;4084.7004;0
2024-05-14T12:07:52.406;599616042788984896;4092.3928;2
2024-05-14T12:07:52.414;599616042796677382;4100.0854;23
2024-05-14T12:07:52.421;599616042804369868;4107.778;63
2024-05-14T12:07:52.429;599616042812062354;4115.47;87
2024-05-14T12:07:52.437;599616042819754840;4123.1626;87
2024-05-14T12:07:52.444;599616042827447326;4130.855;61
2024-05-14T12:07:52.452;599616042835139812;4138.548;61
2024-05-14T12:07:52.460;599616042842832298;4146.24;101
2024-05-14T12:07:52.467;599616042850524784;4153.9326;127
2024-05-14T12:07:52.475;599616042858217270;4161.625;127
2024-05-14T12:07:52.483;599616042865909756;4169.318;143
2024-05-14T12:07:52.491;599616042873602242;4177.0103;129
2024-05-14T12:07:52.498;599616042881294728;4184.7026;65
2024-05-14T12:07:52.506;599616042888987214;4192.395;28
2024-05-14T12:07:52.514;599616042896679700;4200.0874;-7
2024-05-14T12:07:52.521;599616042904372186;4207.7803;-75
2024-05-14T12:07:52.529;599616042912064672;4215.4727;-113
2024-05-14T12:07:52.537;599616042919757158;4223.165;-106
2024-05-14T12:07:52.544;599616042927449644;4230.8574;-91
2024-05-14T12:07:52.552;599616042935142130;4238.55;-80
2024-05-14T12:07:52.560;599616042942834616;4246.2427;-68
2024-05-14T12:07:52.567;599616042950527102;4253.935;-49
2024-05-14T12:07:52.575;599616042958219588;4261.6274;-23
2024-05-14T12:07:52.583;599616042965912074;4269.32;-35
2024-05-14T12:07:52.591;599616042973604560;4277.0127;-68
2024-05-14T12:07:52.598;599616042981297046;4284.705;-47
2024-05-14T12:07:52.606;599616042988989532;4292.3975;18
2024-05-14T12:07:52.614;599616042996682018;4300.09;47
2024-05-14T12:07:52.621;599616043004374504;4307.7827;4
2024-05-14T12:07:52.629;599616043012066990;4315.475;-80
2024-05-14T12:07:52.637;599616043019759476;4323.167;-120
2024-05-14T12:07:52.644;599616043027451962;4330.86;14
2024-05-14T12:07:52.652;599616043035144448;4338.5522;398
2024-05-14T12:07:52.660;599616043042836934;4346.2446;852
2024-05-14T12:07:52.667;599616043050529420;4353.9375;897
2024-05-14T12:07:52.675;599616043058221906;4361.63;374
2024-05-14T12:07:52.683;599616043065914392;4369.3223;-122
2024-05-14T12:07:52.691;599616043073606878;4377.0146;-113
2024-05-14T12:07:52.698;599616043081299364;4384.707;47
2024-05-14T12:07:52.706;599616043088991850;4392.4;35
2024-05-14T12:07:52.714;599616043096684336;4400.0923;11
2024-05-14T12:07:52.721;599616043104376822;4407.785;25
2024-05-14T12:07:52.729;599616043112069308;4415.477;35
2024-05-14T12:07:52.737;599616043119761794;4423.1694;75
2024-05-14T12:07:52.744;599616043127454280;4430.8623;124
2024-05-14T12:07:52.752;599616043135146766;4438.5547;155
2024-05-14T12:07:52.760;599616043142839252;4446.247;188
2024-05-14T12:07:52.767;599616043150531738;4453.94;207
2024-05-14T12:07:52.775;599616043158224224;4461.632;221
2024-05-14T12:07:52.783;599616043165916710;4469.3247;266
2024-05-14T12:07:52.791;599616043173609196;4477.017;318
2024-05-14T12:07:52.798;599616043181301682;4484.7095;346
2024-05-14T12:07:52.806;599616043189014252;4492.4224;372
2024-05-14T12:07:52.814;599616043196706460;4500.1143;376
2024-05-14T12:07:52.821;599616043204398668;4507.8066;329
2024-05-14T12:07:52.829;599616043212090876;4515.499;268
2024-05-14T12:07:52.837;599616043219783084;4523.191;249
2024-05-14T12:07:52.844;599616043227475292;4530.8833;261
2024-05-14T12:07:52.852;599616043235167500;4538.575;228
2024-05-14T12:07:52.860;599616043242859708;4546.2676;96
2024-05-14T12:07:52.867;599616043250551916;4553.96;-65
2024-05-14T12:07:52.875;599616043258244124;4561.6523;-129
2024-05-14T12:07:52.883;599616043265936332;4569.344;-141
2024-05-14T12:07:52.891;599616043273628540;4577.036;-221
2024-05-14T12:07:52.898;599616043281320748;4584.7285;-282
2024-05-14T12:07:52.906;599616043289012956;4592.421;-254
2024-05-14T12:07:52.914;599616043296705164;4600.1133;-230
2024-05-14T12:07:52.921;599616043304397372;4607.8057;-230
2024-05-14T12:07:52.929;599616043312089580;4615.4976;-190
2024-05-14T12:07:52.937;599616043319781788;4623.1895;-131
2024-05-14T12:07:52.944;599616043327473996;4630.882;-127
2024-05-14T12:07:52.952;599616043335166204;4638.574;-188
2024-05-14T12:07:52.960;599616043342858412;4646.2666;-223
2024-05-14T12:07:52.967;599616043350550620;4653.9585;-216
2024-05-14T12:07:52.975;599616043358242828;4661.651;-254
2024-05-14T12:07:52.983;599616043365935036;4669.343;-296
2024-05-14T12:07:52.991;599616043373627244;4677.035;-285
2024-05-14T12:07:52.998;599616043381319452;4684.7275;-273
2024-05-14T12:07:53.006;599616043389011660;4692.4194;-282
2024-05-14T12:07:53.014;599616043396703868;4700.112;-273
2024-05-14T12:07:53.021;599616043404396076;4707.804;-219
2024-05-14T12:07:53.029;599616043412088284;4715.4966;-179
2024-05-14T12:07:53.037;599616043419780492;4723.188;-197
2024-05-14T12:07:53.044;599616043427472700;4730.8804;-214
2024-05-14T12:07:53.052;599616043435164908;4738.5728;-174
2024-05-14T12:07:53.060;599616043442857116;4746.265;-115
2024-05-14T12:07:53.067;599616043450549324;4753.9575;-91
2024-05-14T12:07:53.075;599616043458241532;4761.65;-84
2024-05-14T12:07:53.083;599616043465933740;4769.3413;-47
2024-05-14T12:07:53.091;599616043473625948;4777.0337;-18
2024-05-14T12:07:53.098;599616043481318156;4784.726;-35
2024-05-14T12:07:53.106;599616043489010364;4792.4185;-70
2024-05-14T12:07:53.114;599616043496702572;4800.1104;-103
2024-05-14T12:07:53.121;599616043504394780;4807.8027;-25
2024-05-14T12:07:53.129;599616043512086988;4815.4946;334
2024-05-14T12:07:53.137;599616043519779196;4823.187;815
2024-05-14T12:07:53.144;599616043527471404;4830.8794;909
2024-05-14T12:07:53.152;599616043535163612;4838.5713;417
2024-05-14T12:07:53.160;599616043542855820;4846.2637;-106
2024-05-14T12:07:53.167;599616043550548028;4853.956;-131
2024-05-14T12:07:53.175;599616043558240236;4861.6484;30
2024-05-14T12:07:53.183;599616043565932444;4869.3403;2
2024-05-14T12:07:53.191;599616043573624652;4877.032;-35
2024-05-14T12:07:53.198;599616043581316860;4884.7246;51
2024-05-14T12:07:53.206;599616043589009068;4892.417;117
2024-05-14T12:07:53.214;599616043596701276;4900.1094;101
2024-05-14T12:07:53.221;599616043604393484;4907.802;91
2024-05-14T12:07:53.229;599616043612085692;4915.493;129
2024-05-14T12:07:53.237;599616043619777900;4923.1855;176
2024-05-14T12:07:53.244;599616043627470108;4930.878;209
2024-05-14T12:07:53.252;599616043635162316;4938.5703;245
2024-05-14T12:07:53.260;599616043642854524;4946.2627;303
2024-05-14T12:07:53.267;599616043650546732;4953.9546;365
2024-05-14T12:07:53.275;599616043658238940;4961.6465;381
2024-05-14T12:07:53.283;599616043665931148;4969.339;374
2024-05-14T12:07:53.291;599616043673623356;4977.0312;360
2024-05-14T12:07:53.298;599616043681315564;4984.7236;320
2024-05-14T12:07:53.306;599616043689007772;4992.4155;287
2024-05-14T12:07:53.314;599616043696699980;5000.108;275
2024-05-14T12:07:53.321;599616043704392188;5007.8003;261
2024-05-14T12:07:53.329;599616043712084396;5015.492;254
2024-05-14T12:07:53.337;599616043719776604;5023.1846;240
2024-05-14T12:07:53.344;599616043727468812;5030.8765;207
2024-05-14T12:07:53.352;599616043735161020;5038.569;200
2024-05-14T12:07:53.360;599616043742853228;5046.261;186
2024-05-14T12:07:53.367;599616043750515356;5053.9233;110
2024-05-14T12:07:53.375;599616043758207982;5061.616;56
2024-05-14T12:07:53.383;599616043765900608;5069.3086;61
2024-05-14T12:07:53.391;599616043773593234;5077.001;4
2024-05-14T12:07:53.398;599616043781285860;5084.694;-89
2024-05-14T12:07:53.406;599616043788978486;5092.386;-103
2024-05-14T12:07:53.414;599616043796671112;5100.079;-84
2024-05-14T12:07:53.421;599616043804363738;5107.7715;-124
2024-05-14T12:07:53.429;599616043812056364;5115.4644;-230
2024-05-14T12:07:53.437;599616043819748990;5123.157;-327
2024-05-14T12:07:53.444;599616043827441616;5130.849;-362
2024-05-14T12:07:53.452;599616043835134242;5138.542;-374
2024-05-14T12:07:53.460;599616043842826868;5146.235;-412
2024-05-14T12:07:53.467;599616043850519494;5153.9272;-433
2024-05-14T12:07:53.475;599616043858212120;5161.62;-395
2024-05-14T12:07:53.483;599616043865904746;5169.313;-353
2024-05-14T12:07:53.491;599616043873597372;5177.005;-343
2024-05-14T12:07:53.498;599616043881289998;5184.6978;-325
2024-05-14T12:07:53.506;599616043888982624;5192.3906;-285
2024-05-14T12:07:53.514;599616043896675250;5200.083;-256
2024-05-14T12:07:53.521;599616043904367876;5207.776;-240
2024-05-14T12:07:53.529;599616043912060502;5215.4688;-200
2024-05-14T12:07:53.537;599616043919753128;5223.1606;-150
2024-05-14T12:07:53.544;599616043927445754;5230.8535;-124
2024-05-14T12:07:53.552;599616043935138380;5238.5464;-113
2024-05-14T12:07:53.560;599616043942831006;5246.239;-82
2024-05-14T12:07:53.567;599616043950523632;5253.9316;-44
2024-05-14T12:07:53.575;599616043958216258;5261.6245;-56
2024-05-14T12:07:53.583;599616043965908884;5269.3164;-70
2024-05-14T12:07:53.591;599616043973601510;5277.0093;162
2024-05-14T12:07:53.598;599616043981294136;5284.702;690
2024-05-14T12:07:53.606;599616043988986762;5292.3945;1102
2024-05-14T12:07:53.614;599616043996679388;5300.0874;907
2024-05-14T12:07:53.621;599616044004372014;5307.7803;254
2024-05-14T12:07:53.629;599616044012064640;5315.472;-115
2024-05-14T12:07:53.637;599616044019757266;5323.165;-16
2024-05-14T12:07:53.644;599616044027449892;5330.858;30
2024-05-14T12:07:53.652;599616044035142518;5338.5503;-58
2024-05-14T12:07:53.660;599616044042835144;5346.243;7
2024-05-14T12:07:53.667;599616044050527770;5353.936;110
2024-05-14T12:07:53.675;599616044058220396;5361.628;91
2024-05-14T12:07:53.683;599616044065913022;5369.321;89
2024-05-14T12:07:53.691;599616044073605648;5377.0137;148
2024-05-14T12:07:53.698;599616044081298274;5384.706;160
2024-05-14T12:07:53.706;599616044088990900;5392.399;162
2024-05-14T12:07:53.714;599616044096683526;5400.092;214
2024-05-14T12:07:53.721;599616044104376152;5407.784;266
2024-05-14T12:07:53.729;599616044112068778;5415.4766;289
2024-05-14T12:07:53.737;599616044119761404;5423.1694;310
2024-05-14T12:07:53.744;599616044127454030;5430.862;358
2024-05-14T12:07:53.752;599616044135146656;5438.5547;395
2024-05-14T12:07:53.760;599616044142839282;5446.2476;388
2024-05-14T12:07:53.767;599616044150531908;5453.94;346
2024-05-14T12:07:53.775;599616044158224534;5461.6323;289
2024-05-14T12:07:53.783;599616044165917160;5469.325;247
2024-05-14T12:07:53.791;599616044173609786;5477.0176;237
2024-05-14T12:07:53.798;599616044181302412;5484.7104;226
2024-05-14T12:07:53.806;599616044188995038;5492.4033;207
2024-05-14T12:07:53.814;599616044196687664;5500.0957;214
2024-05-14T12:07:53.821;599616044204380290;5507.788;212
2024-05-14T12:07:53.829;599616044212072916;5515.4805;193
2024-05-14T12:07:53.837;599616044219765542;5523.1733;207
2024-05-14T12:07:53.844;599616044227458168;5530.866;226
2024-05-14T12:07:53.852;599616044235150794;5538.5586;212
2024-05-14T12:07:53.860;599616044242843420;5546.2515;179
2024-05-14T12:07:53.867;599616044250536046;5553.944;162
2024-05-14T12:07:53.875;599616044258228672;5561.636;157
2024-05-14T12:07:53.883;599616044265921298;5569.329;120
2024-05-14T12:07:53.891;599616044273613924;5577.022;21
2024-05-14T12:07:53.898;599616044281306550;5584.7144;-84
2024-05-14T12:07:53.906;599616044288999176;5592.407;-150
2024-05-14T12:07:53.914;599616044296691802;5600.0996;-186
2024-05-14T12:07:53.921;599616044304384428;5607.792;-237
2024-05-14T12:07:53.929;599616044312107170;5615.515;-268
2024-05-14T12:07:53.937;599616044319799378;5623.2075;-249
2024-05-14T12:07:53.944;599616044327491586;5630.9;-242
2024-05-14T12:07:53.952;599616044335183794;5638.5913;-228
2024-05-14T12:07:53.960;599616044342876002;5646.2837;-207
2024-05-14T12:07:53.967;599616044350568210;5653.976;-280
2024-05-14T12:07:53.975;599616044358260418;5661.6685;-384
2024-05-14T12:07:53.983;599616044365952626;5669.361;-358
2024-05-14T12:07:53.991;599616044373644834;5677.0527;-289
2024-05-14T12:07:53.998;599616044381337042;5684.7446;-294
2024-05-14T12:07:54.006;599616044389029250;5692.437;-289
2024-05-14T12:07:54.014;599616044396721458;5700.1294;-240
2024-05-14T12:07:54.021;599616044404413666;5707.822;-221
2024-05-14T12:07:54.029;599616044412105874;5715.5137;-256
2024-05-14T12:07:54.037;599616044419798082;5723.206;-270
2024-05-14T12:07:54.044;599616044427490290;5730.8984;-106
2024-05-14T12:07:54.052;599616044435182498;5738.5903;355
2024-05-14T12:07:54.060;599616044442874706;5746.2827;888
2024-05-14T12:07:54.067;599616044450566914;5753.9746;1008
2024-05-14T12:07:54.075;599616044458259122;5761.667;520
2024-05-14T12:07:54.083;599616044465951330;5769.3594;-63
2024-05-14T12:07:54.091;599616044473643538;5777.052;-146
2024-05-14T12:07:54.098;599616044481335746;5784.7437;-11
2024-05-14T12:07:54.106;599616044489027954;5792.4355;-110
2024-05-14T12:07:54.114;599616044496720162;5800.128;-195
2024-05-14T12:07:54.121;599616044504412370;5807.8203;-113
2024-05-14T12:07:54.129;599616044512104578;5815.5127;-68
2024-05-14T12:07:54.137;599616044519796786;5823.205;-40
2024-05-14T12:07:54.144;599616044527488994;5830.897;32
2024-05-14T12:07:54.152;599616044535181202;5838.589;49
2024-05-14T12:07:54.160;599616044542873410;5846.2812;47
2024-05-14T12:07:54.167;599616044550565618;5853.9736;110
2024-05-14T12:07:54.175;599616044558257826;5861.666;167
2024-05-14T12:07:54.183;599616044565950034;5869.358;193
2024-05-14T12:07:54.191;599616044573642242;5877.0503;235
2024-05-14T12:07:54.198;599616044581334450;5884.742;278
2024-05-14T12:07:54.206;599616044589026658;5892.4346;301
2024-05-14T12:07:54.214;599616044596718866;5900.127;318
2024-05-14T12:07:54.221;599616044604411074;5907.819;336
2024-05-14T12:07:54.229;599616044612103282;5915.511;346
2024-05-14T12:07:54.237;599616044619795490;5923.2036;303
2024-05-14T12:07:54.244;599616044627487698;5930.8955;209
2024-05-14T12:07:54.252;599616044635179906;5938.588;160
2024-05-14T12:07:54.260;599616044642872114;5946.28;169
2024-05-14T12:07:54.267;599616044650564322;5953.972;171
2024-05-14T12:07:54.275;599616044658256530;5961.6646;171
2024-05-14T12:07:54.283;599616044665948738;5969.357;204
2024-05-14T12:07:54.291;599616044673640946;5977.0493;221
2024-05-14T12:07:54.298;599616044681333154;5984.7407;207
2024-05-14T12:07:54.306;599616044689025362;5992.433;209
2024-05-14T12:07:54.314;599616044696717570;6000.1255;237
2024-05-14T12:07:54.321;599616044704409778;6007.818;266
2024-05-14T12:07:54.329;599616044712101986;6015.5103;261
2024-05-14T12:07:54.337;599616044719794194;6023.202;221
2024-05-14T12:07:54.344;599616044727486402;6030.894;183
2024-05-14T12:07:54.352;599616044735178610;6038.5864;139
2024-05-14T12:07:54.360;599616044742870818;6046.279;84
2024-05-14T12:07:54.367;599616044750563026;6053.9707;44
2024-05-14T12:07:54.375;599616044758255234;6061.663;16
2024-05-14T12:07:54.383;599616044765947442;6069.3555;-25
2024-05-14T12:07:54.391;599616044773639650;6077.048;-134
2024-05-14T12:07:54.398;599616044781331858;6084.7397;-261
2024-05-14T12:07:54.406;599616044789024066;6092.4316;-285
2024-05-14T12:07:54.414;599616044796716274;6100.124;-240
2024-05-14T12:07:54.421;599616044804408482;6107.8164;-240
2024-05-14T12:07:54.429;599616044812100690;6115.509;-259
2024-05-14T12:07:54.437;599616044819792898;6123.201;-233
2024-05-14T12:07:54.444;599616044827485106;6130.8926;-197
2024-05-14T12:07:54.452;599616044835177314;6138.585;-183
2024-05-14T12:07:54.460;599616044842869522;6146.2773;-174
2024-05-14T12:07:54.467;599616044850561730;6153.9697;-183
2024-05-14T12:07:54.475;599616044858253938;6161.662;-200
2024-05-14T12:07:54.483;599616044865946146;6169.354;-160
2024-05-14T12:07:54.491;599616044873608274;6177.016;-131
2024-05-14T12:07:54.498;599616044881300900;6184.7085;-113
2024-05-14T12:07:54.506;599616044888993526;6192.4014;101
2024-05-14T12:07:54.514;599616044896686152;6200.094;570
2024-05-14T12:07:54.521;599616044904378778;6207.7866;996
2024-05-14T12:07:54.529;599616044912071404;6215.4795;907
2024-05-14T12:07:54.537;599616044919764030;6223.172;259
2024-05-14T12:07:54.544;599616044927456656;6230.8643;-270
2024-05-14T12:07:54.552;599616044935149282;6238.557;-273
2024-05-14T12:07:54.560;599616044942841908;6246.25;-176
2024-05-14T12:07:54.567;599616044950534534;6253.9424;-247
2024-05-14T12:07:54.575;599616044958227160;6261.6353;-249
2024-05-14T12:07:54.583;599616044965919786;6269.3276;-157
2024-05-14T12:07:54.591;599616044973612412;6277.02;-146
2024-05-14T12:07:54.598;599616044981305038;6284.713;-200
2024-05-14T12:07:54.606;599616044988997664;6292.406;-190
2024-05-14T12:07:54.614;599616044996690290;6300.098;-117
2024-05-14T12:07:54.621;599616045004382916;6307.791;-44
2024-05-14T12:07:54.629;599616045012075542;6315.484;23
2024-05-14T12:07:54.637;599616045019768168;6323.176;110
2024-05-14T12:07:54.644;599616045027460794;6330.8687;216
2024-05-14T12:07:54.652;599616045035153420;6338.5615;292
2024-05-14T12:07:54.660;599616045042846046;6346.254;294
2024-05-14T12:07:54.667;599616045050538672;6353.947;287
2024-05-14T12:07:54.675;599616045058231298;6361.6396;336
2024-05-14T12:07:54.683;599616045065923924;6369.3315;376
2024-05-14T12:07:54.691;599616045073616550;6377.0244;365
2024-05-14T12:07:54.698;599616045081309176;6384.7173;327
2024-05-14T12:07:54.706;599616045089001802;6392.4097;273
2024-05-14T12:07:54.714;599616045096694428;6400.1025;219
2024-05-14T12:07:54.721;599616045104387054;6407.7954;190
2024-05-14T12:07:54.729;599616045112079680;6415.4873;181
2024-05-14T12:07:54.737;599616045119772306;6423.18;174
2024-05-14T12:07:54.744;599616045127464932;6430.873;162
2024-05-14T12:07:54.752;599616045135157558;6438.5654;155
2024-05-14T12:07:54.760;599616045142850184;6446.2583;181
2024-05-14T12:07:54.767;599616045150542810;6453.9507;219
2024-05-14T12:07:54.775;599616045158235436;6461.643;209
2024-05-14T12:07:54.783;599616045165928062;6469.336;181
2024-05-14T12:07:54.791;599616045173620688;6477.0283;176
2024-05-14T12:07:54.798;599616045181313314;6484.721;157
2024-05-14T12:07:54.806;599616045189005940;6492.414;115
2024-05-14T12:07:54.814;599616045196698566;6500.1064;108
2024-05-14T12:07:54.821;599616045204391192;6507.799;134
2024-05-14T12:07:54.829;599616045212083818;6515.4917;108
2024-05-14T12:07:54.837;599616045219776444;6523.184;23
2024-05-14T12:07:54.844;599616045227469070;6530.877;-63
2024-05-14T12:07:54.852;599616045235161696;6538.57;-139
2024-05-14T12:07:54.860;599616045242854322;6546.262;-179
2024-05-14T12:07:54.867;599616045250546948;6553.9546;-164
2024-05-14T12:07:54.875;599616045258239574;6561.6475;-153
2024-05-14T12:07:54.883;599616045265932200;6569.34;-169
2024-05-14T12:07:54.891;599616045273624826;6577.0327;-164
2024-05-14T12:07:54.898;599616045281317452;6584.7256;-181
2024-05-14T12:07:54.906;599616045289010078;6592.418;-263
2024-05-14T12:07:54.914;599616045296702704;6600.1104;-296
2024-05-14T12:07:54.921;599616045304395330;6607.803;-230
2024-05-14T12:07:54.929;599616045312087956;6615.4956;-195
2024-05-14T12:07:54.937;599616045319780582;6623.1885;-219
2024-05-14T12:07:54.944;599616045327473208;6630.8813;-209
2024-05-14T12:07:54.952;599616045335165834;6638.5737;-195
2024-05-14T12:07:54.960;599616045342858460;6646.2666;-207
2024-05-14T12:07:54.967;599616045350551086;6653.959;-75
2024-05-14T12:07:54.975;599616045358243712;6661.6514;353
2024-05-14T12:07:54.983;599616045365936338;6669.344;841
2024-05-14T12:07:54.991;599616045373628964;6677.037;947
2024-05-14T12:07:54.998;599616045381321590;6684.7295;506
2024-05-14T12:07:55.006;599616045389014216;6692.4224;-35
2024-05-14T12:07:55.014;599616045396706842;6700.1147;-146
2024-05-14T12:07:55.021;599616045404399468;6707.807;-30
2024-05-14T12:07:55.029;599616045412092094;6715.5;-58
2024-05-14T12:07:55.037;599616045419784720;6723.193;-89
2024-05-14T12:07:55.044;599616045427477346;6730.8853;-4
2024-05-14T12:07:55.052;599616045435190080;6738.5977;49
2024-05-14T12:07:55.060;599616045442882427;6746.29;47
2024-05-14T12:07:55.067;599616045450574774;6753.9824;77
2024-05-14T12:07:55.075;599616045458267121;6761.6753;117
2024-05-14T12:07:55.083;599616045465959468;6769.3677;115
2024-05-14T12:07:55.091;599616045473651815;6777.06;96
2024-05-14T12:07:55.098;599616045481344162;6784.752;113
2024-05-14T12:07:55.106;599616045489036509;6792.4443;124
2024-05-14T12:07:55.114;599616045496728856;6800.1367;75
2024-05-14T12:07:55.121;599616045504421203;6807.829;47
2024-05-14T12:07:55.129;599616045512113550;6815.5215;94
2024-05-14T12:07:55.137;599616045519805897;6823.2134;146
2024-05-14T12:07:55.144;599616045527498244;6830.9062;160
2024-05-14T12:07:55.152;599616045535190591;6838.5986;181
2024-05-14T12:07:55.160;599616045542882938;6846.291;207
2024-05-14T12:07:55.167;599616045550575285;6853.9834;155
2024-05-14T12:07:55.175;599616045558267632;6861.6753;51
2024-05-14T12:07:55.183;599616045565959979;6869.3677;32
2024-05-14T12:07:55.191;599616045573652326;6877.06;73
2024-05-14T12:07:55.198;599616045581344673;6884.7524;65
2024-05-14T12:07:55.206;599616045589037020;6892.445;49
2024-05-14T12:07:55.214;599616045596729367;6900.1377;58
2024-05-14T12:07:55.221;599616045604421714;6907.8296;80
2024-05-14T12:07:55.229;599616045612114061;6915.522;101
2024-05-14T12:07:55.237;599616045619806408;6923.2144;106
2024-05-14T12:07:55.244;599616045627498755;6930.9067;115
2024-05-14T12:07:55.252;599616045635191102;6938.599;131
2024-05-14T12:07:55.260;599616045642883449;6946.291;129
2024-05-14T12:07:55.267;599616045650575796;6953.9834;127
2024-05-14T12:07:55.275;599616045658268143;6961.6763;153
2024-05-14T12:07:55.283;599616045665960490;6969.3687;162
2024-05-14T12:07:55.291;599616045673652837;6977.061;155
2024-05-14T12:07:55.298;599616045681345184;6984.753;127
2024-05-14T12:07:55.306;599616045689037531;6992.4453;73
2024-05-14T12:07:55.314;599616045696729878;7000.1377;18
2024-05-14T12:07:55.321;599616045704422225;7007.83;-40
2024-05-14T12:07:55.329;599616045712114572;7015.5225;-108
2024-05-14T12:07:55.337;599616045719806919;7023.2144;-155
2024-05-14T12:07:55.344;599616045727499266;7030.907;-181
2024-05-14T12:07:55.352;599616045735191613;7038.5996;-202
2024-05-14T12:07:55.360;599616045742883960;7046.292;-195
2024-05-14T12:07:55.367;599616045750576307;7053.9844;-162
2024-05-14T12:07:55.375;599616045758268654;7061.677;-134
2024-05-14T12:07:55.383;599616045765961001;7069.3687;-120
2024-05-14T12:07:55.391;599616045773653348;7077.061;-108
2024-05-14T12:07:55.398;599616045781345695;7084.7534;-134
2024-05-14T12:07:55.406;599616045789038042;7092.446;-233
2024-05-14T12:07:55.414;599616045796730389;7100.1387;-318
2024-05-14T12:07:55.421;599616045804422736;7107.8306;-313
2024-05-14T12:07:55.429;599616045812115083;7115.523;-299
2024-05-14T12:07:55.437;599616045819807430;7123.2153;-252
2024-05-14T12:07:55.444;599616045827499777;7130.9077;23
2024-05-14T12:07:55.452;599616045835192124;7138.6;499
2024-05-14T12:07:55.460;599616045842884471;7146.292;796
2024-05-14T12:07:55.467;599616045850576818;7153.9844;551
2024-05-14T12:07:55.475;599616045858269165;7161.6772;2
2024-05-14T12:07:55.483;599616045865961512;7169.3696;-221
2024-05-14T12:07:55.491;599616045873653859;7177.062;-103
2024-05-14T12:07:55.498;599616045881346206;7184.7544;-87
2024-05-14T12:07:55.506;599616045889038553;7192.4463;-155
2024-05-14T12:07:55.514;599616045896730900;7200.1387;-91
2024-05-14T12:07:55.521;599616045904423247;7207.831;-9
2024-05-14T12:07:55.529;599616045912115594;7215.5234;-14
2024-05-14T12:07:55.537;599616045919807941;7223.216;-14
2024-05-14T12:07:55.544;599616045927500288;7230.908;47
2024-05-14T12:07:55.552;599616045935192635;7238.6006;113
2024-05-14T12:07:55.560;599616045942884982;7246.293;148
2024-05-14T12:07:55.567;599616045950577329;7253.9854;169
2024-05-14T12:07:55.575;599616045958269676;7261.6777;171
2024-05-14T12:07:55.583;599616045965962023;7269.3696;139
2024-05-14T12:07:55.591;599616045973654370;7277.062;129
2024-05-14T12:07:55.598;599616045981346717;7284.7544;176
2024-05-14T12:07:55.606;599616045989039064;7292.447;235
2024-05-14T12:07:55.614;599616045996736492;7300.1445;268
2024-05-14T12:07:55.621;599616046004428769;7307.837;256
2024-05-14T12:07:55.629;599616046012121046;7315.529;237
2024-05-14T12:07:55.637;599616046019813323;7323.221;240
2024-05-14T12:07:55.644;599616046027505600;7330.913;195
2024-05-14T12:07:55.652;599616046035197877;7338.6055;110
2024-05-14T12:07:55.660;599616046042890154;7346.298;96
2024-05-14T12:07:55.667;599616046050582431;7353.99;124
2024-05-14T12:07:55.675;599616046058274708;7361.6826;65
2024-05-14T12:07:55.683;599616046065966985;7369.3745;-49
2024-05-14T12:07:55.691;599616046073659262;7377.067;-65
2024-05-14T12:07:55.698;599616046081351539;7384.7593;-7
2024-05-14T12:07:55.706;599616046089043816;7392.4517;0
2024-05-14T12:07:55.714;599616046096736093;7400.144;-23
2024-05-14T12:07:55.721;599616046104428370;7407.836;-16
2024-05-14T12:07:55.729;599616046112120647;7415.5283;-7
2024-05-14T12:07:55.737;599616046119812924;7423.2207;-2
2024-05-14T12:07:55.744;599616046127505201;7430.913;18
2024-05-14T12:07:55.752;599616046135197478;7438.6055;56
2024-05-14T12:07:55.760;599616046142889755;7446.2974;75
2024-05-14T12:07:55.767;599616046150582032;7453.9897;40
2024-05-14T12:07:55.775;599616046158274309;7461.682;-21
2024-05-14T12:07:55.783;599616046165966586;7469.3745;-47
2024-05-14T12:07:55.791;599616046173658863;7477.067;-61
2024-05-14T12:07:55.798;599616046181351140;7484.7593;-120
2024-05-14T12:07:55.806;599616046189043417;7492.451;-174
2024-05-14T12:07:55.814;599616046196735694;7500.1436;-167
2024-05-14T12:07:55.821;599616046204427971;7507.836;-190
2024-05-14T12:07:55.829;599616046212120248;7515.5283;-282
2024-05-14T12:07:55.837;599616046219812525;7523.2207;-308
2024-05-14T12:07:55.844;599616046227504802;7530.9126;-245
2024-05-14T12:07:55.852;599616046235197079;7538.605;-216
2024-05-14T12:07:55.860;599616046242889356;7546.2974;-237
2024-05-14T12:07:55.867;599616046250581633;7553.9897;-226
2024-05-14T12:07:55.875;599616046258273910;7561.682;-176
2024-05-14T12:07:55.883;599616046265966187;7569.374;-148
2024-05-14T12:07:55.891;599616046273658464;7577.0664;-169
2024-05-14T12:07:55.898;599616046281350741;7584.759;-212
2024-05-14T12:07:55.906;599616046289043018;7592.451;-249
2024-05-14T12:07:55.914;599616046296735295;7600.1436;-146
2024-05-14T12:07:55.921;599616046304427572;7607.8354;252
2024-05-14T12:07:55.929;599616046312119849;7615.528;652
2024-05-14T12:07:55.937;599616046319812126;7623.22;541
2024-05-14T12:07:55.944;599616046327504403;7630.9126;-4
2024-05-14T12:07:55.952;599616046335196680;7638.605;-355
2024-05-14T12:07:55.960;599616046342888957;7646.297;-287
2024-05-14T12:07:55.967;599616046350581234;7653.9893;-188
2024-05-14T12:07:55.975;599616046358273511;7661.6816;-214
2024-05-14T12:07:55.983;599616046365965788;7669.374;-186
2024-05-14T12:07:55.991;599616046373658065;7677.066;-115
2024-05-14T12:07:55.998;599616046381350342;7684.758;-101
2024-05-14T12:07:56.006;599616046389042619;7692.45;-98
2024-05-14T12:07:56.014;599616046396734896;7700.1426;-58
2024-05-14T12:07:56.021;599616046404427173;7707.835;-4
2024-05-14T12:07:56.029;599616046412119450;7715.5273;56
2024-05-14T12:07:56.037;599616046419811727;7723.219;91
2024-05-14T12:07:56.044;599616046427504004;7730.9116;89
2024-05-14T12:07:56.052;599616046435196281;7738.604;113
2024-05-14T12:07:56.060;599616046442888558;7746.2964;176
2024-05-14T12:07:56.067;599616046450580835;7753.989;204
2024-05-14T12:07:56.075;599616046458273112;7761.6807;183
2024-05-14T12:07:56.083;599616046465965389;7769.373;181
2024-05-14T12:07:56.091;599616046473657666;7777.0654;202
2024-05-14T12:07:56.098;599616046481349943;7784.758;197
2024-05-14T12:07:56.106;599616046489042220;7792.45;179
2024-05-14T12:07:56.114;599616046496734497;7800.1426;181
2024-05-14T12:07:56.121;599616046504426774;7807.8345;179
2024-05-14T12:07:56.129;599616046512119051;7815.527;117
2024-05-14T12:07:56.137;599616046519811328;7823.219;63
2024-05-14T12:07:56.144;599616046527503605;7830.9116;87
2024-05-14T12:07:56.152;599616046535195882;7838.604;96
2024-05-14T12:07:56.160;599616046542888159;7846.296;65
2024-05-14T12:07:56.167;599616046550580436;7853.9883;89
2024-05-14T12:07:56.175;599616046558262698;7861.6704;131
2024-05-14T12:07:56.183;599616046565955115;7869.3633;113
2024-05-14T12:07:56.191;599616046573647532;7877.0557;77
2024-05-14T12:07:56.198;599616046581339949;7884.7476;103
2024-05-14T12:07:56.206;599616046589032366;7892.44;136
2024-05-14T12:07:56.214;599616046596724783;7900.133;139
2024-05-14T12:07:56.221;599616046604417200;7907.825;150
2024-05-14T12:07:56.229;599616046612109617;7915.5176;148
2024-05-14T12:07:56.237;599616046619802034;7923.21;127
2024-05-14T12:07:56.244;599616046627494451;7930.9023;80
2024-05-14T12:07:56.252;599616046635186868;7938.5947;-21
2024-05-14T12:07:56.260;599616046642879285;7946.287;-73
2024-05-14T12:07:56.267;599616046650571702;7953.9795;-65
2024-05-14T12:07:56.275;599616046658264119;7961.6724;-148
2024-05-14T12:07:56.283;599616046665956536;7969.3643;-245
2024-05-14T12:07:56.291;599616046673648953;7977.0566;-183
2024-05-14T12:07:56.298;599616046681341370;7984.749;-115
2024-05-14T12:07:56.306;599616046689033787;7992.442;-176
2024-05-14T12:07:56.314;599616046696726204;8000.1343;-223
2024-05-14T12:07:56.321;599616046704418621;8007.8267;-200
2024-05-14T12:07:56.329;599616046712111038;8015.5186;-200
2024-05-14T12:07:56.337;599616046719803455;8023.2114;-223
2024-05-14T12:07:56.344;599616046727495872;8030.904;-237
2024-05-14T12:07:56.352;599616046735188289;8038.596;-254
2024-05-14T12:07:56.360;599616046742880706;8046.2886;-223
2024-05-14T12:07:56.367;599616046750573123;8053.981;30
2024-05-14T12:07:56.375;599616046758265540;8061.6733;556
2024-05-14T12:07:56.383;599616046765957957;8069.3657;954
2024-05-14T12:07:56.391;599616046773650374;8077.058;737
2024-05-14T12:07:56.398;599616046781342791;8084.751;77
2024-05-14T12:07:56.406;599616046789035208;8092.4434;-282
2024-05-14T12:07:56.414;599616046796727625;8100.1353;-230
2024-05-14T12:07:56.421;599616046804420042;8107.8276;-294
2024-05-14T12:07:56.429;599616046812112459;8115.5205;-393
2024-05-14T12:07:56.437;599616046819804876;8123.213;-278
2024-05-14T12:07:56.444;599616046827497293;8130.9053;-186
2024-05-14T12:07:56.452;599616046835189710;8138.597;-214
2024-05-14T12:07:56.460;599616046842882127;8146.29;-226
2024-05-14T12:07:56.467;599616046850574544;8153.9824;-164
2024-05-14T12:07:56.475;599616046858266961;8161.675;-75
2024-05-14T12:07:56.483;599616046865959378;8169.367;-37
2024-05-14T12:07:56.491;599616046873651795;8177.06;-37
2024-05-14T12:07:56.498;599616046881344212;8184.752;28
2024-05-14T12:07:56.506;599616046889036629;8192.444;108
2024-05-14T12:07:56.514;599616046896729046;8200.137;108
2024-05-14T12:07:56.521;599616046904421463;8207.829;120
2024-05-14T12:07:56.529;599616046912113880;8215.521;188
2024-05-14T12:07:56.537;599616046919806297;8223.214;240
2024-05-14T12:07:56.544;599616046927498714;8230.906;237
2024-05-14T12:07:56.552;599616046935191131;8238.6;204
2024-05-14T12:07:56.560;599616046942883548;8246.291;179
2024-05-14T12:07:56.567;599616046950575965;8253.983;139
2024-05-14T12:07:56.575;599616046958268382;8261.677;122
2024-05-14T12:07:56.583;599616046965960799;8269.369;141
2024-05-14T12:07:56.591;599616046973653216;8277.062;127
2024-05-14T12:07:56.598;599616046981345633;8284.753;84
2024-05-14T12:07:56.606;599616046989038050;8292.446;56
2024-05-14T12:07:56.614;599616046996730467;8300.139;49
2024-05-14T12:07:56.621;599616047004422884;8307.831;61
2024-05-14T12:07:56.629;599616047012115301;8315.523;68
2024-05-14T12:07:56.637;599616047019807718;8323.216;40
2024-05-14T12:07:56.644;599616047027500135;8330.908;11
2024-05-14T12:07:56.652;599616047035192552;8338.601;28
2024-05-14T12:07:56.660;599616047042884969;8346.293;56
2024-05-14T12:07:56.667;599616047050577386;8353.985;54
2024-05-14T12:07:56.675;599616047058269803;8361.678;42
2024-05-14T12:07:56.683;599616047065962220;8369.37;47
2024-05-14T12:07:56.691;599616047073654637;8377.0625;75
2024-05-14T12:07:56.698;599616047081347054;8384.755;89
2024-05-14T12:07:56.706;599616047089039471;8392.447;77
2024-05-14T12:07:56.714;599616047096731888;8400.14;108
2024-05-14T12:07:56.721;599616047104424305;8407.832;169
2024-05-14T12:07:56.729;599616047112116722;8415.524;153
2024-05-14T12:07:56.737;599616047119794110;8423.202;75
2024-05-14T12:07:56.744;599616047127486736;8430.895;54
2024-05-14T12:07:56.752;599616047135179362;8438.587;68
2024-05-14T12:07:56.760;599616047142871988;8446.279;7
2024-05-14T12:07:56.767;599616047150564614;8453.973;-65
2024-05-14T12:07:56.775;599616047158257240;8461.665;-70
2024-05-14T12:07:56.783;599616047165949866;8469.357;-94
2024-05-14T12:07:56.791;599616047173642492;8477.051;-193
2024-05-14T12:07:56.798;599616047181335118;8484.743;-296
2024-05-14T12:07:56.806;599616047189027744;8492.436;-327
2024-05-14T12:07:56.814;599616047196720370;8500.128;-167
2024-05-14T12:07:56.821;599616047204412996;8507.821;280
2024-05-14T12:07:56.829;599616047212105622;8515.514;702
2024-05-14T12:07:56.837;599616047219798248;8523.206;572
2024-05-14T12:07:56.844;599616047227490874;8530.899;-42
2024-05-14T12:07:56.852;599616047235183500;8538.591;-452
2024-05-14T12:07:56.860;599616047242876126;8546.284;-351
2024-05-14T12:07:56.867;599616047250568752;8553.977;-216
2024-05-14T12:07:56.875;599616047258261378;8561.669;-270
2024-05-14T12:07:56.883;599616047265954004;8569.362;-256
2024-05-14T12:07:56.891;599616047273646630;8577.055;-183
2024-05-14T12:07:56.898;599616047281339256;8584.747;-162
2024-05-14T12:07:56.906;599616047289031882;8592.439;-129
2024-05-14T12:07:56.914;599616047296724508;8600.133;-108
2024-05-14T12:07:56.921;599616047304417134;8607.825;-200
2024-05-14T12:07:56.929;599616047312109760;8615.518;-273
2024-05-14T12:07:56.937;599616047319802386;8623.211;-197
2024-05-14T12:07:56.944;599616047327495012;8630.902;-122
2024-05-14T12:07:56.952;599616047335187638;8638.595;-129
2024-05-14T12:07:56.960;599616047342880264;8646.288;-98
2024-05-14T12:07:56.967;599616047350572890;8653.98;-28
2024-05-14T12:07:56.975;599616047358265516;8661.673;14
2024-05-14T12:07:56.983;599616047365958142;8669.366;44
2024-05-14T12:07:56.991;599616047373650768;8677.059;73
2024-05-14T12:07:56.998;599616047381343394;8684.751;94
2024-05-14T12:07:57.006;599616047389036020;8692.444;131
2024-05-14T12:07:57.014;599616047396728646;8700.137;134
2024-05-14T12:07:57.021;599616047404421272;8707.829;91
2024-05-14T12:07:57.029;599616047412113898;8715.522;120
2024-05-14T12:07:57.037;599616047419806524;8723.214;188
2024-05-14T12:07:57.044;599616047427499150;8730.906;186
2024-05-14T12:07:57.052;599616047435191776;8738.6;162
2024-05-14T12:07:57.060;599616047442884402;8746.292;160
2024-05-14T12:07:57.067;599616047450577028;8753.984;129
2024-05-14T12:07:57.075;599616047458269654;8761.678;75
2024-05-14T12:07:57.083;599616047465962280;8769.37;80
2024-05-14T12:07:57.091;599616047473654906;8777.0625;113
2024-05-14T12:07:57.098;599616047481347532;8784.756;98
2024-05-14T12:07:57.106;599616047489040158;8792.448;68
2024-05-14T12:07:57.114;599616047496732784;8800.141;58
2024-05-14T12:07:57.121;599616047504425410;8807.834;47
2024-05-14T12:07:57.129;599616047512118036;8815.526;80
2024-05-14T12:07:57.137;599616047519810662;8823.218;131
2024-05-14T12:07:57.144;599616047527503288;8830.911;110
2024-05-14T12:07:57.152;599616047535195914;8838.604;94
2024-05-14T12:07:57.160;599616047542888540;8846.296;134
2024-05-14T12:07:57.167;599616047550581166;8853.989;146
2024-05-14T12:07:57.175;599616047558273792;8861.682;155
2024-05-14T12:07:57.183;599616047565966418;8869.374;190
2024-05-14T12:07:57.191;599616047573659044;8877.067;219
2024-05-14T12:07:57.198;599616047581351670;8884.76;214
2024-05-14T12:07:57.206;599616047589044296;8892.452;143
2024-05-14T12:07:57.214;599616047596736922;8900.1455;89
2024-05-14T12:07:57.221;599616047604429548;8907.838;91
2024-05-14T12:07:57.229;599616047612122174;8915.529;61
2024-05-14T12:07:57.237;599616047619814800;8923.223;-4
2024-05-14T12:07:57.244;599616047627507426;8930.915;-89
2024-05-14T12:07:57.252;599616047635200052;8938.607;-141
2024-05-14T12:07:57.260;599616047642892678;8946.301;61
2024-05-14T12:07:57.267;599616047650585304;8953.993;551
2024-05-14T12:07:57.275;599616047658277930;8961.686;970
2024-05-14T12:07:57.283;599616047665970556;8969.379;902
2024-05-14T12:07:57.291;599616047673663182;8977.071;325
2024-05-14T12:07:57.298;599616047681385924;8984.794;-176
2024-05-14T12:07:57.306;599616047689078132;8992.486;-179
2024-05-14T12:07:57.314;599616047696770340;9000.179;-73
2024-05-14T12:07:57.321;599616047704462548;9007.87;-148
2024-05-14T12:07:57.329;599616047712154756;9015.5625;-169
2024-05-14T12:07:57.337;599616047719846964;9023.255;-103
2024-05-14T12:07:57.344;599616047727539172;9030.947;-77
2024-05-14T12:07:57.352;599616047735231380;9038.639;-84
2024-05-14T12:07:57.360;599616047742923588;9046.331;-134
2024-05-14T12:07:57.368;599616047750615796;9054.023;-181
2024-05-14T12:07:57.375;599616047758308004;9061.716;-134
2024-05-14T12:07:57.383;599616047766000212;9069.408;-96
2024-05-14T12:07:57.391;599616047773692420;9077.101;-113
2024-05-14T12:07:57.398;599616047781384628;9084.793;-75
2024-05-14T12:07:57.406;599616047789076836;9092.485;21
2024-05-14T12:07:57.414;599616047796769044;9100.178;84
2024-05-14T12:07:57.421;599616047804461252;9107.869;82
2024-05-14T12:07:57.429;599616047812153460;9115.561;30
2024-05-14T12:07:57.437;599616047819845668;9123.253;-61
2024-05-14T12:07:57.444;599616047827537876;9130.945;-110
2024-05-14T12:07:57.452;599616047835230084;9138.638;-63
2024-05-14T12:07:57.460;599616047842922292;9146.33;-7
2024-05-14T12:07:57.468;599616047850614500;9154.022;-14
2024-05-14T12:07:57.475;599616047858306708;9161.715;-37
2024-05-14T12:07:57.483;599616047865998916;9169.407;-37
2024-05-14T12:07:57.491;599616047873691124;9177.1;-4
2024-05-14T12:07:57.498;599616047881383332;9184.792;63
2024-05-14T12:07:57.506;599616047889075540;9192.483;94
2024-05-14T12:07:57.514;599616047896767748;9200.176;82
2024-05-14T12:07:57.521;599616047904459956;9207.867;91
2024-05-14T12:07:57.529;599616047912152164;9215.56;77
2024-05-14T12:07:57.537;599616047919844372;9223.252;35
2024-05-14T12:07:57.544;599616047927536580;9230.944;18
2024-05-14T12:07:57.552;599616047935228788;9238.637;7
2024-05-14T12:07:57.560;599616047942920996;9246.329;-28
2024-05-14T12:07:57.568;599616047950613204;9254.021;-54
2024-05-14T12:07:57.575;599616047958305412;9261.714;-51
2024-05-14T12:07:57.583;599616047965997620;9269.405;-32
2024-05-14T12:07:57.591;599616047973689828;9277.098;7
2024-05-14T12:07:57.598;599616047981382036;9284.79;49
2024-05-14T12:07:57.606;599616047989074244;9292.482;42
2024-05-14T12:07:57.614;599616047996766452;9300.175;21
2024-05-14T12:07:57.621;599616048004458660;9307.866;77
2024-05-14T12:07:57.629;599616048012150868;9315.559;127
2024-05-14T12:07:57.637;599616048019843076;9323.251;106
2024-05-14T12:07:57.644;599616048027535284;9330.943;115
2024-05-14T12:07:57.652;599616048035227492;9338.636;139
2024-05-14T12:07:57.660;599616048042919700;9346.327;68
2024-05-14T12:07:57.668;599616048050611908;9354.02;-16
2024-05-14T12:07:57.675;599616048058304116;9361.712;9
2024-05-14T12:07:57.683;599616048065996324;9369.404;-30
2024-05-14T12:07:57.691;599616048073688532;9377.097;-200
2024-05-14T12:07:57.698;599616048081380740;9384.789;-223
2024-05-14T12:07:57.706;599616048089072948;9392.481;68
2024-05-14T12:07:57.714;599616048096765156;9400.174;537
2024-05-14T12:07:57.721;599616048104457364;9407.865;829
2024-05-14T12:07:57.729;599616048112149572;9415.557;598
2024-05-14T12:07:57.737;599616048119841780;9423.249;58
2024-05-14T12:07:57.744;599616048127533988;9430.941;-197
2024-05-14T12:07:57.752;599616048135226196;9438.634;-162
2024-05-14T12:07:57.760;599616048142918404;9446.326;-202
2024-05-14T12:07:57.768;599616048150610612;9454.019;-242
2024-05-14T12:07:57.775;599616048158302820;9461.711;-115
2024-05-14T12:07:57.783;599616048165995028;9469.403;-18
2024-05-14T12:07:57.791;599616048173687236;9477.096;-82
2024-05-14T12:07:57.798;599616048181379444;9484.788;-164
2024-05-14T12:07:57.806;599616048189071652;9492.48;-150
2024-05-14T12:07:57.814;599616048196763860;9500.171;-63
2024-05-14T12:07:57.821;599616048204456068;9507.863;-47
2024-05-14T12:07:57.829;599616048212148276;9515.556;-87
2024-05-14T12:07:57.837;599616048219840484;9523.248;-9
2024-05-14T12:07:57.844;599616048227532692;9530.94;91
2024-05-14T12:07:57.852;599616048235224900;9538.633;80
2024-05-14T12:07:57.860;599616048242887028;9546.295;110
2024-05-14T12:07:57.867;599616048250579654;9553.987;204
2024-05-14T12:07:57.875;599616048258272280;9561.68;214
2024-05-14T12:07:57.883;599616048265964906;9569.373;188
2024-05-14T12:07:57.891;599616048273657532;9577.065;176
2024-05-14T12:07:57.898;599616048281350158;9584.758;106
2024-05-14T12:07:57.906;599616048289042784;9592.451;30
2024-05-14T12:07:57.914;599616048296735410;9600.144;40
2024-05-14T12:07:57.921;599616048304428036;9607.836;87
2024-05-14T12:07:57.929;599616048312120662;9615.529;87
2024-05-14T12:07:57.937;599616048319813288;9623.222;-21
2024-05-14T12:07:57.944;599616048327505914;9630.913;-117
2024-05-14T12:07:57.952;599616048335198540;9638.606;-82
2024-05-14T12:07:57.960;599616048342891166;9646.299;-44
2024-05-14T12:07:57.967;599616048350583792;9653.991;-70
2024-05-14T12:07:57.975;599616048358276418;9661.685;-35
2024-05-14T12:07:57.983;599616048365969044;9669.377;2
2024-05-14T12:07:57.991;599616048373661670;9677.069;-68
2024-05-14T12:07:57.998;599616048381354296;9684.763;-117
2024-05-14T12:07:58.006;599616048389046922;9692.455;-68
2024-05-14T12:07:58.014;599616048396739548;9700.147;-23
2024-05-14T12:07:58.021;599616048404432174;9707.841;-58
2024-05-14T12:07:58.029;599616048412124800;9715.533;-120
2024-05-14T12:07:58.037;599616048419817426;9723.225;-117
2024-05-14T12:07:58.044;599616048427510052;9730.918;-110
2024-05-14T12:07:58.052;599616048435202678;9738.61;-155
2024-05-14T12:07:58.060;599616048442895304;9746.303;-141
2024-05-14T12:07:58.067;599616048450587930;9753.996;-73
2024-05-14T12:07:58.075;599616048458280556;9761.688;-77
2024-05-14T12:07:58.083;599616048465973182;9769.381;-101
2024-05-14T12:07:58.091;599616048473665808;9777.074;-61
2024-05-14T12:07:58.098;599616048481358434;9784.767;2
2024-05-14T12:07:58.106;599616048489051060;9792.459;32
2024-05-14T12:07:58.114;599616048496743686;9800.152;7
2024-05-14T12:07:58.121;599616048504436312;9807.845;-54
2024-05-14T12:07:58.129;599616048512128938;9815.537;-131
2024-05-14T12:07:58.137;599616048519821564;9823.2295;-212
2024-05-14T12:07:58.144;599616048527514190;9830.922;-89
2024-05-14T12:07:58.152;599616048535206816;9838.614;386
2024-05-14T12:07:58.160;599616048542899442;9846.308;831
2024-05-14T12:07:58.167;599616048550592068;9854.0;702
2024-05-14T12:07:58.175;599616048558284694;9861.692;101
2024-05-14T12:07:58.183;599616048565977320;9869.386;-282
2024-05-14T12:07:58.191;599616048573669946;9877.078;-195
2024-05-14T12:07:58.198;599616048581362572;9884.7705;-89
2024-05-14T12:07:58.206;599616048589055198;9892.464;-167
2024-05-14T12:07:58.214;599616048596747824;9900.156;-186
2024-05-14T12:07:58.221;599616048604440450;9907.849;-124
2024-05-14T12:07:58.229;599616048612133076;9915.54;-122
2024-05-14T12:07:58.237;599616048619825702;9923.233;-108
2024-05-14T12:07:58.244;599616048627518328;9930.926;-32
2024-05-14T12:07:58.252;599616048635210954;9938.618;14
2024-05-14T12:07:58.260;599616048642903580;9946.312;16
2024-05-14T12:07:58.268;599616048650596206;9954.004;65
2024-05-14T12:07:58.275;599616048658288832;9961.696;136
2024-05-14T12:07:58.283;599616048665981458;9969.39;124
2024-05-14T12:07:58.291;599616048673674084;9977.082;82
2024-05-14T12:07:58.298;599616048681366710;9984.774;124
2024-05-14T12:07:58.306;599616048689059336;9992.468;195
2024-05-14T12:07:58.314;599616048696751962;10000.16;193
2024-05-14T12:07:58.321;599616048704444588;10007.852;181
2024-05-14T12:07:58.329;599616048712137214;10015.545;230
2024-05-14T12:07:58.337;599616048719829840;10023.237;299
2024-05-14T12:07:58.344;599616048727522466;10030.93;318
2024-05-14T12:07:58.352;599616048735215092;10038.623;292
2024-05-14T12:07:58.360;599616048742907718;10046.315;327
2024-05-14T12:07:58.368;599616048750600344;10054.008;419
2024-05-14T12:07:58.375;599616048758292970;10061.701;348
2024-05-14T12:07:58.383;599616048765985596;10069.394;245
2024-05-14T12:07:58.391;599616048773678222;10077.086;322
2024-05-14T12:07:58.398;599616048781370848;10084.779;353
2024-05-14T12:07:58.406;599616048789063474;10092.472;299
2024-05-14T12:07:58.414;599616048796756100;10100.164;254
2024-05-14T12:07:58.421;599616048804448746;10107.856;223
2024-05-14T12:07:58.429;599616048812141372;10115.549;242
2024-05-14T12:07:58.437;599616048819833998;10123.241;242
2024-05-14T12:07:58.444;599616048827526624;10130.935;124
2024-05-14T12:07:58.452;599616048835219250;10138.627;-14
2024-05-14T12:07:58.460;599616048842911876;10146.319;-28
2024-05-14T12:07:58.468;599616048850604502;10154.013;-54
2024-05-14T12:07:58.475;599616048858297128;10161.705;-171
2024-05-14T12:07:58.483;599616048865989754;10169.397;-195
2024-05-14T12:07:58.491;599616048873682380;10177.091;-115
2024-05-14T12:07:58.498;599616048881375006;10184.783;-70
2024-05-14T12:07:58.506;599616048889067632;10192.476;-77
2024-05-14T12:07:58.514;599616048896760258;10200.168;-70
2024-05-14T12:07:58.521;599616048904452884;10207.86;-58
2024-05-14T12:07:58.529;599616048912145510;10215.553;-56
2024-05-14T12:07:58.537;599616048919838136;10223.246;-73
2024-05-14T12:07:58.544;599616048927530762;10230.938;-94
2024-05-14T12:07:58.552;599616048935223388;10238.631;-108
2024-05-14T12:07:58.560;599616048942916014;10246.324;-122
2024-05-14T12:07:58.568;599616048950608640;10254.017;-131
2024-05-14T12:07:58.575;599616048958301266;10261.709;-7
2024-05-14T12:07:58.583;599616048965993892;10269.402;379
2024-05-14T12:07:58.591;599616048973686518;10277.095;852
2024-05-14T12:07:58.598;599616048981379144;10284.787;963
2024-05-14T12:07:58.606;599616048989071770;10292.48;445
2024-05-14T12:07:58.614;599616048996764396;10300.172;-233
2024-05-14T12:07:58.621;599616049004457022;10307.864;-379
2024-05-14T12:07:58.629;599616049012149648;10315.558;-212
2024-05-14T12:07:58.637;599616049019842274;10323.25;-242
2024-05-14T12:07:58.644;599616049027534900;10330.942;-306
2024-05-14T12:07:58.652;599616049035227526;10338.636;-252
2024-05-14T12:07:58.660;599616049042920152;10346.328;-233
2024-05-14T12:07:58.668;599616049050612778;10354.0205;-235
2024-05-14T12:07:58.675;599616049058305404;10361.714;-204
2024-05-14T12:07:58.683;599616049065998030;10369.406;-176
2024-05-14T12:07:58.691;599616049073690656;10377.099;-139
2024-05-14T12:07:58.698;599616049081383282;10384.792;-80
2024-05-14T12:07:58.706;599616049089075908;10392.483;-35
2024-05-14T12:07:58.714;599616049096768534;10400.176;-14
2024-05-14T12:07:58.721;599616049104461160;10407.869;2
2024-05-14T12:07:58.729;599616049112153786;10415.562;40
2024-05-14T12:07:58.737;599616049119846412;10423.254;84
2024-05-14T12:07:58.744;599616049127539038;10430.947;106
2024-05-14T12:07:58.752;599616049135231664;10438.64;139
2024-05-14T12:07:58.760;599616049142924290;10446.332;193
2024-05-14T12:07:58.768;599616049150616916;10454.025;176
2024-05-14T12:07:58.775;599616049158309542;10461.718;110
2024-05-14T12:07:58.783;599616049166002168;10469.41;75
2024-05-14T12:07:58.791;599616049173694794;10477.104;63
2024-05-14T12:07:58.798;599616049181387420;10484.795;47
2024-05-14T12:07:58.806;599616049189080046;10492.487;32
2024-05-14T12:07:58.814;599616049196772672;10500.181;42
2024-05-14T12:07:58.821;599616049204465298;10507.873;75
2024-05-14T12:07:58.829;599616049212157924;10515.565;115
2024-05-14T12:07:58.837;599616049219850550;10523.259;139
2024-05-14T12:07:58.844;599616049227543176;10530.951;153
2024-05-14T12:07:58.852;599616049235235802;10538.644;162
2024-05-14T12:07:58.860;599616049242928428;10546.337;148
2024-05-14T12:07:58.868;599616049250621054;10554.029;148
2024-05-14T12:07:58.875;599616049258313680;10561.722;190
2024-05-14T12:07:58.883;599616049266006306;10569.415;202
2024-05-14T12:07:58.891;599616049273698932;10577.107;188
2024-05-14T12:07:58.898;599616049281391558;10584.799;207
2024-05-14T12:07:58.906;599616049289084184;10592.492;233
2024-05-14T12:07:58.914;599616049296776810;10600.185;242
2024-05-14T12:07:58.921;599616049304469436;10607.877;230
2024-05-14T12:07:58.929;599616049312162062;10615.57;183
2024-05-14T12:07:58.937;599616049319854688;10623.263;117
2024-05-14T12:07:58.944;599616049327547314;10630.955;14
2024-05-14T12:07:58.952;599616049335239940;10638.648;-94
2024-05-14T12:07:58.960;599616049342932566;10646.341;-91
2024-05-14T12:07:58.968;599616049350625192;10654.033;-37
2024-05-14T12:07:58.975;599616049358317818;10661.727;-40
2024-05-14T12:07:58.983;599616049366025512;10669.434;-70
2024-05-14T12:07:58.991;599616049373717929;10677.126;-110
2024-05-14T12:07:58.998;599616049381410346;10684.818;-110
2024-05-14T12:07:59.006;599616049389102763;10692.511;77
2024-05-14T12:07:59.014;599616049396795180;10700.203;551
2024-05-14T12:07:59.021;599616049404487597;10707.8955;1027
2024-05-14T12:07:59.029;599616049412180014;10715.588;949
2024-05-14T12:07:59.037;599616049419872431;10723.28;278
2024-05-14T12:07:59.044;599616049427564848;10730.974;-278
2024-05-14T12:07:59.052;599616049435257265;10738.665;-278
2024-05-14T12:07:59.060;599616049442949682;10746.357;-164
2024-05-14T12:07:59.068;599616049450642099;10754.05;-310
2024-05-14T12:07:59.075;599616049458334516;10761.742;-471
2024-05-14T12:07:59.083;599616049466026933;10769.435;-478
2024-05-14T12:07:59.091;599616049473719350;10777.127;-466
2024-05-14T12:07:59.098;599616049481411767;10784.819;-480
2024-05-14T12:07:59.106;599616049489104184;10792.513;-452
2024-05-14T12:07:59.114;599616049496796601;10800.205;-381
2024-05-14T12:07:59.121;599616049504489018;10807.897;-320
2024-05-14T12:07:59.129;599616049512181435;10815.59;-310
2024-05-14T12:07:59.137;599616049519873852;10823.281;-313
2024-05-14T12:07:59.144;599616049527566269;10830.974;-261
2024-05-14T12:07:59.152;599616049535258686;10838.666;-195
2024-05-14T12:07:59.160;599616049542951103;10846.358;-162
2024-05-14T12:07:59.168;599616049550643520;10854.052;-117
2024-05-14T12:07:59.175;599616049558335937;10861.744;-68
2024-05-14T12:07:59.183;599616049566028354;10869.437;-73
2024-05-14T12:07:59.191;599616049573720771;10877.129;-84
2024-05-14T12:07:59.198;599616049581413188;10884.821;-44
2024-05-14T12:07:59.206;599616049589105605;10892.514;-7
2024-05-14T12:07:59.214;599616049596798022;10900.206;-18
2024-05-14T12:07:59.221;599616049604490439;10907.897;-47
2024-05-14T12:07:59.229;599616049612182856;10915.591;-47
2024-05-14T12:07:59.237;599616049619875273;10923.283;7
2024-05-14T12:07:59.244;599616049627567690;10930.976;61
2024-05-14T12:07:59.252;599616049635260107;10938.668;61
2024-05-14T12:07:59.260;599616049642952524;10946.36;75
2024-05-14T12:07:59.268;599616049650644941;10954.053;106
2024-05-14T12:07:59.275;599616049658337358;10961.745;42
2024-05-14T12:07:59.283;599616049666029775;10969.4375;-23
2024-05-14T12:07:59.291;599616049673722192;10977.131;16
2024-05-14T12:07:59.298;599616049681414609;10984.823;54
2024-05-14T12:07:59.306;599616049689107026;10992.515;70
2024-05-14T12:07:59.314;599616049696799443;11000.207;96
2024-05-14T12:07:59.321;599616049704491860;11007.899;87
2024-05-14T12:07:59.329;599616049712184277;11015.592;82
2024-05-14T12:07:59.337;599616049719876694;11023.284;136
2024-05-14T12:07:59.344;599616049727569111;11030.977;181
2024-05-14T12:07:59.352;599616049735261528;11038.67;188
2024-05-14T12:07:59.360;599616049742953945;11046.362;207
2024-05-14T12:07:59.368;599616049750646362;11054.055;223
2024-05-14T12:07:59.375;599616049758338779;11061.747;200
2024-05-14T12:07:59.383;599616049766031196;11069.439;188
2024-05-14T12:07:59.391;599616049773723613;11077.131;230
2024-05-14T12:07:59.398;599616049781416030;11084.823;237
2024-05-14T12:07:59.406;599616049789108447;11092.517;176
2024-05-14T12:07:59.414;599616049796800864;11100.209;134
2024-05-14T12:07:59.421;599616049804493281;11107.901;106
2024-05-14T12:07:59.429;599616049812185698;11115.594;94
2024-05-14T12:07:59.437;599616049819878115;11123.286;275
2024-05-14T12:07:59.444;599616049827570532;11130.979;709
2024-05-14T12:07:59.452;599616049835262949;11138.671;1053
2024-05-14T12:07:59.460;599616049842955366;11146.363;897
2024-05-14T12:07:59.468;599616049850647783;11154.057;289
2024-05-14T12:07:59.475;599616049858340200;11161.748;-155
2024-05-14T12:07:59.483;599616049866032617;11169.44;-108
2024-05-14T12:07:59.491;599616049873725034;11177.133;-4
2024-05-14T12:07:59.498;599616049881417451;11184.825;-58
2024-05-14T12:07:59.506;599616049889109868;11192.518;-54
2024-05-14T12:07:59.514;599616049896802285;11200.21;-49
2024-05-14T12:07:59.521;599616049904494702;11207.902;-136
2024-05-14T12:07:59.529;599616049912187119;11215.596;-183
2024-05-14T12:07:59.537;599616049919879536;11223.288;-150
2024-05-14T12:07:59.544;599616049927582050;11230.99;-157
2024-05-14T12:07:59.552;599616049935274327;11238.683;-228
2024-05-14T12:07:59.560;599616049942966604;11246.375;-237
2024-05-14T12:07:59.568;599616049950658881;11254.067;-167
2024-05-14T12:07:59.575;599616049958351158;11261.76;-113
2024-05-14T12:07:59.583;599616049966043435;11269.452;-103
2024-05-14T12:07:59.591;599616049973735712;11277.145;-106
2024-05-14T12:07:59.598;599616049981427989;11284.836;-101
2024-05-14T12:07:59.606;599616049989120266;11292.528;-131
2024-05-14T12:07:59.614;599616049996812543;11300.221;-202
2024-05-14T12:07:59.621;599616050004504820;11307.913;-209
2024-05-14T12:07:59.629;599616050012197097;11315.605;-167
2024-05-14T12:07:59.637;599616050019889374;11323.298;-195
2024-05-14T12:07:59.644;599616050027581651;11330.989;-247
2024-05-14T12:07:59.652;599616050035273928;11338.682;-237
2024-05-14T12:07:59.660;599616050042966205;11346.374;-209
2024-05-14T12:07:59.668;599616050050658482;11354.066;-188
2024-05-14T12:07:59.675;599616050058350759;11361.758;-136
2024-05-14T12:07:59.683;599616050066043036;11369.45;-82
2024-05-14T12:07:59.691;599616050073735313;11377.143;-75
2024-05-14T12:07:59.698;599616050081427590;11384.835;-82
2024-05-14T12:07:59.706;599616050089119867;11392.527;-42
2024-05-14T12:07:59.714;599616050096812144;11400.22;21
2024-05-14T12:07:59.721;599616050104504421;11407.912;32
2024-05-14T12:07:59.729;599616050112196698;11415.6045;16
2024-05-14T12:07:59.737;599616050119888975;11423.297;28
2024-05-14T12:07:59.744;599616050127581252;11430.989;51
2024-05-14T12:07:59.752;599616050135273529;11438.681;63
2024-05-14T12:07:59.760;599616050142965806;11446.373;82
2024-05-14T12:07:59.768;599616050150658083;11454.065;77
2024-05-14T12:07:59.775;599616050158350360;11461.758;47
2024-05-14T12:07:59.783;599616050166042637;11469.45;56
2024-05-14T12:07:59.791;599616050173734914;11477.143;82
2024-05-14T12:07:59.798;599616050181427191;11484.835;110
2024-05-14T12:07:59.806;599616050189119468;11492.527;162
2024-05-14T12:07:59.814;599616050196811745;11500.22;186
2024-05-14T12:07:59.821;599616050204504022;11507.912;174
2024-05-14T12:07:59.829;599616050212196299;11515.604;176
2024-05-14T12:07:59.837;599616050219888576;11523.296;207
2024-05-14T12:07:59.844;599616050227580853;11530.988;200
2024-05-14T12:07:59.852;599616050235273130;11538.681;110
2024-05-14T12:07:59.860;599616050242965407;11546.373;42
2024-05-14T12:07:59.868;599616050250657684;11554.065;129
2024-05-14T12:07:59.875;599616050258349961;11561.758;433
2024-05-14T12:07:59.883;599616050266042238;11569.45;888
2024-05-14T12:07:59.891;599616050273734515;11577.143;1128
2024-05-14T12:07:59.898;599616050281426792;11584.835;808
2024-05-14T12:07:59.906;599616050289119069;11592.526;214
2024-05-14T12:07:59.914;599616050296811346;11600.219;-9
2024-05-14T12:07:59.921;599616050304503623;11607.911;115
2024-05-14T12:07:59.929;599616050312195900;11615.604;122
2024-05-14T12:07:59.937;599616050319888177;11623.296;37
2024-05-14T12:07:59.944;599616050327580454;11630.988;35
2024-05-14T12:07:59.952;599616050335272731;11638.681;-11
2024-05-14T12:07:59.960;599616050342965008;11646.373;-87
2024-05-14T12:07:59.968;599616050350657285;11654.065;-82
2024-05-14T12:07:59.975;599616050358349562;11661.758;-91
2024-05-14T12:07:59.983;599616050366041839;11669.45;-131
2024-05-14T12:07:59.991;599616050373734116;11677.142;-120
2024-05-14T12:07:59.998;599616050381426393;11684.834;-117
2024-05-14T12:08:00.006;599616050389118670;11692.526;-186
2024-05-14T12:08:00.014;599616050396810947;11700.219;-249
2024-05-14T12:08:00.021;599616050404503224;11707.911;-242
2024-05-14T12:08:00.029;599616050412195501;11715.604;-207
2024-05-14T12:08:00.037;599616050419887778;11723.296;-186
2024-05-14T12:08:00.044;599616050427580055;11730.988;-160
2024-05-14T12:08:00.052;599616050435272332;11738.681;-139
2024-05-14T12:08:00.060;599616050442964609;11746.373;-157
2024-05-14T12:08:00.068;599616050450656886;11754.064;-164
2024-05-14T12:08:00.075;599616050458349163;11761.757;-124
2024-05-14T12:08:00.083;599616050466041440;11769.449;-103
2024-05-14T12:08:00.091;599616050473733717;11777.142;-115
2024-05-14T12:08:00.098;599616050481425994;11784.834;-103
2024-05-14T12:08:00.106;599616050489113296;11792.521;-84
2024-05-14T12:08:00.114;599616050496805643;11800.214;-68
2024-05-14T12:08:00.121;599616050504497990;11807.906;-28
2024-05-14T12:08:00.129;599616050512190337;11815.598;7
2024-05-14T12:08:00.137;599616050519882684;11823.29;21
2024-05-14T12:08:00.144;599616050527575031;11830.982;28
2024-05-14T12:08:00.152;599616050535267378;11838.675;23
2024-05-14T12:08:00.160;599616050542959725;11846.367;21
2024-05-14T12:08:00.168;599616050550652072;11854.06;35
2024-05-14T12:08:00.175;599616050558344419;11861.753;11
2024-05-14T12:08:00.183;599616050566036766;11869.445;-49
2024-05-14T12:08:00.191;599616050573729113;11877.138;-58
2024-05-14T12:08:00.198;599616050581421460;11884.83;-32
2024-05-14T12:08:00.206;599616050589113807;11892.522;-47
2024-05-14T12:08:00.214;599616050596806154;11900.214;-47
2024-05-14T12:08:00.221;599616050604498501;11907.906;9
2024-05-14T12:08:00.229;599616050612190848;11915.599;58
2024-05-14T12:08:00.237;599616050619883195;11923.291;65
2024-05-14T12:08:00.244;599616050627575542;11930.983;40
2024-05-14T12:08:00.252;599616050635267889;11938.676;18
2024-05-14T12:08:00.260;599616050642960236;11946.368;9
2024-05-14T12:08:00.268;599616050650652583;11954.061;-4
2024-05-14T12:08:00.275;599616050658344930;11961.753;-14
2024-05-14T12:08:00.283;599616050666037277;11969.445;4
2024-05-14T12:08:00.291;599616050673729624;11977.137;-7
2024-05-14T12:08:00.298;599616050681421971;11984.829;-106
2024-05-14T12:08:00.306;599616050689114318;11992.521;-160
2024-05-14T12:08:00.314;599616050696806665;12000.215;42
2024-05-14T12:08:00.321;599616050704499012;12007.907;497
2024-05-14T12:08:00.329;599616050712191359;12015.6;897
2024-05-14T12:08:00.337;599616050719883706;12023.292;822
2024-05-14T12:08:00.344;599616050727576053;12030.984;280
2024-05-14T12:08:00.352;599616050735268400;12038.677;-131
2024-05-14T12:08:00.360;599616050742960747;12046.369;-91
2024-05-14T12:08:00.368;599616050750653094;12054.062;9
2024-05-14T12:08:00.375;599616050758345441;12061.753;-44
2024-05-14T12:08:00.383;599616050766037788;12069.445;-65
2024-05-14T12:08:00.391;599616050773730135;12077.138;-21
2024-05-14T12:08:00.398;599616050781422482;12084.83;11
2024-05-14T12:08:00.406;599616050789114829;12092.522;40
2024-05-14T12:08:00.414;599616050796807176;12100.215;58
2024-05-14T12:08:00.421;599616050804499523;12107.907;44
2024-05-14T12:08:00.429;599616050812191870;12115.6;18
2024-05-14T12:08:00.437;599616050819884217;12123.292;2
2024-05-14T12:08:00.444;599616050827576564;12130.985;-28
2024-05-14T12:08:00.452;599616050835268911;12138.678;-96
2024-05-14T12:08:00.460;599616050842961258;12146.369;-157
2024-05-14T12:08:00.468;599616050850653605;12154.062;-186
2024-05-14T12:08:00.475;599616050858345952;12161.754;-204
2024-05-14T12:08:00.483;599616050866038299;12169.446;-216
2024-05-14T12:08:00.491;599616050873730646;12177.139;-197
2024-05-14T12:08:00.498;599616050881422993;12184.831;-193
2024-05-14T12:08:00.506;599616050889115340;12192.523;-249
2024-05-14T12:08:00.514;599616050896807687;12200.216;-308
2024-05-14T12:08:00.521;599616050904500034;12207.908;-303
2024-05-14T12:08:00.529;599616050912192381;12215.601;-278
2024-05-14T12:08:00.537;599616050919884728;12223.292;-266
2024-05-14T12:08:00.544;599616050927577075;12230.984;-252
2024-05-14T12:08:00.552;599616050935269422;12238.677;-214
2024-05-14T12:08:00.560;599616050942961769;12246.369;-169
2024-05-14T12:08:00.568;599616050950654116;12254.062;-169
2024-05-14T12:08:00.575;599616050958346463;12261.755;-179
2024-05-14T12:08:00.583;599616050966038810;12269.447;-141
2024-05-14T12:08:00.591;599616050973731157;12277.14;-87
2024-05-14T12:08:00.598;599616050981423504;12284.832;-73
2024-05-14T12:08:00.606;599616050989115851;12292.524;-87
2024-05-14T12:08:00.614;599616050996808198;12300.217;-77
2024-05-14T12:08:00.621;599616051004500545;12307.908;-44
2024-05-14T12:08:00.629;599616051012192892;12315.601;-30
2024-05-14T12:08:00.637;599616051019885239;12323.293;-25
2024-05-14T12:08:00.644;599616051027577586;12330.985;7
2024-05-14T12:08:00.652;599616051035269933;12338.678;44
2024-05-14T12:08:00.660;599616051042962280;12346.37;35
2024-05-14T12:08:00.668;599616051050634582;12354.043;4
2024-05-14T12:08:00.675;599616051058327208;12361.735;49
2024-05-14T12:08:00.683;599616051066019834;12369.428;134
2024-05-14T12:08:00.691;599616051073712460;12377.121;148
2024-05-14T12:08:00.698;599616051081405086;12384.813;115
2024-05-14T12:08:00.706;599616051089097712;12392.505;122
2024-05-14T12:08:00.714;599616051096790338;12400.198;134
2024-05-14T12:08:00.721;599616051104482964;12407.891;61
2024-05-14T12:08:00.729;599616051112175590;12415.583;-18
2024-05-14T12:08:00.737;599616051119868216;12423.276;-28
2024-05-14T12:08:00.744;599616051127560842;12430.969;-89
2024-05-14T12:08:00.752;599616051135253468;12438.661;-183
2024-05-14T12:08:00.760;599616051142946094;12446.3545;30
2024-05-14T12:08:00.768;599616051150638720;12454.047;607
2024-05-14T12:08:00.775;599616051158331346;12461.739;980
2024-05-14T12:08:00.783;599616051166023972;12469.433;671
2024-05-14T12:08:00.791;599616051173716598;12477.125;32
2024-05-14T12:08:00.798;599616051181409224;12484.817;-230
2024-05-14T12:08:00.806;599616051189101850;12492.51;-120
2024-05-14T12:08:00.814;599616051196794476;12500.202;-94
2024-05-14T12:08:00.821;599616051204487102;12507.895;-136
2024-05-14T12:08:00.829;599616051212179728;12515.588;-65
2024-05-14T12:08:00.837;599616051219872354;12523.28;-25
2024-05-14T12:08:00.844;599616051227564980;12530.973;-63
2024-05-14T12:08:00.852;599616051235257606;12538.666;-21
2024-05-14T12:08:00.860;599616051242950232;12546.358;61
2024-05-14T12:08:00.868;599616051250642858;12554.051;49
2024-05-14T12:08:00.875;599616051258335484;12561.744;-2
2024-05-14T12:08:00.883;599616051266028110;12569.437;4
2024-05-14T12:08:00.891;599616051273720736;12577.129;-9
2024-05-14T12:08:00.898;599616051281413362;12584.821;-77
2024-05-14T12:08:00.906;599616051289105988;12592.514;-61
2024-05-14T12:08:00.914;599616051296798614;12600.206;23
2024-05-14T12:08:00.921;599616051304491240;12607.899;16
2024-05-14T12:08:00.929;599616051312183866;12615.592;-42
2024-05-14T12:08:00.937;599616051319876492;12623.284;-40
2024-05-14T12:08:00.944;599616051327569118;12630.978;-4
2024-05-14T12:08:00.952;599616051335261744;12638.67;2
2024-05-14T12:08:00.960;599616051342954370;12646.362;-42
2024-05-14T12:08:00.968;599616051350646996;12654.055;-131
2024-05-14T12:08:00.975;599616051358339622;12661.748;-188
2024-05-14T12:08:00.983;599616051366032248;12669.44;-160
2024-05-14T12:08:00.991;599616051373724874;12677.132;-143
2024-05-14T12:08:00.998;599616051381417500;12684.825;-200
2024-05-14T12:08:01.006;599616051389110126;12692.518;-197
2024-05-14T12:08:01.014;599616051396802752;12700.21;-122
2024-05-14T12:08:01.021;599616051404495378;12707.903;-122
2024-05-14T12:08:01.029;599616051412188004;12715.596;-160
2024-05-14T12:08:01.037;599616051419880630;12723.288;-124
2024-05-14T12:08:01.044;599616051427573256;12730.981;-68
2024-05-14T12:08:01.052;599616051435265882;12738.674;-44
2024-05-14T12:08:01.060;599616051442958508;12746.366;-32
2024-05-14T12:08:01.068;599616051450651134;12754.06;-18
2024-05-14T12:08:01.075;599616051458343760;12761.752;-9
2024-05-14T12:08:01.083;599616051466036386;12769.443;0
2024-05-14T12:08:01.091;599616051473729012;12777.137;23
2024-05-14T12:08:01.098;599616051481421638;12784.829;73
2024-05-14T12:08:01.106;599616051489114264;12792.521;115
2024-05-14T12:08:01.114;599616051496806890;12800.215;129
2024-05-14T12:08:01.121;599616051504499516;12807.907;150
2024-05-14T12:08:01.129;599616051512192142;12815.6;164
2024-05-14T12:08:01.137;599616051519884768;12823.293;176
2024-05-14T12:08:01.144;599616051527577394;12830.985;214
2024-05-14T12:08:01.152;599616051535270020;12838.678;233
2024-05-14T12:08:01.160;599616051542962646;12846.371;221
2024-05-14T12:08:01.168;599616051550655272;12854.063;226
2024-05-14T12:08:01.175;599616051558347898;12861.756;195
2024-05-14T12:08:01.183;599616051566040524;12869.448;96
2024-05-14T12:08:01.191;599616051573733150;12877.141;106
2024-05-14T12:08:01.198;599616051581425776;12884.833;405
2024-05-14T12:08:01.206;599616051589118402;12892.526;928
2024-05-14T12:08:01.214;599616051596811028;12900.219;1251
2024-05-14T12:08:01.221;599616051604503654;12907.911;928
2024-05-14T12:08:01.229;599616051612196300;12915.6045;245
2024-05-14T12:08:01.237;599616051619888926;12923.297;-73
2024-05-14T12:08:01.244;599616051627581552;12930.989;-4
2024-05-14T12:08:01.252;599616051635274178;12938.683;-42
2024-05-14T12:08:01.260;599616051642966804;12946.375;-214
2024-05-14T12:08:01.268;599616051650659430;12954.067;-254
2024-05-14T12:08:01.275;599616051658352056;12961.761;-174
2024-05-14T12:08:01.283;599616051666044682;12969.452;-139
2024-05-14T12:08:01.291;599616051673737308;12977.145;-146
2024-05-14T12:08:01.298;599616051681429934;12984.838;-117
2024-05-14T12:08:01.306;599616051689122560;12992.53;-73
2024-05-14T12:08:01.314;599616051696815186;13000.223;-68
2024-05-14T12:08:01.321;599616051704507812;13007.916;-122
2024-05-14T12:08:01.329;599616051712200438;13015.608;-124
2024-05-14T12:08:01.337;599616051719893064;13023.301;-65
2024-05-14T12:08:01.344;599616051727585690;13030.994;-91
2024-05-14T12:08:01.352;599616051735278316;13038.687;-155
2024-05-14T12:08:01.360;599616051742970942;13046.379;-141
2024-05-14T12:08:01.368;599616051750663568;13054.072;-120
2024-05-14T12:08:01.375;599616051758356194;13061.764;-101
2024-05-14T12:08:01.383;599616051766048820;13069.456;-75
2024-05-14T12:08:01.391;599616051773741446;13077.149;-110
2024-05-14T12:08:01.398;599616051781434072;13084.842;-136
2024-05-14T12:08:01.406;599616051789126698;13092.534;-127
2024-05-14T12:08:01.414;599616051796819324;13100.228;-164
2024-05-14T12:08:01.421;599616051804511950;13107.92;-139
2024-05-14T12:08:01.429;599616051812204576;13115.612;-37
2024-05-14T12:08:01.437;599616051819897202;13123.306;-58
2024-05-14T12:08:01.444;599616051827589828;13130.998;-157
2024-05-14T12:08:01.452;599616051835282454;13138.69;-143
2024-05-14T12:08:01.460;599616051842975080;13146.384;-87
2024-05-14T12:08:01.468;599616051850667706;13154.075;-139
2024-05-14T12:08:01.475;599616051858360332;13161.768;-195
2024-05-14T12:08:01.483;599616051866052958;13169.461;-190
2024-05-14T12:08:01.491;599616051873745584;13177.153;-254
2024-05-14T12:08:01.498;599616051881438210;13184.846;-327
2024-05-14T12:08:01.506;599616051889130836;13192.539;-278
2024-05-14T12:08:01.514;599616051896823462;13200.231;-216
2024-05-14T12:08:01.521;599616051904516088;13207.924;-223
2024-05-14T12:08:01.529;599616051912208714;13215.617;-214
2024-05-14T12:08:01.537;599616051919901340;13223.31;-155
2024-05-14T12:08:01.545;599616051927593966;13231.002;-115
2024-05-14T12:08:01.552;599616051935286592;13238.695;-110
2024-05-14T12:08:01.560;599616051942979218;13246.387;-68
2024-05-14T12:08:01.568;599616051950671844;13254.079;18
2024-05-14T12:08:01.575;599616051958364470;13261.772;65
2024-05-14T12:08:01.583;599616051966057096;13269.465;54
2024-05-14T12:08:01.591;599616051973749722;13277.157;47
2024-05-14T12:08:01.598;599616051981442348;13284.851;94
2024-05-14T12:08:01.606;599616051989134974;13292.543;148
2024-05-14T12:08:01.614;599616051996827600;13300.235;143
2024-05-14T12:08:01.621;599616052004520226;13307.929;65
2024-05-14T12:08:01.629;599616052012212852;13315.621;-18
2024-05-14T12:08:01.637;599616052019905478;13323.313;153
2024-05-14T12:08:01.645;599616052027598104;13331.007;683
2024-05-14T12:08:01.652;599616052035290730;13338.699;1159
2024-05-14T12:08:01.660;599616052042983356;13346.391;1095
2024-05-14T12:08:01.668;599616052050675982;13354.084;482
2024-05-14T12:08:01.675;599616052058368608;13361.776;-68
2024-05-14T12:08:01.683;599616052066061234;13369.469;-75
2024-05-14T12:08:01.691;599616052073753860;13377.162;65
2024-05-14T12:08:01.698;599616052081446486;13384.8545;14
2024-05-14T12:08:01.706;599616052089139112;13392.547;7
2024-05-14T12:08:01.714;599616052096831738;13400.24;77
2024-05-14T12:08:01.721;599616052104524364;13407.933;65
2024-05-14T12:08:01.729;599616052112216990;13415.625;30
2024-05-14T12:08:01.737;599616052119909616;13423.318;16
2024-05-14T12:08:01.745;599616052127602242;13431.011;2
2024-05-14T12:08:01.752;599616052135294868;13438.702;4
2024-05-14T12:08:01.760;599616052142987494;13446.3955;-16
2024-05-14T12:08:01.768;599616052150680120;13454.088;-94
2024-05-14T12:08:01.775;599616052158372746;13461.78;-122
2024-05-14T12:08:01.783;599616052166065372;13469.473;-77
2024-05-14T12:08:01.791;599616052173778106;13477.186;-56
2024-05-14T12:08:01.798;599616052181470453;13484.879;-70
2024-05-14T12:08:01.806;599616052189162800;13492.571;-75
2024-05-14T12:08:01.814;599616052196855147;13500.264;-75
2024-05-14T12:08:01.821;599616052204547494;13507.956;-96
2024-05-14T12:08:01.829;599616052212239841;13515.648;-176
2024-05-14T12:08:01.837;599616052219932188;13523.34;-280
2024-05-14T12:08:01.845;599616052227624535;13531.032;-287
2024-05-14T12:08:01.852;599616052235316882;13538.725;-252
2024-05-14T12:08:01.860;599616052243009229;13546.417;-289
2024-05-14T12:08:01.868;599616052250701576;13554.109;-285
2024-05-14T12:08:01.875;599616052258393923;13561.802;-200
2024-05-14T12:08:01.883;599616052266086270;13569.494;-157
2024-05-14T12:08:01.891;599616052273778617;13577.187;-141
2024-05-14T12:08:01.898;599616052281470964;13584.879;-122
2024-05-14T12:08:01.906;599616052289163311;13592.571;-117
2024-05-14T12:08:01.914;599616052296855658;13600.263;-94
2024-05-14T12:08:01.921;599616052304548005;13607.955;-44
2024-05-14T12:08:01.929;599616052312240352;13615.648;-18
2024-05-14T12:08:01.937;599616052319932699;13623.341;-14
2024-05-14T12:08:01.945;599616052327625046;13631.033;2
2024-05-14T12:08:01.952;599616052335317393;13638.726;11
2024-05-14T12:08:01.960;599616052343009740;13646.418;0
2024-05-14T12:08:01.968;599616052350702087;13654.11;-2
2024-05-14T12:08:01.975;599616052358394434;13661.803;-58
2024-05-14T12:08:01.983;599616052366086781;13669.495;-171
2024-05-14T12:08:01.991;599616052373779128;13677.1875;-200
2024-05-14T12:08:01.998;599616052381471475;13684.879;-134
2024-05-14T12:08:02.006;599616052389163822;13692.571;-96
2024-05-14T12:08:02.014;599616052396856169;13700.264;-91
2024-05-14T12:08:02.021;599616052404548516;13707.956;-56
2024-05-14T12:08:02.029;599616052412240863;13715.648;-2
2024-05-14T12:08:02.037;599616052419933210;13723.341;25
2024-05-14T12:08:02.045;599616052427625557;13731.033;35
2024-05-14T12:08:02.052;599616052435317904;13738.726;35
2024-05-14T12:08:02.060;599616052443010251;13746.418;-25
2024-05-14T12:08:02.068;599616052450702598;13754.111;-101
2024-05-14T12:08:02.075;599616052458394945;13761.804;-21
2024-05-14T12:08:02.083;599616052466087292;13769.495;343
2024-05-14T12:08:02.091;599616052473779639;13777.1875;841
2024-05-14T12:08:02.098;599616052481471986;13784.88;1038
2024-05-14T12:08:02.106;599616052489164333;13792.572;659
2024-05-14T12:08:02.114;599616052496856680;13800.265;70
2024-05-14T12:08:02.121;599616052504549027;13807.957;-110
2024-05-14T12:08:02.129;599616052512241374;13815.649;21
2024-05-14T12:08:02.137;599616052519933721;13823.342;0
2024-05-14T12:08:02.145;599616052527626068;13831.034;-70
2024-05-14T12:08:02.152;599616052535318415;13838.727;16
2024-05-14T12:08:02.160;599616052543010762;13846.418;80
2024-05-14T12:08:02.168;599616052550703109;13854.11;54
2024-05-14T12:08:02.175;599616052558395456;13861.803;89
2024-05-14T12:08:02.183;599616052566087803;13869.495;131
2024-05-14T12:08:02.191;599616052573780150;13877.1875;80
2024-05-14T12:08:02.198;599616052581472497;13884.881;56
2024-05-14T12:08:02.206;599616052589164844;13892.573;91
2024-05-14T12:08:02.214;599616052596857191;13900.266;77
2024-05-14T12:08:02.221;599616052604549538;13907.958;37
2024-05-14T12:08:02.229;599616052612241885;13915.65;-7
2024-05-14T12:08:02.237;599616052619934232;13923.343;-32
2024-05-14T12:08:02.245;599616052627626579;13931.034;-9
2024-05-14T12:08:02.252;599616052635318926;13938.727;4
2024-05-14T12:08:02.260;599616052643011273;13946.419;-9
2024-05-14T12:08:02.268;599616052650703620;13954.111;2
2024-05-14T12:08:02.275;599616052658395967;13961.804;-4
2024-05-14T12:08:02.283;599616052666088314;13969.496;-49
2024-05-14T12:08:02.291;599616052673780661;13977.188;-49
2024-05-14T12:08:02.298;599616052681473008;13984.881;-2
2024-05-14T12:08:02.306;599616052689165355;13992.573;9
2024-05-14T12:08:02.314;599616052696857702;14000.266;-2
2024-05-14T12:08:02.321;599616052704550049;14007.957;11
2024-05-14T12:08:02.329;599616052712242396;14015.649;37
2024-05-14T12:08:02.337;599616052719934743;14023.343;54
2024-05-14T12:08:02.345;599616052727627090;14031.035;63
2024-05-14T12:08:02.352;599616052735309470;14038.718;98
2024-05-14T12:08:02.360;599616052743001956;14046.41;141
2024-05-14T12:08:02.368;599616052750694442;14054.102;117
2024-05-14T12:08:02.375;599616052758386928;14061.795;87
2024-05-14T12:08:02.383;599616052766079414;14069.487;141
2024-05-14T12:08:02.391;599616052773771900;14077.18;190
2024-05-14T12:08:02.398;599616052781464386;14084.872;167
2024-05-14T12:08:02.406;599616052789156872;14092.564;150
2024-05-14T12:08:02.414;599616052796849358;14100.257;153
2024-05-14T12:08:02.421;599616052804541844;14107.95;131
2024-05-14T12:08:02.429;599616052812234330;14115.643;73
2024-05-14T12:08:02.437;599616052819926816;14123.335;44
2024-05-14T12:08:02.445;599616052827619302;14131.027;101
2024-05-14T12:08:02.452;599616052835311788;14138.719;150
2024-05-14T12:08:02.460;599616052843004274;14146.412;117
2024-05-14T12:08:02.468;599616052850696760;14154.1045;73
2024-05-14T12:08:02.475;599616052858389246;14161.797;11
2024-05-14T12:08:02.483;599616052866081732;14169.489;-150
2024-05-14T12:08:02.491;599616052873774218;14177.182;-310
2024-05-14T12:08:02.498;599616052881466704;14184.875;-285
2024-05-14T12:08:02.506;599616052889159190;14192.567;-193
2024-05-14T12:08:02.514;599616052896851676;14200.26;-237
2024-05-14T12:08:02.521;599616052904544162;14207.952;-301
2024-05-14T12:08:02.529;599616052912236648;14215.645;-174
2024-05-14T12:08:02.537;599616052919929134;14223.338;183
2024-05-14T12:08:02.545;599616052927621620;14231.029;638
2024-05-14T12:08:02.552;599616052935314106;14238.722;812
2024-05-14T12:08:02.560;599616052943006592;14246.414;442
2024-05-14T12:08:02.568;599616052950699078;14254.106;-84
2024-05-14T12:08:02.575;599616052958391564;14261.8;-223
2024-05-14T12:08:02.583;599616052966084050;14269.492;-101
2024-05-14T12:08:02.591;599616052973776536;14277.185;-87
2024-05-14T12:08:02.598;599616052981469022;14284.877;-127
2024-05-14T12:08:02.606;599616052989161508;14292.569;-91
2024-05-14T12:08:02.614;599616052996853994;14300.263;-63
2024-05-14T12:08:02.621;599616053004546480;14307.955;-89
2024-05-14T12:08:02.629;599616053012238966;14315.647;-101
2024-05-14T12:08:02.637;599616053019931452;14323.339;-124
2024-05-14T12:08:02.645;599616053027623938;14331.031;-195
2024-05-14T12:08:02.652;599616053035316424;14338.724;-204
2024-05-14T12:08:02.660;599616053043008910;14346.417;-143
2024-05-14T12:08:02.668;599616053050701396;14354.109;-127
2024-05-14T12:08:02.675;599616053058393882;14361.802;-124
2024-05-14T12:08:02.683;599616053066086368;14369.494;-80
2024-05-14T12:08:02.691;599616053073778854;14377.187;-70
2024-05-14T12:08:02.698;599616053081471340;14384.88;-84
2024-05-14T12:08:02.706;599616053089163826;14392.572;-61
2024-05-14T12:08:02.714;599616053096856312;14400.265;-49
2024-05-14T12:08:02.721;599616053104548798;14407.956;-96
2024-05-14T12:08:02.729;599616053112241284;14415.648;-155
2024-05-14T12:08:02.737;599616053119933770;14423.342;-186
2024-05-14T12:08:02.745;599616053127626256;14431.034;-183
2024-05-14T12:08:02.752;599616053135318742;14438.727;-167
2024-05-14T12:08:02.760;599616053143011228;14446.419;-143
2024-05-14T12:08:02.768;599616053150703714;14454.111;-106
2024-05-14T12:08:02.775;599616053158396200;14461.805;-70
2024-05-14T12:08:02.783;599616053166088686;14469.497;-70
2024-05-14T12:08:02.791;599616053173781172;14477.189;-84
2024-05-14T12:08:02.798;599616053181473658;14484.882;-54
2024-05-14T12:08:02.806;599616053189166144;14492.573;0
2024-05-14T12:08:02.814;599616053196858630;14500.267;21
2024-05-14T12:08:02.821;599616053204551116;14507.959;16
2024-05-14T12:08:02.829;599616053212243602;14515.651;18
2024-05-14T12:08:02.837;599616053219936088;14523.344;56
2024-05-14T12:08:02.845;599616053227628574;14531.036;91
2024-05-14T12:08:02.852;599616053235321060;14538.7295;75
2024-05-14T12:08:02.860;599616053243013546;14546.422;70
2024-05-14T12:08:02.868;599616053250706032;14554.114;103
2024-05-14T12:08:02.875;599616053258398518;14561.807;103
2024-05-14T12:08:02.883;599616053266091004;14569.499;89
2024-05-14T12:08:02.891;599616053273783490;14577.19;127
2024-05-14T12:08:02.898;599616053281475976;14584.884;171
2024-05-14T12:08:02.906;599616053289168462;14592.576;188
2024-05-14T12:08:02.914;599616053296850936;14600.259;186
2024-05-14T12:08:02.921;599616053304543562;14607.952;150
2024-05-14T12:08:02.929;599616053312236188;14615.645;113
2024-05-14T12:08:02.937;599616053319928814;14623.337;106
2024-05-14T12:08:02.945;599616053327621440;14631.029;108
2024-05-14T12:08:02.952;599616053335314066;14638.722;124
2024-05-14T12:08:02.960;599616053343006692;14646.414;120
2024-05-14T12:08:02.968;599616053350699318;14654.107;42
2024-05-14T12:08:02.975;599616053358391944;14661.8;-61
2024-05-14T12:08:02.983;599616053366084570;14669.492;-131
2024-05-14T12:08:02.991;599616053373777196;14677.186;-42
2024-05-14T12:08:02.998;599616053381469822;14684.878;322
2024-05-14T12:08:03.006;599616053389162448;14692.57;669
2024-05-14T12:08:03.014;599616053396855074;14700.264;541
2024-05-14T12:08:03.021;599616053404547700;14707.956;-7
2024-05-14T12:08:03.029;599616053412240326;14715.648;-388
2024-05-14T12:08:03.037;599616053419932952;14723.342;-315
2024-05-14T12:08:03.045;599616053427625578;14731.033;-207
2024-05-14T12:08:03.052;599616053435318204;14738.726;-320
2024-05-14T12:08:03.060;599616053443010830;14746.419;-405
2024-05-14T12:08:03.068;599616053450703456;14754.111;-395
2024-05-14T12:08:03.075;599616053458396082;14761.804;-405
2024-05-14T12:08:03.083;599616053466088708;14769.497;-395
2024-05-14T12:08:03.091;599616053473781334;14777.189;-360
2024-05-14T12:08:03.098;599616053481473960;14784.882;-339
2024-05-14T12:08:03.106;599616053489166586;14792.575;-315
2024-05-14T12:08:03.114;599616053496859212;14800.268;-287
2024-05-14T12:08:03.121;599616053504551838;14807.96;-261
2024-05-14T12:08:03.129;599616053512244464;14815.653;-214
2024-05-14T12:08:03.137;599616053519937090;14823.345;-139
2024-05-14T12:08:03.145;599616053527629716;14831.037;-87
2024-05-14T12:08:03.152;599616053535322342;14838.73;-84
2024-05-14T12:08:03.160;599616053543014968;14846.423;-68
2024-05-14T12:08:03.168;599616053550707594;14854.115;-21
2024-05-14T12:08:03.175;599616053558400220;14861.808;-2
2024-05-14T12:08:03.183;599616053566092846;14869.501;-23
2024-05-14T12:08:03.191;599616053573785472;14877.193;-25
2024-05-14T12:08:03.198;599616053581478098;14884.886;-4
2024-05-14T12:08:03.206;599616053589170724;14892.579;-9
2024-05-14T12:08:03.214;599616053596863350;14900.271;-51
2024-05-14T12:08:03.221;599616053604555976;14907.964;-65
2024-05-14T12:08:03.229;599616053612248602;14915.656;-14
2024-05-14T12:08:03.237;599616053619941228;14923.349;18
2024-05-14T12:08:03.245;599616053627633854;14931.041;-11
2024-05-14T12:08:03.252;599616053635326480;14938.734;-14
2024-05-14T12:08:03.260;599616053643019106;14946.427;30
2024-05-14T12:08:03.268;599616053650711732;14954.119;56
2024-05-14T12:08:03.275;599616053658404358;14961.8125;68
2024-05-14T12:08:03.283;599616053666096984;14969.505;82
2024-05-14T12:08:03.291;599616053673789610;14977.197;82
2024-05-14T12:08:03.298;599616053681482236;14984.891;75
2024-05-14T12:08:03.306;599616053689174862;14992.583;84
2024-05-14T12:08:03.314;599616053696867488;15000.275;117
2024-05-14T12:08:03.321;599616053704560114;15007.968;150
2024-05-14T12:08:03.329;599616053712252740;15015.66;148
2024-05-14T12:08:03.337;599616053719945366;15023.353;136
2024-05-14T12:08:03.345;599616053727637992;15031.046;146
2024-05-14T12:08:03.352;599616053735330618;15038.738;143
2024-05-14T12:08:03.360;599616053743023244;15046.431;89
2024-05-14T12:08:03.368;599616053750715870;15054.124;56
2024-05-14T12:08:03.375;599616053758408496;15061.816;98
2024-05-14T12:08:03.383;599616053766101122;15069.509;127
2024-05-14T12:08:03.391;599616053773793748;15077.202;101
2024-05-14T12:08:03.398;599616053781486374;15084.895;94
2024-05-14T12:08:03.406;599616053789179000;15092.587;120
2024-05-14T12:08:03.414;599616053796871626;15100.28;141
2024-05-14T12:08:03.421;599616053804564252;15107.972;139
2024-05-14T12:08:03.429;599616053812256878;15115.664;94
2024-05-14T12:08:03.437;599616053819949504;15123.357;68
2024-05-14T12:08:03.445;599616053827642130;15131.05;216
2024-05-14T12:08:03.452;599616053835334756;15138.742;631
2024-05-14T12:08:03.460;599616053843027382;15146.436;1088
2024-05-14T12:08:03.468;599616053850720008;15154.128;1116
2024-05-14T12:08:03.475;599616053858442750;15161.851;518
2024-05-14T12:08:03.483;599616053866134958;15169.543;-181
2024-05-14T12:08:03.491;599616053873827166;15177.235;-379
2024-05-14T12:08:03.498;599616053881519374;15184.928;-306
2024-05-14T12:08:03.506;599616053889211582;15192.619;-400
2024-05-14T12:08:03.514;599616053896903790;15200.312;-511
2024-05-14T12:08:03.522;599616053904595998;15208.004;-464
2024-05-14T12:08:03.529;599616053912288206;15215.696;-407
2024-05-14T12:08:03.537;599616053919980414;15223.388;-454
2024-05-14T12:08:03.545;599616053927672622;15231.08;-518
2024-05-14T12:08:03.552;599616053935364830;15238.772;-494
2024-05-14T12:08:03.560;599616053943057038;15246.465;-440
2024-05-14T12:08:03.568;599616053950749246;15254.157;-431
2024-05-14T12:08:03.575;599616053958441454;15261.85;-405
2024-05-14T12:08:03.583;599616053966133662;15269.542;-320
2024-05-14T12:08:03.591;599616053973825870;15277.234;-249
2024-05-14T12:08:03.598;599616053981518078;15284.927;-216
2024-05-14T12:08:03.606;599616053989210286;15292.618;-176
2024-05-14T12:08:03.614;599616053996902494;15300.31;-143
2024-05-14T12:08:03.622;599616054004594702;15308.002;-120
2024-05-14T12:08:03.629;599616054012286910;15315.694;-98
2024-05-14T12:08:03.637;599616054019979118;15323.387;-73
2024-05-14T12:08:03.645;599616054027671326;15331.079;-58
2024-05-14T12:08:03.652;599616054035363534;15338.771;-77
2024-05-14T12:08:03.660;599616054043055742;15346.464;-106
2024-05-14T12:08:03.668;599616054050747950;15354.156;-106
2024-05-14T12:08:03.675;599616054058440158;15361.849;-61
2024-05-14T12:08:03.683;599616054066132366;15369.541;-23
2024-05-14T12:08:03.691;599616054073824574;15377.232;-28
2024-05-14T12:08:03.698;599616054081516782;15384.925;-47
2024-05-14T12:08:03.706;599616054089208990;15392.616;-80
2024-05-14T12:08:03.714;599616054096901198;15400.309;-110
2024-05-14T12:08:03.722;599616054104593406;15408.001;-80
2024-05-14T12:08:03.729;599616054112285614;15415.693;-40
2024-05-14T12:08:03.737;599616054119977822;15423.386;-25
2024-05-14T12:08:03.745;599616054127670030;15431.078;0
2024-05-14T12:08:03.752;599616054135362238;15438.7705;9
2024-05-14T12:08:03.760;599616054143054446;15446.463;4
2024-05-14T12:08:03.768;599616054150746654;15454.154;35
2024-05-14T12:08:03.775;599616054158438862;15461.847;70
2024-05-14T12:08:03.783;599616054166131070;15469.539;75
2024-05-14T12:08:03.791;599616054173823278;15477.231;65
2024-05-14T12:08:03.798;599616054181515486;15484.924;49
2024-05-14T12:08:03.806;599616054189207694;15492.615;21
2024-05-14T12:08:03.814;599616054196899902;15500.308;4
2024-05-14T12:08:03.822;599616054204592110;15508.0;25
2024-05-14T12:08:03.829;599616054212284318;15515.692;73
2024-05-14T12:08:03.837;599616054219976526;15523.385;94
2024-05-14T12:08:03.845;599616054227668734;15531.076;73
2024-05-14T12:08:03.852;599616054235360942;15538.769;77
2024-05-14T12:08:03.860;599616054243053150;15546.461;124
2024-05-14T12:08:03.868;599616054250745358;15554.153;134
2024-05-14T12:08:03.875;599616054258437566;15561.846;110
2024-05-14T12:08:03.883;599616054266129774;15569.538;94
2024-05-14T12:08:03.891;599616054273821982;15577.23;70
2024-05-14T12:08:03.898;599616054281514190;15584.922;171
2024-05-14T12:08:03.906;599616054289206398;15592.614;586
2024-05-14T12:08:03.914;599616054296898606;15600.307;1114
2024-05-14T12:08:03.921;599616054304590814;15607.998;1210
2024-05-14T12:08:03.929;599616054312283022;15615.69;643
2024-05-14T12:08:03.937;599616054319975230;15623.383;-21
2024-05-14T12:08:03.945;599616054327667438;15631.075;-164
2024-05-14T12:08:03.952;599616054335359646;15638.768;-113
2024-05-14T12:08:03.960;599616054343051854;15646.46;-249
2024-05-14T12:08:03.968;599616054350744062;15654.152;-310
2024-05-14T12:08:03.975;599616054358436270;15661.845;-223
2024-05-14T12:08:03.983;599616054366128478;15669.537;-223
2024-05-14T12:08:03.991;599616054373820686;15677.2295;-287
2024-05-14T12:08:03.998;599616054381512894;15684.92;-336
2024-05-14T12:08:04.006;599616054389205102;15692.612;-388
2024-05-14T12:08:04.014;599616054396897310;15700.305;-381
2024-05-14T12:08:04.021;599616054404589518;15707.997;-334
2024-05-14T12:08:04.029;599616054412281726;15715.689;-315
2024-05-14T12:08:04.037;599616054419943854;15723.353;-270
2024-05-14T12:08:04.045;599616054427636480;15731.044;-188
2024-05-14T12:08:04.052;599616054435329106;15738.736;-120
2024-05-14T12:08:04.060;599616054443021732;15746.43;-51
2024-05-14T12:08:04.068;599616054450714358;15754.122;-4
2024-05-14T12:08:04.075;599616054458406984;15761.814;-42
2024-05-14T12:08:04.083;599616054466099610;15769.508;-120
2024-05-14T12:08:04.091;599616054473792236;15777.2;-136
2024-05-14T12:08:04.098;599616054481484862;15784.893;-131
2024-05-14T12:08:04.106;599616054489177488;15792.586;-167
2024-05-14T12:08:04.114;599616054496870114;15800.278;-167
2024-05-14T12:08:04.121;599616054504562740;15807.971;-122
2024-05-14T12:08:04.129;599616054512255366;15815.664;-98
2024-05-14T12:08:04.137;599616054519947992;15823.355;-89
2024-05-14T12:08:04.145;599616054527640618;15831.048;-58
2024-05-14T12:08:04.152;599616054535333244;15838.741;-4
2024-05-14T12:08:04.160;599616054543025870;15846.434;35
2024-05-14T12:08:04.168;599616054550718496;15854.126;25
2024-05-14T12:08:04.175;599616054558411122;15861.819;14
2024-05-14T12:08:04.183;599616054566103748;15869.512;54
2024-05-14T12:08:04.191;599616054573796374;15877.204;87
2024-05-14T12:08:04.198;599616054581489000;15884.897;89
2024-05-14T12:08:04.206;599616054589181626;15892.59;94
2024-05-14T12:08:04.214;599616054596874252;15900.282;110
2024-05-14T12:08:04.221;599616054604566878;15907.976;141
2024-05-14T12:08:04.229;599616054612259504;15915.667;162
2024-05-14T12:08:04.237;599616054619952130;15923.359;139
2024-05-14T12:08:04.245;599616054627644756;15931.053;94
2024-05-14T12:08:04.252;599616054635337382;15938.745;73
2024-05-14T12:08:04.260;599616054643030008;15946.4375;49
