Phone timestamp;sensor timestamp [ns];timestamp [ms];ecg [uV]
2024-05-14T12:10:12.763;599616183152099776;0.0;77
2024-05-14T12:10:12.770;599616183159791566;7.69179;603
2024-05-14T12:10:12.778;599616183167483356;15.38358;2388
2024-05-14T12:10:12.786;599616183175175146;23.07537;4488
2024-05-14T12:10:12.793;599616183182866936;30.76716;5425
2024-05-14T12:10:12.801;599616183190558726;38.458954;5995
2024-05-14T12:10:12.809;599616183198250516;46.15074;6924
2024-05-14T12:10:12.816;599616183205942306;53.84253;7574
2024-05-14T12:10:12.824;599616183213634096;61.53432;8022
2024-05-14T12:10:12.832;599616183221325886;69.22611;8785
2024-05-14T12:10:12.839;599616183229017676;76.91791;9734
2024-05-14T12:10:12.847;599616183236709466;84.60969;10514
2024-05-14T12:10:12.855;599616183244401256;92.30148;10997
2024-05-14T12:10:12.862;599616183252093046;99.99327;11091
2024-05-14T12:10:12.870;599616183259784836;107.68506;10957
2024-05-14T12:10:12.878;599616183267476626;115.37685;11096
2024-05-14T12:10:12.886;599616183275168416;123.06864;11520
2024-05-14T12:10:12.893;599616183282860206;130.76044;11862
2024-05-14T12:10:12.901;599616183290551996;138.45222;12111
2024-05-14T12:10:12.909;599616183298243786;146.14401;12392
2024-05-14T12:10:12.916;599616183305935576;153.83582;12741
2024-05-14T12:10:12.924;599616183313627366;161.52759;13066
2024-05-14T12:10:12.932;599616183321319156;169.21938;13242
2024-05-14T12:10:12.939;599616183329010946;176.91116;13391
2024-05-14T12:10:12.947;599616183336702736;184.60297;13669
2024-05-14T12:10:12.955;599616183344394526;192.29475;13956
2024-05-14T12:10:12.962;599616183352086316;199.98654;14145
2024-05-14T12:10:12.970;599616183359778106;207.67833;14288
2024-05-14T12:10:12.978;599616183367469896;215.37012;14427
2024-05-14T12:10:12.986;599616183375161686;223.0619;14637
2024-05-14T12:10:12.993;599616183382853476;230.7537;14917
2024-05-14T12:10:13.001;599616183390545266;238.4455;15052
2024-05-14T12:10:13.009;599616183398237056;246.13728;15104
2024-05-14T12:10:13.016;599616183405928846;253.82907;15268
2024-05-14T12:10:13.024;599616183413620636;261.52087;15337
2024-05-14T12:10:13.032;599616183421312426;269.21265;15339
2024-05-14T12:10:13.039;599616183429004216;276.90445;15554
2024-05-14T12:10:13.047;599616183436696006;284.59622;15820
2024-05-14T12:10:13.055;599616183444387796;292.28802;15869
2024-05-14T12:10:13.062;599616183452079586;299.9798;15768
2024-05-14T12:10:13.070;599616183459771376;307.67163;15761
2024-05-14T12:10:13.078;599616183467463166;315.3634;15832
2024-05-14T12:10:13.086;599616183475154956;323.05518;15799
2024-05-14T12:10:13.093;599616183482846746;330.74698;15766
2024-05-14T12:10:13.101;599616183490538536;338.43875;15893
2024-05-14T12:10:13.109;599616183498230326;346.13055;15940
2024-05-14T12:10:13.116;599616183505922116;353.82233;15780
2024-05-14T12:10:13.124;599616183513613906;361.51413;15730
2024-05-14T12:10:13.132;599616183521305696;369.20593;15850
2024-05-14T12:10:13.139;599616183528997486;376.8977;15862
2024-05-14T12:10:13.147;599616183536689276;384.5895;15794
2024-05-14T12:10:13.155;599616183544381066;392.28128;15806
2024-05-14T12:10:13.162;599616183552072856;399.97308;15810
2024-05-14T12:10:13.170;599616183559764646;407.66486;15775
2024-05-14T12:10:13.178;599616183567456436;415.35666;15787
2024-05-14T12:10:13.186;599616183575148226;423.04846;15782
2024-05-14T12:10:13.193;599616183582840016;430.74023;15775
2024-05-14T12:10:13.201;599616183590531806;438.43204;15758
2024-05-14T12:10:13.209;599616183598223596;446.1238;15521
2024-05-14T12:10:13.216;599616183605915386;453.8156;15306
2024-05-14T12:10:13.224;599616183613607176;461.5074;15351
2024-05-14T12:10:13.232;599616183621298966;469.1992;15346
2024-05-14T12:10:13.239;599616183628990756;476.891;15294
2024-05-14T12:10:13.247;599616183636682546;484.5828;15226
2024-05-14T12:10:13.255;599616183644374336;492.27457;14983
2024-05-14T12:10:13.262;599616183652066126;499.96634;14788
2024-05-14T12:10:13.270;599616183659757916;507.65814;14738
2024-05-14T12:10:13.278;599616183667449706;515.3499;14701
2024-05-14T12:10:13.286;599616183675141496;523.04175;14687
2024-05-14T12:10:13.293;599616183682833286;530.7335;14581
2024-05-14T12:10:13.301;599616183690525076;538.4253;14376
2024-05-14T12:10:13.309;599616183698216866;546.1171;14319
2024-05-14T12:10:13.316;599616183705908656;553.8089;14331
2024-05-14T12:10:13.324;599616183713630554;561.53076;14201
2024-05-14T12:10:13.332;599616183721321926;569.22217;14161
2024-05-14T12:10:13.339;599616183729013298;576.9135;14335
2024-05-14T12:10:13.347;599616183736704670;584.60486;14204
2024-05-14T12:10:13.355;599616183744396042;592.29626;13690
2024-05-14T12:10:13.362;599616183752087414;599.9877;13504
2024-05-14T12:10:13.370;599616183759778786;607.679;13624
2024-05-14T12:10:13.378;599616183767470158;615.37036;13567
2024-05-14T12:10:13.386;599616183775161530;623.06177;13377
2024-05-14T12:10:13.393;599616183782852902;630.7532;13238
2024-05-14T12:10:13.401;599616183790544274;638.44446;13249
2024-05-14T12:10:13.409;599616183798235646;646.13586;13219
2024-05-14T12:10:13.416;599616183805927018;653.8273;13059
2024-05-14T12:10:13.424;599616183813618390;661.5186;13273
2024-05-14T12:10:13.432;599616183821309762;669.20996;13737
2024-05-14T12:10:13.439;599616183829001134;676.90137;13558
2024-05-14T12:10:13.447;599616183836692506;684.5927;12781
2024-05-14T12:10:13.455;599616183844383878;692.2841;12300
2024-05-14T12:10:13.462;599616183852075250;699.97546;12335
2024-05-14T12:10:13.470;599616183859766622;707.6668;12328
2024-05-14T12:10:13.478;599616183867457994;715.3582;12137
2024-05-14T12:10:13.486;599616183875149366;723.0496;12067
2024-05-14T12:10:13.493;599616183882840738;730.74097;12003
2024-05-14T12:10:13.501;599616183890532110;738.4323;11749
2024-05-14T12:10:13.509;599616183898223482;746.1237;11572
2024-05-14T12:10:13.516;599616183905914854;753.8151;11593
2024-05-14T12:10:13.524;599616183913606226;761.5064;11558
2024-05-14T12:10:13.532;599616183921297598;769.1978;11365
2024-05-14T12:10:13.539;599616183928988970;776.8892;11221
2024-05-14T12:10:13.547;599616183936680342;784.58057;11204
2024-05-14T12:10:13.555;599616183944371714;792.2719;11171
2024-05-14T12:10:13.562;599616183952063086;799.9633;11070
2024-05-14T12:10:13.570;599616183959754458;807.65466;10950
2024-05-14T12:10:13.578;599616183967445830;815.34607;10860
2024-05-14T12:10:13.586;599616183975137202;823.0374;10837
2024-05-14T12:10:13.593;599616183982828574;830.72876;10783
2024-05-14T12:10:13.601;599616183990519946;838.42017;10625
2024-05-14T12:10:13.609;599616183998211318;846.1116;10514
2024-05-14T12:10:13.616;599616184005902690;853.8029;10467
2024-05-14T12:10:13.624;599616184013594062;861.49426;10300
2024-05-14T12:10:13.632;599616184021285434;869.18567;10130
2024-05-14T12:10:13.639;599616184028976806;876.8771;10109
2024-05-14T12:10:13.647;599616184036668178;884.56836;10043
2024-05-14T12:10:13.655;599616184044359550;892.25977;9871
2024-05-14T12:10:13.662;599616184052050922;899.9512;9741
2024-05-14T12:10:13.670;599616184059742294;907.6425;9650
2024-05-14T12:10:13.678;599616184067433666;915.33386;9518
2024-05-14T12:10:13.686;599616184075125038;923.02527;9355
2024-05-14T12:10:13.693;599616184082816410;930.7166;9247
2024-05-14T12:10:13.701;599616184090507782;938.408;9228
2024-05-14T12:10:13.709;599616184098199154;946.09937;9143
2024-05-14T12:10:13.716;599616184105890526;953.7907;8971
2024-05-14T12:10:13.724;599616184113581898;961.4821;8907
2024-05-14T12:10:13.732;599616184121273270;969.1735;8863
2024-05-14T12:10:13.739;599616184128964642;976.86487;8684
2024-05-14T12:10:13.747;599616184136656014;984.5562;8497
2024-05-14T12:10:13.755;599616184144347386;992.2476;8344
2024-05-14T12:10:13.762;599616184152038758;999.939;8194
2024-05-14T12:10:13.770;599616184159730130;1007.6303;8078
2024-05-14T12:10:13.778;599616184167421502;1015.3217;7970
2024-05-14T12:10:13.786;599616184175112874;1023.0131;7885
2024-05-14T12:10:13.793;599616184182804246;1030.7045;7845
2024-05-14T12:10:13.801;599616184190495618;1038.3959;7753
2024-05-14T12:10:13.809;599616184198186990;1046.0873;7590
2024-05-14T12:10:13.816;599616184205878362;1053.7786;7517
2024-05-14T12:10:13.824;599616184213569734;1061.47;7503
2024-05-14T12:10:13.832;599616184221261106;1069.1614;7402
2024-05-14T12:10:13.839;599616184228952478;1076.8528;7334
2024-05-14T12:10:13.847;599616184236643850;1084.5441;7334
2024-05-14T12:10:13.855;599616184244335222;1092.2354;7140
2024-05-14T12:10:13.862;599616184252026594;1099.9268;6848
2024-05-14T12:10:13.870;599616184259717966;1107.6182;6782
2024-05-14T12:10:13.878;599616184267409338;1115.3096;6818
2024-05-14T12:10:13.886;599616184275100718;1123.001;6749
2024-05-14T12:10:13.893;599616184282792090;1130.6924;6636
2024-05-14T12:10:13.901;599616184290483462;1138.3838;6547
2024-05-14T12:10:13.909;599616184298174834;1146.075;6507
2024-05-14T12:10:13.916;599616184305866206;1153.7664;6469
2024-05-14T12:10:13.924;599616184313557578;1161.4578;6391
2024-05-14T12:10:13.932;599616184321248950;1169.1492;6342
2024-05-14T12:10:13.939;599616184328940322;1176.8406;6344
2024-05-14T12:10:13.947;599616184336631694;1184.532;6269
2024-05-14T12:10:13.955;599616184344323066;1192.2233;6078
2024-05-14T12:10:13.962;599616184352014438;1199.9147;5958
2024-05-14T12:10:13.970;599616184359705810;1207.606;5969
2024-05-14T12:10:13.978;599616184367397182;1215.2974;5962
2024-05-14T12:10:13.985;599616184375088554;1222.9888;5842
2024-05-14T12:10:13.993;599616184382779926;1230.6802;5696
2024-05-14T12:10:14.001;599616184390471298;1238.3716;5666
2024-05-14T12:10:14.009;599616184398162670;1246.0629;5642
2024-05-14T12:10:14.016;599616184405854042;1253.7543;5522
2024-05-14T12:10:14.024;599616184413545414;1261.4457;5465
2024-05-14T12:10:14.032;599616184421236786;1269.1371;5564
2024-05-14T12:10:14.039;599616184428928158;1276.8284;5819
2024-05-14T12:10:14.047;599616184436619530;1284.5198;6165
2024-05-14T12:10:14.055;599616184444310902;1292.211;6212
2024-05-14T12:10:14.062;599616184452002274;1299.9025;5710
2024-05-14T12:10:14.070;599616184459693646;1307.5939;5164
2024-05-14T12:10:14.078;599616184467385018;1315.2853;5055
2024-05-14T12:10:14.085;599616184475076390;1322.9767;5103
2024-05-14T12:10:14.093;599616184482767762;1330.6681;5020
2024-05-14T12:10:14.101;599616184490459134;1338.3593;4938
2024-05-14T12:10:14.109;599616184498150506;1346.0507;4912
2024-05-14T12:10:14.116;599616184505841878;1353.7421;4888
2024-05-14T12:10:14.124;599616184513533250;1361.4335;4841
2024-05-14T12:10:14.132;599616184521224622;1369.1249;4770
2024-05-14T12:10:14.139;599616184528915994;1376.8163;4695
2024-05-14T12:10:14.147;599616184536607366;1384.5077;4620
2024-05-14T12:10:14.155;599616184544298738;1392.1989;4563
2024-05-14T12:10:14.162;599616184551990110;1399.8903;4521
2024-05-14T12:10:14.170;599616184559681482;1407.5817;4450
2024-05-14T12:10:14.178;599616184567372854;1415.2731;4391
2024-05-14T12:10:14.185;599616184575064226;1422.9645;4360
2024-05-14T12:10:14.193;599616184582755598;1430.6559;4311
2024-05-14T12:10:14.201;599616184590446970;1438.3472;4283
2024-05-14T12:10:14.209;599616184598138342;1446.0386;4301
2024-05-14T12:10:14.216;599616184605829714;1453.73;4280
2024-05-14T12:10:14.224;599616184613521086;1461.4213;4198
2024-05-14T12:10:14.232;599616184621212458;1469.1127;4106
2024-05-14T12:10:14.239;599616184628903830;1476.8041;4052
2024-05-14T12:10:14.247;599616184636595202;1484.4955;4035
2024-05-14T12:10:14.255;599616184644286574;1492.1868;4002
2024-05-14T12:10:14.262;599616184651977946;1499.8782;3943
2024-05-14T12:10:14.270;599616184659669318;1507.5696;3875
2024-05-14T12:10:14.278;599616184667360690;1515.261;3790
2024-05-14T12:10:14.285;599616184675052062;1522.9523;3691
2024-05-14T12:10:14.293;599616184682743434;1530.6437;3576
2024-05-14T12:10:14.301;599616184690434806;1538.335;3475
2024-05-14T12:10:14.309;599616184698126178;1546.0264;3394
2024-05-14T12:10:14.316;599616184705817550;1553.7178;3291
2024-05-14T12:10:14.324;599616184713508922;1561.4092;3234
2024-05-14T12:10:14.332;599616184721200294;1569.1006;3232
2024-05-14T12:10:14.339;599616184728891666;1576.792;3197
2024-05-14T12:10:14.347;599616184736583038;1584.4832;3149
2024-05-14T12:10:14.355;599616184744274410;1592.1746;3067
2024-05-14T12:10:14.362;599616184751965782;1599.866;2902
2024-05-14T12:10:14.370;599616184759657154;1607.5574;2803
2024-05-14T12:10:14.378;599616184767348526;1615.2488;2824
2024-05-14T12:10:14.385;599616184775039898;1622.9402;2834
2024-05-14T12:10:14.393;599616184782731270;1630.6316;2803
2024-05-14T12:10:14.401;599616184790422642;1638.3229;2770
2024-05-14T12:10:14.409;599616184798114014;1646.0142;2737
2024-05-14T12:10:14.416;599616184805805386;1653.7056;2732
2024-05-14T12:10:14.424;599616184813496758;1661.397;2744
2024-05-14T12:10:14.432;599616184821188130;1669.0884;2721
2024-05-14T12:10:14.439;599616184828879502;1676.7798;2690
2024-05-14T12:10:14.447;599616184836540786;1684.4409;2676
2024-05-14T12:10:14.455;599616184844232576;1692.1328;2648
2024-05-14T12:10:14.462;599616184851924366;1699.8246;2619
2024-05-14T12:10:14.470;599616184859616156;1707.5164;2598
2024-05-14T12:10:14.478;599616184867307946;1715.2083;2539
2024-05-14T12:10:14.485;599616184874999736;1722.9;2469
2024-05-14T12:10:14.493;599616184882691526;1730.5918;2431
2024-05-14T12:10:14.501;599616184890383316;1738.2836;2424
2024-05-14T12:10:14.508;599616184898075106;1745.9753;2424
2024-05-14T12:10:14.516;599616184905766896;1753.6671;2393
2024-05-14T12:10:14.524;599616184913458686;1761.3589;2313
2024-05-14T12:10:14.532;599616184921150476;1769.0508;2275
2024-05-14T12:10:14.539;599616184928842266;1776.7426;2289
2024-05-14T12:10:14.547;599616184936534056;1784.4343;2261
2024-05-14T12:10:14.555;599616184944225846;1792.1261;2231
2024-05-14T12:10:14.562;599616184951917636;1799.8179;2264
2024-05-14T12:10:14.570;599616184959609426;1807.5096;2285
2024-05-14T12:10:14.578;599616184967301216;1815.2014;2254
2024-05-14T12:10:14.585;599616184974993006;1822.8932;2188
2024-05-14T12:10:14.593;599616184982684796;1830.585;2139
2024-05-14T12:10:14.601;599616184990376586;1838.2769;2240
2024-05-14T12:10:14.608;599616184998068376;1845.9686;2596
2024-05-14T12:10:14.616;599616185005760166;1853.6604;3043
2024-05-14T12:10:14.624;599616185013451956;1861.3522;3164
2024-05-14T12:10:14.632;599616185021143746;1869.044;2695
2024-05-14T12:10:14.639;599616185028835536;1876.7357;2092
2024-05-14T12:10:14.647;599616185036527326;1884.4275;1955
2024-05-14T12:10:14.655;599616185044219116;1892.1193;2089
2024-05-14T12:10:14.662;599616185051910906;1899.811;2073
2024-05-14T12:10:14.670;599616185059602696;1907.5029;1993
2024-05-14T12:10:14.678;599616185067294486;1915.1947;1962
2024-05-14T12:10:14.685;599616185074986276;1922.8865;1913
2024-05-14T12:10:14.693;599616185082678066;1930.5782;1870
2024-05-14T12:10:14.701;599616185090369856;1938.27;1858
2024-05-14T12:10:14.708;599616185098061646;1945.9619;1847
2024-05-14T12:10:14.716;599616185105753436;1953.6537;1835
2024-05-14T12:10:14.724;599616185113445226;1961.3455;1771
2024-05-14T12:10:14.732;599616185121137016;1969.0372;1679
2024-05-14T12:10:14.739;599616185128828806;1976.7291;1684
2024-05-14T12:10:14.747;599616185136520596;1984.4209;1731
2024-05-14T12:10:14.755;599616185144212386;1992.1127;1729
2024-05-14T12:10:14.762;599616185151904176;1999.8044;1717
2024-05-14T12:10:14.770;599616185159595966;2007.4962;1722
2024-05-14T12:10:14.778;599616185167287756;2015.188;1731
2024-05-14T12:10:14.785;599616185174979546;2022.8798;1745
2024-05-14T12:10:14.793;599616185182671336;2030.5715;1757
2024-05-14T12:10:14.801;599616185190363126;2038.2633;1781
2024-05-14T12:10:14.808;599616185198054916;2045.9552;1774
2024-05-14T12:10:14.816;599616185205746706;2053.647;1703
2024-05-14T12:10:14.824;599616185213438496;2061.3389;1630
2024-05-14T12:10:14.832;599616185221130286;2069.0305;1583
2024-05-14T12:10:14.839;599616185228822076;2076.7224;1533
2024-05-14T12:10:14.847;599616185236513866;2084.414;1491
2024-05-14T12:10:14.855;599616185244205656;2092.106;1427
2024-05-14T12:10:14.862;599616185251897446;2099.7976;1291
2024-05-14T12:10:14.870;599616185259589236;2107.4895;1152
2024-05-14T12:10:14.878;599616185267281026;2115.1814;1112
2024-05-14T12:10:14.885;599616185274972816;2122.873;1123
2024-05-14T12:10:14.893;599616185282664606;2130.565;1121
2024-05-14T12:10:14.901;599616185290356396;2138.2566;1121
2024-05-14T12:10:14.908;599616185298048186;2145.9485;1109
2024-05-14T12:10:14.916;599616185305739976;2153.6401;1093
2024-05-14T12:10:14.924;599616185313431766;2161.332;1114
2024-05-14T12:10:14.932;599616185321123556;2169.0237;1142
2024-05-14T12:10:14.939;599616185328815346;2176.7156;1137
2024-05-14T12:10:14.947;599616185336507136;2184.4072;1126
2024-05-14T12:10:14.955;599616185344198926;2192.099;1135
2024-05-14T12:10:14.962;599616185351890716;2199.7908;1130
2024-05-14T12:10:14.970;599616185359582506;2207.4827;1090
2024-05-14T12:10:14.978;599616185367274296;2215.1743;1076
2024-05-14T12:10:14.985;599616185374966086;2222.8665;1102
2024-05-14T12:10:14.993;599616185382657876;2230.558;1114
2024-05-14T12:10:15.001;599616185390349666;2238.25;1090
2024-05-14T12:10:15.008;599616185398071564;2245.9717;1081
2024-05-14T12:10:15.016;599616185405762936;2253.6633;1109
2024-05-14T12:10:15.024;599616185413454308;2261.3545;1130
2024-05-14T12:10:15.032;599616185421145680;2269.046;1121
2024-05-14T12:10:15.039;599616185428837052;2276.7373;1123
2024-05-14T12:10:15.047;599616185436528424;2284.4285;1128
2024-05-14T12:10:15.055;599616185444219796;2292.12;1083
2024-05-14T12:10:15.062;599616185451911168;2299.8113;1015
2024-05-14T12:10:15.070;599616185459602540;2307.503;1005
2024-05-14T12:10:15.078;599616185467293912;2315.194;1043
2024-05-14T12:10:15.085;599616185474985284;2322.8857;1046
2024-05-14T12:10:15.093;599616185482676656;2330.577;1003
2024-05-14T12:10:15.101;599616185490368028;2338.268;994
2024-05-14T12:10:15.108;599616185498059400;2345.9597;1038
2024-05-14T12:10:15.116;599616185505750772;2353.651;1060
2024-05-14T12:10:15.124;599616185513442144;2361.3425;1053
2024-05-14T12:10:15.132;599616185521133516;2369.0337;1079
2024-05-14T12:10:15.139;599616185528824888;2376.725;1104
2024-05-14T12:10:15.147;599616185536516260;2384.4165;1088
2024-05-14T12:10:15.155;599616185544207632;2392.1077;1076
2024-05-14T12:10:15.162;599616185551899004;2399.7993;1100
2024-05-14T12:10:15.170;599616185559590376;2407.4905;1126
2024-05-14T12:10:15.178;599616185567281748;2415.1821;1119
2024-05-14T12:10:15.185;599616185574973120;2422.8733;1095
2024-05-14T12:10:15.193;599616185582664492;2430.5647;1074
2024-05-14T12:10:15.201;599616185590355864;2438.256;1053
2024-05-14T12:10:15.208;599616185598047236;2445.9475;1053
2024-05-14T12:10:15.216;599616185605738608;2453.639;1185
2024-05-14T12:10:15.224;599616185613429980;2461.33;1554
2024-05-14T12:10:15.232;599616185621121352;2469.0217;1917
2024-05-14T12:10:15.239;599616185628812724;2476.713;1778
2024-05-14T12:10:15.247;599616185636504096;2484.4043;1168
2024-05-14T12:10:15.255;599616185644195468;2492.0957;779
2024-05-14T12:10:15.262;599616185651886840;2499.787;852
2024-05-14T12:10:15.270;599616185659578212;2507.4785;902
2024-05-14T12:10:15.278;599616185667269584;2515.1697;796
2024-05-14T12:10:15.285;599616185674960956;2522.861;793
2024-05-14T12:10:15.293;599616185682652328;2530.5525;848
2024-05-14T12:10:15.301;599616185690343700;2538.244;826
2024-05-14T12:10:15.308;599616185698035072;2545.9353;826
2024-05-14T12:10:15.316;599616185705726444;2553.6267;866
2024-05-14T12:10:15.324;599616185713417816;2561.318;850
2024-05-14T12:10:15.332;599616185721109188;2569.0095;815
2024-05-14T12:10:15.339;599616185728800560;2576.7007;826
2024-05-14T12:10:15.347;599616185736491932;2584.392;822
2024-05-14T12:10:15.355;599616185744183304;2592.0835;777
2024-05-14T12:10:15.362;599616185751874676;2599.775;695
2024-05-14T12:10:15.370;599616185759566048;2607.4663;579
2024-05-14T12:10:15.378;599616185767257420;2615.1577;544
2024-05-14T12:10:15.385;599616185774948792;2622.849;577
2024-05-14T12:10:15.393;599616185782640164;2630.5403;577
2024-05-14T12:10:15.401;599616185790331536;2638.2317;593
2024-05-14T12:10:15.408;599616185798022908;2645.923;636
2024-05-14T12:10:15.416;599616185805714280;2653.6145;631
2024-05-14T12:10:15.424;599616185813405652;2661.306;621
2024-05-14T12:10:15.431;599616185821097024;2668.997;659
2024-05-14T12:10:15.439;599616185828788396;2676.6887;687
2024-05-14T12:10:15.447;599616185836479768;2684.38;678
2024-05-14T12:10:15.455;599616185844171140;2692.0715;643
2024-05-14T12:10:15.462;599616185851862512;2699.7627;574
2024-05-14T12:10:15.470;599616185859553884;2707.454;523
2024-05-14T12:10:15.478;599616185867245256;2715.1455;518
2024-05-14T12:10:15.485;599616185874936628;2722.8367;515
2024-05-14T12:10:15.493;599616185882628000;2730.5283;518
2024-05-14T12:10:15.501;599616185890319372;2738.2195;525
2024-05-14T12:10:15.508;599616185898010744;2745.9111;504
2024-05-14T12:10:15.516;599616185905702116;2753.6023;490
2024-05-14T12:10:15.524;599616185913393488;2761.294;523
2024-05-14T12:10:15.531;599616185921084860;2768.985;560
2024-05-14T12:10:15.539;599616185928776232;2776.6763;565
2024-05-14T12:10:15.547;599616185936467604;2784.368;570
2024-05-14T12:10:15.555;599616185944158976;2792.059;581
2024-05-14T12:10:15.562;599616185951850348;2799.7507;588
2024-05-14T12:10:15.570;599616185959541728;2807.442;593
2024-05-14T12:10:15.578;599616185967233100;2815.1335;607
2024-05-14T12:10:15.585;599616185974924472;2822.8247;633
2024-05-14T12:10:15.593;599616185982615844;2830.5159;636
2024-05-14T12:10:15.601;599616185990307216;2838.2075;607
2024-05-14T12:10:15.608;599616185997998588;2845.8987;605
2024-05-14T12:10:15.616;599616186005689960;2853.5903;631
2024-05-14T12:10:15.624;599616186013381332;2861.2815;614
2024-05-14T12:10:15.631;599616186021072704;2868.9731;541
2024-05-14T12:10:15.639;599616186028764076;2876.6643;508
2024-05-14T12:10:15.647;599616186036455448;2884.3555;527
2024-05-14T12:10:15.655;599616186044146820;2892.047;518
2024-05-14T12:10:15.662;599616186051838192;2899.7383;501
2024-05-14T12:10:15.670;599616186059529564;2907.43;530
2024-05-14T12:10:15.678;599616186067220936;2915.121;563
2024-05-14T12:10:15.685;599616186074912308;2922.8125;558
2024-05-14T12:10:15.693;599616186082603680;2930.504;534
2024-05-14T12:10:15.701;599616186090295052;2938.1953;525
2024-05-14T12:10:15.708;599616186097986424;2945.8867;504
2024-05-14T12:10:15.716;599616186105677796;2953.578;490
2024-05-14T12:10:15.724;599616186113369168;2961.2695;515
2024-05-14T12:10:15.731;599616186121060540;2968.9607;541
2024-05-14T12:10:15.739;599616186128751912;2976.652;537
2024-05-14T12:10:15.747;599616186136443284;2984.3435;530
2024-05-14T12:10:15.755;599616186144134656;2992.035;523
2024-05-14T12:10:15.762;599616186151826028;2999.7263;499
2024-05-14T12:10:15.770;599616186159517400;3007.4175;480
2024-05-14T12:10:15.778;599616186167208772;3015.1091;466
2024-05-14T12:10:15.785;599616186174900144;3022.8003;421
2024-05-14T12:10:15.793;599616186182591516;3030.4917;402
2024-05-14T12:10:15.801;599616186190282888;3038.183;548
2024-05-14T12:10:15.808;599616186197974260;3045.8745;940
2024-05-14T12:10:15.816;599616186205665632;3053.566;1371
2024-05-14T12:10:15.824;599616186213357004;3061.2573;1397
2024-05-14T12:10:15.831;599616186221048376;3068.9485;874
2024-05-14T12:10:15.839;599616186228739748;3076.64;376
2024-05-14T12:10:15.847;599616186236431120;3084.3313;379
2024-05-14T12:10:15.855;599616186244122492;3092.0227;508
2024-05-14T12:10:15.862;599616186251813864;3099.714;442
2024-05-14T12:10:15.870;599616186259505236;3107.4055;348
2024-05-14T12:10:15.878;599616186267196608;3115.097;296
2024-05-14T12:10:15.885;599616186274887980;3122.788;259
2024-05-14T12:10:15.893;599616186282579352;3130.4797;237
2024-05-14T12:10:15.901;599616186290270724;3138.171;214
2024-05-14T12:10:15.908;599616186297962096;3145.8623;195
2024-05-14T12:10:15.916;599616186305653468;3153.5537;171
2024-05-14T12:10:15.924;599616186313344840;3161.245;148
2024-05-14T12:10:15.931;599616186321036212;3168.9365;136
2024-05-14T12:10:15.939;599616186328727584;3176.6277;157
2024-05-14T12:10:15.947;599616186336418956;3184.3193;169
2024-05-14T12:10:15.955;599616186344110328;3192.0105;127
2024-05-14T12:10:15.962;599616186351801700;3199.702;94
2024-05-14T12:10:15.970;599616186359493072;3207.3933;122
2024-05-14T12:10:15.978;599616186367184444;3215.0845;162
2024-05-14T12:10:15.985;599616186374875816;3222.7761;190
2024-05-14T12:10:15.993;599616186382567188;3230.4673;223
2024-05-14T12:10:16.001;599616186390258560;3238.159;275
2024-05-14T12:10:16.008;599616186397949932;3245.85;315
2024-05-14T12:10:16.016;599616186405641304;3253.5417;306
2024-05-14T12:10:16.024;599616186413332676;3261.233;303
2024-05-14T12:10:16.031;599616186421024048;3268.924;346
2024-05-14T12:10:16.039;599616186428715420;3276.6157;374
2024-05-14T12:10:16.047;599616186436406792;3284.307;360
2024-05-14T12:10:16.054;599616186444098164;3291.9985;339
2024-05-14T12:10:16.062;599616186451789536;3299.6897;332
2024-05-14T12:10:16.070;599616186459480908;3307.3813;325
2024-05-14T12:10:16.078;599616186467172280;3315.0725;315
2024-05-14T12:10:16.085;599616186474863652;3322.7637;315
2024-05-14T12:10:16.093;599616186482555024;3330.4553;343
2024-05-14T12:10:16.101;599616186490246396;3338.1465;372
2024-05-14T12:10:16.108;599616186497937768;3345.8381;351
2024-05-14T12:10:16.116;599616186505629140;3353.5293;334
2024-05-14T12:10:16.124;599616186513320512;3361.2207;381
2024-05-14T12:10:16.131;599616186521011892;3368.912;424
2024-05-14T12:10:16.139;599616186528703264;3376.6033;417
2024-05-14T12:10:16.147;599616186536394636;3384.295;414
2024-05-14T12:10:16.154;599616186544086008;3391.986;431
2024-05-14T12:10:16.162;599616186551777380;3399.6777;400
2024-05-14T12:10:16.170;599616186559468752;3407.369;325
2024-05-14T12:10:16.178;599616186567160124;3415.0603;299
2024-05-14T12:10:16.185;599616186574851496;3422.7517;346
2024-05-14T12:10:16.193;599616186582542868;3430.443;355
2024-05-14T12:10:16.201;599616186590234240;3438.1345;306
2024-05-14T12:10:16.208;599616186597925612;3445.8257;296
2024-05-14T12:10:16.216;599616186605616984;3453.5173;327
2024-05-14T12:10:16.224;599616186613308356;3461.2085;336
2024-05-14T12:10:16.231;599616186620999728;3468.9;334
2024-05-14T12:10:16.239;599616186628691100;3476.5913;355
2024-05-14T12:10:16.247;599616186636382472;3484.2827;372
2024-05-14T12:10:16.254;599616186644073844;3491.974;365
2024-05-14T12:10:16.262;599616186651765216;3499.6655;376
2024-05-14T12:10:16.270;599616186659456588;3507.357;419
2024-05-14T12:10:16.278;599616186667147960;3515.048;449
2024-05-14T12:10:16.285;599616186674839332;3522.7395;442
2024-05-14T12:10:16.293;599616186682530704;3530.431;428
2024-05-14T12:10:16.301;599616186690222076;3538.1223;438
2024-05-14T12:10:16.308;599616186697913448;3545.8137;464
2024-05-14T12:10:16.316;599616186705604820;3553.5051;471
2024-05-14T12:10:16.324;599616186713296192;3561.1965;464
2024-05-14T12:10:16.331;599616186720987564;3568.8877;478
2024-05-14T12:10:16.339;599616186728678936;3576.579;494
2024-05-14T12:10:16.347;599616186736370308;3584.2705;487
2024-05-14T12:10:16.354;599616186744061680;3591.962;490
2024-05-14T12:10:16.362;599616186751753052;3599.6533;520
2024-05-14T12:10:16.370;599616186759444424;3607.3447;490
2024-05-14T12:10:16.378;599616186767135796;3615.036;367
2024-05-14T12:10:16.385;599616186774827168;3622.7275;306
2024-05-14T12:10:16.393;599616186782518540;3630.4187;343
2024-05-14T12:10:16.401;599616186790209912;3638.11;369
2024-05-14T12:10:16.408;599616186797901284;3645.8015;372
2024-05-14T12:10:16.416;599616186805592656;3653.493;391
2024-05-14T12:10:16.424;599616186813284028;3661.1843;386
2024-05-14T12:10:16.431;599616186820975400;3668.8755;351
2024-05-14T12:10:16.439;599616186828666772;3676.5671;405
2024-05-14T12:10:16.447;599616186836358144;3684.2583;676
2024-05-14T12:10:16.454;599616186844049516;3691.9497;1104
2024-05-14T12:10:16.462;599616186851740888;3699.641;1319
2024-05-14T12:10:16.470;599616186859432260;3707.3325;965
2024-05-14T12:10:16.478;599616186867123632;3715.024;400
2024-05-14T12:10:16.485;599616186874815004;3722.715;254
2024-05-14T12:10:16.493;599616186882506376;3730.4067;384
2024-05-14T12:10:16.501;599616186890197748;3738.098;365
2024-05-14T12:10:16.508;599616186897889120;3745.7896;318
2024-05-14T12:10:16.516;599616186905580492;3753.4807;372
2024-05-14T12:10:16.524;599616186913271864;3761.1719;374
2024-05-14T12:10:16.531;599616186920963236;3768.8635;334
2024-05-14T12:10:16.539;599616186928654608;3776.5547;374
2024-05-14T12:10:16.547;599616186936345980;3784.2463;431
2024-05-14T12:10:16.554;599616186944037352;3791.9375;419
2024-05-14T12:10:16.562;599616186951728724;3799.6292;405
2024-05-14T12:10:16.570;599616186959420096;3807.3203;424
2024-05-14T12:10:16.578;599616186967111468;3815.0115;438
2024-05-14T12:10:16.585;599616186974802840;3822.7031;442
2024-05-14T12:10:16.593;599616186982494212;3830.3943;459
2024-05-14T12:10:16.601;599616186990185584;3838.086;497
2024-05-14T12:10:16.608;599616186997876956;3845.777;520
2024-05-14T12:10:16.616;599616187005568328;3853.4688;511
2024-05-14T12:10:16.624;599616187013259700;3861.16;508
2024-05-14T12:10:16.631;599616187020951072;3868.8513;544
2024-05-14T12:10:16.639;599616187028642444;3876.5427;579
2024-05-14T12:10:16.647;599616187036333816;3884.234;581
2024-05-14T12:10:16.654;599616187044025188;3891.9255;572
2024-05-14T12:10:16.662;599616187051716560;3899.6167;581
2024-05-14T12:10:16.670;599616187059407932;3907.308;584
2024-05-14T12:10:16.677;599616187067099304;3914.9995;560
2024-05-14T12:10:16.685;599616187074790676;3922.691;527
2024-05-14T12:10:16.693;599616187082482056;3930.3823;482
2024-05-14T12:10:16.701;599616187090173428;3938.0735;431
2024-05-14T12:10:16.708;599616187097864800;3945.7651;374
2024-05-14T12:10:16.716;599616187105556172;3953.4563;336
2024-05-14T12:10:16.724;599616187113247544;3961.1477;343
2024-05-14T12:10:16.731;599616187120938916;3968.839;360
2024-05-14T12:10:16.739;599616187128630288;3976.5305;348
2024-05-14T12:10:16.747;599616187136321660;3984.222;329
2024-05-14T12:10:16.754;599616187144013032;3991.9133;322
2024-05-14T12:10:16.762;599616187151704404;3999.6047;294
2024-05-14T12:10:16.770;599616187159395776;4007.296;223
2024-05-14T12:10:16.777;599616187167087148;4014.9873;181
2024-05-14T12:10:16.785;599616187174778520;4022.6787;221
2024-05-14T12:10:16.793;599616187182469892;4030.37;237
2024-05-14T12:10:16.801;599616187190161264;4038.0615;195
2024-05-14T12:10:16.808;599616187197852636;4045.753;197
2024-05-14T12:10:16.816;599616187205544008;4053.4443;245
2024-05-14T12:10:16.824;599616187213235380;4061.1355;247
2024-05-14T12:10:16.831;599616187220926752;4068.827;230
2024-05-14T12:10:16.839;599616187228618124;4076.5183;249
2024-05-14T12:10:16.847;599616187236309496;4084.2097;270
2024-05-14T12:10:16.854;599616187244000868;4091.9011;263
2024-05-14T12:10:16.862;599616187251692240;4099.5923;256
2024-05-14T12:10:16.870;599616187259383612;4107.2837;235
2024-05-14T12:10:16.877;599616187267074984;4114.975;162
2024-05-14T12:10:16.885;599616187274766356;4122.6665;94
2024-05-14T12:10:16.893;599616187282457728;4130.358;70
2024-05-14T12:10:16.901;599616187290149100;4138.0493;40
2024-05-14T12:10:16.908;599616187297840472;4145.7407;18
2024-05-14T12:10:16.916;599616187305531844;4153.432;25
2024-05-14T12:10:16.924;599616187313223216;4161.1235;35
2024-05-14T12:10:16.931;599616187320914588;4168.815;28
2024-05-14T12:10:16.939;599616187328605960;4176.5063;-18
2024-05-14T12:10:16.947;599616187336297332;4184.1978;-68
2024-05-14T12:10:16.954;599616187343988704;4191.8887;-54
2024-05-14T12:10:16.962;599616187351680076;4199.5806;-4
2024-05-14T12:10:16.970;599616187359371448;4207.2715;23
2024-05-14T12:10:16.977;599616187367062820;4214.963;25
2024-05-14T12:10:16.985;599616187374754192;4222.6543;25
2024-05-14T12:10:16.993;599616187382445564;4230.3457;28
2024-05-14T12:10:17.001;599616187390136936;4238.037;16
2024-05-14T12:10:17.008;599616187397828308;4245.7285;23
2024-05-14T12:10:17.016;599616187405519680;4253.42;212
2024-05-14T12:10:17.024;599616187413211052;4261.1113;657
2024-05-14T12:10:17.031;599616187420902424;4268.8027;1024
2024-05-14T12:10:17.039;599616187428593796;4276.494;855
2024-05-14T12:10:17.047;599616187436285168;4284.1855;233
2024-05-14T12:10:17.054;599616187443976540;4291.877;-202
2024-05-14T12:10:17.062;599616187451667912;4299.5684;-169
2024-05-14T12:10:17.070;599616187459359284;4307.2593;-94
2024-05-14T12:10:17.077;599616187467050656;4314.9507;-179
2024-05-14T12:10:17.085;599616187474742028;4322.6426;-188
2024-05-14T12:10:17.093;599616187482433400;4330.3335;-129
2024-05-14T12:10:17.101;599616187490124772;4338.025;-124
2024-05-14T12:10:17.108;599616187497816144;4345.7163;-120
2024-05-14T12:10:17.116;599616187505507516;4353.4077;-80
2024-05-14T12:10:17.124;599616187513198888;4361.099;-73
2024-05-14T12:10:17.131;599616187520890260;4368.7905;-77
2024-05-14T12:10:17.139;599616187528581632;4376.482;-40
2024-05-14T12:10:17.147;599616187536273004;4384.173;9
2024-05-14T12:10:17.154;599616187543964376;4391.8647;21
2024-05-14T12:10:17.162;599616187551655748;4399.556;21
2024-05-14T12:10:17.170;599616187559347120;4407.2476;32
2024-05-14T12:10:17.177;599616187567038492;4414.9385;40
2024-05-14T12:10:17.185;599616187574729864;4422.63;18
2024-05-14T12:10:17.193;599616187582421236;4430.322;9
2024-05-14T12:10:17.201;599616187590112608;4438.0127;54
2024-05-14T12:10:17.208;599616187597803980;4445.704;115
2024-05-14T12:10:17.216;599616187605495352;4453.3955;129
2024-05-14T12:10:17.224;599616187613186724;4461.087;143
2024-05-14T12:10:17.231;599616187620878096;4468.7783;197
2024-05-14T12:10:17.239;599616187628569468;4476.4697;237
2024-05-14T12:10:17.247;599616187636260840;4484.161;230
2024-05-14T12:10:17.254;599616187643932204;4491.8325;221
2024-05-14T12:10:17.262;599616187651623854;4499.524;223
2024-05-14T12:10:17.270;599616187659315504;4507.216;209
2024-05-14T12:10:17.277;599616187667007154;4514.907;181
2024-05-14T12:10:17.285;599616187674698804;4522.599;171
2024-05-14T12:10:17.293;599616187682390454;4530.2905;190
2024-05-14T12:10:17.300;599616187690082104;4537.9824;171
2024-05-14T12:10:17.308;599616187697773754;4545.674;70
2024-05-14T12:10:17.316;599616187705465404;4553.3657;11
2024-05-14T12:10:17.324;599616187713157054;4561.057;70
2024-05-14T12:10:17.331;599616187720848704;4568.749;117
2024-05-14T12:10:17.339;599616187728540354;4576.441;101
2024-05-14T12:10:17.347;599616187736232004;4584.1323;110
2024-05-14T12:10:17.354;599616187743923654;4591.8237;141
2024-05-14T12:10:17.362;599616187751615304;4599.5156;150
2024-05-14T12:10:17.370;599616187759306954;4607.2075;148
2024-05-14T12:10:17.377;599616187766998604;4614.899;136
2024-05-14T12:10:17.385;599616187774690254;4622.5903;82
2024-05-14T12:10:17.393;599616187782381904;4630.282;14
2024-05-14T12:10:17.400;599616187790073554;4637.974;0
2024-05-14T12:10:17.408;599616187797765204;4645.665;25
2024-05-14T12:10:17.416;599616187805456854;4653.357;56
2024-05-14T12:10:17.424;599616187813148504;4661.049;75
2024-05-14T12:10:17.431;599616187820840154;4668.7407;68
2024-05-14T12:10:17.439;599616187828531804;4676.4316;56
2024-05-14T12:10:17.447;599616187836223454;4684.1235;70
2024-05-14T12:10:17.454;599616187843915104;4691.8154;84
2024-05-14T12:10:17.462;599616187851606754;4699.5073;96
2024-05-14T12:10:17.470;599616187859298404;4707.198;131
2024-05-14T12:10:17.477;599616187866990054;4714.89;169
2024-05-14T12:10:17.485;599616187874681704;4722.582;171
2024-05-14T12:10:17.493;599616187882373354;4730.274;155
2024-05-14T12:10:17.500;599616187890065004;4737.965;171
2024-05-14T12:10:17.508;599616187897756654;4745.6567;214
2024-05-14T12:10:17.516;599616187905448304;4753.3486;195
2024-05-14T12:10:17.524;599616187913139954;4761.0405;153
2024-05-14T12:10:17.531;599616187920831604;4768.7314;169
2024-05-14T12:10:17.539;599616187928523254;4776.4233;186
2024-05-14T12:10:17.547;599616187936214904;4784.115;162
2024-05-14T12:10:17.554;599616187943906554;4791.807;164
2024-05-14T12:10:17.562;599616187951598204;4799.498;204
2024-05-14T12:10:17.570;599616187959289854;4807.19;226
2024-05-14T12:10:17.577;599616187966981504;4814.882;209
2024-05-14T12:10:17.585;599616187974673154;4822.5737;193
2024-05-14T12:10:17.593;599616187982364804;4830.2646;179
2024-05-14T12:10:17.600;599616187990056454;4837.9565;169
2024-05-14T12:10:17.608;599616187997748104;4845.6484;226
2024-05-14T12:10:17.616;599616188005439754;4853.3403;515
2024-05-14T12:10:17.624;599616188013131404;4861.0312;1013
2024-05-14T12:10:17.631;599616188020823054;4868.723;1269
2024-05-14T12:10:17.639;599616188028514704;4876.415;902
2024-05-14T12:10:17.647;599616188036206354;4884.107;247
2024-05-14T12:10:17.654;599616188043898004;4891.798;-9
2024-05-14T12:10:17.662;599616188051589654;4899.4897;94
2024-05-14T12:10:17.670;599616188059281304;4907.1816;47
2024-05-14T12:10:17.677;599616188066972954;4914.8735;-131
2024-05-14T12:10:17.685;599616188074664604;4922.5645;-146
2024-05-14T12:10:17.693;599616188082356254;4930.2563;-91
2024-05-14T12:10:17.700;599616188090047904;4937.948;-115
2024-05-14T12:10:17.708;599616188097739554;4945.64;-120
2024-05-14T12:10:17.716;599616188105431204;4953.331;-89
2024-05-14T12:10:17.724;599616188113122854;4961.023;-94
2024-05-14T12:10:17.731;599616188120814504;4968.715;-101
2024-05-14T12:10:17.739;599616188128506154;4976.4067;-68
2024-05-14T12:10:17.747;599616188136197804;4984.0977;-21
2024-05-14T12:10:17.754;599616188143889454;4991.7896;9
2024-05-14T12:10:17.762;599616188151581104;4999.4814;21
2024-05-14T12:10:17.770;599616188159272754;5007.1733;28
2024-05-14T12:10:17.777;599616188166964404;5014.8643;54
2024-05-14T12:10:17.785;599616188174656054;5022.556;84
2024-05-14T12:10:17.793;599616188182347704;5030.248;108
2024-05-14T12:10:17.800;599616188190039354;5037.94;155
2024-05-14T12:10:17.808;599616188197731004;5045.631;207
2024-05-14T12:10:17.816;599616188205432720;5053.333;214
2024-05-14T12:10:17.824;599616188213124231;5061.0244;214
2024-05-14T12:10:17.831;599616188220815742;5068.716;254
2024-05-14T12:10:17.839;599616188228507253;5076.407;299
2024-05-14T12:10:17.847;599616188236198764;5084.099;296
2024-05-14T12:10:17.854;599616188243890275;5091.7905;270
2024-05-14T12:10:17.862;599616188251581786;5099.482;256
2024-05-14T12:10:17.870;599616188259273297;5107.1733;252
2024-05-14T12:10:17.877;599616188266964808;5114.865;228
2024-05-14T12:10:17.885;599616188274656319;5122.5566;148
2024-05-14T12:10:17.893;599616188282347830;5130.248;63
2024-05-14T12:10:17.900;599616188290039341;5137.9395;47
2024-05-14T12:10:17.908;599616188297730852;5145.6313;-4
2024-05-14T12:10:17.916;599616188305422363;5153.3223;-89
2024-05-14T12:10:17.924;599616188313113874;5161.014;-101
2024-05-14T12:10:17.931;599616188320805385;5168.7056;-82
2024-05-14T12:10:17.939;599616188328496896;5176.3975;-75
2024-05-14T12:10:17.947;599616188336188407;5184.0884;-51
2024-05-14T12:10:17.954;599616188343879918;5191.7803;-28
2024-05-14T12:10:17.962;599616188351571429;5199.4717;-18
2024-05-14T12:10:17.970;599616188359262940;5207.1636;4
2024-05-14T12:10:17.977;599616188366954451;5214.8545;47
2024-05-14T12:10:17.985;599616188374645962;5222.5464;87
2024-05-14T12:10:17.993;599616188382337473;5230.238;101
2024-05-14T12:10:18.000;599616188390028984;5237.929;96
2024-05-14T12:10:18.008;599616188397720495;5245.6206;117
2024-05-14T12:10:18.016;599616188405412006;5253.312;157
2024-05-14T12:10:18.024;599616188413103517;5261.004;179
2024-05-14T12:10:18.031;599616188420795028;5268.695;183
2024-05-14T12:10:18.039;599616188428486539;5276.3867;202
2024-05-14T12:10:18.047;599616188436178050;5284.078;221
2024-05-14T12:10:18.054;599616188443869561;5291.77;216
2024-05-14T12:10:18.062;599616188451561072;5299.461;214
2024-05-14T12:10:18.070;599616188459252583;5307.153;245
2024-05-14T12:10:18.077;599616188466944094;5314.844;273
2024-05-14T12:10:18.085;599616188474635605;5322.536;252
2024-05-14T12:10:18.093;599616188482327116;5330.227;195
2024-05-14T12:10:18.100;599616188490018627;5337.919;181
2024-05-14T12:10:18.108;599616188497710138;5345.6104;214
2024-05-14T12:10:18.116;599616188505401649;5353.3022;228
2024-05-14T12:10:18.123;599616188513093160;5360.993;226
2024-05-14T12:10:18.131;599616188520784671;5368.685;240
2024-05-14T12:10:18.139;599616188528476182;5376.3765;242
2024-05-14T12:10:18.147;599616188536167693;5384.068;223
2024-05-14T12:10:18.154;599616188543859204;5391.7593;223
2024-05-14T12:10:18.162;599616188551550715;5399.451;233
2024-05-14T12:10:18.170;599616188559242226;5407.1426;188
2024-05-14T12:10:18.177;599616188566933737;5414.834;106
2024-05-14T12:10:18.185;599616188574625248;5422.5254;77
2024-05-14T12:10:18.193;599616188582316759;5430.2173;214
2024-05-14T12:10:18.200;599616188590008270;5437.9087;598
2024-05-14T12:10:18.208;599616188597699781;5445.6;1053
2024-05-14T12:10:18.216;599616188605391292;5453.2915;1090
2024-05-14T12:10:18.223;599616188613082803;5460.983;563
2024-05-14T12:10:18.231;599616188620774314;5468.6743;16
2024-05-14T12:10:18.239;599616188628465825;5476.3657;-89
2024-05-14T12:10:18.247;599616188636157336;5484.0576;-23
2024-05-14T12:10:18.254;599616188643848847;5491.749;-61
2024-05-14T12:10:18.262;599616188651540358;5499.4404;-73
2024-05-14T12:10:18.270;599616188659231869;5507.132;-47
2024-05-14T12:10:18.277;599616188666923380;5514.8237;-73
2024-05-14T12:10:18.285;599616188674614891;5522.515;-65
2024-05-14T12:10:18.293;599616188682306402;5530.2065;-25
2024-05-14T12:10:18.300;599616188689997913;5537.898;-18
2024-05-14T12:10:18.308;599616188697689424;5545.59;-9
2024-05-14T12:10:18.316;599616188705380935;5553.2812;25
2024-05-14T12:10:18.323;599616188713072446;5560.9727;35
2024-05-14T12:10:18.331;599616188720763957;5568.664;28
2024-05-14T12:10:18.339;599616188728455468;5576.356;63
2024-05-14T12:10:18.347;599616188736146979;5584.047;113
2024-05-14T12:10:18.354;599616188743838490;5591.739;127
2024-05-14T12:10:18.362;599616188751530001;5599.43;131
2024-05-14T12:10:18.370;599616188759221512;5607.122;155
2024-05-14T12:10:18.377;599616188766923066;5614.823;183
2024-05-14T12:10:18.385;599616188774614438;5622.5146;179
2024-05-14T12:10:18.393;599616188782305810;5630.206;131
2024-05-14T12:10:18.400;599616188789997182;5637.897;124
2024-05-14T12:10:18.408;599616188797688554;5645.589;150
2024-05-14T12:10:18.416;599616188805379926;5653.2803;110
2024-05-14T12:10:18.423;599616188813071298;5660.9717;73
2024-05-14T12:10:18.431;599616188820762670;5668.6626;120
2024-05-14T12:10:18.439;599616188828454042;5676.354;146
2024-05-14T12:10:18.447;599616188836145414;5684.046;70
2024-05-14T12:10:18.454;599616188843836786;5691.7373;-9
2024-05-14T12:10:18.462;599616188851528158;5699.428;-9
2024-05-14T12:10:18.470;599616188859219530;5707.1196;9
2024-05-14T12:10:18.477;599616188866910902;5714.811;4
2024-05-14T12:10:18.485;599616188874602274;5722.5024;21
2024-05-14T12:10:18.493;599616188882293646;5730.194;65
2024-05-14T12:10:18.500;599616188889985018;5737.8853;91
2024-05-14T12:10:18.508;599616188897676390;5745.5767;82
2024-05-14T12:10:18.516;599616188905367762;5753.268;91
2024-05-14T12:10:18.523;599616188913059134;5760.9595;131
2024-05-14T12:10:18.531;599616188920750506;5768.651;160
2024-05-14T12:10:18.539;599616188928441878;5776.342;169
2024-05-14T12:10:18.547;599616188936133250;5784.033;190
2024-05-14T12:10:18.554;599616188943824622;5791.725;209
2024-05-14T12:10:18.562;599616188951515994;5799.4165;212
2024-05-14T12:10:18.570;599616188959207366;5807.1074;221
2024-05-14T12:10:18.577;599616188966898738;5814.799;242
2024-05-14T12:10:18.585;599616188974590110;5822.49;275
2024-05-14T12:10:18.593;599616188982281482;5830.182;287
2024-05-14T12:10:18.600;599616188989972854;5837.873;261
2024-05-14T12:10:18.608;599616188997664226;5845.5645;261
2024-05-14T12:10:18.616;599616189005355598;5853.256;301
2024-05-14T12:10:18.623;599616189013046970;5860.947;320
2024-05-14T12:10:18.631;599616189020738342;5868.6387;313
2024-05-14T12:10:18.639;599616189028429714;5876.33;310
2024-05-14T12:10:18.647;599616189036121086;5884.0215;318
2024-05-14T12:10:18.654;599616189043812458;5891.7124;306
2024-05-14T12:10:18.662;599616189051503830;5899.4043;275
2024-05-14T12:10:18.670;599616189059195202;5907.0957;254
2024-05-14T12:10:18.677;599616189066886574;5914.7866;270
2024-05-14T12:10:18.685;599616189074577946;5922.478;285
2024-05-14T12:10:18.693;599616189082269318;5930.1694;249
2024-05-14T12:10:18.700;599616189089960690;5937.8613;209
2024-05-14T12:10:18.708;599616189097652062;5945.5522;214
2024-05-14T12:10:18.716;599616189105343434;5953.2437;221
2024-05-14T12:10:18.723;599616189113034806;5960.935;204
2024-05-14T12:10:18.731;599616189120726178;5968.626;200
2024-05-14T12:10:18.739;599616189128417550;5976.318;202
2024-05-14T12:10:18.747;599616189136108922;5984.0093;193
2024-05-14T12:10:18.754;599616189143800294;5991.7007;193
2024-05-14T12:10:18.762;599616189151491666;5999.3916;219
2024-05-14T12:10:18.770;599616189159183038;6007.083;226
2024-05-14T12:10:18.777;599616189166874410;6014.775;174
2024-05-14T12:10:18.785;599616189174565782;6022.466;167
2024-05-14T12:10:18.793;599616189182257154;6030.157;381
2024-05-14T12:10:18.800;599616189189948526;6037.8486;824
2024-05-14T12:10:18.808;599616189197639898;6045.5405;1163
2024-05-14T12:10:18.816;599616189205331270;6053.2314;982
2024-05-14T12:10:18.823;599616189213022642;6060.923;407
2024-05-14T12:10:18.831;599616189220714014;6068.6143;51
2024-05-14T12:10:18.839;599616189228405386;6076.305;80
2024-05-14T12:10:18.846;599616189236096758;6083.997;87
2024-05-14T12:10:18.854;599616189243788130;6091.6885;-21
2024-05-14T12:10:18.862;599616189251479502;6099.38;-40
2024-05-14T12:10:18.870;599616189259170874;6107.071;-32
2024-05-14T12:10:18.877;599616189266862246;6114.762;-75
2024-05-14T12:10:18.885;599616189274553618;6122.454;-98
2024-05-14T12:10:18.893;599616189282244990;6130.1455;-155
2024-05-14T12:10:18.900;599616189289936362;6137.8364;-242
2024-05-14T12:10:18.908;599616189297627734;6145.528;-275
2024-05-14T12:10:18.916;599616189305319106;6153.2197;-273
2024-05-14T12:10:18.923;599616189313010478;6160.9106;-266
2024-05-14T12:10:18.931;599616189320701850;6168.602;-247
2024-05-14T12:10:18.939;599616189328393230;6176.2935;-202
2024-05-14T12:10:18.946;599616189336084602;6183.985;-143
2024-05-14T12:10:18.954;599616189343775974;6191.6763;-108
2024-05-14T12:10:18.962;599616189351467346;6199.3677;-96
2024-05-14T12:10:18.970;599616189359158718;6207.059;-80
2024-05-14T12:10:18.977;599616189366850090;6214.75;-44
2024-05-14T12:10:18.985;599616189374541462;6222.4414;-35
2024-05-14T12:10:18.993;599616189382232834;6230.1333;-68
2024-05-14T12:10:19.000;599616189389924206;6237.8247;-44
2024-05-14T12:10:19.008;599616189397615578;6245.5156;7
2024-05-14T12:10:19.016;599616189405306950;6253.207;-2
2024-05-14T12:10:19.023;599616189412998322;6260.8984;-9
2024-05-14T12:10:19.031;599616189420689694;6268.59;35
2024-05-14T12:10:19.039;599616189428381066;6276.2812;70
2024-05-14T12:10:19.046;599616189436072438;6283.9727;63
2024-05-14T12:10:19.054;599616189443763810;6291.664;51
2024-05-14T12:10:19.062;599616189451455182;6299.3555;47
2024-05-14T12:10:19.070;599616189459146554;6307.047;47
2024-05-14T12:10:19.077;599616189466837926;6314.7383;56
2024-05-14T12:10:19.085;599616189474529298;6322.429;84
2024-05-14T12:10:19.093;599616189482220670;6330.1206;122
2024-05-14T12:10:19.100;599616189489912042;6337.8125;148
2024-05-14T12:10:19.108;599616189497603414;6345.504;143
2024-05-14T12:10:19.116;599616189505294786;6353.195;139
2024-05-14T12:10:19.123;599616189512986158;6360.886;171
2024-05-14T12:10:19.131;599616189520677530;6368.5776;216
2024-05-14T12:10:19.139;599616189528368902;6376.2695;221
2024-05-14T12:10:19.146;599616189536060274;6383.9604;204
2024-05-14T12:10:19.154;599616189543751646;6391.652;171
2024-05-14T12:10:19.162;599616189551443018;6399.3433;131
2024-05-14T12:10:19.170;599616189559134390;6407.034;131
2024-05-14T12:10:19.177;599616189566825762;6414.726;162
2024-05-14T12:10:19.185;599616189574517134;6422.4175;190
2024-05-14T12:10:19.193;599616189582208506;6430.109;202
2024-05-14T12:10:19.200;599616189589899878;6437.8;197
2024-05-14T12:10:19.208;599616189597591250;6445.4917;212
2024-05-14T12:10:19.216;599616189605282622;6453.183;247
2024-05-14T12:10:19.223;599616189612973994;6460.874;261
2024-05-14T12:10:19.231;599616189620665366;6468.5654;263
2024-05-14T12:10:19.239;599616189628356738;6476.257;273
2024-05-14T12:10:19.246;599616189636048110;6483.9487;278
2024-05-14T12:10:19.254;599616189643739482;6491.6396;282
2024-05-14T12:10:19.262;599616189651430854;6499.331;289
2024-05-14T12:10:19.270;599616189659122226;6507.0225;308
2024-05-14T12:10:19.277;599616189666813598;6514.7134;327
2024-05-14T12:10:19.285;599616189674504970;6522.4053;299
2024-05-14T12:10:19.293;599616189682196342;6530.0967;240
2024-05-14T12:10:19.300;599616189689887714;6537.788;237
2024-05-14T12:10:19.308;599616189697579086;6545.479;268
2024-05-14T12:10:19.316;599616189705270458;6553.1704;249
2024-05-14T12:10:19.323;599616189712961830;6560.8623;240
2024-05-14T12:10:19.331;599616189720653202;6568.5537;266
2024-05-14T12:10:19.339;599616189728344574;6576.2446;247
2024-05-14T12:10:19.346;599616189736035946;6583.936;193
2024-05-14T12:10:19.354;599616189743727318;6591.628;195
2024-05-14T12:10:19.362;599616189751418690;6599.319;386
2024-05-14T12:10:19.370;599616189759110062;6607.0103;808
2024-05-14T12:10:19.377;599616189766801434;6614.7017;1192
2024-05-14T12:10:19.385;599616189774492806;6622.393;1074
2024-05-14T12:10:19.393;599616189782184178;6630.0845;426
2024-05-14T12:10:19.400;599616189789875550;6637.776;-108
2024-05-14T12:10:19.408;599616189797566922;6645.4673;-129
2024-05-14T12:10:19.416;599616189805258294;6653.158;-68
2024-05-14T12:10:19.423;599616189812949666;6660.8496;-167
2024-05-14T12:10:19.431;599616189820641038;6668.5415;-221
2024-05-14T12:10:19.439;599616189828332410;6676.233;-226
2024-05-14T12:10:19.446;599616189836023782;6683.924;-237
2024-05-14T12:10:19.454;599616189843715154;6691.615;-207
2024-05-14T12:10:19.462;599616189851406526;6699.3066;-171
2024-05-14T12:10:19.469;599616189859097898;6706.998;-176
2024-05-14T12:10:19.477;599616189866789270;6714.6895;-181
2024-05-14T12:10:19.485;599616189874480642;6722.381;-153
2024-05-14T12:10:19.493;599616189882172014;6730.0723;-113
2024-05-14T12:10:19.500;599616189889863394;6737.7637;-87
2024-05-14T12:10:19.508;599616189897554766;6745.455;-58
2024-05-14T12:10:19.516;599616189905246138;6753.1465;-37
2024-05-14T12:10:19.523;599616189912937510;6760.8374;-58
2024-05-14T12:10:19.531;599616189920628882;6768.529;-108
2024-05-14T12:10:19.539;599616189928320254;6776.2207;-96
2024-05-14T12:10:19.546;599616189936011626;6783.912;-21
2024-05-14T12:10:19.554;599616189943702998;6791.603;28
2024-05-14T12:10:19.562;599616189951394370;6799.2944;40
2024-05-14T12:10:19.569;599616189959085742;6806.986;63
2024-05-14T12:10:19.577;599616189966777114;6814.6777;96
2024-05-14T12:10:19.585;599616189974468486;6822.3687;124
2024-05-14T12:10:19.593;599616189982159858;6830.06;143
2024-05-14T12:10:19.600;599616189989851230;6837.7515;167
2024-05-14T12:10:19.608;599616189997542602;6845.443;176
2024-05-14T12:10:19.616;599616190005233974;6853.1343;141
2024-05-14T12:10:19.623;599616190012925346;6860.8257;110
2024-05-14T12:10:19.631;599616190020616718;6868.517;124
2024-05-14T12:10:19.639;599616190028308090;6876.208;124
2024-05-14T12:10:19.646;599616190035999462;6883.9;68
2024-05-14T12:10:19.654;599616190043690834;6891.5913;28
2024-05-14T12:10:19.662;599616190051382206;6899.282;51
2024-05-14T12:10:19.669;599616190059073578;6906.9736;77
2024-05-14T12:10:19.677;599616190066764950;6914.665;80
2024-05-14T12:10:19.685;599616190074456322;6922.357;101
2024-05-14T12:10:19.693;599616190082147694;6930.048;139
2024-05-14T12:10:19.700;599616190089839066;6937.7393;162
2024-05-14T12:10:19.708;599616190097530438;6945.4307;155
2024-05-14T12:10:19.716;599616190105221810;6953.1216;148
2024-05-14T12:10:19.723;599616190112913182;6960.8135;188
2024-05-14T12:10:19.731;599616190120604554;6968.505;228
2024-05-14T12:10:19.739;599616190128295926;6976.1963;230
2024-05-14T12:10:19.746;599616190135987298;6983.887;235
2024-05-14T12:10:19.754;599616190143678670;6991.579;247
2024-05-14T12:10:19.762;599616190151370042;6999.2705;259
2024-05-14T12:10:19.769;599616190159061414;7006.9614;263
2024-05-14T12:10:19.777;599616190166752786;7014.653;266
2024-05-14T12:10:19.785;599616190174444158;7022.344;294
2024-05-14T12:10:19.793;599616190182135530;7030.036;318
2024-05-14T12:10:19.800;599616190189826902;7037.727;301
2024-05-14T12:10:19.808;599616190197518274;7045.4185;287
2024-05-14T12:10:19.816;599616190205209646;7053.11;320
2024-05-14T12:10:19.823;599616190212901018;7060.801;355
2024-05-14T12:10:19.831;599616190220592390;7068.4927;358
2024-05-14T12:10:19.839;599616190228283762;7076.184;355
2024-05-14T12:10:19.846;599616190235975134;7083.8755;358
2024-05-14T12:10:19.854;599616190243666506;7091.5664;355
2024-05-14T12:10:19.862;599616190251357878;7099.258;369
2024-05-14T12:10:19.869;599616190259049250;7106.9497;384
2024-05-14T12:10:19.877;599616190266740622;7114.641;402
2024-05-14T12:10:19.885;599616190274431994;7122.332;421
2024-05-14T12:10:19.893;599616190282123366;7130.0234;372
2024-05-14T12:10:19.900;599616190289814738;7137.7153;259
2024-05-14T12:10:19.908;599616190297506110;7145.4062;193
2024-05-14T12:10:19.916;599616190305197482;7153.0977;188
2024-05-14T12:10:19.923;599616190312888854;7160.789;275
2024-05-14T12:10:19.931;599616190320580226;7168.4805;596
2024-05-14T12:10:19.939;599616190328271598;7176.172;1055
2024-05-14T12:10:19.946;599616190335962970;7183.8633;1156
2024-05-14T12:10:19.954;599616190343654342;7191.5547;638
2024-05-14T12:10:19.962;599616190351345714;7199.2456;75
2024-05-14T12:10:19.969;599616190359037086;7206.937;37
2024-05-14T12:10:19.977;599616190366728458;7214.629;171
2024-05-14T12:10:19.985;599616190374419830;7222.3203;98
2024-05-14T12:10:19.993;599616190382111202;7230.011;40
2024-05-14T12:10:20.000;599616190389802574;7237.7026;103
2024-05-14T12:10:20.008;599616190397493946;7245.394;122
2024-05-14T12:10:20.016;599616190405185318;7253.086;106
2024-05-14T12:10:20.023;599616190412876690;7260.777;129
2024-05-14T12:10:20.031;599616190420568062;7268.4683;141
2024-05-14T12:10:20.039;599616190428259434;7276.1597;124
2024-05-14T12:10:20.046;599616190435950806;7283.851;136
2024-05-14T12:10:20.054;599616190443642178;7291.5425;146
2024-05-14T12:10:20.062;599616190451303462;7299.2036;120
2024-05-14T12:10:20.069;599616190458995252;7306.8955;75
2024-05-14T12:10:20.077;599616190466687042;7314.587;32
2024-05-14T12:10:20.085;599616190474378832;7322.279;18
2024-05-14T12:10:20.092;599616190482070622;7329.9707;18
2024-05-14T12:10:20.100;599616190489762412;7337.6626;11
2024-05-14T12:10:20.108;599616190497454202;7345.354;40
2024-05-14T12:10:20.116;599616190505145992;7353.046;82
2024-05-14T12:10:20.123;599616190512837782;7360.738;37
2024-05-14T12:10:20.131;599616190520529572;7368.4297;-68
2024-05-14T12:10:20.139;599616190528221362;7376.1216;-115
2024-05-14T12:10:20.146;599616190535913152;7383.813;-106
2024-05-14T12:10:20.154;599616190543604942;7391.5054;-117
2024-05-14T12:10:20.162;599616190551296732;7399.1973;-139
2024-05-14T12:10:20.169;599616190558988522;7406.889;-139
2024-05-14T12:10:20.177;599616190566680312;7414.5806;-139
2024-05-14T12:10:20.185;599616190574372102;7422.2725;-157
2024-05-14T12:10:20.192;599616190582063892;7429.9644;-174
2024-05-14T12:10:20.200;599616190589755682;7437.6562;-155
2024-05-14T12:10:20.208;599616190597447472;7445.3477;-131
2024-05-14T12:10:20.216;599616190605139262;7453.0396;-157
2024-05-14T12:10:20.223;599616190612831052;7460.7314;-171
2024-05-14T12:10:20.231;599616190620522842;7468.4233;-127
2024-05-14T12:10:20.239;599616190628214632;7476.1147;-77
2024-05-14T12:10:20.246;599616190635906422;7483.8066;-58
2024-05-14T12:10:20.254;599616190643598212;7491.4985;-51
2024-05-14T12:10:20.262;599616190651290002;7499.1904;-30
2024-05-14T12:10:20.269;599616190658981792;7506.882;0
2024-05-14T12:10:20.277;599616190666673582;7514.5737;11
2024-05-14T12:10:20.285;599616190674365372;7522.2656;21
2024-05-14T12:10:20.292;599616190682057162;7529.9575;56
2024-05-14T12:10:20.300;599616190689748952;7537.649;91
2024-05-14T12:10:20.308;599616190697440742;7545.341;82
2024-05-14T12:10:20.316;599616190705132532;7553.0327;73
2024-05-14T12:10:20.323;599616190712824322;7560.7246;115
2024-05-14T12:10:20.331;599616190720516112;7568.416;148
2024-05-14T12:10:20.339;599616190728207902;7576.108;143
2024-05-14T12:10:20.346;599616190735899692;7583.8;148
2024-05-14T12:10:20.354;599616190743591482;7591.4917;160
2024-05-14T12:10:20.362;599616190751283272;7599.1836;164
2024-05-14T12:10:20.369;599616190758975062;7606.875;167
2024-05-14T12:10:20.377;599616190766666852;7614.567;157
2024-05-14T12:10:20.385;599616190774358642;7622.259;143
2024-05-14T12:10:20.392;599616190782050432;7629.9507;106
2024-05-14T12:10:20.400;599616190789742222;7637.642;21
2024-05-14T12:10:20.408;599616190797434012;7645.334;-23
2024-05-14T12:10:20.416;599616190805125802;7653.026;21
2024-05-14T12:10:20.423;599616190812817592;7660.718;61
2024-05-14T12:10:20.431;599616190820509382;7668.4097;61
2024-05-14T12:10:20.439;599616190828201172;7676.1016;89
2024-05-14T12:10:20.446;599616190835892962;7683.7935;124
2024-05-14T12:10:20.454;599616190843584752;7691.4854;113
2024-05-14T12:10:20.462;599616190851276542;7699.177;115
2024-05-14T12:10:20.469;599616190858968332;7706.8687;160
2024-05-14T12:10:20.477;599616190866660122;7714.5605;179
2024-05-14T12:10:20.485;599616190874351912;7722.2524;143
2024-05-14T12:10:20.492;599616190882043702;7729.944;162
2024-05-14T12:10:20.500;599616190889735492;7737.6357;435
2024-05-14T12:10:20.508;599616190897427282;7745.3276;921
2024-05-14T12:10:20.516;599616190905119072;7753.0195;1149
2024-05-14T12:10:20.523;599616190912810862;7760.711;765
2024-05-14T12:10:20.531;599616190920502652;7768.403;171
2024-05-14T12:10:20.539;599616190928194442;7776.0947;-14
2024-05-14T12:10:20.546;599616190935886232;7783.7866;87
2024-05-14T12:10:20.554;599616190943578022;7791.4785;75
2024-05-14T12:10:20.562;599616190951269812;7799.17;35
2024-05-14T12:10:20.569;599616190958961602;7806.862;94
2024-05-14T12:10:20.577;599616190966653392;7814.5537;108
2024-05-14T12:10:20.585;599616190974345182;7822.2456;70
2024-05-14T12:10:20.592;599616190982036972;7829.937;94
2024-05-14T12:10:20.600;599616190989728762;7837.629;143
2024-05-14T12:10:20.608;599616190997420552;7845.321;146
2024-05-14T12:10:20.616;599616191005112342;7853.0127;146
2024-05-14T12:10:20.623;599616191012834240;7860.7344;153
2024-05-14T12:10:20.631;599616191020525612;7868.426;75
2024-05-14T12:10:20.639;599616191028216984;7876.117;-30
2024-05-14T12:10:20.646;599616191035908356;7883.8086;-56
2024-05-14T12:10:20.654;599616191043599728;7891.5;-51
2024-05-14T12:10:20.662;599616191051291100;7899.1914;-56
2024-05-14T12:10:20.669;599616191058982472;7906.8823;-63
2024-05-14T12:10:20.677;599616191066673844;7914.5737;-68
2024-05-14T12:10:20.685;599616191074365216;7922.2656;-40
2024-05-14T12:10:20.692;599616191082056588;7929.957;-40
2024-05-14T12:10:20.700;599616191089747960;7937.648;-101
2024-05-14T12:10:20.708;599616191097439332;7945.3394;-110
2024-05-14T12:10:20.716;599616191105130704;7953.0312;-61
2024-05-14T12:10:20.723;599616191112822076;7960.7227;-75
2024-05-14T12:10:20.731;599616191120513448;7968.4136;-108
2024-05-14T12:10:20.739;599616191128204820;7976.105;-80
2024-05-14T12:10:20.746;599616191135896192;7983.7964;-47
2024-05-14T12:10:20.754;599616191143587564;7991.488;-54
2024-05-14T12:10:20.762;599616191151278936;7999.179;-75
2024-05-14T12:10:20.769;599616191158970308;8006.8706;-77
2024-05-14T12:10:20.777;599616191166661680;8014.562;-63
2024-05-14T12:10:20.785;599616191174353052;8022.253;-49
2024-05-14T12:10:20.792;599616191182044424;8029.945;-32
2024-05-14T12:10:20.800;599616191189735796;8037.636;9
2024-05-14T12:10:20.808;599616191197427168;8045.327;37
2024-05-14T12:10:20.816;599616191205118540;8053.0186;14
2024-05-14T12:10:20.823;599616191212809912;8060.71;4
2024-05-14T12:10:20.831;599616191220501284;8068.402;56
2024-05-14T12:10:20.839;599616191228192656;8076.093;106
2024-05-14T12:10:20.846;599616191235884028;8083.784;117
2024-05-14T12:10:20.854;599616191243575400;8091.4756;120
2024-05-14T12:10:20.862;599616191251266772;8099.167;129
2024-05-14T12:10:20.869;599616191258958144;8106.8584;129
2024-05-14T12:10:20.877;599616191266649516;8114.55;106
2024-05-14T12:10:20.885;599616191274340888;8122.241;98
2024-05-14T12:10:20.892;599616191282032260;8129.932;127
2024-05-14T12:10:20.900;599616191289723632;8137.624;122
2024-05-14T12:10:20.908;599616191297415004;8145.3154;37
2024-05-14T12:10:20.916;599616191305106376;8153.007;-9
2024-05-14T12:10:20.923;599616191312797748;8160.6978;40
2024-05-14T12:10:20.931;599616191320489120;8168.389;84
2024-05-14T12:10:20.939;599616191328180492;8176.081;75
2024-05-14T12:10:20.946;599616191335871864;8183.772;84
2024-05-14T12:10:20.954;599616191343563236;8191.4634;124
2024-05-14T12:10:20.962;599616191351254608;8199.154;141
2024-05-14T12:10:20.969;599616191358945980;8206.846;146
2024-05-14T12:10:20.977;599616191366637352;8214.538;181
2024-05-14T12:10:20.985;599616191374328724;8222.229;230
2024-05-14T12:10:20.992;599616191382020096;8229.92;247
2024-05-14T12:10:21.000;599616191389711468;8237.611;233
2024-05-14T12:10:21.008;599616191397402840;8245.304;237
2024-05-14T12:10:21.015;599616191405094212;8252.994;268
2024-05-14T12:10:21.023;599616191412785584;8260.686;292
2024-05-14T12:10:21.031;599616191420476956;8268.377;292
2024-05-14T12:10:21.039;599616191428168328;8276.068;289
2024-05-14T12:10:21.046;599616191435859700;8283.76;261
2024-05-14T12:10:21.054;599616191443551072;8291.451;273
2024-05-14T12:10:21.062;599616191451242444;8299.143;508
2024-05-14T12:10:21.069;599616191458933816;8306.834;982
2024-05-14T12:10:21.077;599616191466625188;8314.525;1328
2024-05-14T12:10:21.085;599616191474316560;8322.217;1109
2024-05-14T12:10:21.092;599616191482007932;8329.908;461
2024-05-14T12:10:21.100;599616191489699304;8337.6;89
2024-05-14T12:10:21.108;599616191497390676;8345.291;197
2024-05-14T12:10:21.115;599616191505082048;8352.982;252
2024-05-14T12:10:21.123;599616191512773420;8360.674;110
2024-05-14T12:10:21.131;599616191520464792;8368.365;63
2024-05-14T12:10:21.139;599616191528156164;8376.057;96
2024-05-14T12:10:21.146;599616191535847536;8383.748;77
2024-05-14T12:10:21.154;599616191543538908;8391.439;65
2024-05-14T12:10:21.162;599616191551230280;8399.131;113
2024-05-14T12:10:21.169;599616191558921652;8406.822;150
2024-05-14T12:10:21.177;599616191566613024;8414.513;139
2024-05-14T12:10:21.185;599616191574279348;8422.18;129
2024-05-14T12:10:21.192;599616191581971068;8429.871;153
2024-05-14T12:10:21.200;599616191589662788;8437.5625;186
2024-05-14T12:10:21.208;599616191597354508;8445.255;195
2024-05-14T12:10:21.215;599616191605046228;8452.946;204
2024-05-14T12:10:21.223;599616191612737948;8460.639;214
2024-05-14T12:10:21.231;599616191620429668;8468.33;164
2024-05-14T12:10:21.239;599616191628121388;8476.021;58
2024-05-14T12:10:21.246;599616191635813108;8483.714;-4
2024-05-14T12:10:21.254;599616191643504828;8491.405;-7
2024-05-14T12:10:21.262;599616191651196548;8499.097;-4
2024-05-14T12:10:21.269;599616191658888268;8506.788;-18
2024-05-14T12:10:21.277;599616191666579988;8514.48;-35
2024-05-14T12:10:21.285;599616191674271708;8522.172;-23
2024-05-14T12:10:21.292;599616191681963428;8529.863;-14
2024-05-14T12:10:21.300;599616191689655148;8537.556;-28
2024-05-14T12:10:21.308;599616191697346868;8545.247;-23
2024-05-14T12:10:21.315;599616191705038588;8552.939;-14
2024-05-14T12:10:21.323;599616191712730308;8560.631;-47
2024-05-14T12:10:21.331;599616191720422028;8568.322;-75
2024-05-14T12:10:21.339;599616191728113748;8576.014;-47
2024-05-14T12:10:21.346;599616191735805468;8583.706;-7
2024-05-14T12:10:21.354;599616191743497188;8591.397;4
2024-05-14T12:10:21.362;599616191751188908;8599.089;-9
2024-05-14T12:10:21.369;599616191758880628;8606.78;-56
2024-05-14T12:10:21.377;599616191766572348;8614.473;-98
2024-05-14T12:10:21.385;599616191774264068;8622.164;-80
2024-05-14T12:10:21.392;599616191781955788;8629.856;-47
2024-05-14T12:10:21.400;599616191789647508;8637.548;-25
2024-05-14T12:10:21.408;599616191797339228;8645.24;-14
2024-05-14T12:10:21.415;599616191805030948;8652.931;-80
2024-05-14T12:10:21.423;599616191812722668;8660.623;-155
2024-05-14T12:10:21.431;599616191820414388;8668.314;-115
2024-05-14T12:10:21.439;599616191828106108;8676.006;-47
2024-05-14T12:10:21.446;599616191835797828;8683.698;-37
2024-05-14T12:10:21.454;599616191843489548;8691.39;-40
2024-05-14T12:10:21.462;599616191851181268;8699.082;-14
2024-05-14T12:10:21.469;599616191858872988;8706.773;21
2024-05-14T12:10:21.477;599616191866564708;8714.465;32
2024-05-14T12:10:21.485;599616191874256428;8722.156;49
2024-05-14T12:10:21.492;599616191881948148;8729.849;94
2024-05-14T12:10:21.500;599616191889639868;8737.54;115
2024-05-14T12:10:21.508;599616191897331588;8745.231;98
2024-05-14T12:10:21.515;599616191905023308;8752.924;98
2024-05-14T12:10:21.523;599616191912715028;8760.615;143
2024-05-14T12:10:21.531;599616191920406748;8768.308;181
2024-05-14T12:10:21.538;599616191928098468;8775.998;186
2024-05-14T12:10:21.546;599616191935790188;8783.69;202
2024-05-14T12:10:21.554;599616191943481908;8791.382;235
2024-05-14T12:10:21.562;599616191951173628;8799.074;247
2024-05-14T12:10:21.569;599616191958865348;8806.766;245
2024-05-14T12:10:21.577;599616191966557068;8814.457;261
2024-05-14T12:10:21.585;599616191974248788;8822.149;299
2024-05-14T12:10:21.592;599616191981940508;8829.841;306
2024-05-14T12:10:21.600;599616191989632228;8837.532;280
2024-05-14T12:10:21.608;599616191997323948;8845.224;263
2024-05-14T12:10:21.615;599616192005015668;8852.916;221
2024-05-14T12:10:21.623;599616192012707388;8860.607;162
2024-05-14T12:10:21.631;599616192020399108;8868.3;261
2024-05-14T12:10:21.638;599616192028090828;8875.991;636
2024-05-14T12:10:21.646;599616192035782548;8883.683;1074
2024-05-14T12:10:21.654;599616192043474268;8891.375;1128
2024-05-14T12:10:21.662;599616192051165988;8899.065;647
2024-05-14T12:10:21.669;599616192058857708;8906.758;157
2024-05-14T12:10:21.677;599616192066549428;8914.449;108
2024-05-14T12:10:21.685;599616192074241148;8922.142;169
2024-05-14T12:10:21.692;599616192081932868;8929.833;61
2024-05-14T12:10:21.700;599616192089624588;8937.525;21
2024-05-14T12:10:21.708;599616192097316308;8945.217;91
2024-05-14T12:10:21.715;599616192105008028;8952.908;94
2024-05-14T12:10:21.723;599616192112699748;8960.6;75
2024-05-14T12:10:21.731;599616192120391468;8968.291;108
2024-05-14T12:10:21.738;599616192128083188;8975.983;124
2024-05-14T12:10:21.746;599616192135795030;8983.695;110
2024-05-14T12:10:21.754;599616192143486471;8991.387;122
2024-05-14T12:10:21.762;599616192151177912;8999.078;160
2024-05-14T12:10:21.769;599616192158869353;9006.77;195
2024-05-14T12:10:21.777;599616192166560794;9014.462;193
2024-05-14T12:10:21.785;599616192174252235;9022.152;176
2024-05-14T12:10:21.792;599616192181943676;9029.844;204
2024-05-14T12:10:21.800;599616192189635117;9037.535;228
2024-05-14T12:10:21.808;599616192197326558;9045.227;164
2024-05-14T12:10:21.815;599616192205017999;9052.918;84
2024-05-14T12:10:21.823;599616192212709440;9060.61;82
2024-05-14T12:10:21.831;599616192220400881;9068.302;63
2024-05-14T12:10:21.838;599616192228092322;9075.992;-2
2024-05-14T12:10:21.846;599616192235783763;9083.684;2
2024-05-14T12:10:21.854;599616192243475204;9091.375;30
2024-05-14T12:10:21.862;599616192251166645;9099.066;-25
2024-05-14T12:10:21.869;599616192258858086;9106.759;-106
2024-05-14T12:10:21.877;599616192266549527;9114.45;-124
2024-05-14T12:10:21.885;599616192274240968;9122.142;-113
2024-05-14T12:10:21.892;599616192281932409;9129.832;-120
2024-05-14T12:10:21.900;599616192289623850;9137.523;-127
2024-05-14T12:10:21.908;599616192297315291;9145.216;-115
2024-05-14T12:10:21.915;599616192305006732;9152.907;-124
2024-05-14T12:10:21.923;599616192312698173;9160.599;-214
2024-05-14T12:10:21.931;599616192320389614;9168.29;-299
2024-05-14T12:10:21.938;599616192328081055;9175.981;-266
2024-05-14T12:10:21.946;599616192335772496;9183.672;-195
2024-05-14T12:10:21.954;599616192343463937;9191.364;-188
2024-05-14T12:10:21.962;599616192351155378;9199.056;-190
2024-05-14T12:10:21.969;599616192358846819;9206.747;-162
2024-05-14T12:10:21.977;599616192366538260;9214.438;-127
2024-05-14T12:10:21.985;599616192374229701;9222.13;-94
2024-05-14T12:10:21.992;599616192381921142;9229.821;-63
2024-05-14T12:10:22.000;599616192389612583;9237.514;-32
2024-05-14T12:10:22.008;599616192397304024;9245.204;-7
2024-05-14T12:10:22.015;599616192404995465;9252.8955;-9
2024-05-14T12:10:22.023;599616192412686906;9260.587;-11
2024-05-14T12:10:22.031;599616192420378347;9268.278;28
2024-05-14T12:10:22.038;599616192428069788;9275.97;70
2024-05-14T12:10:22.046;599616192435761229;9283.662;89
2024-05-14T12:10:22.054;599616192443452670;9291.354;96
2024-05-14T12:10:22.062;599616192451144111;9299.044;101
2024-05-14T12:10:22.069;599616192458835552;9306.735;115
2024-05-14T12:10:22.077;599616192466526993;9314.427;129
2024-05-14T12:10:22.085;599616192474218434;9322.119;141
2024-05-14T12:10:22.092;599616192481909875;9329.811;167
2024-05-14T12:10:22.100;599616192489601316;9337.502;176
2024-05-14T12:10:22.108;599616192497292757;9345.193;139
2024-05-14T12:10:22.115;599616192504984198;9352.884;106
2024-05-14T12:10:22.123;599616192512675639;9360.575;139
2024-05-14T12:10:22.131;599616192520367080;9368.268;190
2024-05-14T12:10:22.138;599616192528058521;9375.959;200
2024-05-14T12:10:22.146;599616192535749962;9383.65;200
2024-05-14T12:10:22.154;599616192543441403;9391.342;212
2024-05-14T12:10:22.162;599616192551132844;9399.033;219
2024-05-14T12:10:22.169;599616192558824285;9406.724;226
2024-05-14T12:10:22.177;599616192566515726;9414.416;247
2024-05-14T12:10:22.185;599616192574207167;9422.107;278
2024-05-14T12:10:22.192;599616192581898608;9429.799;282
2024-05-14T12:10:22.200;599616192589590049;9437.49;233
2024-05-14T12:10:22.208;599616192597281490;9445.182;209
2024-05-14T12:10:22.215;599616192604972931;9452.873;346
2024-05-14T12:10:22.223;599616192612664372;9460.565;709
2024-05-14T12:10:22.231;599616192620355813;9468.256;1133
2024-05-14T12:10:22.238;599616192628047254;9475.947;1199
2024-05-14T12:10:22.246;599616192635738695;9483.639;739
2024-05-14T12:10:22.254;599616192643430136;9491.33;245
2024-05-14T12:10:22.262;599616192651121577;9499.021;188
2024-05-14T12:10:22.269;599616192658813018;9506.714;301
2024-05-14T12:10:22.277;599616192666504459;9514.405;228
2024-05-14T12:10:22.285;599616192674195900;9522.096;124
2024-05-14T12:10:22.292;599616192681887341;9529.787;124
2024-05-14T12:10:22.300;599616192689578782;9537.479;141
2024-05-14T12:10:22.308;599616192697275248;9545.175;146
2024-05-14T12:10:22.315;599616192704966620;9552.867;150
2024-05-14T12:10:22.323;599616192712657992;9560.559;148
2024-05-14T12:10:22.331;599616192720349364;9568.25;160
2024-05-14T12:10:22.338;599616192728040736;9575.941;167
2024-05-14T12:10:22.346;599616192735732108;9583.633;160
2024-05-14T12:10:22.354;599616192743423480;9591.323;148
2024-05-14T12:10:22.362;599616192751114852;9599.015;136
2024-05-14T12:10:22.369;599616192758806224;9606.706;131
2024-05-14T12:10:22.377;599616192766497596;9614.397;91
2024-05-14T12:10:22.385;599616192774188968;9622.089;32
2024-05-14T12:10:22.392;599616192781880340;9629.781;51
2024-05-14T12:10:22.400;599616192789571712;9637.473;94
2024-05-14T12:10:22.408;599616192797263084;9645.163;70
2024-05-14T12:10:22.415;599616192804954456;9652.8545;44
2024-05-14T12:10:22.423;599616192812645828;9660.546;25
2024-05-14T12:10:22.431;599616192820337200;9668.237;-87
2024-05-14T12:10:22.438;599616192828028572;9675.929;-216
2024-05-14T12:10:22.446;599616192835719944;9683.62;-216
2024-05-14T12:10:22.454;599616192843411316;9691.312;-169
2024-05-14T12:10:22.462;599616192851102688;9699.003;-169
2024-05-14T12:10:22.469;599616192858794060;9706.694;-197
2024-05-14T12:10:22.477;599616192866485432;9714.386;-223
2024-05-14T12:10:22.485;599616192874176804;9722.077;-226
2024-05-14T12:10:22.492;599616192881868176;9729.769;-212
2024-05-14T12:10:22.500;599616192889559548;9737.46;-214
2024-05-14T12:10:22.508;599616192897250920;9745.151;-190
2024-05-14T12:10:22.515;599616192904942292;9752.842;-153
2024-05-14T12:10:22.523;599616192912633664;9760.533;-162
2024-05-14T12:10:22.531;599616192920325036;9768.225;-176
2024-05-14T12:10:22.538;599616192928016408;9775.917;-136
2024-05-14T12:10:22.546;599616192935707780;9783.608;-87
2024-05-14T12:10:22.554;599616192943399152;9791.3;-73
2024-05-14T12:10:22.561;599616192951090524;9798.991;-73
2024-05-14T12:10:22.569;599616192958781896;9806.682;-51
2024-05-14T12:10:22.577;599616192966473268;9814.373;-35
2024-05-14T12:10:22.585;599616192974164640;9822.064;-25
2024-05-14T12:10:22.592;599616192981856012;9829.756;-16
2024-05-14T12:10:22.600;599616192989547384;9837.447;-25
2024-05-14T12:10:22.608;599616192997238756;9845.14;-58
2024-05-14T12:10:22.615;599616193004930128;9852.831;-80
2024-05-14T12:10:22.623;599616193012621500;9860.522;-63
2024-05-14T12:10:22.631;599616193020312872;9868.213;-28
2024-05-14T12:10:22.638;599616193028004244;9875.904;-4
2024-05-14T12:10:22.646;599616193035695616;9883.596;4
2024-05-14T12:10:22.654;599616193043386988;9891.287;7
2024-05-14T12:10:22.661;599616193051078360;9898.979;7
2024-05-14T12:10:22.669;599616193058769732;9906.67;16
2024-05-14T12:10:22.677;599616193066461104;9914.36;49
2024-05-14T12:10:22.685;599616193074152476;9922.053;82
2024-05-14T12:10:22.692;599616193081843848;9929.744;108
2024-05-14T12:10:22.700;599616193089535220;9937.436;139
2024-05-14T12:10:22.708;599616193097226592;9945.127;129
2024-05-14T12:10:22.715;599616193104917964;9952.818;110
2024-05-14T12:10:22.723;599616193112609336;9960.51;155
2024-05-14T12:10:22.731;599616193120300708;9968.201;209
2024-05-14T12:10:22.738;599616193127992080;9975.892;202
2024-05-14T12:10:22.746;599616193135683452;9983.583;195
2024-05-14T12:10:22.754;599616193143374824;9991.275;209
2024-05-14T12:10:22.761;599616193151066196;9998.967;195
2024-05-14T12:10:22.769;599616193158757568;10006.658;157
2024-05-14T12:10:22.777;599616193166448940;10014.35;202
2024-05-14T12:10:22.785;599616193174140312;10022.041;494
2024-05-14T12:10:22.792;599616193181831684;10029.731;987
2024-05-14T12:10:22.800;599616193189523056;10037.423;1251
2024-05-14T12:10:22.808;599616193197214428;10045.114;937
2024-05-14T12:10:22.815;599616193204905800;10052.806;360
2024-05-14T12:10:22.823;599616193212597172;10060.497;129
2024-05-14T12:10:22.831;599616193220288544;10068.189;242
2024-05-14T12:10:22.838;599616193227979916;10075.881;254
2024-05-14T12:10:22.846;599616193235671288;10083.571;108
2024-05-14T12:10:22.854;599616193243362660;10091.263;28
2024-05-14T12:10:22.861;599616193251054032;10098.954;40
2024-05-14T12:10:22.869;599616193258745414;10106.6455;63
2024-05-14T12:10:22.877;599616193266436786;10114.337;82
2024-05-14T12:10:22.885;599616193274128158;10122.028;82
2024-05-14T12:10:22.892;599616193281819530;10129.72;51
2024-05-14T12:10:22.900;599616193289510902;10137.411;56
2024-05-14T12:10:22.908;599616193297202274;10145.103;103
2024-05-14T12:10:22.915;599616193304893646;10152.794;77
2024-05-14T12:10:22.923;599616193312585018;10160.485;-9
2024-05-14T12:10:22.931;599616193320276390;10168.177;-77
2024-05-14T12:10:22.938;599616193327967762;10175.868;-139
2024-05-14T12:10:22.946;599616193335659134;10183.56;-155
2024-05-14T12:10:22.954;599616193343350506;10191.25;-98
2024-05-14T12:10:22.961;599616193351041878;10198.941;-40
2024-05-14T12:10:22.969;599616193358733250;10206.634;-7
2024-05-14T12:10:22.977;599616193366424622;10214.325;-21
2024-05-14T12:10:22.985;599616193374115994;10222.017;-51
2024-05-14T12:10:22.992;599616193381807366;10229.708;-54
2024-05-14T12:10:23.000;599616193389498738;10237.399;-73
2024-05-14T12:10:23.008;599616193397190110;10245.09;-91
2024-05-14T12:10:23.015;599616193404881482;10252.781;-82
2024-05-14T12:10:23.023;599616193412572854;10260.473;-82
2024-05-14T12:10:23.031;599616193420264226;10268.164;-115
2024-05-14T12:10:23.038;599616193427955598;10275.855;-157
2024-05-14T12:10:23.046;599616193435646970;10283.548;-162
2024-05-14T12:10:23.054;599616193443338342;10291.239;-143
2024-05-14T12:10:23.061;599616193451029714;10298.931;-141
2024-05-14T12:10:23.069;599616193458721086;10306.621;-157
2024-05-14T12:10:23.077;599616193466412458;10314.3125;-174
2024-05-14T12:10:23.085;599616193474103830;10322.004;-164
2024-05-14T12:10:23.092;599616193481795202;10329.695;-169
2024-05-14T12:10:23.100;599616193489486574;10337.387;-209
2024-05-14T12:10:23.108;599616193497177946;10345.078;-200
2024-05-14T12:10:23.115;599616193504869318;10352.7705;-148
2024-05-14T12:10:23.123;599616193512560690;10360.461;-136
2024-05-14T12:10:23.131;599616193520252062;10368.152;-143
2024-05-14T12:10:23.138;599616193527943434;10375.844;-113
2024-05-14T12:10:23.146;599616193535634806;10383.535;-68
2024-05-14T12:10:23.154;599616193543326178;10391.227;-49
2024-05-14T12:10:23.161;599616193551017550;10398.918;-47
2024-05-14T12:10:23.169;599616193558708922;10406.609;-35
2024-05-14T12:10:23.177;599616193566400294;10414.3;-11
2024-05-14T12:10:23.184;599616193574091666;10421.991;11
2024-05-14T12:10:23.192;599616193581783038;10429.684;28
2024-05-14T12:10:23.200;599616193589474410;10437.375;56
2024-05-14T12:10:23.208;599616193597165782;10445.066;82
2024-05-14T12:10:23.215;599616193604857154;10452.758;75
2024-05-14T12:10:23.223;599616193612548526;10460.449;65
2024-05-14T12:10:23.231;599616193620239898;10468.14;94
2024-05-14T12:10:23.238;599616193627931270;10475.831;127
2024-05-14T12:10:23.246;599616193635622642;10483.522;141
2024-05-14T12:10:23.254;599616193643314014;10491.214;146
2024-05-14T12:10:23.261;599616193651005386;10498.906;157
2024-05-14T12:10:23.269;599616193658696758;10506.598;171
2024-05-14T12:10:23.277;599616193666388130;10514.289;181
2024-05-14T12:10:23.284;599616193674079502;10521.9795;204
2024-05-14T12:10:23.292;599616193681770874;10529.671;237
2024-05-14T12:10:23.300;599616193689462246;10537.362;249
2024-05-14T12:10:23.308;599616193697153618;10545.054;233
2024-05-14T12:10:23.315;599616193704844990;10552.745;230
2024-05-14T12:10:23.323;599616193712536362;10560.437;259
2024-05-14T12:10:23.331;599616193720227734;10568.128;287
2024-05-14T12:10:23.338;599616193727919106;10575.819;254
2024-05-14T12:10:23.346;599616193735610478;10583.511;181
2024-05-14T12:10:23.354;599616193743301850;10591.202;153
2024-05-14T12:10:23.361;599616193750993222;10598.894;292
2024-05-14T12:10:23.369;599616193758684594;10606.585;673
2024-05-14T12:10:23.377;599616193766375966;10614.276;1128
2024-05-14T12:10:23.384;599616193774067338;10621.968;1208
2024-05-14T12:10:23.392;599616193781758710;10629.658;704
2024-05-14T12:10:23.400;599616193789450082;10637.35;146
2024-05-14T12:10:23.408;599616193797141454;10645.042;80
2024-05-14T12:10:23.415;599616193804832826;10652.733;190
2024-05-14T12:10:23.423;599616193812524198;10660.425;120
2024-05-14T12:10:23.431;599616193820185482;10668.085;28
2024-05-14T12:10:23.438;599616193827877272;10675.777;-16
2024-05-14T12:10:23.446;599616193835569062;10683.469;-61
2024-05-14T12:10:23.454;599616193843260852;10691.161;-58
2024-05-14T12:10:23.461;599616193850952642;10698.854;-32
2024-05-14T12:10:23.469;599616193858644432;10706.545;-16
2024-05-14T12:10:23.477;599616193866336222;10714.237;14
2024-05-14T12:10:23.484;599616193874028012;10721.928;30
2024-05-14T12:10:23.492;599616193881719802;10729.62;21
2024-05-14T12:10:23.500;599616193889411592;10737.312;35
2024-05-14T12:10:23.508;599616193897103382;10745.004;75
2024-05-14T12:10:23.515;599616193904795172;10752.695;54
2024-05-14T12:10:23.523;599616193912486962;10760.388;-2
2024-05-14T12:10:23.531;599616193920178752;10768.079;7
2024-05-14T12:10:23.538;599616193927870542;10775.771;7
2024-05-14T12:10:23.546;599616193935562332;10783.462;-37
2024-05-14T12:10:23.554;599616193943254122;10791.154;-49
2024-05-14T12:10:23.561;599616193950945912;10798.846;-40
2024-05-14T12:10:23.569;599616193958637702;10806.538;-47
2024-05-14T12:10:23.577;599616193966329492;10814.2295;-51
2024-05-14T12:10:23.584;599616193974021282;10821.922;-84
2024-05-14T12:10:23.592;599616193981713072;10829.613;-136
2024-05-14T12:10:23.600;599616193989404862;10837.306;-148
2024-05-14T12:10:23.607;599616193997096652;10844.997;-146
2024-05-14T12:10:23.615;599616194004788442;10852.688;-143
2024-05-14T12:10:23.623;599616194012480232;10860.38;-127
2024-05-14T12:10:23.631;599616194020172022;10868.072;-136
2024-05-14T12:10:23.638;599616194027863812;10875.764;-176
2024-05-14T12:10:23.646;599616194035555602;10883.456;-174
2024-05-14T12:10:23.654;599616194043247392;10891.147;-134
2024-05-14T12:10:23.661;599616194050939182;10898.84;-106
2024-05-14T12:10:23.669;599616194058630972;10906.531;-124
2024-05-14T12:10:23.677;599616194066322762;10914.223;-146
2024-05-14T12:10:23.684;599616194074014552;10921.914;-120
2024-05-14T12:10:23.692;599616194081706342;10929.606;-77
2024-05-14T12:10:23.700;599616194089398132;10937.298;-51
2024-05-14T12:10:23.707;599616194097089922;10944.99;25
2024-05-14T12:10:23.715;599616194104781712;10952.682;146
2024-05-14T12:10:23.723;599616194112473502;10960.374;174
2024-05-14T12:10:23.731;599616194120165292;10968.065;136
2024-05-14T12:10:23.738;599616194127857082;10975.757;143
2024-05-14T12:10:23.746;599616194135548872;10983.449;136
2024-05-14T12:10:23.754;599616194143240662;10991.141;75
2024-05-14T12:10:23.761;599616194150932452;10998.833;51
2024-05-14T12:10:23.769;599616194158624242;11006.524;80
2024-05-14T12:10:23.777;599616194166316032;11014.217;91
2024-05-14T12:10:23.784;599616194174007822;11021.908;101
2024-05-14T12:10:23.792;599616194181699612;11029.601;122
2024-05-14T12:10:23.800;599616194189391402;11037.292;148
2024-05-14T12:10:23.807;599616194197083192;11044.983;171
2024-05-14T12:10:23.815;599616194204774982;11052.675;162
2024-05-14T12:10:23.823;599616194212466772;11060.367;139
2024-05-14T12:10:23.831;599616194220158562;11068.059;122
2024-05-14T12:10:23.838;599616194227850352;11075.751;101
2024-05-14T12:10:23.846;599616194235542142;11083.442;98
2024-05-14T12:10:23.854;599616194243233932;11091.135;113
2024-05-14T12:10:23.861;599616194250925722;11098.826;122
2024-05-14T12:10:23.869;599616194258617512;11106.518;148
2024-05-14T12:10:23.877;599616194266309302;11114.209;186
2024-05-14T12:10:23.884;599616194274001092;11121.901;212
2024-05-14T12:10:23.892;599616194281692882;11129.593;235
2024-05-14T12:10:23.900;599616194289384672;11137.285;254
2024-05-14T12:10:23.907;599616194297076462;11144.977;249
2024-05-14T12:10:23.915;599616194304768252;11152.669;252
2024-05-14T12:10:23.923;599616194312460042;11160.36;273
2024-05-14T12:10:23.931;599616194320151832;11168.052;254
2024-05-14T12:10:23.938;599616194327843622;11175.743;209
2024-05-14T12:10:23.946;599616194335535412;11183.436;322
2024-05-14T12:10:23.954;599616194343227202;11191.127;727
2024-05-14T12:10:23.961;599616194350918992;11198.819;1126
2024-05-14T12:10:23.969;599616194358610782;11206.511;1003
2024-05-14T12:10:23.977;599616194366302572;11214.203;409
2024-05-14T12:10:23.984;599616194373994362;11221.895;9
2024-05-14T12:10:23.992;599616194381716260;11229.616;51
2024-05-14T12:10:24.000;599616194389407632;11237.308;77
2024-05-14T12:10:24.007;599616194397099004;11245.0;-28
2024-05-14T12:10:24.015;599616194404790376;11252.691;-4
2024-05-14T12:10:24.023;599616194412481748;11260.382;56
2024-05-14T12:10:24.031;599616194420173120;11268.073;37
2024-05-14T12:10:24.038;599616194427864492;11275.765;35
2024-05-14T12:10:24.046;599616194435555864;11283.456;51
2024-05-14T12:10:24.054;599616194443247236;11291.147;16
2024-05-14T12:10:24.061;599616194450938608;11298.839;-44
2024-05-14T12:10:24.069;599616194458629980;11306.53;-54
2024-05-14T12:10:24.077;599616194466321352;11314.222;-44
2024-05-14T12:10:24.084;599616194474012724;11321.913;-89
2024-05-14T12:10:24.092;599616194481704096;11329.6045;-117
2024-05-14T12:10:24.100;599616194489395468;11337.296;-77
2024-05-14T12:10:24.107;599616194497086840;11344.987;-51
2024-05-14T12:10:24.115;599616194504778212;11352.679;-77
2024-05-14T12:10:24.123;599616194512469584;11360.37;-87
2024-05-14T12:10:24.131;599616194520160956;11368.061;-89
2024-05-14T12:10:24.138;599616194527852328;11375.752;-122
2024-05-14T12:10:24.146;599616194535543700;11383.443;-131
2024-05-14T12:10:24.154;599616194543235072;11391.136;-98
2024-05-14T12:10:24.161;599616194550926444;11398.827;-73
2024-05-14T12:10:24.169;599616194558617816;11406.519;-63
2024-05-14T12:10:24.177;599616194566309188;11414.21;-70
2024-05-14T12:10:24.184;599616194574000560;11421.9;-91
2024-05-14T12:10:24.192;599616194581691932;11429.592;-94
2024-05-14T12:10:24.200;599616194589383304;11437.283;-80
2024-05-14T12:10:24.207;599616194597074676;11444.975;-77
2024-05-14T12:10:24.215;599616194604766048;11452.666;-82
2024-05-14T12:10:24.223;599616194612457420;11460.358;-80
2024-05-14T12:10:24.231;599616194620148792;11468.05;-84
2024-05-14T12:10:24.238;599616194627840164;11475.74;-94
2024-05-14T12:10:24.246;599616194635531536;11483.432;-65
2024-05-14T12:10:24.254;599616194643222908;11491.123;-21
2024-05-14T12:10:24.261;599616194650914280;11498.814;2
2024-05-14T12:10:24.269;599616194658605652;11506.506;7
2024-05-14T12:10:24.277;599616194666297024;11514.197;16
2024-05-14T12:10:24.284;599616194673988396;11521.889;44
2024-05-14T12:10:24.292;599616194681679768;11529.579;70
2024-05-14T12:10:24.300;599616194689371140;11537.271;80
2024-05-14T12:10:24.307;599616194697062512;11544.963;98
2024-05-14T12:10:24.315;599616194704753884;11552.654;117
2024-05-14T12:10:24.323;599616194712445256;11560.346;91
2024-05-14T12:10:24.331;599616194720136628;11568.037;58
2024-05-14T12:10:24.338;599616194727828000;11575.729;70
2024-05-14T12:10:24.346;599616194735519372;11583.419;108
2024-05-14T12:10:24.354;599616194743210744;11591.11;131
2024-05-14T12:10:24.361;599616194750902116;11598.802;131
2024-05-14T12:10:24.369;599616194758593488;11606.494;136
2024-05-14T12:10:24.377;599616194766284860;11614.186;155
2024-05-14T12:10:24.384;599616194773976232;11621.877;171
2024-05-14T12:10:24.392;599616194781667604;11629.568;183
2024-05-14T12:10:24.400;599616194789358976;11637.259;207
2024-05-14T12:10:24.407;599616194797050348;11644.95;228
2024-05-14T12:10:24.415;599616194804741720;11652.642;219
2024-05-14T12:10:24.423;599616194812433092;11660.333;212
2024-05-14T12:10:24.431;599616194820124464;11668.024;237
2024-05-14T12:10:24.438;599616194827815836;11675.716;223
2024-05-14T12:10:24.446;599616194835507208;11683.408;136
2024-05-14T12:10:24.454;599616194843198580;11691.1;70
2024-05-14T12:10:24.461;599616194850889952;11698.79;94
2024-05-14T12:10:24.469;599616194858581324;11706.481;136
2024-05-14T12:10:24.477;599616194866272696;11714.173;146
2024-05-14T12:10:24.484;599616194873964068;11721.864;150
2024-05-14T12:10:24.492;599616194881655440;11729.556;186
2024-05-14T12:10:24.500;599616194889346812;11737.247;219
2024-05-14T12:10:24.507;599616194897038184;11744.9375;212
2024-05-14T12:10:24.515;599616194904729556;11752.63;204
2024-05-14T12:10:24.523;599616194912420928;11760.321;233
2024-05-14T12:10:24.531;599616194920112300;11768.013;249
2024-05-14T12:10:24.538;599616194927803672;11775.704;195
2024-05-14T12:10:24.546;599616194935495044;11783.3955;129
2024-05-14T12:10:24.554;599616194943186424;11791.087;223
2024-05-14T12:10:24.561;599616194950877796;11798.778;600
2024-05-14T12:10:24.569;599616194958569168;11806.469;1034
2024-05-14T12:10:24.577;599616194966260540;11814.16;1020
2024-05-14T12:10:24.584;599616194973951912;11821.852;487
2024-05-14T12:10:24.592;599616194981643284;11829.544;21
2024-05-14T12:10:24.600;599616194989334656;11837.235;-7
2024-05-14T12:10:24.607;599616194997026028;11844.927;82
2024-05-14T12:10:24.615;599616195004717400;11852.618;42
2024-05-14T12:10:24.623;599616195012408772;11860.309;2
2024-05-14T12:10:24.631;599616195020100144;11868.0;-14
2024-05-14T12:10:24.638;599616195027791516;11875.691;-54
2024-05-14T12:10:24.646;599616195035482888;11883.383;-54
2024-05-14T12:10:24.654;599616195043174260;11891.074;-30
2024-05-14T12:10:24.661;599616195050865632;11898.767;-30
2024-05-14T12:10:24.669;599616195058557004;11906.458;-28
2024-05-14T12:10:24.677;599616195066248376;11914.148;-30
2024-05-14T12:10:24.684;599616195073939748;11921.84;-68
2024-05-14T12:10:24.692;599616195081631120;11929.531;-122
2024-05-14T12:10:24.700;599616195089322492;11937.223;-150
2024-05-14T12:10:24.707;599616195097013864;11944.914;-127
2024-05-14T12:10:24.715;599616195104705236;11952.605;-106
2024-05-14T12:10:24.723;599616195112396608;11960.297;-101
2024-05-14T12:10:24.730;599616195120087980;11967.987;-75
2024-05-14T12:10:24.738;599616195127779352;11975.68;-51
2024-05-14T12:10:24.746;599616195135470724;11983.371;-44
2024-05-14T12:10:24.754;599616195143162096;11991.0625;-21
2024-05-14T12:10:24.761;599616195150853468;11998.754;18
2024-05-14T12:10:24.769;599616195158544840;12006.445;51
2024-05-14T12:10:24.777;599616195166236212;12014.137;51
2024-05-14T12:10:24.784;599616195173927584;12021.827;37
2024-05-14T12:10:24.792;599616195181618956;12029.519;47
2024-05-14T12:10:24.800;599616195189310328;12037.21;58
2024-05-14T12:10:24.807;599616195197001700;12044.902;37
2024-05-14T12:10:24.815;599616195204693072;12052.594;-9
2024-05-14T12:10:24.823;599616195212384444;12060.285;-58
2024-05-14T12:10:24.830;599616195220075816;12067.977;-84
2024-05-14T12:10:24.838;599616195227767188;12075.667;-80
2024-05-14T12:10:24.846;599616195235458560;12083.358;-58
2024-05-14T12:10:24.854;599616195243149932;12091.05;-28
2024-05-14T12:10:24.861;599616195250841304;12098.741;2
2024-05-14T12:10:24.869;599616195258532676;12106.433;9
2024-05-14T12:10:24.877;599616195266224048;12114.124;4
2024-05-14T12:10:24.884;599616195273915420;12121.816;30
2024-05-14T12:10:24.892;599616195281606792;12129.508;68
2024-05-14T12:10:24.900;599616195289298164;12137.198;80
2024-05-14T12:10:24.907;599616195296989536;12144.89;89
2024-05-14T12:10:24.915;599616195304680908;12152.581;117
2024-05-14T12:10:24.923;599616195312372280;12160.272;122
2024-05-14T12:10:24.930;599616195320063652;12167.964;115
2024-05-14T12:10:24.938;599616195327755024;12175.655;131
2024-05-14T12:10:24.946;599616195335446396;12183.346;136
2024-05-14T12:10:24.954;599616195343137768;12191.038;68
2024-05-14T12:10:24.961;599616195350829140;12198.7295;-11
2024-05-14T12:10:24.969;599616195358520512;12206.421;-2
2024-05-14T12:10:24.977;599616195366211884;12214.112;30
2024-05-14T12:10:24.984;599616195373903256;12221.804;35
2024-05-14T12:10:24.992;599616195381594628;12229.495;49
2024-05-14T12:10:25.000;599616195389286000;12237.187;89
2024-05-14T12:10:25.007;599616195396977372;12244.877;124
2024-05-14T12:10:25.015;599616195404668744;12252.568;117
2024-05-14T12:10:25.023;599616195412360116;12260.26;101
2024-05-14T12:10:25.030;599616195420051488;12267.952;136
2024-05-14T12:10:25.038;599616195427742860;12275.644;179
2024-05-14T12:10:25.046;599616195435434232;12283.335;183
2024-05-14T12:10:25.054;599616195443125604;12291.026;167
2024-05-14T12:10:25.061;599616195450816976;12298.717;139
2024-05-14T12:10:25.069;599616195458508348;12306.408;113
2024-05-14T12:10:25.077;599616195466199720;12314.1;106
2024-05-14T12:10:25.084;599616195473891092;12321.791;131
2024-05-14T12:10:25.092;599616195481582464;12329.482;167
2024-05-14T12:10:25.100;599616195489273836;12337.175;179
2024-05-14T12:10:25.107;599616195496965208;12344.866;160
2024-05-14T12:10:25.115;599616195504656588;12352.557;134
2024-05-14T12:10:25.123;599616195512347960;12360.248;117
2024-05-14T12:10:25.130;599616195520039332;12367.939;120
2024-05-14T12:10:25.138;599616195527730704;12375.631;120
2024-05-14T12:10:25.146;599616195535422076;12383.322;98
2024-05-14T12:10:25.154;599616195543113448;12391.014;56
2024-05-14T12:10:25.161;599616195550804820;12398.705;47
2024-05-14T12:10:25.169;599616195558496192;12406.396;193
2024-05-14T12:10:25.177;599616195566187564;12414.088;577
2024-05-14T12:10:25.184;599616195573878936;12421.779;947
2024-05-14T12:10:25.192;599616195581570308;12429.471;808
2024-05-14T12:10:25.200;599616195589261680;12437.162;221
2024-05-14T12:10:25.207;599616195596953052;12444.854;-113
2024-05-14T12:10:25.215;599616195604644424;12452.545;7
2024-05-14T12:10:25.223;599616195612335796;12460.235;82
2024-05-14T12:10:25.230;599616195620027168;12467.927;0
2024-05-14T12:10:25.238;599616195627718540;12475.618;-4
2024-05-14T12:10:25.246;599616195635409912;12483.311;4
2024-05-14T12:10:25.254;599616195643101284;12491.002;-56
2024-05-14T12:10:25.261;599616195650792656;12498.693;-87
2024-05-14T12:10:25.269;599616195658484028;12506.385;-94
2024-05-14T12:10:25.277;599616195666175400;12514.075;-110
2024-05-14T12:10:25.284;599616195673866772;12521.767;-122
2024-05-14T12:10:25.292;599616195681558144;12529.458;-136
2024-05-14T12:10:25.300;599616195689249516;12537.149;-134
2024-05-14T12:10:25.307;599616195696940888;12544.841;-131
2024-05-14T12:10:25.315;599616195704632260;12552.533;-169
2024-05-14T12:10:25.323;599616195712323632;12560.225;-188
2024-05-14T12:10:25.330;599616195720015004;12567.915;-146
2024-05-14T12:10:25.338;599616195727706376;12575.606;-122
2024-05-14T12:10:25.346;599616195735397748;12583.298;-117
2024-05-14T12:10:25.353;599616195743089120;12590.989;-73
2024-05-14T12:10:25.361;599616195750780492;12598.681;-14
2024-05-14T12:10:25.369;599616195758471864;12606.372;28
2024-05-14T12:10:25.377;599616195766163236;12614.063;42
2024-05-14T12:10:25.384;599616195773854608;12621.754;35
2024-05-14T12:10:25.392;599616195781545980;12629.446;54
2024-05-14T12:10:25.400;599616195789237352;12637.138;89
2024-05-14T12:10:25.407;599616195796928724;12644.829;96
2024-05-14T12:10:25.415;599616195804620096;12652.5205;89
2024-05-14T12:10:25.423;599616195812311468;12660.212;94
2024-05-14T12:10:25.430;599616195820002840;12667.903;84
2024-05-14T12:10:25.438;599616195827694212;12675.595;54
2024-05-14T12:10:25.446;599616195835385584;12683.285;28
2024-05-14T12:10:25.453;599616195843076956;12690.977;-30
2024-05-14T12:10:25.461;599616195850768328;12698.669;-98
2024-05-14T12:10:25.469;599616195858459700;12706.36;-106
2024-05-14T12:10:25.477;599616195866151072;12714.052;-84
2024-05-14T12:10:25.484;599616195873842444;12721.743;-61
2024-05-14T12:10:25.492;599616195881533816;12729.435;-16
2024-05-14T12:10:25.500;599616195889225188;12737.125;2
2024-05-14T12:10:25.507;599616195896916560;12744.816;16
2024-05-14T12:10:25.515;599616195904607932;12752.508;47
2024-05-14T12:10:25.523;599616195912299304;12760.199;56
2024-05-14T12:10:25.530;599616195919990676;12767.891;56
2024-05-14T12:10:25.538;599616195927682048;12775.583;82
2024-05-14T12:10:25.546;599616195935373420;12783.274;122
2024-05-14T12:10:25.553;599616195943064792;12790.965;124
2024-05-14T12:10:25.561;599616195950756164;12798.656;82
2024-05-14T12:10:25.569;599616195958447536;12806.348;70
2024-05-14T12:10:25.577;599616195966138908;12814.039;101
2024-05-14T12:10:25.584;599616195973830280;12821.73;122
2024-05-14T12:10:25.592;599616195981521652;12829.422;134
2024-05-14T12:10:25.600;599616195989213024;12837.113;162
2024-05-14T12:10:25.607;599616195996904396;12844.805;190
2024-05-14T12:10:25.615;599616196004595768;12852.496;183
2024-05-14T12:10:25.623;599616196012287140;12860.1875;174
2024-05-14T12:10:25.630;599616196019978512;12867.879;197
2024-05-14T12:10:25.638;599616196027669884;12875.57;223
2024-05-14T12:10:25.646;599616196035361256;12883.262;228
2024-05-14T12:10:25.653;599616196043052628;12890.953;221
2024-05-14T12:10:25.661;599616196050744000;12898.644;221
2024-05-14T12:10:25.669;599616196058435372;12906.335;228
2024-05-14T12:10:25.677;599616196066121784;12914.022;233
2024-05-14T12:10:25.684;599616196073813225;12921.714;252
2024-05-14T12:10:25.692;599616196081504666;12929.405;275
2024-05-14T12:10:25.700;599616196089196107;12937.097;230
2024-05-14T12:10:25.707;599616196096887548;12944.787;98
2024-05-14T12:10:25.715;599616196104578989;12952.479;14
2024-05-14T12:10:25.723;599616196112270430;12960.171;42
2024-05-14T12:10:25.730;599616196119961871;12967.862;75
2024-05-14T12:10:25.738;599616196127653312;12975.554;58
2024-05-14T12:10:25.746;599616196135344753;12983.245;61
2024-05-14T12:10:25.753;599616196143036194;12990.937;77
2024-05-14T12:10:25.761;599616196150727635;12998.628;68
2024-05-14T12:10:25.769;599616196158419076;13006.319;32
2024-05-14T12:10:25.777;599616196166110517;13014.011;18
2024-05-14T12:10:25.784;599616196173801958;13021.702;150
2024-05-14T12:10:25.792;599616196181493399;13029.394;532
2024-05-14T12:10:25.800;599616196189184840;13037.085;975
2024-05-14T12:10:25.807;599616196196876281;13044.777;1027
2024-05-14T12:10:25.815;599616196204567722;13052.468;537
2024-05-14T12:10:25.823;599616196212259163;13060.159;0
2024-05-14T12:10:25.830;599616196219950604;13067.851;-91
2024-05-14T12:10:25.838;599616196227642045;13075.542;11
2024-05-14T12:10:25.846;599616196235333486;13083.233;-51
2024-05-14T12:10:25.853;599616196243024927;13090.926;-167
2024-05-14T12:10:25.861;599616196250716368;13098.617;-183
2024-05-14T12:10:25.869;599616196258407809;13106.308;-155
2024-05-14T12:10:25.876;599616196266099250;13113.999;-139
2024-05-14T12:10:25.884;599616196273790691;13121.69;-136
2024-05-14T12:10:25.892;599616196281482132;13129.382;-146
2024-05-14T12:10:25.900;599616196289173573;13137.074;-143
2024-05-14T12:10:25.907;599616196296865014;13144.766;-108
2024-05-14T12:10:25.915;599616196304556455;13152.457;-75
2024-05-14T12:10:25.923;599616196312247896;13160.148;-61
2024-05-14T12:10:25.930;599616196319939337;13167.839;-37
2024-05-14T12:10:25.938;599616196327630778;13175.53;-16
2024-05-14T12:10:25.946;599616196335322219;13183.223;-16
2024-05-14T12:10:25.953;599616196343013660;13190.914;-11
2024-05-14T12:10:25.961;599616196350705101;13198.605;-28
2024-05-14T12:10:25.969;599616196358396542;13206.297;-77
2024-05-14T12:10:25.976;599616196366087983;13213.988;-87
2024-05-14T12:10:25.984;599616196373779424;13221.68;-51
2024-05-14T12:10:25.992;599616196381470865;13229.371;-7
2024-05-14T12:10:26.000;599616196389162306;13237.0625;32
2024-05-14T12:10:26.007;599616196396853747;13244.754;58
2024-05-14T12:10:26.015;599616196404545188;13252.445;82
2024-05-14T12:10:26.023;599616196412236629;13260.137;108
2024-05-14T12:10:26.030;599616196419928070;13267.829;110
2024-05-14T12:10:26.038;599616196427619511;13275.52;94
2024-05-14T12:10:26.046;599616196435310952;13283.211;51
2024-05-14T12:10:26.053;599616196443002393;13290.902;-7
2024-05-14T12:10:26.061;599616196450693834;13298.594;-32
2024-05-14T12:10:26.069;599616196458385275;13306.285;-30
2024-05-14T12:10:26.076;599616196466076716;13313.978;-47
2024-05-14T12:10:26.084;599616196473768157;13321.669;-32
2024-05-14T12:10:26.092;599616196481459598;13329.36;21
2024-05-14T12:10:26.100;599616196489151039;13337.051;44
2024-05-14T12:10:26.107;599616196496842480;13344.742;58
2024-05-14T12:10:26.115;599616196504533921;13352.434;94
2024-05-14T12:10:26.123;599616196512225362;13360.126;94
2024-05-14T12:10:26.130;599616196519916803;13367.817;84
2024-05-14T12:10:26.138;599616196527608244;13375.509;122
2024-05-14T12:10:26.146;599616196535299685;13383.2;169
2024-05-14T12:10:26.153;599616196542991126;13390.891;186
2024-05-14T12:10:26.161;599616196550682567;13398.583;171
2024-05-14T12:10:26.169;599616196558374008;13406.274;171
2024-05-14T12:10:26.176;599616196566065449;13413.966;197
2024-05-14T12:10:26.184;599616196573756890;13421.657;214
2024-05-14T12:10:26.192;599616196581448331;13429.349;216
2024-05-14T12:10:26.200;599616196589139772;13437.04;230
2024-05-14T12:10:26.207;599616196596831213;13444.731;259
2024-05-14T12:10:26.215;599616196604522654;13452.423;254
2024-05-14T12:10:26.223;599616196612214095;13460.114;235
2024-05-14T12:10:26.230;599616196619905536;13467.806;263
2024-05-14T12:10:26.238;599616196627607042;13475.507;301
2024-05-14T12:10:26.246;599616196635298344;13483.198;299
2024-05-14T12:10:26.253;599616196642989646;13490.89;287
2024-05-14T12:10:26.261;599616196650680948;13498.581;254
2024-05-14T12:10:26.269;599616196658372250;13506.272;188
2024-05-14T12:10:26.276;599616196666063552;13513.964;117
2024-05-14T12:10:26.284;599616196673754854;13521.654;63
2024-05-14T12:10:26.292;599616196681446156;13529.346;32
2024-05-14T12:10:26.300;599616196689137458;13537.037;-2
2024-05-14T12:10:26.307;599616196696828760;13544.729;-40
2024-05-14T12:10:26.315;599616196704520062;13552.42;-32
2024-05-14T12:10:26.323;599616196712211364;13560.111;-2
2024-05-14T12:10:26.330;599616196719902666;13567.804;23
2024-05-14T12:10:26.338;599616196727593968;13575.495;35
2024-05-14T12:10:26.346;599616196735285270;13583.186;42
2024-05-14T12:10:26.353;599616196742976572;13590.877;51
2024-05-14T12:10:26.361;599616196750667874;13598.568;54
2024-05-14T12:10:26.369;599616196758359176;13606.26;35
2024-05-14T12:10:26.376;599616196766050478;13613.951;28
2024-05-14T12:10:26.384;599616196773741780;13621.643;174
2024-05-14T12:10:26.392;599616196781433082;13629.334;560
2024-05-14T12:10:26.400;599616196789124384;13637.024;958
2024-05-14T12:10:26.407;599616196796815686;13644.716;977
2024-05-14T12:10:26.415;599616196804506988;13652.407;457
2024-05-14T12:10:26.423;599616196812198290;13660.099;-122
2024-05-14T12:10:26.430;599616196819889592;13667.79;-195
2024-05-14T12:10:26.438;599616196827580894;13675.481;-54
2024-05-14T12:10:26.446;599616196835272196;13683.172;-110
2024-05-14T12:10:26.453;599616196842963498;13690.863;-171
2024-05-14T12:10:26.461;599616196850654800;13698.555;-148
2024-05-14T12:10:26.469;599616196858346102;13706.246;-207
2024-05-14T12:10:26.476;599616196866037404;13713.9375;-299
2024-05-14T12:10:26.484;599616196873728706;13721.629;-287
2024-05-14T12:10:26.492;599616196881420008;13729.32;-256
2024-05-14T12:10:26.500;599616196889111310;13737.011;-247
2024-05-14T12:10:26.507;599616196896802612;13744.702;-200
2024-05-14T12:10:26.515;599616196904493914;13752.394;-153
2024-05-14T12:10:26.523;599616196912185216;13760.085;-139
2024-05-14T12:10:26.530;599616196919876518;13767.776;-110
2024-05-14T12:10:26.538;599616196927567820;13775.469;-110
2024-05-14T12:10:26.546;599616196935259122;13783.16;-155
2024-05-14T12:10:26.553;599616196942950424;13790.851;-143
2024-05-14T12:10:26.561;599616196950641726;13798.542;-68
2024-05-14T12:10:26.569;599616196958333028;13806.233;-11
2024-05-14T12:10:26.576;599616196966024330;13813.925;9
2024-05-14T12:10:26.584;599616196973715632;13821.616;28
2024-05-14T12:10:26.592;599616196981406934;13829.308;65
2024-05-14T12:10:26.599;599616196989098236;13836.999;108
2024-05-14T12:10:26.607;599616196996789538;13844.689;129
2024-05-14T12:10:26.615;599616197004480840;13852.381;139
2024-05-14T12:10:26.623;599616197012172142;13860.072;155
2024-05-14T12:10:26.630;599616197019863444;13867.764;153
2024-05-14T12:10:26.638;599616197027554746;13875.455;122
2024-05-14T12:10:26.646;599616197035246048;13883.146;106
2024-05-14T12:10:26.653;599616197042937350;13890.838;129
2024-05-14T12:10:26.661;599616197050628652;13898.528;141
2024-05-14T12:10:26.669;599616197058319954;13906.22;120
2024-05-14T12:10:26.676;599616197066011256;13913.911;106
2024-05-14T12:10:26.684;599616197073702558;13921.603;124
2024-05-14T12:10:26.692;599616197081393860;13929.294;153
2024-05-14T12:10:26.699;599616197089085162;13936.985;160
2024-05-14T12:10:26.707;599616197096776464;13944.677;176
2024-05-14T12:10:26.715;599616197104467766;13952.367;204
2024-05-14T12:10:26.723;599616197112159068;13960.059;204
2024-05-14T12:10:26.730;599616197119850370;13967.75;197
2024-05-14T12:10:26.738;599616197127541672;13975.441;221
2024-05-14T12:10:26.746;599616197135232974;13983.134;256
2024-05-14T12:10:26.753;599616197142924276;13990.825;275
2024-05-14T12:10:26.761;599616197150615578;13998.517;268
2024-05-14T12:10:26.769;599616197158306880;14006.207;261
2024-05-14T12:10:26.776;599616197165998182;14013.898;268
2024-05-14T12:10:26.784;599616197173689484;14021.59;268
2024-05-14T12:10:26.792;599616197181380786;14029.281;242
2024-05-14T12:10:26.799;599616197189036984;14036.937;233
2024-05-14T12:10:26.807;599616197196728774;14044.629;254
2024-05-14T12:10:26.815;599616197204420564;14052.321;254
2024-05-14T12:10:26.823;599616197212112354;14060.013;230
2024-05-14T12:10:26.830;599616197219804144;14067.705;256
2024-05-14T12:10:26.838;599616197227495934;14075.396;294
2024-05-14T12:10:26.846;599616197235187724;14083.089;266
2024-05-14T12:10:26.853;599616197242879514;14090.779;200
2024-05-14T12:10:26.861;599616197250571304;14098.472;176
2024-05-14T12:10:26.869;599616197258263094;14106.163;181
2024-05-14T12:10:26.876;599616197265954884;14113.855;124
2024-05-14T12:10:26.884;599616197273646674;14121.547;51
2024-05-14T12:10:26.892;599616197281338464;14129.239;70
2024-05-14T12:10:26.899;599616197289030254;14136.931;110
2024-05-14T12:10:26.907;599616197296722044;14144.623;84
2024-05-14T12:10:26.915;599616197304413834;14152.313;75
2024-05-14T12:10:26.923;599616197312105624;14160.006;127
2024-05-14T12:10:26.930;599616197319797414;14167.697;157
2024-05-14T12:10:26.938;599616197327489204;14175.39;150
2024-05-14T12:10:26.946;599616197335180994;14183.081;155
2024-05-14T12:10:26.953;599616197342872784;14190.773;171
2024-05-14T12:10:26.961;599616197350564574;14198.465;176
2024-05-14T12:10:26.969;599616197358256364;14206.157;164
2024-05-14T12:10:26.976;599616197365948154;14213.848;73
2024-05-14T12:10:26.984;599616197373639944;14221.54;-80
2024-05-14T12:10:26.992;599616197381331734;14229.231;-160
2024-05-14T12:10:26.999;599616197389023524;14236.924;-96
2024-05-14T12:10:27.007;599616197396715314;14244.615;216
2024-05-14T12:10:27.015;599616197404407104;14252.308;706
2024-05-14T12:10:27.022;599616197412098894;14259.999;878
2024-05-14T12:10:27.030;599616197419790684;14267.691;417
2024-05-14T12:10:27.038;599616197427482474;14275.382;-200
2024-05-14T12:10:27.046;599616197435174264;14283.074;-320
2024-05-14T12:10:27.053;599616197442866054;14290.766;-169
2024-05-14T12:10:27.061;599616197450557844;14298.458;-209
2024-05-14T12:10:27.069;599616197458249634;14306.149;-247
2024-05-14T12:10:27.076;599616197465941424;14313.842;-155
2024-05-14T12:10:27.084;599616197473633214;14321.533;-136
2024-05-14T12:10:27.092;599616197481325004;14329.226;-174
2024-05-14T12:10:27.099;599616197489016794;14336.918;-141
2024-05-14T12:10:27.107;599616197496708584;14344.608;-80
2024-05-14T12:10:27.115;599616197504400374;14352.301;-63
2024-05-14T12:10:27.122;599616197512092164;14359.992;-51
2024-05-14T12:10:27.130;599616197519783954;14367.685;-11
2024-05-14T12:10:27.138;599616197527475744;14375.376;9
2024-05-14T12:10:27.146;599616197535167534;14383.068;14
2024-05-14T12:10:27.153;599616197542859324;14390.76;44
2024-05-14T12:10:27.161;599616197550551114;14398.452;94
2024-05-14T12:10:27.169;599616197558242904;14406.143;139
2024-05-14T12:10:27.176;599616197565934694;14413.835;155
2024-05-14T12:10:27.184;599616197573626484;14421.526;153
2024-05-14T12:10:27.192;599616197581318274;14429.219;190
2024-05-14T12:10:27.199;599616197589010064;14436.91;245
2024-05-14T12:10:27.207;599616197596701854;14444.603;266
2024-05-14T12:10:27.215;599616197604393644;14452.294;275
2024-05-14T12:10:27.222;599616197612085434;14459.986;296
2024-05-14T12:10:27.230;599616197619777224;14467.677;301
2024-05-14T12:10:27.238;599616197627469014;14475.369;280
2024-05-14T12:10:27.246;599616197635160804;14483.061;270
2024-05-14T12:10:27.253;599616197642852594;14490.753;287
2024-05-14T12:10:27.261;599616197650544384;14498.444;296
2024-05-14T12:10:27.269;599616197658236174;14506.137;270
2024-05-14T12:10:27.276;599616197665927964;14513.828;216
2024-05-14T12:10:27.284;599616197673619754;14521.5205;160
2024-05-14T12:10:27.292;599616197681311544;14529.211;141
2024-05-14T12:10:27.299;599616197689003334;14536.903;155
2024-05-14T12:10:27.307;599616197696695124;14544.595;179
2024-05-14T12:10:27.315;599616197704386914;14552.287;195
2024-05-14T12:10:27.322;599616197712078704;14559.979;190
2024-05-14T12:10:27.330;599616197719770494;14567.671;183
2024-05-14T12:10:27.338;599616197727462284;14575.362;200
2024-05-14T12:10:27.346;599616197735154074;14583.055;233
2024-05-14T12:10:27.353;599616197742845864;14590.745;254
2024-05-14T12:10:27.361;599616197750567762;14598.468;245
2024-05-14T12:10:27.369;599616197758259134;14606.159;240
2024-05-14T12:10:27.376;599616197765950506;14613.852;259
2024-05-14T12:10:27.384;599616197773641878;14621.542;270
2024-05-14T12:10:27.392;599616197781333250;14629.233;270
2024-05-14T12:10:27.399;599616197789024622;14636.925;292
2024-05-14T12:10:27.407;599616197796715994;14644.616;306
2024-05-14T12:10:27.415;599616197804407366;14652.308;245
2024-05-14T12:10:27.422;599616197812098738;14659.999;141
2024-05-14T12:10:27.430;599616197819790110;14667.69;101
2024-05-14T12:10:27.438;599616197827481482;14675.381;108
2024-05-14T12:10:27.446;599616197835172854;14683.073;94
2024-05-14T12:10:27.453;599616197842864226;14690.765;75
2024-05-14T12:10:27.461;599616197850555598;14698.456;70
2024-05-14T12:10:27.469;599616197858246970;14706.147;84
2024-05-14T12:10:27.476;599616197865938342;14713.839;63
2024-05-14T12:10:27.484;599616197873629714;14721.53;-14
2024-05-14T12:10:27.492;599616197881321086;14729.221;-49
2024-05-14T12:10:27.499;599616197889012458;14736.912;-18
2024-05-14T12:10:27.507;599616197896703830;14744.604;-23
2024-05-14T12:10:27.515;599616197904395202;14752.296;-42
2024-05-14T12:10:27.522;599616197912086574;14759.987;-32
2024-05-14T12:10:27.530;599616197919777946;14767.679;-44
2024-05-14T12:10:27.538;599616197927469318;14775.37;-61
2024-05-14T12:10:27.546;599616197935160690;14783.061;-44
2024-05-14T12:10:27.553;599616197942852062;14790.752;-42
2024-05-14T12:10:27.561;599616197950543434;14798.443;-80
2024-05-14T12:10:27.569;599616197958234806;14806.135;-106
2024-05-14T12:10:27.576;599616197965926178;14813.826;-117
2024-05-14T12:10:27.584;599616197973617550;14821.518;-139
2024-05-14T12:10:27.592;599616197981308922;14829.21;-162
2024-05-14T12:10:27.599;599616197989000294;14836.9;-209
2024-05-14T12:10:27.607;599616197996691666;14844.592;-245
2024-05-14T12:10:27.615;599616198004383038;14852.283;-150
2024-05-14T12:10:27.622;599616198012074410;14859.975;171
2024-05-14T12:10:27.630;599616198019765782;14867.666;633
2024-05-14T12:10:27.638;599616198027457154;14875.357;843
2024-05-14T12:10:27.646;599616198035148526;14883.049;471
2024-05-14T12:10:27.653;599616198042839898;14890.739;-120
2024-05-14T12:10:27.661;599616198050531270;14898.432;-273
2024-05-14T12:10:27.669;599616198058222642;14906.123;-110
2024-05-14T12:10:27.676;599616198065914014;14913.814;-98
2024-05-14T12:10:27.684;599616198073605386;14921.506;-171
2024-05-14T12:10:27.692;599616198081296758;14929.197;-153
2024-05-14T12:10:27.699;599616198088988130;14936.889;-117
2024-05-14T12:10:27.707;599616198096679502;14944.579;-94
2024-05-14T12:10:27.715;599616198104370874;14952.2705;-63
2024-05-14T12:10:27.722;599616198112062246;14959.962;-42
2024-05-14T12:10:27.730;599616198119753618;14967.653;-16
2024-05-14T12:10:27.738;599616198127444990;14975.346;7
2024-05-14T12:10:27.746;599616198135136362;14983.037;16
2024-05-14T12:10:27.753;599616198142827734;14990.729;35
2024-05-14T12:10:27.761;599616198150519106;14998.42;73
2024-05-14T12:10:27.769;599616198158210478;15006.11;89
2024-05-14T12:10:27.776;599616198165901850;15013.802;44
2024-05-14T12:10:27.784;599616198173593222;15021.493;14
2024-05-14T12:10:27.792;599616198181284594;15029.185;63
2024-05-14T12:10:27.799;599616198188975966;15036.876;120
2024-05-14T12:10:27.807;599616198196667338;15044.568;141
2024-05-14T12:10:27.815;599616198204358710;15052.26;171
2024-05-14T12:10:27.822;599616198212050082;15059.95;214
2024-05-14T12:10:27.830;599616198219741454;15067.642;230
2024-05-14T12:10:27.838;599616198227432826;15075.333;221
2024-05-14T12:10:27.846;599616198235124198;15083.024;233
2024-05-14T12:10:27.853;599616198242815570;15090.716;266
2024-05-14T12:10:27.861;599616198250506942;15098.407;275
2024-05-14T12:10:27.869;599616198258198314;15106.099;256
2024-05-14T12:10:27.876;599616198265889686;15113.789;230
2024-05-14T12:10:27.884;599616198273581058;15121.481;226
2024-05-14T12:10:27.892;599616198281272430;15129.173;237
2024-05-14T12:10:27.899;599616198288963802;15136.864;233
2024-05-14T12:10:27.907;599616198296655174;15144.556;233
2024-05-14T12:10:27.915;599616198304346546;15152.247;254
2024-05-14T12:10:27.922;599616198312037926;15159.938;252
2024-05-14T12:10:27.930;599616198319729298;15167.629;235
2024-05-14T12:10:27.938;599616198327420670;15175.32;252
2024-05-14T12:10:27.946;599616198335112042;15183.012;289
2024-05-14T12:10:27.953;599616198342803414;15190.704;299
2024-05-14T12:10:27.961;599616198350494786;15198.3955;275
2024-05-14T12:10:27.969;599616198358186158;15206.087;266
2024-05-14T12:10:27.976;599616198365877530;15213.778;289
2024-05-14T12:10:27.984;599616198373568902;15221.469;273
2024-05-14T12:10:27.992;599616198381260274;15229.16;193
2024-05-14T12:10:27.999;599616198388951646;15236.852;155
2024-05-14T12:10:28.007;599616198396643018;15244.543;188
2024-05-14T12:10:28.015;599616198404334390;15252.234;174
2024-05-14T12:10:28.022;599616198412025762;15259.926;103
2024-05-14T12:10:28.030;599616198419717134;15267.618;89
2024-05-14T12:10:28.038;599616198427408506;15275.309;91
2024-05-14T12:10:28.046;599616198435099878;15283.0;11
2024-05-14T12:10:28.053;599616198442791250;15290.691;-77
2024-05-14T12:10:28.061;599616198450482622;15298.383;-82
2024-05-14T12:10:28.069;599616198458173994;15306.074;-56
2024-05-14T12:10:28.076;599616198465865366;15313.766;-61
2024-05-14T12:10:28.084;599616198473556738;15321.457;-58
2024-05-14T12:10:28.092;599616198481248110;15329.147;-18
2024-05-14T12:10:28.099;599616198488939482;15336.84;2
2024-05-14T12:10:28.107;599616198496630854;15344.531;-18
2024-05-14T12:10:28.115;599616198504322226;15352.223;-18
2024-05-14T12:10:28.122;599616198512013598;15359.914;21
2024-05-14T12:10:28.130;599616198519704970;15367.605;49
2024-05-14T12:10:28.138;599616198527396342;15375.297;47
2024-05-14T12:10:28.145;599616198535087714;15382.987;51
2024-05-14T12:10:28.153;599616198542779086;15390.679;68
2024-05-14T12:10:28.161;599616198550470458;15398.37;65
2024-05-14T12:10:28.169;599616198558161830;15406.062;40
2024-05-14T12:10:28.176;599616198565853202;15413.754;16
2024-05-14T12:10:28.184;599616198573544574;15421.445;16
2024-05-14T12:10:28.192;599616198581235946;15429.137;-9
2024-05-14T12:10:28.199;599616198588927318;15436.828;-75
2024-05-14T12:10:28.207;599616198596618690;15444.519;-94
2024-05-14T12:10:28.215;599616198604310062;15452.21;-56
2024-05-14T12:10:28.222;599616198612001434;15459.901;-47
2024-05-14T12:10:28.230;599616198619692806;15467.593;-63
2024-05-14T12:10:28.238;599616198627384178;15475.284;-54
2024-05-14T12:10:28.245;599616198635075550;15482.977;-58
2024-05-14T12:10:28.253;599616198642766922;15490.668;-94
2024-05-14T12:10:28.261;599616198650458294;15498.358;-94
2024-05-14T12:10:28.269;599616198658149666;15506.05;73
2024-05-14T12:10:28.276;599616198665841038;15513.741;473
2024-05-14T12:10:28.284;599616198673532410;15521.433;850
2024-05-14T12:10:28.292;599616198681223782;15529.124;737
2024-05-14T12:10:28.299;599616198688915154;15536.815;183
2024-05-14T12:10:28.307;599616198696606526;15544.507;-155
2024-05-14T12:10:28.315;599616198704297898;15552.197;-70
2024-05-14T12:10:28.322;599616198711989270;15559.89;-11
2024-05-14T12:10:28.330;599616198719680642;15567.581;-84
2024-05-14T12:10:28.338;599616198727372014;15575.272;-73
2024-05-14T12:10:28.345;599616198735063386;15582.964;-18
2024-05-14T12:10:28.353;599616198742754758;15590.655;-18
2024-05-14T12:10:28.361;599616198750446130;15598.347;-9
2024-05-14T12:10:28.369;599616198758137502;15606.037;40
2024-05-14T12:10:28.376;599616198765828874;15613.729;49
2024-05-14T12:10:28.384;599616198773520246;15621.42;35
2024-05-14T12:10:28.392;599616198781211618;15629.112;73
2024-05-14T12:10:28.399;599616198788902990;15636.804;115
2024-05-14T12:10:28.407;599616198796594362;15644.495;129
2024-05-14T12:10:28.415;599616198804285734;15652.187;153
2024-05-14T12:10:28.422;599616198811977106;15659.877;193
2024-05-14T12:10:28.430;599616198819668478;15667.568;207
2024-05-14T12:10:28.438;599616198827359850;15675.26;190
2024-05-14T12:10:28.445;599616198835051222;15682.951;209
2024-05-14T12:10:28.453;599616198842742594;15690.643;268
2024-05-14T12:10:28.461;599616198850433966;15698.334;303
2024-05-14T12:10:28.469;599616198858125338;15706.026;310
2024-05-14T12:10:28.476;599616198865816710;15713.717;313
2024-05-14T12:10:28.484;599616198873508090;15721.408;329
2024-05-14T12:10:28.492;599616198881199462;15729.1;325
2024-05-14T12:10:28.499;599616198888890834;15736.791;252
2024-05-14T12:10:28.507;599616198896582206;15744.482;176
2024-05-14T12:10:28.515;599616198904273578;15752.174;134
2024-05-14T12:10:28.522;599616198911964950;15759.865;54
2024-05-14T12:10:28.530;599616198919656322;15767.556;-40
2024-05-14T12:10:28.538;599616198927347694;15775.248;-70
2024-05-14T12:10:28.545;599616198935039066;15782.939;-42
2024-05-14T12:10:28.553;599616198942730438;15790.631;-25
2024-05-14T12:10:28.561;599616198950421810;15798.322;-40
2024-05-14T12:10:28.569;599616198958113182;15806.014;-42
2024-05-14T12:10:28.576;599616198965804554;15813.705;-11
2024-05-14T12:10:28.584;599616198973495926;15821.3955;21
2024-05-14T12:10:28.592;599616198981187298;15829.087;37
2024-05-14T12:10:28.599;599616198988878670;15836.778;63
2024-05-14T12:10:28.607;599616198996570042;15844.47;101
2024-05-14T12:10:28.615;599616199004261414;15852.162;101
2024-05-14T12:10:28.622;599616199011952786;15859.854;87
2024-05-14T12:10:28.630;599616199019644158;15867.545;115
2024-05-14T12:10:28.638;599616199027335530;15875.236;146
2024-05-14T12:10:28.645;599616199035026902;15882.927;120
2024-05-14T12:10:28.653;599616199042718274;15890.618;65
2024-05-14T12:10:28.661;599616199050409646;15898.31;30
2024-05-14T12:10:28.669;599616199058101018;15906.001;32
2024-05-14T12:10:28.676;599616199065792390;15913.692;49
2024-05-14T12:10:28.684;599616199073483762;15921.385;54
2024-05-14T12:10:28.692;599616199081175134;15929.076;65
2024-05-14T12:10:28.699;599616199088866506;15936.767;80
2024-05-14T12:10:28.707;599616199096557878;15944.458;61
2024-05-14T12:10:28.715;599616199104249250;15952.149;49
2024-05-14T12:10:28.722;599616199111940622;15959.841;84
2024-05-14T12:10:28.730;599616199119631994;15967.532;120
2024-05-14T12:10:28.738;599616199127323366;15975.224;115
