Phone timestamp;sensor timestamp [ns];timestamp [ms];ecg [uV]
2024-05-15T22:04:36.354;599616799281618386;0.0;3727
2024-05-15T22:04:36.361;599616799289309340;7.690954;4410
2024-05-15T22:04:36.369;599616799297000294;15.381908;5317
2024-05-15T22:04:36.377;599616799304691248;23.072863;6036
2024-05-15T22:04:36.384;599616799312382202;30.763817;6555
2024-05-15T22:04:36.392;599616799320073156;38.45477;7176
2024-05-15T22:04:36.400;599616799327764110;46.145725;7838
2024-05-15T22:04:36.407;599616799335455064;53.83668;8321
2024-05-15T22:04:36.415;599616799343146018;61.527634;8738
2024-05-15T22:04:36.423;599616799350836972;69.21858;9257
2024-05-15T22:04:36.430;599616799358527926;76.90954;9721
2024-05-15T22:04:36.438;599616799366218880;84.600494;10066
2024-05-15T22:04:36.446;599616799373909834;92.29145;10466
2024-05-15T22:04:36.453;599616799381600788;99.9824;10911
2024-05-15T22:04:36.461;599616799389291742;107.67336;11285
2024-05-15T22:04:36.469;599616799396982696;115.36431;11601
2024-05-15T22:04:36.477;599616799404673650;123.05527;11906
2024-05-15T22:04:36.484;599616799412364604;130.74622;12206
2024-05-15T22:04:36.492;599616799420055558;138.43716;12458
2024-05-15T22:04:36.500;599616799427746512;146.12813;12701
2024-05-15T22:04:36.507;599616799435437466;153.81908;13013
2024-05-15T22:04:36.515;599616799443128420;161.51003;13303
2024-05-15T22:04:36.523;599616799450819374;169.20099;13449
2024-05-15T22:04:36.530;599616799458510328;176.89194;13582
2024-05-15T22:04:36.538;599616799466201282;184.5829;13837
2024-05-15T22:04:36.546;599616799473892236;192.27385;14094
2024-05-15T22:04:36.553;599616799481583190;199.9648;14270
2024-05-15T22:04:36.561;599616799489274144;207.65576;14401
2024-05-15T22:04:36.569;599616799496965098;215.34673;14548
2024-05-15T22:04:36.577;599616799504656052;223.03766;14717
2024-05-15T22:04:36.584;599616799512347006;230.72862;14829
2024-05-15T22:04:36.592;599616799520037960;238.41957;14927
2024-05-15T22:04:36.600;599616799527728914;246.11053;15134
2024-05-15T22:04:36.607;599616799535419868;253.80148;15289
2024-05-15T22:04:36.615;599616799543110822;261.49243;15253
2024-05-15T22:04:36.623;599616799550801776;269.18338;15286
2024-05-15T22:04:36.630;599616799558492730;276.87433;15479
2024-05-15T22:04:36.638;599616799566183684;284.5653;15612
2024-05-15T22:04:36.646;599616799573874638;292.25626;15703
2024-05-15T22:04:36.653;599616799581565592;299.9472;15746
2024-05-15T22:04:36.661;599616799589256546;307.63815;15643
2024-05-15T22:04:36.669;599616799596947500;315.32913;15600
2024-05-15T22:04:36.677;599616799604638454;323.02005;15641
2024-05-15T22:04:36.684;599616799612329408;330.711;15667
2024-05-15T22:04:36.692;599616799620020362;338.40198;15762
2024-05-15T22:04:36.700;599616799627711316;346.09293;15810
2024-05-15T22:04:36.707;599616799635402270;353.78387;15712
2024-05-15T22:04:36.715;599616799643093224;361.47485;15719
2024-05-15T22:04:36.723;599616799650784178;369.1658;15879
2024-05-15T22:04:36.730;599616799658475132;376.85675;15872
2024-05-15T22:04:36.738;599616799666166086;384.5477;15705
2024-05-15T22:04:36.746;599616799673857040;392.23865;15672
2024-05-15T22:04:36.753;599616799681547994;399.9296;15698
2024-05-15T22:04:36.761;599616799689238948;407.62057;15727
2024-05-15T22:04:36.769;599616799696929902;415.31152;15710
2024-05-15T22:04:36.777;599616799704620856;423.00247;15446
2024-05-15T22:04:36.784;599616799712311810;430.69345;15334
2024-05-15T22:04:36.792;599616799720002764;438.38437;15672
2024-05-15T22:04:36.800;599616799727693718;446.07532;16031
2024-05-15T22:04:36.807;599616799735384672;453.76627;16093
2024-05-15T22:04:36.815;599616799743075626;461.45724;15724
2024-05-15T22:04:36.823;599616799750766580;469.1482;15108
2024-05-15T22:04:36.830;599616799758457534;476.83914;14858
2024-05-15T22:04:36.838;599616799766148488;484.53012;14946
2024-05-15T22:04:36.846;599616799773839442;492.22107;14836
2024-05-15T22:04:36.853;599616799781530396;499.912;14620
2024-05-15T22:04:36.861;599616799789221350;507.60297;14565
2024-05-15T22:04:36.869;599616799796912304;515.29395;14584
2024-05-15T22:04:36.876;599616799804603258;522.98486;14617
2024-05-15T22:04:36.884;599616799812294212;530.67584;14555
2024-05-15T22:04:36.892;599616799819985166;538.36676;14406
2024-05-15T22:04:36.900;599616799827676120;546.05774;14341
2024-05-15T22:04:36.907;599616799835367074;553.74866;14151
2024-05-15T22:04:36.915;599616799843027936;561.40955;13839
2024-05-15T22:04:36.923;599616799850719308;569.10095;13784
2024-05-15T22:04:36.930;599616799858410680;576.7923;13808
2024-05-15T22:04:36.938;599616799866102052;584.48364;13630
2024-05-15T22:04:36.946;599616799873793424;592.17505;13451
2024-05-15T22:04:36.953;599616799881484796;599.86646;13411
2024-05-15T22:04:36.961;599616799889176168;607.55774;13394
2024-05-15T22:04:36.969;599616799896867540;615.24915;13332
2024-05-15T22:04:36.976;599616799904558912;622.94055;13182
2024-05-15T22:04:36.984;599616799912250284;630.6319;13034
2024-05-15T22:04:36.992;599616799919941656;638.32324;13061
2024-05-15T22:04:37.000;599616799927633028;646.01465;12994
2024-05-15T22:04:37.007;599616799935324400;653.706;12651
2024-05-15T22:04:37.015;599616799943015772;661.3974;12506
2024-05-15T22:04:37.023;599616799950707144;669.08875;12561
2024-05-15T22:04:37.030;599616799958398516;676.78015;12375
2024-05-15T22:04:37.038;599616799966089888;684.4715;12137
2024-05-15T22:04:37.046;599616799973781260;692.1629;12108
2024-05-15T22:04:37.053;599616799981472632;699.85425;12085
2024-05-15T22:04:37.061;599616799989164004;707.5456;11958
2024-05-15T22:04:37.069;599616799996855376;715.237;11825
2024-05-15T22:04:37.076;599616800004546748;722.9284;11706
2024-05-15T22:04:37.084;599616800012238120;730.6197;11620
2024-05-15T22:04:37.092;599616800019929492;738.3111;11532
2024-05-15T22:04:37.100;599616800027620864;746.0025;11428
2024-05-15T22:04:37.107;599616800035312236;753.69385;11387
2024-05-15T22:04:37.115;599616800043003608;761.3852;11325
2024-05-15T22:04:37.123;599616800050694980;769.0766;11118
2024-05-15T22:04:37.130;599616800058386352;776.76794;10980
2024-05-15T22:04:37.138;599616800066077724;784.45935;11021
2024-05-15T22:04:37.146;599616800073769096;792.1507;10940
2024-05-15T22:04:37.153;599616800081460468;799.8421;10656
2024-05-15T22:04:37.161;599616800089151840;807.53345;10490
2024-05-15T22:04:37.169;599616800096843212;815.22485;10456
2024-05-15T22:04:37.176;599616800104534584;822.9162;10359
2024-05-15T22:04:37.184;599616800112225956;830.60754;10209
2024-05-15T22:04:37.192;599616800119917328;838.29895;10114
2024-05-15T22:04:37.199;599616800127608700;845.99036;10099
2024-05-15T22:04:37.207;599616800135300072;853.68164;10021
2024-05-15T22:04:37.215;599616800142991444;861.37305;9830
2024-05-15T22:04:37.223;599616800150682816;869.06445;9769
2024-05-15T22:04:37.230;599616800158374188;876.7558;9792
2024-05-15T22:04:37.238;599616800166065560;884.44714;9621
2024-05-15T22:04:37.246;599616800173756932;892.13855;9414
2024-05-15T22:04:37.253;599616800181448304;899.8299;9333
2024-05-15T22:04:37.261;599616800189139676;907.5213;9245
2024-05-15T22:04:37.269;599616800196831048;915.21265;9200
2024-05-15T22:04:37.276;599616800204522420;922.90405;9133
2024-05-15T22:04:37.284;599616800212213792;930.5954;8862
2024-05-15T22:04:37.292;599616800219905164;938.2868;8666
2024-05-15T22:04:37.299;599616800227596536;945.97815;8614
2024-05-15T22:04:37.307;599616800235287908;953.6695;8581
2024-05-15T22:04:37.315;599616800242979280;961.3609;8866
2024-05-15T22:04:37.323;599616800250670652;969.0523;9331
2024-05-15T22:04:37.330;599616800258362024;976.7436;9269
2024-05-15T22:04:37.338;599616800266053396;984.435;8621
2024-05-15T22:04:37.346;599616800273744768;992.1264;8095
2024-05-15T22:04:37.353;599616800281436140;999.81775;8005
2024-05-15T22:04:37.361;599616800289127512;1007.5091;7955
2024-05-15T22:04:37.369;599616800296818884;1015.2005;7776
2024-05-15T22:04:37.376;599616800304510256;1022.89185;7731
2024-05-15T22:04:37.384;599616800312201628;1030.5833;7764
2024-05-15T22:04:37.392;599616800319893000;1038.2747;7595
2024-05-15T22:04:37.399;599616800327584372;1045.9661;7357
2024-05-15T22:04:37.407;599616800335275744;1053.6573;7281
2024-05-15T22:04:37.415;599616800342967116;1061.3488;7207
2024-05-15T22:04:37.423;599616800350658488;1069.0402;7057
2024-05-15T22:04:37.430;599616800358349860;1076.7316;6984
2024-05-15T22:04:37.438;599616800366041232;1084.4227;6943
2024-05-15T22:04:37.446;599616800373732604;1092.1141;6841
2024-05-15T22:04:37.453;599616800381423976;1099.8055;6731
2024-05-15T22:04:37.461;599616800389115348;1107.497;6681
2024-05-15T22:04:37.469;599616800396806720;1115.1884;6660
2024-05-15T22:04:37.476;599616800404508180;1122.8899;6619
2024-05-15T22:04:37.484;599616800412199412;1130.5809;6529
2024-05-15T22:04:37.492;599616800419890644;1138.2722;6441
2024-05-15T22:04:37.499;599616800427581876;1145.9635;6412
2024-05-15T22:04:37.507;599616800435273108;1153.6548;6367
2024-05-15T22:04:37.515;599616800442964340;1161.346;6262
2024-05-15T22:04:37.523;599616800450655572;1169.0372;6196
2024-05-15T22:04:37.530;599616800458346804;1176.7284;6181
2024-05-15T22:04:37.538;599616800466038036;1184.4197;6079
2024-05-15T22:04:37.546;599616800473729268;1192.1108;5881
2024-05-15T22:04:37.553;599616800481420500;1199.8021;5777
2024-05-15T22:04:37.561;599616800489111732;1207.4934;5779
2024-05-15T22:04:37.569;599616800496802964;1215.1847;5731
2024-05-15T22:04:37.576;599616800504494196;1222.8757;5608
2024-05-15T22:04:37.584;599616800512185428;1230.567;5524
2024-05-15T22:04:37.592;599616800519876660;1238.2583;5512
2024-05-15T22:04:37.599;599616800527567892;1245.9496;5474
2024-05-15T22:04:37.607;599616800535259124;1253.6407;5393
2024-05-15T22:04:37.615;599616800542950356;1261.3319;5360
2024-05-15T22:04:37.623;599616800550641588;1269.0232;5334
2024-05-15T22:04:37.630;599616800558332820;1276.7145;5270
2024-05-15T22:04:37.638;599616800566024052;1284.4056;5191
2024-05-15T22:04:37.646;599616800573715284;1292.0969;5093
2024-05-15T22:04:37.653;599616800581406516;1299.7882;5036
2024-05-15T22:04:37.661;599616800589097748;1307.4794;5013
2024-05-15T22:04:37.669;599616800596788980;1315.1705;4946
2024-05-15T22:04:37.676;599616800604480212;1322.8618;4872
2024-05-15T22:04:37.684;599616800612171444;1330.5531;4832
2024-05-15T22:04:37.692;599616800619862676;1338.2444;4786
2024-05-15T22:04:37.699;599616800627553908;1345.9355;4732
2024-05-15T22:04:37.707;599616800635245140;1353.6267;4701
2024-05-15T22:04:37.715;599616800642936372;1361.318;4658
2024-05-15T22:04:37.723;599616800650627604;1369.0093;4577
2024-05-15T22:04:37.730;599616800658318836;1376.7004;4527
2024-05-15T22:04:37.738;599616800666010068;1384.3917;4491
2024-05-15T22:04:37.746;599616800673701300;1392.0829;4415
2024-05-15T22:04:37.753;599616800681392532;1399.7742;4346
2024-05-15T22:04:37.761;599616800689083764;1407.4653;4289
2024-05-15T22:04:37.769;599616800696774996;1415.1566;4227
2024-05-15T22:04:37.776;599616800704466228;1422.8479;4201
2024-05-15T22:04:37.784;599616800712157460;1430.5392;4127
2024-05-15T22:04:37.792;599616800719848692;1438.2302;3970
2024-05-15T22:04:37.799;599616800727539924;1445.9215;3915
2024-05-15T22:04:37.807;599616800735231156;1453.6128;3884
2024-05-15T22:04:37.815;599616800742922388;1461.3041;3730
2024-05-15T22:04:37.822;599616800750613620;1468.9952;3694
2024-05-15T22:04:37.830;599616800758304852;1476.6865;3996
2024-05-15T22:04:37.838;599616800765996084;1484.3777;4448
2024-05-15T22:04:37.846;599616800773687316;1492.069;4646
2024-05-15T22:04:37.853;599616800781378548;1499.7601;4310
2024-05-15T22:04:37.861;599616800789069780;1507.4514;3710
2024-05-15T22:04:37.869;599616800796761012;1515.1427;3446
2024-05-15T22:04:37.876;599616800804452244;1522.8339;3506
2024-05-15T22:04:37.884;599616800812143476;1530.525;3439
2024-05-15T22:04:37.892;599616800819834708;1538.2163;3258
2024-05-15T22:04:37.899;599616800827525940;1545.9076;3170
2024-05-15T22:04:37.907;599616800835217172;1553.5989;3123
2024-05-15T22:04:37.915;599616800842908404;1561.29;3046
2024-05-15T22:04:37.922;599616800850599636;1568.9812;2999
2024-05-15T22:04:37.930;599616800858290868;1576.6725;2970
2024-05-15T22:04:37.938;599616800865982100;1584.3638;2930
2024-05-15T22:04:37.946;599616800873673332;1592.0549;2899
2024-05-15T22:04:37.953;599616800881364564;1599.7462;2880
2024-05-15T22:04:37.961;599616800889055796;1607.4375;2842
2024-05-15T22:04:37.969;599616800896747028;1615.1287;2811
2024-05-15T22:04:37.976;599616800904438260;1622.8198;2818
2024-05-15T22:04:37.984;599616800912129492;1630.5111;2823
2024-05-15T22:04:37.992;599616800919820724;1638.2024;2773
2024-05-15T22:04:37.999;599616800927511956;1645.8937;2723
2024-05-15T22:04:38.007;599616800935203188;1653.5847;2737
2024-05-15T22:04:38.015;599616800942894420;1661.276;2751
2024-05-15T22:04:38.022;599616800950585652;1668.9673;2711
2024-05-15T22:04:38.030;599616800958276884;1676.6586;2677
2024-05-15T22:04:38.038;599616800965978178;1684.3599;2663
2024-05-15T22:04:38.046;599616800973669271;1692.0509;2618
2024-05-15T22:04:38.053;599616800981360364;1699.742;2573
2024-05-15T22:04:38.061;599616800989051457;1707.4331;2558
2024-05-15T22:04:38.069;599616800996742550;1715.1243;2546
2024-05-15T22:04:38.076;599616801004433643;1722.8152;2513
2024-05-15T22:04:38.084;599616801012124736;1730.5063;2456
2024-05-15T22:04:38.092;599616801019815829;1738.1975;2420
2024-05-15T22:04:38.099;599616801027506922;1745.8885;2420
2024-05-15T22:04:38.107;599616801035198015;1753.5796;2377
2024-05-15T22:04:38.115;599616801042889108;1761.2708;2275
2024-05-15T22:04:38.122;599616801050580201;1768.9618;2230
2024-05-15T22:04:38.130;599616801058271294;1776.653;2201
2024-05-15T22:04:38.138;599616801065962387;1784.3441;2106
2024-05-15T22:04:38.146;599616801073653480;1792.035;2073
2024-05-15T22:04:38.153;599616801081344573;1799.7262;2118
2024-05-15T22:04:38.161;599616801089035666;1807.4174;2113
2024-05-15T22:04:38.169;599616801096726759;1815.1084;2075
2024-05-15T22:04:38.176;599616801104417852;1822.7994;2054
2024-05-15T22:04:38.184;599616801112108945;1830.4905;2042
2024-05-15T22:04:38.192;599616801119800038;1838.1816;2037
2024-05-15T22:04:38.199;599616801127491131;1845.8728;2025
2024-05-15T22:04:38.207;599616801135182224;1853.5637;2006
2024-05-15T22:04:38.215;599616801142873317;1861.2549;2011
2024-05-15T22:04:38.222;599616801150564410;1868.946;2004
2024-05-15T22:04:38.230;599616801158255503;1876.6371;1963
2024-05-15T22:04:38.238;599616801165946596;1884.3282;1932
2024-05-15T22:04:38.246;599616801173637689;1892.0193;1911
2024-05-15T22:04:38.253;599616801181328782;1899.7103;1870
2024-05-15T22:04:38.261;599616801189019875;1907.4015;1844
2024-05-15T22:04:38.269;599616801196710968;1915.0927;1823
2024-05-15T22:04:38.276;599616801204402061;1922.7836;1794
2024-05-15T22:04:38.284;599616801212093154;1930.4747;1787
2024-05-15T22:04:38.292;599616801219784247;1938.1659;1740
2024-05-15T22:04:38.299;599616801227475340;1945.8569;1654
2024-05-15T22:04:38.307;599616801235166433;1953.548;1640
2024-05-15T22:04:38.315;599616801242857526;1961.2391;1623
2024-05-15T22:04:38.322;599616801250548619;1968.9302;1516
2024-05-15T22:04:38.330;599616801258239712;1976.6213;1475
2024-05-15T22:04:38.338;599616801265930805;1984.3125;1632
2024-05-15T22:04:38.346;599616801273621898;1992.0034;2013
2024-05-15T22:04:38.353;599616801281312991;1999.6946;2425
2024-05-15T22:04:38.361;599616801289004084;2007.3857;2413
2024-05-15T22:04:38.369;599616801296695177;2015.0768;1878
2024-05-15T22:04:38.376;599616801304386270;2022.7678;1406
2024-05-15T22:04:38.384;599616801312077363;2030.459;1394
2024-05-15T22:04:38.392;599616801319768456;2038.15;1490
2024-05-15T22:04:38.399;599616801327459549;2045.8412;1390
2024-05-15T22:04:38.407;599616801335150642;2053.5322;1283
2024-05-15T22:04:38.415;599616801342841735;2061.2234;1266
2024-05-15T22:04:38.422;599616801350532828;2068.9146;1237
2024-05-15T22:04:38.430;599616801358223921;2076.6055;1192
2024-05-15T22:04:38.438;599616801365915014;2084.2966;1190
2024-05-15T22:04:38.445;599616801373606107;2091.9878;1190
2024-05-15T22:04:38.453;599616801381297200;2099.679;1166
2024-05-15T22:04:38.461;599616801388988293;2107.3699;1156
2024-05-15T22:04:38.469;599616801396679386;2115.061;1152
2024-05-15T22:04:38.476;599616801404370479;2122.7522;1149
2024-05-15T22:04:38.484;599616801412061572;2130.443;1173
2024-05-15T22:04:38.492;599616801419752665;2138.1343;1187
2024-05-15T22:04:38.499;599616801427443758;2145.8254;1161
2024-05-15T22:04:38.507;599616801435134851;2153.5166;1161
2024-05-15T22:04:38.515;599616801442825944;2161.2075;1204
2024-05-15T22:04:38.522;599616801450517037;2168.8987;1225
2024-05-15T22:04:38.530;599616801458208130;2176.5898;1211
2024-05-15T22:04:38.538;599616801465899223;2184.2808;1206
2024-05-15T22:04:38.545;599616801473590316;2191.972;1204
2024-05-15T22:04:38.553;599616801481281409;2199.663;1192
2024-05-15T22:04:38.561;599616801488972502;2207.354;1178
2024-05-15T22:04:38.569;599616801496663595;2215.0452;1168
2024-05-15T22:04:38.576;599616801504354688;2222.7363;1178
2024-05-15T22:04:38.584;599616801512045781;2230.4275;1164
2024-05-15T22:04:38.592;599616801519736874;2238.1184;1114
2024-05-15T22:04:38.599;599616801527407910;2245.7896;1099
2024-05-15T22:04:38.607;599616801535099282;2253.481;1121
2024-05-15T22:04:38.615;599616801542790654;2261.172;1114
2024-05-15T22:04:38.622;599616801550482026;2268.8638;1078
2024-05-15T22:04:38.630;599616801558173398;2276.555;1052
2024-05-15T22:04:38.638;599616801565864770;2284.2463;1040
2024-05-15T22:04:38.645;599616801573556142;2291.9377;1002
2024-05-15T22:04:38.653;599616801581247514;2299.6292;937
2024-05-15T22:04:38.661;599616801588938886;2307.3206;940
2024-05-15T22:04:38.669;599616801596630258;2315.0117;987
2024-05-15T22:04:38.676;599616801604321630;2322.7034;983
2024-05-15T22:04:38.684;599616801612013002;2330.3945;947
2024-05-15T22:04:38.692;599616801619704374;2338.086;952
2024-05-15T22:04:38.699;599616801627395746;2345.7773;973
2024-05-15T22:04:38.707;599616801635087118;2353.4688;973
2024-05-15T22:04:38.715;599616801642778490;2361.1602;966
2024-05-15T22:04:38.722;599616801650469862;2368.8516;968
2024-05-15T22:04:38.730;599616801658161234;2376.5427;961
2024-05-15T22:04:38.738;599616801665852606;2384.2341;954
2024-05-15T22:04:38.745;599616801673543978;2391.9255;968
2024-05-15T22:04:38.753;599616801681235350;2399.617;983
2024-05-15T22:04:38.761;599616801688926722;2407.3083;973
2024-05-15T22:04:38.768;599616801696618094;2414.9998;935
2024-05-15T22:04:38.776;599616801704309466;2422.6912;883
2024-05-15T22:04:38.784;599616801712000838;2430.3823;871
2024-05-15T22:04:38.792;599616801719692210;2438.074;887
2024-05-15T22:04:38.799;599616801727383582;2445.7651;840
2024-05-15T22:04:38.807;599616801735074954;2453.4565;756
2024-05-15T22:04:38.815;599616801742766326;2461.148;754
2024-05-15T22:04:38.822;599616801750457698;2468.8394;749
2024-05-15T22:04:38.830;599616801758149070;2476.5308;649
2024-05-15T22:04:38.838;599616801765840442;2484.222;633
2024-05-15T22:04:38.845;599616801773531814;2491.9136;880
2024-05-15T22:04:38.853;599616801781223186;2499.6047;1354
2024-05-15T22:04:38.861;599616801788914558;2507.2961;1718
2024-05-15T22:04:38.868;599616801796605930;2514.9875;1506
2024-05-15T22:04:38.876;599616801804297302;2522.679;878
2024-05-15T22:04:38.884;599616801811988674;2530.3704;557
2024-05-15T22:04:38.892;599616801819680046;2538.0615;661
2024-05-15T22:04:38.899;599616801827371418;2545.7532;706
2024-05-15T22:04:38.907;599616801835062790;2553.4443;637
2024-05-15T22:04:38.915;599616801842754162;2561.136;626
2024-05-15T22:04:38.922;599616801850445534;2568.8271;602
2024-05-15T22:04:38.930;599616801858136906;2576.5183;568
2024-05-15T22:04:38.938;599616801865828278;2584.21;568
2024-05-15T22:04:38.945;599616801873519650;2591.9011;545
2024-05-15T22:04:38.953;599616801881211022;2599.5928;507
2024-05-15T22:04:38.961;599616801888902394;2607.284;504
2024-05-15T22:04:38.968;599616801896593766;2614.9756;528
2024-05-15T22:04:38.976;599616801904285138;2622.6667;535
2024-05-15T22:04:38.984;599616801911976510;2630.358;530
2024-05-15T22:04:38.992;599616801919667882;2638.0496;552
2024-05-15T22:04:38.999;599616801927359254;2645.7407;583
2024-05-15T22:04:39.007;599616801935050626;2653.4324;573
2024-05-15T22:04:39.015;599616801942741998;2661.1235;568
2024-05-15T22:04:39.022;599616801950433370;2668.8152;609
2024-05-15T22:04:39.030;599616801958124742;2676.5063;649
2024-05-15T22:04:39.038;599616801965816114;2684.1978;654
2024-05-15T22:04:39.045;599616801973507486;2691.8892;642
2024-05-15T22:04:39.053;599616801981198858;2699.5803;637
2024-05-15T22:04:39.061;599616801988890230;2707.272;640
2024-05-15T22:04:39.068;599616801996581602;2714.9631;635
2024-05-15T22:04:39.076;599616802004272974;2722.6545;630
2024-05-15T22:04:39.084;599616802011964346;2730.346;642
2024-05-15T22:04:39.092;599616802019655718;2738.0374;654
2024-05-15T22:04:39.099;599616802027347090;2745.7288;626
2024-05-15T22:04:39.107;599616802035038462;2753.42;585
2024-05-15T22:04:39.115;599616802042729834;2761.1116;549
2024-05-15T22:04:39.122;599616802050421206;2768.8027;523
2024-05-15T22:04:39.130;599616802058112578;2776.4941;521
2024-05-15T22:04:39.138;599616802065803950;2784.1855;542
2024-05-15T22:04:39.145;599616802073495322;2791.877;549
2024-05-15T22:04:39.153;599616802081186694;2799.5684;545
2024-05-15T22:04:39.161;599616802088908168;2807.2898;549
2024-05-15T22:04:39.168;599616802096599122;2814.9807;576
2024-05-15T22:04:39.176;599616802104290076;2822.6716;604
2024-05-15T22:04:39.184;599616802111981030;2830.3625;599
2024-05-15T22:04:39.192;599616802119671984;2838.0537;576
2024-05-15T22:04:39.199;599616802127362938;2845.7446;587
2024-05-15T22:04:39.207;599616802135053892;2853.4353;611
2024-05-15T22:04:39.215;599616802142744846;2861.1265;566
2024-05-15T22:04:39.222;599616802150435800;2868.8174;483
2024-05-15T22:04:39.230;599616802158126754;2876.5083;478
2024-05-15T22:04:39.238;599616802165817708;2884.1995;516
2024-05-15T22:04:39.245;599616802173508662;2891.8901;509
2024-05-15T22:04:39.253;599616802181199616;2899.5813;497
2024-05-15T22:04:39.261;599616802188890570;2907.2722;530
2024-05-15T22:04:39.268;599616802196581524;2914.9631;568
2024-05-15T22:04:39.276;599616802204272478;2922.6543;568
2024-05-15T22:04:39.284;599616802211963432;2930.345;537
2024-05-15T22:04:39.292;599616802219654386;2938.036;497
2024-05-15T22:04:39.299;599616802227345340;2945.727;430
2024-05-15T22:04:39.307;599616802235036294;2953.418;349
2024-05-15T22:04:39.315;599616802242727248;2961.1086;333
2024-05-15T22:04:39.322;599616802250418202;2968.7998;364
2024-05-15T22:04:39.330;599616802258109156;2976.4907;342
2024-05-15T22:04:39.338;599616802265800110;2984.1816;266
2024-05-15T22:04:39.345;599616802273491064;2991.8728;285
2024-05-15T22:04:39.353;599616802281182018;2999.5635;542
2024-05-15T22:04:39.361;599616802288872972;3007.2546;975
2024-05-15T22:04:39.368;599616802296563926;3014.9456;1287
2024-05-15T22:04:39.376;599616802304254880;3022.6365;1116
2024-05-15T22:04:39.384;599616802311945834;3030.3276;554
2024-05-15T22:04:39.392;599616802319636788;3038.0183;218
2024-05-15T22:04:39.399;599616802327327742;3045.7092;307
2024-05-15T22:04:39.407;599616802335018696;3053.4004;371
2024-05-15T22:04:39.415;599616802342709650;3061.0913;297
2024-05-15T22:04:39.422;599616802350400604;3068.7822;304
2024-05-15T22:04:39.430;599616802358091558;3076.4731;347
2024-05-15T22:04:39.438;599616802365782512;3084.164;333
2024-05-15T22:04:39.445;599616802373473466;3091.8552;318
2024-05-15T22:04:39.453;599616802381164420;3099.5461;321
2024-05-15T22:04:39.461;599616802388855374;3107.2368;295
2024-05-15T22:04:39.468;599616802396546328;3114.928;249
2024-05-15T22:04:39.476;599616802404237282;3122.619;242
2024-05-15T22:04:39.484;599616802411928236;3130.3098;268
2024-05-15T22:04:39.492;599616802419619190;3138.001;280
2024-05-15T22:04:39.499;599616802427310144;3145.6917;297
2024-05-15T22:04:39.507;599616802435001098;3153.3826;330
2024-05-15T22:04:39.515;599616802442692052;3161.0737;333
2024-05-15T22:04:39.522;599616802450383006;3168.7646;311
2024-05-15T22:04:39.530;599616802458073960;3176.4556;340
2024-05-15T22:04:39.538;599616802465764914;3184.1465;392
2024-05-15T22:04:39.545;599616802473455868;3191.8374;407
2024-05-15T22:04:39.553;599616802481146822;3199.5286;392
2024-05-15T22:04:39.561;599616802488837776;3207.2195;385
2024-05-15T22:04:39.568;599616802496528730;3214.9104;390
2024-05-15T22:04:39.576;599616802504219684;3222.6013;392
2024-05-15T22:04:39.584;599616802511910638;3230.2922;399
2024-05-15T22:04:39.591;599616802519601592;3237.9832;423
2024-05-15T22:04:39.599;599616802527292546;3245.6743;423
2024-05-15T22:04:39.607;599616802534983500;3253.365;368
2024-05-15T22:04:39.615;599616802542674454;3261.056;333
2024-05-15T22:04:39.622;599616802550365408;3268.747;376
2024-05-15T22:04:39.630;599616802558056362;3276.438;414
2024-05-15T22:04:39.638;599616802565747316;3284.129;409
2024-05-15T22:04:39.645;599616802573438270;3291.8198;414
2024-05-15T22:04:39.653;599616802581129224;3299.5107;433
2024-05-15T22:04:39.661;599616802588820178;3307.202;447
2024-05-15T22:04:39.668;599616802596511132;3314.8928;461
2024-05-15T22:04:39.676;599616802604202086;3322.5837;473
2024-05-15T22:04:39.684;599616802611893040;3330.2747;487
2024-05-15T22:04:39.691;599616802619583994;3337.9656;497
2024-05-15T22:04:39.699;599616802627274948;3345.6565;487
2024-05-15T22:04:39.707;599616802634965902;3353.3477;492
2024-05-15T22:04:39.715;599616802642656856;3361.0386;511
2024-05-15T22:04:39.722;599616802650317720;3368.6995;518
2024-05-15T22:04:39.730;599616802658009092;3376.3906;518
2024-05-15T22:04:39.738;599616802665700464;3384.0823;518
2024-05-15T22:04:39.745;599616802673391836;3391.7734;511
2024-05-15T22:04:39.753;599616802681083208;3399.4646;478
2024-05-15T22:04:39.761;599616802688774580;3407.1562;433
2024-05-15T22:04:39.768;599616802696465952;3414.8474;433
2024-05-15T22:04:39.776;599616802704157324;3422.539;483
2024-05-15T22:04:39.784;599616802711848696;3430.2302;492
2024-05-15T22:04:39.791;599616802719540068;3437.9219;449
2024-05-15T22:04:39.799;599616802727231440;3445.613;437
2024-05-15T22:04:39.807;599616802734922812;3453.3042;418
2024-05-15T22:04:39.814;599616802742614184;3460.9958;318
2024-05-15T22:04:39.822;599616802750305556;3468.687;266
2024-05-15T22:04:39.830;599616802757996928;3476.3787;304
2024-05-15T22:04:39.838;599616802765688300;3484.0698;273
2024-05-15T22:04:39.845;599616802773379672;3491.7615;185
2024-05-15T22:04:39.853;599616802781071044;3499.4526;226
2024-05-15T22:04:39.861;599616802788762416;3507.144;542
2024-05-15T22:04:39.868;599616802796453788;3514.8354;1052
2024-05-15T22:04:39.876;599616802804145160;3522.5266;1311
2024-05-15T22:04:39.884;599616802811836532;3530.2183;940
2024-05-15T22:04:39.891;599616802819527904;3537.9094;342
2024-05-15T22:04:39.899;599616802827219276;3545.6008;192
2024-05-15T22:04:39.907;599616802834910648;3553.2922;309
2024-05-15T22:04:39.914;599616802842602020;3560.9836;271
2024-05-15T22:04:39.922;599616802850293392;3568.675;233
2024-05-15T22:04:39.930;599616802857984764;3576.3665;283
2024-05-15T22:04:39.938;599616802865676136;3584.0579;276
2024-05-15T22:04:39.945;599616802873367508;3591.749;268
2024-05-15T22:04:39.953;599616802881058880;3599.4404;326
2024-05-15T22:04:39.961;599616802888750252;3607.1318;340
2024-05-15T22:04:39.968;599616802896441624;3614.8232;285
2024-05-15T22:04:39.976;599616802904132996;3622.5146;247
2024-05-15T22:04:39.984;599616802911824368;3630.206;238
2024-05-15T22:04:39.991;599616802919515740;3637.8975;216
2024-05-15T22:04:39.999;599616802927207112;3645.5886;204
2024-05-15T22:04:40.007;599616802934898484;3653.28;216
2024-05-15T22:04:40.014;599616802942589856;3660.9714;233
2024-05-15T22:04:40.022;599616802950281228;3668.6628;228
2024-05-15T22:04:40.030;599616802957972600;3676.3542;228
2024-05-15T22:04:40.038;599616802965663972;3684.0457;254
2024-05-15T22:04:40.045;599616802973355344;3691.7368;292
2024-05-15T22:04:40.053;599616802981046716;3699.4285;299
2024-05-15T22:04:40.061;599616802988738088;3707.1196;280
2024-05-15T22:04:40.068;599616802996429460;3714.811;268
2024-05-15T22:04:40.076;599616803004120832;3722.5024;280
2024-05-15T22:04:40.084;599616803011812204;3730.1938;288
2024-05-15T22:04:40.091;599616803019503576;3737.8853;268
2024-05-15T22:04:40.099;599616803027194948;3745.5764;235
2024-05-15T22:04:40.107;599616803034886320;3753.268;199
2024-05-15T22:04:40.114;599616803042577692;3760.9592;173
2024-05-15T22:04:40.122;599616803050269064;3768.6506;169
2024-05-15T22:04:40.130;599616803057960436;3776.342;202
2024-05-15T22:04:40.138;599616803065651808;3784.0334;240
2024-05-15T22:04:40.145;599616803073343180;3791.7249;252
2024-05-15T22:04:40.153;599616803081034552;3799.416;247
2024-05-15T22:04:40.161;599616803088725924;3807.1077;249
2024-05-15T22:04:40.168;599616803096417296;3814.7988;271
2024-05-15T22:04:40.176;599616803104108668;3822.4905;290
2024-05-15T22:04:40.184;599616803111800040;3830.1816;304
2024-05-15T22:04:40.191;599616803119491412;3837.873;330
2024-05-15T22:04:40.199;599616803127182784;3845.5645;347
2024-05-15T22:04:40.207;599616803134874156;3853.2556;328
2024-05-15T22:04:40.214;599616803142565528;3860.9473;321
2024-05-15T22:04:40.222;599616803150256900;3868.6384;349
2024-05-15T22:04:40.230;599616803157948272;3876.33;371
2024-05-15T22:04:40.238;599616803165639644;3884.0212;364
2024-05-15T22:04:40.245;599616803173331016;3891.7124;359
2024-05-15T22:04:40.253;599616803181022388;3899.404;368
2024-05-15T22:04:40.261;599616803188713760;3907.0952;378
2024-05-15T22:04:40.268;599616803196405132;3914.7869;378
2024-05-15T22:04:40.276;599616803204096504;3922.478;392
2024-05-15T22:04:40.284;599616803211787884;3930.1697;433
2024-05-15T22:04:40.291;599616803219479256;3937.8608;452
2024-05-15T22:04:40.299;599616803227170628;3945.5522;426
2024-05-15T22:04:40.307;599616803234862000;3953.2437;407
2024-05-15T22:04:40.314;599616803242553372;3960.9348;390
2024-05-15T22:04:40.322;599616803250244744;3968.6265;316
2024-05-15T22:04:40.330;599616803257936116;3976.3176;240
2024-05-15T22:04:40.338;599616803265627488;3984.0093;195
2024-05-15T22:04:40.345;599616803273318860;3991.7004;88
2024-05-15T22:04:40.353;599616803281010232;3999.3918;-45
2024-05-15T22:04:40.361;599616803288701604;4007.0833;16
2024-05-15T22:04:40.368;599616803296392976;4014.7744;426
2024-05-15T22:04:40.376;599616803304084348;4022.466;935
2024-05-15T22:04:40.384;599616803311775720;4030.1572;1002
2024-05-15T22:04:40.391;599616803319467092;4037.8489;483
2024-05-15T22:04:40.399;599616803327158464;4045.54;-2
2024-05-15T22:04:40.407;599616803334849836;4053.2314;7
2024-05-15T22:04:40.414;599616803342541208;4060.9229;119
2024-05-15T22:04:40.422;599616803350232580;4068.6143;45
2024-05-15T22:04:40.430;599616803357923952;4076.3057;26
2024-05-15T22:04:40.437;599616803365615324;4083.9968;80
2024-05-15T22:04:40.445;599616803373306696;4091.6882;85
2024-05-15T22:04:40.453;599616803380998068;4099.38;97
2024-05-15T22:04:40.461;599616803388689440;4107.071;145
2024-05-15T22:04:40.468;599616803396380812;4114.7627;180
2024-05-15T22:04:40.476;599616803404072184;4122.4536;185
2024-05-15T22:04:40.484;599616803411763556;4130.1455;161
2024-05-15T22:04:40.491;599616803419454928;4137.8364;145
2024-05-15T22:04:40.499;599616803427146300;4145.528;142
2024-05-15T22:04:40.507;599616803434837672;4153.219;119
2024-05-15T22:04:40.514;599616803442529044;4160.9106;90
2024-05-15T22:04:40.522;599616803450220416;4168.602;109
2024-05-15T22:04:40.530;599616803457911788;4176.2935;128
2024-05-15T22:04:40.537;599616803465603160;4183.985;121
2024-05-15T22:04:40.545;599616803473294532;4191.6763;135
2024-05-15T22:04:40.553;599616803480985904;4199.367;161
2024-05-15T22:04:40.561;599616803488677276;4207.059;166
2024-05-15T22:04:40.568;599616803496368648;4214.75;154
2024-05-15T22:04:40.576;599616803504060020;4222.442;142
2024-05-15T22:04:40.584;599616803511751392;4230.133;138
2024-05-15T22:04:40.591;599616803519442764;4237.824;109
2024-05-15T22:04:40.599;599616803527134136;4245.5156;61
2024-05-15T22:04:40.607;599616803534825508;4253.207;69
2024-05-15T22:04:40.614;599616803542516880;4260.8984;104
2024-05-15T22:04:40.622;599616803550208252;4268.59;104
2024-05-15T22:04:40.630;599616803557899624;4276.2812;90
2024-05-15T22:04:40.637;599616803565590996;4283.9727;111
2024-05-15T22:04:40.645;599616803573282368;4291.664;159
2024-05-15T22:04:40.653;599616803580973740;4299.355;176
2024-05-15T22:04:40.661;599616803588665112;4307.047;166
2024-05-15T22:04:40.668;599616803596356484;4314.7383;169
2024-05-15T22:04:40.676;599616803604047856;4322.429;197
2024-05-15T22:04:40.684;599616803611739228;4330.1206;223
2024-05-15T22:04:40.691;599616803619430600;4337.812;233
2024-05-15T22:04:40.699;599616803627121972;4345.504;252
2024-05-15T22:04:40.707;599616803634813344;4353.195;273
2024-05-15T22:04:40.714;599616803642504716;4360.886;266
2024-05-15T22:04:40.722;599616803650196088;4368.5776;254
2024-05-15T22:04:40.730;599616803657887460;4376.2695;278
2024-05-15T22:04:40.737;599616803665578832;4383.9604;307
2024-05-15T22:04:40.745;599616803673270204;4391.652;297
2024-05-15T22:04:40.753;599616803680961576;4399.3433;278
2024-05-15T22:04:40.761;599616803688652948;4407.034;288
2024-05-15T22:04:40.768;599616803696344320;4414.726;311
2024-05-15T22:04:40.776;599616803704035692;4422.4175;321
2024-05-15T22:04:40.784;599616803711727064;4430.109;328
2024-05-15T22:04:40.791;599616803719418436;4437.8;359
2024-05-15T22:04:40.799;599616803727109808;4445.491;380
2024-05-15T22:04:40.807;599616803734801180;4453.183;357
2024-05-15T22:04:40.814;599616803742492552;4460.874;323
2024-05-15T22:04:40.822;599616803750183924;4468.5654;285
2024-05-15T22:04:40.830;599616803757875296;4476.257;223
2024-05-15T22:04:40.837;599616803765566668;4483.948;178
2024-05-15T22:04:40.845;599616803773258048;4491.6396;145
2024-05-15T22:04:40.853;599616803780949420;4499.331;66
2024-05-15T22:04:40.861;599616803788640792;4507.0225;2
2024-05-15T22:04:40.868;599616803796332164;4514.7134;169
2024-05-15T22:04:40.876;599616803804023536;4522.4053;647
2024-05-15T22:04:40.884;599616803811714908;4530.0967;1080
2024-05-15T22:04:40.891;599616803819406280;4537.788;945
2024-05-15T22:04:40.899;599616803827097652;4545.479;302
2024-05-15T22:04:40.907;599616803834789024;4553.1704;-114
2024-05-15T22:04:40.914;599616803842480396;4560.8623;-14
2024-05-15T22:04:40.922;599616803850171768;4568.5537;69
2024-05-15T22:04:40.930;599616803857863140;4576.2446;-33
2024-05-15T22:04:40.937;599616803865554512;4583.936;-21
2024-05-15T22:04:40.945;599616803873245884;4591.6274;42
2024-05-15T22:04:40.953;599616803880937256;4599.319;26
2024-05-15T22:04:40.961;599616803888628628;4607.0103;26
2024-05-15T22:04:40.968;599616803896320000;4614.7017;80
2024-05-15T22:04:40.976;599616803904011372;4622.393;116
2024-05-15T22:04:40.984;599616803911702744;4630.0845;123
2024-05-15T22:04:40.991;599616803919394116;4637.776;121
2024-05-15T22:04:40.999;599616803927085488;4645.4673;135
2024-05-15T22:04:41.007;599616803934776860;4653.158;152
2024-05-15T22:04:41.014;599616803942468232;4660.8496;126
2024-05-15T22:04:41.022;599616803950159604;4668.5415;102
2024-05-15T22:04:41.030;599616803957850976;4676.233;99
2024-05-15T22:04:41.037;599616803965542348;4683.924;80
2024-05-15T22:04:41.045;599616803973233720;4691.615;66
2024-05-15T22:04:41.053;599616803980925092;4699.3066;73
2024-05-15T22:04:41.060;599616803988616464;4706.998;97
2024-05-15T22:04:41.068;599616803996307836;4714.6895;121
2024-05-15T22:04:41.076;599616804003999208;4722.381;107
2024-05-15T22:04:41.084;599616804011690580;4730.0723;49
2024-05-15T22:04:41.091;599616804019381952;4737.763;21
2024-05-15T22:04:41.099;599616804027073324;4745.455;35
2024-05-15T22:04:41.107;599616804034764696;4753.1465;33
2024-05-15T22:04:41.114;599616804042456068;4760.8374;30
2024-05-15T22:04:41.122;599616804050147440;4768.529;49
2024-05-15T22:04:41.130;599616804057838812;4776.2207;47
2024-05-15T22:04:41.137;599616804065530184;4783.912;28
2024-05-15T22:04:41.145;599616804073221556;4791.603;42
2024-05-15T22:04:41.153;599616804080912928;4799.2944;80
2024-05-15T22:04:41.160;599616804088604300;4806.986;109
2024-05-15T22:04:41.168;599616804096295672;4814.6777;111
2024-05-15T22:04:41.176;599616804103987044;4822.3687;102
2024-05-15T22:04:41.184;599616804111678416;4830.06;126
2024-05-15T22:04:41.191;599616804119369788;4837.7515;161
2024-05-15T22:04:41.199;599616804127061160;4845.4424;164
2024-05-15T22:04:41.207;599616804134752532;4853.1343;169
2024-05-15T22:04:41.214;599616804142443904;4860.8257;197
2024-05-15T22:04:41.222;599616804150135276;4868.517;202
2024-05-15T22:04:41.230;599616804157826648;4876.208;188
2024-05-15T22:04:41.237;599616804165518020;4883.8994;202
2024-05-15T22:04:41.245;599616804173209392;4891.5913;240
2024-05-15T22:04:41.253;599616804180900764;4899.282;249
2024-05-15T22:04:41.260;599616804188592136;4906.9736;216
2024-05-15T22:04:41.268;599616804196283508;4914.665;204
2024-05-15T22:04:41.276;599616804203974880;4922.357;254
2024-05-15T22:04:41.284;599616804211666252;4930.048;288
2024-05-15T22:04:41.291;599616804219357624;4937.7393;283
2024-05-15T22:04:41.299;599616804227048996;4945.4307;299
2024-05-15T22:04:41.307;599616804234740368;4953.1216;321
2024-05-15T22:04:41.314;599616804242431740;4960.8135;299
2024-05-15T22:04:41.322;599616804250123112;4968.505;252
2024-05-15T22:04:41.330;599616804257814484;4976.1963;199
2024-05-15T22:04:41.337;599616804265505856;4983.887;161
2024-05-15T22:04:41.345;599616804273197228;4991.5786;173
2024-05-15T22:04:41.353;599616804280888600;4999.2705;166
2024-05-15T22:04:41.360;599616804288579972;5006.9614;95
2024-05-15T22:04:41.368;599616804296271344;5014.653;71
2024-05-15T22:04:41.376;599616804303962716;5022.344;266
2024-05-15T22:04:41.384;599616804311654088;5030.0356;721
2024-05-15T22:04:41.391;599616804319345460;5037.727;1099
2024-05-15T22:04:41.399;599616804327036832;5045.4185;923
2024-05-15T22:04:41.407;599616804334758308;5053.14;314
2024-05-15T22:04:41.414;599616804342449262;5060.8306;-14
2024-05-15T22:04:41.422;599616804350140216;5068.522;97
2024-05-15T22:04:41.430;599616804357831170;5076.213;142
2024-05-15T22:04:41.437;599616804365522124;5083.9033;52
2024-05-15T22:04:41.445;599616804373213078;5091.5947;71
2024-05-15T22:04:41.453;599616804380904032;5099.2856;109
2024-05-15T22:04:41.460;599616804388594986;5106.9766;73
2024-05-15T22:04:41.468;599616804396285940;5114.6675;35
2024-05-15T22:04:41.476;599616804403976894;5122.3584;28
2024-05-15T22:04:41.484;599616804411667848;5130.0493;57
2024-05-15T22:04:41.491;599616804419358802;5137.74;80
2024-05-15T22:04:41.499;599616804427049756;5145.4316;69
2024-05-15T22:04:41.507;599616804434740710;5153.122;80
2024-05-15T22:04:41.514;599616804442431664;5160.813;133
2024-05-15T22:04:41.522;599616804450122618;5168.5044;147
2024-05-15T22:04:41.530;599616804457813572;5176.1953;116
2024-05-15T22:04:41.537;599616804465504526;5183.886;104
2024-05-15T22:04:41.545;599616804473195480;5191.577;99
2024-05-15T22:04:41.553;599616804480886434;5199.268;69
2024-05-15T22:04:41.560;599616804488577388;5206.959;52
2024-05-15T22:04:41.568;599616804496268342;5214.65;66
2024-05-15T22:04:41.576;599616804503959296;5222.3413;42
2024-05-15T22:04:41.584;599616804511650250;5230.0317;-16
2024-05-15T22:04:41.591;599616804519341204;5237.7227;-38
2024-05-15T22:04:41.599;599616804527032158;5245.414;-23
2024-05-15T22:04:41.607;599616804534723112;5253.1045;-7
2024-05-15T22:04:41.614;599616804542414066;5260.796;-2
2024-05-15T22:04:41.622;599616804550105020;5268.487;2
2024-05-15T22:04:41.630;599616804557795974;5276.1772;11
2024-05-15T22:04:41.637;599616804565486928;5283.8687;26
2024-05-15T22:04:41.645;599616804573177882;5291.5596;30
2024-05-15T22:04:41.653;599616804580868836;5299.2505;30
2024-05-15T22:04:41.660;599616804588559790;5306.9414;57
2024-05-15T22:04:41.668;599616804596250744;5314.6323;104
2024-05-15T22:04:41.676;599616804603941698;5322.323;114
2024-05-15T22:04:41.684;599616804611632652;5330.014;92
2024-05-15T22:04:41.691;599616804619323606;5337.7056;102
2024-05-15T22:04:41.699;599616804627014560;5345.396;138
2024-05-15T22:04:41.707;599616804634705514;5353.087;154
2024-05-15T22:04:41.714;599616804642396468;5360.7783;164
2024-05-15T22:04:41.722;599616804650087422;5368.4688;190
2024-05-15T22:04:41.730;599616804657778376;5376.1597;197
2024-05-15T22:04:41.737;599616804665469330;5383.851;183
2024-05-15T22:04:41.745;599616804673160284;5391.542;190
2024-05-15T22:04:41.753;599616804680851238;5399.233;221
2024-05-15T22:04:41.760;599616804688542192;5406.924;233
2024-05-15T22:04:41.768;599616804696233146;5414.6147;214
2024-05-15T22:04:41.776;599616804703924100;5422.3057;209
2024-05-15T22:04:41.783;599616804711615054;5429.9966;240
2024-05-15T22:04:41.791;599616804719306008;5437.688;266
2024-05-15T22:04:41.799;599616804726996962;5445.3784;278
2024-05-15T22:04:41.807;599616804734687916;5453.0693;295
2024-05-15T22:04:41.814;599616804742378870;5460.7607;304
2024-05-15T22:04:41.822;599616804750069824;5468.451;259
2024-05-15T22:04:41.830;599616804757760778;5476.1426;178
2024-05-15T22:04:41.837;599616804765451732;5483.8335;119
2024-05-15T22:04:41.845;599616804773142686;5491.524;88
2024-05-15T22:04:41.853;599616804780833640;5499.2153;85
2024-05-15T22:04:41.860;599616804788524594;5506.9062;71
2024-05-15T22:04:41.868;599616804796215548;5514.597;21
2024-05-15T22:04:41.876;599616804803906502;5522.288;61
2024-05-15T22:04:41.883;599616804811597456;5529.979;347
2024-05-15T22:04:41.891;599616804819288410;5537.67;809
2024-05-15T22:04:41.899;599616804826979364;5545.361;1052
2024-05-15T22:04:41.907;599616804834670318;5553.0522;723
2024-05-15T22:04:41.914;599616804842361272;5560.7427;145
2024-05-15T22:04:41.922;599616804850052226;5568.4336;-45
2024-05-15T22:04:41.930;599616804857743180;5576.125;73
2024-05-15T22:04:41.937;599616804865434134;5583.816;76
2024-05-15T22:04:41.945;599616804873125088;5591.507;23
2024-05-15T22:04:41.953;599616804880816042;5599.1978;47
2024-05-15T22:04:41.960;599616804888506996;5606.8887;59
2024-05-15T22:04:41.968;599616804896167858;5614.5493;52
2024-05-15T22:04:41.976;599616804903859230;5622.2407;66
2024-05-15T22:04:41.983;599616804911550602;5629.932;90
2024-05-15T22:04:41.991;599616804919241974;5637.624;119
2024-05-15T22:04:41.999;599616804926933346;5645.315;140
2024-05-15T22:04:42.007;599616804934624718;5653.0063;85
2024-05-15T22:04:42.014;599616804942316090;5660.6978;16
2024-05-15T22:04:42.022;599616804950007462;5668.3887;45
2024-05-15T22:04:42.030;599616804957698834;5676.0806;107
2024-05-15T22:04:42.037;599616804965390206;5683.772;92
2024-05-15T22:04:42.045;599616804973081578;5691.4634;47
2024-05-15T22:04:42.053;599616804980772950;5699.1543;38
2024-05-15T22:04:42.060;599616804988464322;5706.8457;19
2024-05-15T22:04:42.068;599616804996155694;5714.5376;-30
2024-05-15T22:04:42.076;599616805003847066;5722.2285;-45
2024-05-15T22:04:42.083;599616805011538438;5729.92;-16
2024-05-15T22:04:42.091;599616805019229810;5737.6113;-11
2024-05-15T22:04:42.099;599616805026921182;5745.303;-40
2024-05-15T22:04:42.106;599616805034612554;5752.994;-59
2024-05-15T22:04:42.114;599616805042303926;5760.6855;-42
2024-05-15T22:04:42.122;599616805049995298;5768.377;-21
2024-05-15T22:04:42.130;599616805057686670;5776.068;-21
2024-05-15T22:04:42.137;599616805065378042;5783.76;-21
2024-05-15T22:04:42.145;599616805073069414;5791.451;-14
2024-05-15T22:04:42.153;599616805080760786;5799.1426;-11
2024-05-15T22:04:42.160;599616805088452158;5806.8335;-9
2024-05-15T22:04:42.168;599616805096143530;5814.525;9
2024-05-15T22:04:42.176;599616805103834902;5822.217;45
2024-05-15T22:04:42.183;599616805111526274;5829.908;61
2024-05-15T22:04:42.191;599616805119217646;5837.599;52
2024-05-15T22:04:42.199;599616805126909018;5845.2905;61
2024-05-15T22:04:42.206;599616805134600390;5852.982;109
2024-05-15T22:04:42.214;599616805142291762;5860.6733;130
2024-05-15T22:04:42.222;599616805149983134;5868.3647;123
2024-05-15T22:04:42.230;599616805157674506;5876.056;142
2024-05-15T22:04:42.237;599616805165365878;5883.7476;161
2024-05-15T22:04:42.245;599616805173057250;5891.439;154
2024-05-15T22:04:42.253;599616805180748622;5899.1304;159
2024-05-15T22:04:42.260;599616805188439994;5906.822;195
2024-05-15T22:04:42.268;599616805196131366;5914.5127;216
2024-05-15T22:04:42.276;599616805203822738;5922.204;214
2024-05-15T22:04:42.283;599616805211514110;5929.896;211
2024-05-15T22:04:42.291;599616805219205482;5937.5874;230
2024-05-15T22:04:42.299;599616805226896854;5945.2783;264
2024-05-15T22:04:42.306;599616805234588226;5952.9697;271
2024-05-15T22:04:42.314;599616805242279598;5960.661;242
2024-05-15T22:04:42.322;599616805249970970;5968.3525;214
2024-05-15T22:04:42.330;599616805257662342;5976.044;230
2024-05-15T22:04:42.337;599616805265353714;5983.7354;233
2024-05-15T22:04:42.345;599616805273045086;5991.427;157
2024-05-15T22:04:42.353;599616805280736458;5999.1177;85
2024-05-15T22:04:42.360;599616805288427830;6006.8096;88
2024-05-15T22:04:42.368;599616805296119202;6014.501;102
2024-05-15T22:04:42.376;599616805303810574;6022.192;257
2024-05-15T22:04:42.383;599616805311501946;6029.8833;692
2024-05-15T22:04:42.391;599616805319193318;6037.575;1035
2024-05-15T22:04:42.399;599616805326884690;6045.2666;787
2024-05-15T22:04:42.406;599616805334576062;6052.9575;221
2024-05-15T22:04:42.414;599616805342267434;6060.649;-21
2024-05-15T22:04:42.422;599616805349958806;6068.3403;61
2024-05-15T22:04:42.430;599616805357650178;6076.032;73
2024-05-15T22:04:42.437;599616805365341550;6083.723;23
2024-05-15T22:04:42.445;599616805373032922;6091.4146;73
2024-05-15T22:04:42.453;599616805380724294;6099.106;116
2024-05-15T22:04:42.460;599616805388415666;6106.797;78
2024-05-15T22:04:42.468;599616805396107038;6114.489;73
2024-05-15T22:04:42.476;599616805403798410;6122.18;116
2024-05-15T22:04:42.483;599616805411489782;6129.8716;135
2024-05-15T22:04:42.491;599616805419181154;6137.5625;149
2024-05-15T22:04:42.499;599616805426872526;6145.254;180
2024-05-15T22:04:42.506;599616805434563898;6152.946;207
2024-05-15T22:04:42.514;599616805442255270;6160.6367;207
2024-05-15T22:04:42.522;599616805449946642;6168.328;207
2024-05-15T22:04:42.530;599616805457638022;6176.0195;242
2024-05-15T22:04:42.537;599616805465329394;6183.7114;276
2024-05-15T22:04:42.545;599616805473020766;6191.4023;252
2024-05-15T22:04:42.553;599616805480712138;6199.0938;204
2024-05-15T22:04:42.560;599616805488403510;6206.785;152
2024-05-15T22:04:42.568;599616805496094882;6214.476;78
2024-05-15T22:04:42.576;599616805503786254;6222.168;19
2024-05-15T22:04:42.583;599616805511477626;6229.8594;-11
2024-05-15T22:04:42.591;599616805519168998;6237.551;-9
2024-05-15T22:04:42.599;599616805526860370;6245.2417;0
2024-05-15T22:04:42.606;599616805534551742;6252.933;-26
2024-05-15T22:04:42.614;599616805542243114;6260.625;-45
2024-05-15T22:04:42.622;599616805549934486;6268.316;-26
2024-05-15T22:04:42.630;599616805557625858;6276.0073;-2
2024-05-15T22:04:42.637;599616805565317230;6283.6987;4
2024-05-15T22:04:42.645;599616805573008602;6291.3906;0
2024-05-15T22:04:42.653;599616805580699974;6299.0815;-2
2024-05-15T22:04:42.660;599616805588391346;6306.773;23
2024-05-15T22:04:42.668;599616805596082718;6314.4644;57
2024-05-15T22:04:42.676;599616805603774090;6322.156;73
2024-05-15T22:04:42.683;599616805611465462;6329.847;90
2024-05-15T22:04:42.691;599616805619156834;6337.5386;102
2024-05-15T22:04:42.699;599616805626848206;6345.23;102
2024-05-15T22:04:42.706;599616805634539578;6352.921;123
2024-05-15T22:04:42.714;599616805642230950;6360.6123;154
2024-05-15T22:04:42.722;599616805649922322;6368.304;166
2024-05-15T22:04:42.729;599616805657613694;6375.9956;173
2024-05-15T22:04:42.737;599616805665305066;6383.6865;192
2024-05-15T22:04:42.745;599616805672996438;6391.378;202
2024-05-15T22:04:42.753;599616805680687810;6399.0693;197
2024-05-15T22:04:42.760;599616805688379182;6406.7607;202
2024-05-15T22:04:42.768;599616805696070554;6414.452;226
2024-05-15T22:04:42.776;599616805703761926;6422.1436;257
2024-05-15T22:04:42.783;599616805711453298;6429.835;259
2024-05-15T22:04:42.791;599616805719144670;6437.5264;252
2024-05-15T22:04:42.799;599616805726836042;6445.218;264
2024-05-15T22:04:42.806;599616805734527414;6452.909;247
2024-05-15T22:04:42.814;599616805742218786;6460.6;209
2024-05-15T22:04:42.822;599616805749910158;6468.2915;216
2024-05-15T22:04:42.829;599616805757601530;6475.9834;238
2024-05-15T22:04:42.837;599616805765292902;6483.675;209
2024-05-15T22:04:42.845;599616805772984274;6491.3657;116
2024-05-15T22:04:42.853;599616805780675646;6499.057;23
2024-05-15T22:04:42.860;599616805788367018;6506.7485;14
2024-05-15T22:04:42.868;599616805796058390;6514.4404;161
2024-05-15T22:04:42.876;599616805803749762;6522.1313;537
2024-05-15T22:04:42.883;599616805811441134;6529.8228;987
2024-05-15T22:04:42.891;599616805819132506;6537.514;1061
2024-05-15T22:04:42.899;599616805826823878;6545.205;559
2024-05-15T22:04:42.906;599616805834515250;6552.897;38
2024-05-15T22:04:42.914;599616805842206622;6560.5884;21
2024-05-15T22:04:42.922;599616805849897994;6568.28;147
2024-05-15T22:04:42.929;599616805857589366;6575.9707;73
2024-05-15T22:04:42.937;599616805865280738;6583.6626;26
2024-05-15T22:04:42.945;599616805872972110;6591.354;90
2024-05-15T22:04:42.953;599616805880663482;6599.045;126
2024-05-15T22:04:42.960;599616805888354854;6606.7363;133
2024-05-15T22:04:42.968;599616805896046226;6614.4277;135
2024-05-15T22:04:42.976;599616805903737598;6622.1196;123
2024-05-15T22:04:42.983;599616805911428970;6629.8105;140
2024-05-15T22:04:42.991;599616805919120342;6637.502;185
2024-05-15T22:04:42.999;599616805926811714;6645.1934;202
2024-05-15T22:04:43.006;599616805934503086;6652.8843;207
2024-05-15T22:04:43.014;599616805942194458;6660.576;235
2024-05-15T22:04:43.022;599616805949885830;6668.2676;252
2024-05-15T22:04:43.029;599616805957577202;6675.959;254
2024-05-15T22:04:43.037;599616805965268574;6683.65;278
2024-05-15T22:04:43.045;599616805972959946;6691.3413;295
2024-05-15T22:04:43.053;599616805980651318;6699.033;245
2024-05-15T22:04:43.060;599616805988342690;6706.724;171
2024-05-15T22:04:43.068;599616805996034062;6714.4155;145
2024-05-15T22:04:43.076;599616806003725434;6722.107;130
2024-05-15T22:04:43.083;599616806011416806;6729.799;99
2024-05-15T22:04:43.091;599616806019108186;6737.4897;83
2024-05-15T22:04:43.099;599616806026799558;6745.181;85
2024-05-15T22:04:43.106;599616806034490930;6752.8726;71
2024-05-15T22:04:43.114;599616806042182302;6760.5635;0
2024-05-15T22:04:43.122;599616806049873674;6768.2554;-85
2024-05-15T22:04:43.129;599616806057565046;6775.947;-80
2024-05-15T22:04:43.137;599616806065256418;6783.638;-23
2024-05-15T22:04:43.145;599616806072947790;6791.329;-26
2024-05-15T22:04:43.153;599616806080639162;6799.0205;-52
2024-05-15T22:04:43.160;599616806088330534;6806.7124;-42
2024-05-15T22:04:43.168;599616806096021906;6814.404;-4
2024-05-15T22:04:43.176;599616806103713278;6822.0947;30
2024-05-15T22:04:43.183;599616806111404650;6829.786;47
2024-05-15T22:04:43.191;599616806119096022;6837.478;66
2024-05-15T22:04:43.199;599616806126787394;6845.169;102
2024-05-15T22:04:43.206;599616806134478766;6852.8604;107
2024-05-15T22:04:43.214;599616806142170138;6860.552;102
2024-05-15T22:04:43.222;599616806149861510;6868.243;135
2024-05-15T22:04:43.229;599616806157552882;6875.9346;169
2024-05-15T22:04:43.237;599616806165244254;6883.626;176
2024-05-15T22:04:43.245;599616806172935626;6891.3174;169
2024-05-15T22:04:43.253;599616806180626998;6899.0083;171
2024-05-15T22:04:43.260;599616806188318370;6906.6997;192
2024-05-15T22:04:43.268;599616806196009742;6914.3916;211
2024-05-15T22:04:43.276;599616806203701114;6922.083;221
2024-05-15T22:04:43.283;599616806211392486;6929.774;257
2024-05-15T22:04:43.291;599616806219083858;6937.4653;290
2024-05-15T22:04:43.299;599616806226775230;6945.1567;252
2024-05-15T22:04:43.306;599616806234466602;6952.848;190
2024-05-15T22:04:43.314;599616806242157974;6960.5396;209
2024-05-15T22:04:43.322;599616806249849346;6968.231;268
2024-05-15T22:04:43.329;599616806257540718;6975.9224;273
2024-05-15T22:04:43.337;599616806265232090;6983.614;245
2024-05-15T22:04:43.345;599616806272923462;6991.305;199
2024-05-15T22:04:43.352;599616806280614834;6998.9966;95
2024-05-15T22:04:43.360;599616806288306206;7006.6875;107
2024-05-15T22:04:43.368;599616806295997578;7014.379;499
2024-05-15T22:04:43.376;599616806303688950;7022.071;1035
2024-05-15T22:04:43.383;599616806311380322;7029.762;1104
2024-05-15T22:04:43.391;599616806319071694;7037.453;590
2024-05-15T22:04:43.399;599616806326763066;7045.1445;90
2024-05-15T22:04:43.406;599616806334454438;7052.836;38
2024-05-15T22:04:43.414;599616806342145810;7060.528;119
2024-05-15T22:04:43.422;599616806349837182;7068.2188;57
2024-05-15T22:04:43.429;599616806357528554;7075.91;30
2024-05-15T22:04:43.437;599616806365219926;7083.6016;71
2024-05-15T22:04:43.445;599616806372911298;7091.2925;76
2024-05-15T22:04:43.452;599616806380602670;7098.9844;80
2024-05-15T22:04:43.460;599616806388294042;7106.676;111
2024-05-15T22:04:43.468;599616806395985414;7114.367;142
2024-05-15T22:04:43.476;599616806403676786;7122.058;152
2024-05-15T22:04:43.483;599616806411368158;7129.75;138
2024-05-15T22:04:43.491;599616806419059530;7137.4414;147
2024-05-15T22:04:43.499;599616806426750902;7145.1323;188
2024-05-15T22:04:43.506;599616806434442274;7152.8237;209
2024-05-15T22:04:43.514;599616806442133646;7160.515;218
2024-05-15T22:04:43.522;599616806449825018;7168.207;233
2024-05-15T22:04:43.529;599616806457516390;7175.898;254
2024-05-15T22:04:43.537;599616806465207762;7183.5894;283
2024-05-15T22:04:43.545;599616806472899134;7191.281;283
2024-05-15T22:04:43.552;599616806480590506;7198.9717;240
2024-05-15T22:04:43.560;599616806488281878;7206.6636;204
2024-05-15T22:04:43.568;599616806495973250;7214.355;173
2024-05-15T22:04:43.576;599616806503664622;7222.0464;109
2024-05-15T22:04:43.583;599616806511355994;7229.7373;66
2024-05-15T22:04:43.591;599616806519047366;7237.4287;78
2024-05-15T22:04:43.599;599616806526738738;7245.1206;76
2024-05-15T22:04:43.606;599616806534430110;7252.812;47
2024-05-15T22:04:43.614;599616806542121482;7260.503;52
2024-05-15T22:04:43.622;599616806549812854;7268.1943;64
2024-05-15T22:04:43.629;599616806557504226;7275.886;47
2024-05-15T22:04:43.637;599616806565195598;7283.577;42
2024-05-15T22:04:43.645;599616806572886970;7291.2686;71
2024-05-15T22:04:43.652;599616806580578350;7298.96;95
2024-05-15T22:04:43.660;599616806588269722;7306.6514;95
2024-05-15T22:04:43.668;599616806595961094;7314.343;97
2024-05-15T22:04:43.676;599616806603652466;7322.034;114
2024-05-15T22:04:43.683;599616806611343838;7329.7256;128
2024-05-15T22:04:43.691;599616806619035210;7337.4165;138
2024-05-15T22:04:43.699;599616806626726582;7345.108;157
2024-05-15T22:04:43.706;599616806634417954;7352.8;169
2024-05-15T22:04:43.714;599616806642109326;7360.491;126
2024-05-15T22:04:43.722;599616806649800698;7368.182;59
2024-05-15T22:04:43.729;599616806657492070;7375.8735;54
2024-05-15T22:04:43.737;599616806665183442;7383.5654;90
2024-05-15T22:04:43.745;599616806672874814;7391.2563;97
2024-05-15T22:04:43.752;599616806680566186;7398.9478;97
2024-05-15T22:04:43.760;599616806688257558;7406.639;114
2024-05-15T22:04:43.768;599616806695948930;7414.3306;147
2024-05-15T22:04:43.776;599616806703640302;7422.022;173
2024-05-15T22:04:43.783;599616806711331674;7429.7134;173
2024-05-15T22:04:43.791;599616806719023046;7437.405;157
2024-05-15T22:04:43.799;599616806726714418;7445.0957;123
2024-05-15T22:04:43.806;599616806734405790;7452.787;99
2024-05-15T22:04:43.814;599616806742097162;7460.479;111
2024-05-15T22:04:43.822;599616806749788534;7468.1704;154
2024-05-15T22:04:43.829;599616806757479906;7475.8613;152
2024-05-15T22:04:43.837;599616806765171278;7483.5527;92
2024-05-15T22:04:43.845;599616806772862650;7491.244;78
2024-05-15T22:04:43.852;599616806780554022;7498.936;233
2024-05-15T22:04:43.860;599616806788245394;7506.627;592
2024-05-15T22:04:43.868;599616806795936766;7514.3184;940
2024-05-15T22:04:43.876;599616806803628138;7522.01;837
2024-05-15T22:04:43.883;599616806811319510;7529.701;318
2024-05-15T22:04:43.891;599616806819010882;7537.3926;0
2024-05-15T22:04:43.899;599616806826702254;7545.084;54
2024-05-15T22:04:43.906;599616806834393626;7552.7754;57
2024-05-15T22:04:43.914;599616806842084998;7560.4663;-35
2024-05-15T22:04:43.922;599616806849776370;7568.158;-9
2024-05-15T22:04:43.929;599616806857467742;7575.8496;38
2024-05-15T22:04:43.937;599616806865159114;7583.5405;19
2024-05-15T22:04:43.945;599616806872850486;7591.232;23
2024-05-15T22:04:43.952;599616806880541858;7598.9233;49
2024-05-15T22:04:43.960;599616806888233230;7606.615;57
2024-05-15T22:04:43.968;599616806895924602;7614.306;83
2024-05-15T22:04:43.975;599616806903615974;7621.9976;121
2024-05-15T22:04:43.983;599616806911307346;7629.689;126
2024-05-15T22:04:43.991;599616806918998718;7637.38;116
2024-05-15T22:04:43.999;599616806926690090;7645.072;140
2024-05-15T22:04:44.006;599616806934381462;7652.763;183
2024-05-15T22:04:44.014;599616806942072834;7660.4546;204
2024-05-15T22:04:44.022;599616806949764206;7668.1455;216
2024-05-15T22:04:44.029;599616806957455578;7675.8374;221
2024-05-15T22:04:44.037;599616806965146950;7683.529;195
2024-05-15T22:04:44.045;599616806972838322;7691.2197;157
2024-05-15T22:04:44.052;599616806980529694;7698.911;147
2024-05-15T22:04:44.060;599616806988221066;7706.6025;135
2024-05-15T22:04:44.068;599616806995912438;7714.2944;114
2024-05-15T22:04:44.075;599616807003603810;7721.9854;90
2024-05-15T22:04:44.083;599616807011295182;7729.677;28
2024-05-15T22:04:44.091;599616807018986554;7737.368;-19
2024-05-15T22:04:44.099;599616807026677926;7745.0596;2
2024-05-15T22:04:44.106;599616807034369298;7752.751;7
2024-05-15T22:04:44.114;599616807042060670;7760.4424;-33
2024-05-15T22:04:44.122;599616807049752042;7768.134;-30
2024-05-15T22:04:44.129;599616807057443414;7775.8247;-9
2024-05-15T22:04:44.137;599616807065134786;7783.516;-30
2024-05-15T22:04:44.145;599616807072826158;7791.208;-35
2024-05-15T22:04:44.152;599616807080517530;7798.8994;9
2024-05-15T22:04:44.160;599616807088208902;7806.5903;38
2024-05-15T22:04:44.168;599616807095900274;7814.2817;11
2024-05-15T22:04:44.175;599616807103591646;7821.9736;-7
2024-05-15T22:04:44.183;599616807111283018;7829.6646;28
2024-05-15T22:04:44.191;599616807118974390;7837.356;57
2024-05-15T22:04:44.199;599616807126665762;7845.0474;38
2024-05-15T22:04:44.206;599616807134357134;7852.739;38
2024-05-15T22:04:44.214;599616807142058594;7860.44;73
2024-05-15T22:04:44.222;599616807149749826;7868.1313;66
2024-05-15T22:04:44.229;599616807157441058;7875.8228;38
2024-05-15T22:04:44.237;599616807165132290;7883.5137;61
2024-05-15T22:04:44.245;599616807172823522;7891.205;111
2024-05-15T22:04:44.252;599616807180514754;7898.8965;123
2024-05-15T22:04:44.260;599616807188205986;7906.588;116
2024-05-15T22:04:44.268;599616807195897218;7914.279;126
2024-05-15T22:04:44.275;599616807203588450;7921.97;130
2024-05-15T22:04:44.283;599616807211279682;7929.6616;111
2024-05-15T22:04:44.291;599616807218970914;7937.3525;83
2024-05-15T22:04:44.299;599616807226662146;7945.044;99
2024-05-15T22:04:44.306;599616807234353378;7952.7354;135
2024-05-15T22:04:44.314;599616807242044610;7960.426;83
2024-05-15T22:04:44.322;599616807249735842;7968.117;-40
2024-05-15T22:04:44.329;599616807257427074;7975.8086;-76
2024-05-15T22:04:44.337;599616807265118306;7983.5;69
2024-05-15T22:04:44.345;599616807272809538;7991.191;440
2024-05-15T22:04:44.352;599616807280500770;7998.8823;864
2024-05-15T22:04:44.360;599616807288192002;8006.5737;861
2024-05-15T22:04:44.368;599616807295883234;8014.2646;352
2024-05-15T22:04:44.375;599616807303574466;8021.956;-73
2024-05-15T22:04:44.383;599616807311265698;8029.6475;-69
2024-05-15T22:04:44.391;599616807318956930;8037.339;28
2024-05-15T22:04:44.399;599616807326648162;8045.03;-19
2024-05-15T22:04:44.406;599616807334339394;8052.721;-61
2024-05-15T22:04:44.414;599616807342030626;8060.4126;-54
2024-05-15T22:04:44.422;599616807349721858;8068.1035;-57
2024-05-15T22:04:44.429;599616807357413090;8075.795;-38
2024-05-15T22:04:44.437;599616807365104322;8083.486;-14
2024-05-15T22:04:44.445;599616807372795554;8091.177;-16
2024-05-15T22:04:44.452;599616807380486786;8098.868;-11
2024-05-15T22:04:44.460;599616807388178018;8106.5596;11
2024-05-15T22:04:44.468;599616807395869250;8114.251;28
2024-05-15T22:04:44.475;599616807403560482;8121.942;45
2024-05-15T22:04:44.483;599616807411251714;8129.6333;78
2024-05-15T22:04:44.491;599616807418942946;8137.3247;104
2024-05-15T22:04:44.499;599616807426634178;8145.0156;97
2024-05-15T22:04:44.506;599616807434325410;8152.707;99
2024-05-15T22:04:44.514;599616807442016642;8160.3984;140
2024-05-15T22:04:44.522;599616807449707874;8168.09;178
2024-05-15T22:04:44.529;599616807457399106;8175.781;169
2024-05-15T22:04:44.537;599616807465090338;8183.472;138
2024-05-15T22:04:44.545;599616807472781570;8191.1636;135
2024-05-15T22:04:44.552;599616807480472802;8198.8545;152
2024-05-15T22:04:44.560;599616807488164034;8206.545;142
2024-05-15T22:04:44.568;599616807495855266;8214.236;104
2024-05-15T22:04:44.575;599616807503546498;8221.928;76
2024-05-15T22:04:44.583;599616807511237730;8229.619;52
2024-05-15T22:04:44.591;599616807518928962;8237.311;-11
2024-05-15T22:04:44.599;599616807526620194;8245.002;-52
2024-05-15T22:04:44.606;599616807534311426;8252.693;-23
2024-05-15T22:04:44.614;599616807542002658;8260.384;-11
2024-05-15T22:04:44.622;599616807549693890;8268.075;-21
2024-05-15T22:04:44.629;599616807557385122;8275.767;-9
2024-05-15T22:04:44.637;599616807565076354;8283.458;-11
2024-05-15T22:04:44.645;599616807572767586;8291.149;-23
2024-05-15T22:04:44.652;599616807580458818;8298.841;-9
2024-05-15T22:04:44.660;599616807588150050;8306.532;21
2024-05-15T22:04:44.668;599616807595841282;8314.223;40
2024-05-15T22:04:44.675;599616807603532514;8321.914;40
2024-05-15T22:04:44.683;599616807611223746;8329.605;30
2024-05-15T22:04:44.691;599616807618914978;8337.296;42
2024-05-15T22:04:44.698;599616807626606210;8344.987;64
2024-05-15T22:04:44.706;599616807634297442;8352.679;69
2024-05-15T22:04:44.714;599616807641988674;8360.37;73
2024-05-15T22:04:44.722;599616807649679906;8368.062;92
2024-05-15T22:04:44.729;599616807657371138;8375.753;97
2024-05-15T22:04:44.737;599616807665062370;8383.444;85
2024-05-15T22:04:44.745;599616807672753602;8391.135;111
2024-05-15T22:04:44.752;599616807680444834;8398.826;154
2024-05-15T22:04:44.760;599616807688136066;8406.518;166
2024-05-15T22:04:44.768;599616807695827298;8414.209;154
2024-05-15T22:04:44.775;599616807703528592;8421.91;111
2024-05-15T22:04:44.783;599616807711219685;8429.602;71
2024-05-15T22:04:44.791;599616807718910778;8437.293;83
2024-05-15T22:04:44.798;599616807726601871;8444.983;102
2024-05-15T22:04:44.806;599616807734292964;8452.675;76
2024-05-15T22:04:44.814;599616807741984057;8460.366;33
2024-05-15T22:04:44.822;599616807749675150;8468.057;73
2024-05-15T22:04:44.829;599616807757366243;8475.748;345
2024-05-15T22:04:44.837;599616807765057336;8483.439;790
2024-05-15T22:04:44.845;599616807772748429;8491.13;942
2024-05-15T22:04:44.852;599616807780439522;8498.821;516
2024-05-15T22:04:44.860;599616807788130615;8506.513;-33
2024-05-15T22:04:44.868;599616807795821708;8514.203;-161
2024-05-15T22:04:44.875;599616807803512801;8521.895;-42
2024-05-15T22:04:44.883;599616807811203894;8529.586;-47
2024-05-15T22:04:44.891;599616807818894987;8537.276;-92
2024-05-15T22:04:44.898;599616807826586080;8544.968;-40
2024-05-15T22:04:44.906;599616807834277173;8552.659;11
2024-05-15T22:04:44.914;599616807841968266;8560.35;-4
2024-05-15T22:04:44.922;599616807849659359;8568.041;-38
2024-05-15T22:04:44.929;599616807857350452;8575.732;-38
2024-05-15T22:04:44.937;599616807865041545;8583.423;-4
2024-05-15T22:04:44.945;599616807872732638;8591.114;11
2024-05-15T22:04:44.952;599616807880423731;8598.806;11
2024-05-15T22:04:44.960;599616807888114824;8606.497;21
2024-05-15T22:04:44.968;599616807895805917;8614.188;42
2024-05-15T22:04:44.975;599616807903497010;8621.878;73
2024-05-15T22:04:44.983;599616807911188103;8629.569;97
2024-05-15T22:04:44.991;599616807918879196;8637.261;128
2024-05-15T22:04:44.998;599616807926570289;8644.952;164
2024-05-15T22:04:45.006;599616807934261382;8652.644;161
2024-05-15T22:04:45.014;599616807941952475;8660.335;147
2024-05-15T22:04:45.022;599616807949643568;8668.024;152
2024-05-15T22:04:45.029;599616807957334661;8675.716;145
2024-05-15T22:04:45.037;599616807965025754;8683.407;119
2024-05-15T22:04:45.045;599616807972716847;8691.099;109
2024-05-15T22:04:45.052;599616807980407940;8698.79;119
2024-05-15T22:04:45.060;599616807988099033;8706.481;123
2024-05-15T22:04:45.068;599616807995790126;8714.172;109
2024-05-15T22:04:45.075;599616808003481219;8721.862;66
2024-05-15T22:04:45.083;599616808011172312;8729.554;40
2024-05-15T22:04:45.091;599616808018863405;8737.245;30
2024-05-15T22:04:45.098;599616808026554498;8744.937;-21
2024-05-15T22:04:45.106;599616808034245591;8752.628;-66
2024-05-15T22:04:45.114;599616808041936684;8760.318;-38
2024-05-15T22:04:45.122;599616808049627777;8768.009;-4
2024-05-15T22:04:45.129;599616808057318870;8775.7;-14
2024-05-15T22:04:45.137;599616808065009963;8783.392;-21
2024-05-15T22:04:45.145;599616808072701056;8791.083;-9
2024-05-15T22:04:45.152;599616808080392149;8798.774;0
2024-05-15T22:04:45.160;599616808088083242;8806.465;-2
2024-05-15T22:04:45.168;599616808095774335;8814.156;11
2024-05-15T22:04:45.175;599616808103465428;8821.847;47
2024-05-15T22:04:45.183;599616808111156521;8829.538;57
2024-05-15T22:04:45.191;599616808118847614;8837.2295;28
2024-05-15T22:04:45.198;599616808126538707;8844.921;28
2024-05-15T22:04:45.206;599616808134229800;8852.611;71
2024-05-15T22:04:45.214;599616808141920893;8860.303;80
2024-05-15T22:04:45.221;599616808149611986;8867.993;83
2024-05-15T22:04:45.229;599616808157303079;8875.685;116
2024-05-15T22:04:45.237;599616808164994172;8883.376;138
2024-05-15T22:04:45.245;599616808172685265;8891.066;126
2024-05-15T22:04:45.252;599616808180376358;8898.758;126
2024-05-15T22:04:45.260;599616808188067451;8906.449;152
2024-05-15T22:04:45.268;599616808195758544;8914.141;149
2024-05-15T22:04:45.275;599616808203449637;8921.831;99
2024-05-15T22:04:45.283;599616808211140730;8929.522;61
2024-05-15T22:04:45.291;599616808218831823;8937.213;59
2024-05-15T22:04:45.298;599616808226522916;8944.904;30
2024-05-15T22:04:45.306;599616808234214009;8952.596;49
2024-05-15T22:04:45.314;599616808241905102;8960.287;330
2024-05-15T22:04:45.321;599616808249596195;8967.978;837
2024-05-15T22:04:45.329;599616808257287288;8975.669;1121
2024-05-15T22:04:45.337;599616808264958324;8983.34;816
2024-05-15T22:04:45.345;599616808272649696;8991.031;252
2024-05-15T22:04:45.352;599616808280341068;8998.723;69
2024-05-15T22:04:45.360;599616808288032440;9006.414;171
2024-05-15T22:04:45.368;599616808295723812;9014.105;83
2024-05-15T22:04:45.375;599616808303415184;9021.796;-54
2024-05-15T22:04:45.383;599616808311106556;9029.488;14
2024-05-15T22:04:45.391;599616808318797928;9037.18;71
2024-05-15T22:04:45.398;599616808326489300;9044.871;-2
2024-05-15T22:04:45.406;599616808334180672;9052.5625;-26
2024-05-15T22:04:45.414;599616808341872044;9060.254;28
2024-05-15T22:04:45.421;599616808349563416;9067.945;14
2024-05-15T22:04:45.429;599616808357254788;9075.636;-45
2024-05-15T22:04:45.437;599616808364946160;9083.327;-19
2024-05-15T22:04:45.445;599616808372637532;9091.019;42
2024-05-15T22:04:45.452;599616808380328904;9098.71;57
2024-05-15T22:04:45.460;599616808388020276;9106.402;54
2024-05-15T22:04:45.468;599616808395711648;9114.094;69
2024-05-15T22:04:45.475;599616808403403020;9121.785;92
2024-05-15T22:04:45.483;599616808411094392;9129.477;123
2024-05-15T22:04:45.491;599616808418785764;9137.167;142
2024-05-15T22:04:45.498;599616808426477136;9144.858;164
2024-05-15T22:04:45.506;599616808434168508;9152.55;190
2024-05-15T22:04:45.514;599616808441859880;9160.241;176
2024-05-15T22:04:45.521;599616808449551252;9167.933;130
2024-05-15T22:04:45.529;599616808457242624;9175.625;133
2024-05-15T22:04:45.537;599616808464933996;9183.316;164
2024-05-15T22:04:45.545;599616808472625368;9191.007;171
2024-05-15T22:04:45.552;599616808480316740;9198.698;164
2024-05-15T22:04:45.560;599616808488008112;9206.39;164
2024-05-15T22:04:45.568;599616808495699484;9214.081;166
2024-05-15T22:04:45.575;599616808503390856;9221.772;152
2024-05-15T22:04:45.583;599616808511082228;9229.464;126
2024-05-15T22:04:45.591;599616808518773600;9237.155;128
2024-05-15T22:04:45.598;599616808526464972;9244.846;111
2024-05-15T22:04:45.606;599616808534156344;9252.538;33
2024-05-15T22:04:45.614;599616808541847716;9260.2295;-2
2024-05-15T22:04:45.621;599616808549539088;9267.921;38
2024-05-15T22:04:45.629;599616808557230460;9275.612;69
2024-05-15T22:04:45.637;599616808564921832;9283.304;64
2024-05-15T22:04:45.644;599616808572613204;9290.995;57
2024-05-15T22:04:45.652;599616808580304576;9298.686;54
2024-05-15T22:04:45.660;599616808587995948;9306.377;57
2024-05-15T22:04:45.668;599616808595687320;9314.068;66
2024-05-15T22:04:45.675;599616808603378692;9321.761;73
2024-05-15T22:04:45.683;599616808611070064;9329.452;88
2024-05-15T22:04:45.691;599616808618761436;9337.144;104
2024-05-15T22:04:45.698;599616808626452808;9344.835;99
2024-05-15T22:04:45.706;599616808634144180;9352.525;90
2024-05-15T22:04:45.714;599616808641835552;9360.217;121
2024-05-15T22:04:45.721;599616808649526924;9367.908;154
2024-05-15T22:04:45.729;599616808657218296;9375.6;161
2024-05-15T22:04:45.737;599616808664909668;9383.291;164
2024-05-15T22:04:45.744;599616808672601040;9390.982;171
2024-05-15T22:04:45.752;599616808680292412;9398.675;183
2024-05-15T22:04:45.760;599616808687983784;9406.365;183
2024-05-15T22:04:45.768;599616808695675156;9414.057;164
2024-05-15T22:04:45.775;599616808703366528;9421.748;161
2024-05-15T22:04:45.783;599616808711057900;9429.439;135
2024-05-15T22:04:45.791;599616808718749272;9437.131;69
2024-05-15T22:04:45.798;599616808726440644;9444.822;159
2024-05-15T22:04:45.806;599616808734132016;9452.514;571
2024-05-15T22:04:45.814;599616808741823388;9460.204;1071
2024-05-15T22:04:45.821;599616808749514760;9467.896;1178
2024-05-15T22:04:45.829;599616808757206132;9475.588;728
2024-05-15T22:04:45.837;599616808764897504;9483.279;204
2024-05-15T22:04:45.844;599616808772588876;9490.971;130
2024-05-15T22:04:45.852;599616808780280248;9498.662;240
2024-05-15T22:04:45.860;599616808787971620;9506.354;188
2024-05-15T22:04:45.868;599616808795662992;9514.044;133
2024-05-15T22:04:45.875;599616808803354364;9521.735;99
2024-05-15T22:04:45.883;599616808811045736;9529.427;30
2024-05-15T22:04:45.891;599616808818737108;9537.119;38
2024-05-15T22:04:45.898;599616808826428488;9544.811;97
2024-05-15T22:04:45.906;599616808834119860;9552.502;114
2024-05-15T22:04:45.914;599616808841811232;9560.193;114
2024-05-15T22:04:45.921;599616808849502604;9567.885;107
2024-05-15T22:04:45.929;599616808857193976;9575.575;59
2024-05-15T22:04:45.937;599616808864885348;9583.267;4
2024-05-15T22:04:45.944;599616808872576720;9590.958;-21
2024-05-15T22:04:45.952;599616808880268092;9598.649;9
2024-05-15T22:04:45.960;599616808887959464;9606.341;54
2024-05-15T22:04:45.968;599616808895650836;9614.033;57
2024-05-15T22:04:45.975;599616808903342208;9621.725;47
2024-05-15T22:04:45.983;599616808911033580;9629.415;83
2024-05-15T22:04:45.991;599616808918724952;9637.106;123
2024-05-15T22:04:45.998;599616808926416324;9644.798;126
2024-05-15T22:04:46.006;599616808934107696;9652.489;104
2024-05-15T22:04:46.014;599616808941799068;9660.181;76
2024-05-15T22:04:46.021;599616808949490440;9667.872;52
2024-05-15T22:04:46.029;599616808957181812;9675.563;49
2024-05-15T22:04:46.037;599616808964873184;9683.255;66
2024-05-15T22:04:46.044;599616808972564556;9690.946;90
2024-05-15T22:04:46.052;599616808980255928;9698.638;92
2024-05-15T22:04:46.060;599616808987947300;9706.329;90
2024-05-15T22:04:46.068;599616808995638672;9714.0205;102
2024-05-15T22:04:46.075;599616809003330044;9721.712;90
2024-05-15T22:04:46.083;599616809011021416;9729.403;61
2024-05-15T22:04:46.091;599616809018712788;9737.094;47
2024-05-15T22:04:46.098;599616809026404160;9744.785;35
2024-05-15T22:04:46.106;599616809034095532;9752.477;14
2024-05-15T22:04:46.114;599616809041786904;9760.169;-9
2024-05-15T22:04:46.121;599616809049478276;9767.86;-23
2024-05-15T22:04:46.129;599616809057169648;9775.552;0
2024-05-15T22:04:46.137;599616809064861020;9783.243;30
2024-05-15T22:04:46.144;599616809072552392;9790.934;30
2024-05-15T22:04:46.152;599616809080243764;9798.625;19
2024-05-15T22:04:46.160;599616809087935136;9806.316;23
2024-05-15T22:04:46.168;599616809095626508;9814.008;35
2024-05-15T22:04:46.175;599616809103317880;9821.699;30
2024-05-15T22:04:46.183;599616809111009252;9829.392;35
2024-05-15T22:04:46.191;599616809118700624;9837.083;69
2024-05-15T22:04:46.198;599616809126391996;9844.773;97
2024-05-15T22:04:46.206;599616809134083368;9852.465;85
2024-05-15T22:04:46.214;599616809141774740;9860.156;90
2024-05-15T22:04:46.221;599616809149466112;9867.848;138
2024-05-15T22:04:46.229;599616809157157484;9875.539;159
2024-05-15T22:04:46.237;599616809164848856;9883.23;149
2024-05-15T22:04:46.244;599616809172540228;9890.922;149
2024-05-15T22:04:46.252;599616809180231600;9898.612;135
2024-05-15T22:04:46.260;599616809187922972;9906.305;99
2024-05-15T22:04:46.267;599616809195614344;9913.996;83
2024-05-15T22:04:46.275;599616809203305716;9921.6875;76
2024-05-15T22:04:46.283;599616809210997088;9929.379;47
2024-05-15T22:04:46.291;599616809218688460;9937.07;73
2024-05-15T22:04:46.298;599616809226379832;9944.762;321
2024-05-15T22:04:46.306;599616809234071204;9952.452;804
2024-05-15T22:04:46.314;599616809241762576;9960.144;1152
2024-05-15T22:04:46.321;599616809249453948;9967.835;916
2024-05-15T22:04:46.329;599616809257145320;9975.527;335
2024-05-15T22:04:46.337;599616809264836692;9983.219;88
2024-05-15T22:04:46.344;599616809272528064;9990.91;188
2024-05-15T22:04:46.352;599616809280219436;9998.602;190
2024-05-15T22:04:46.360;599616809287910808;10006.292;119
2024-05-15T22:04:46.367;599616809295602180;10013.983;161
2024-05-15T22:04:46.375;599616809303293552;10021.675;185
2024-05-15T22:04:46.383;599616809310984924;10029.366;88
2024-05-15T22:04:46.391;599616809318676296;10037.058;11
2024-05-15T22:04:46.398;599616809326367668;10044.749;57
2024-05-15T22:04:46.406;599616809334059040;10052.441;104
2024-05-15T22:04:46.414;599616809341750412;10060.133;80
2024-05-15T22:04:46.421;599616809349441784;10067.823;49
2024-05-15T22:04:46.429;599616809357133156;10075.515;66
2024-05-15T22:04:46.437;599616809364824528;10083.206;90
2024-05-15T22:04:46.444;599616809372515900;10090.897;88
2024-05-15T22:04:46.452;599616809380207272;10098.589;97
2024-05-15T22:04:46.460;599616809387898652;10106.28;138
2024-05-15T22:04:46.467;599616809395590024;10113.972;178
2024-05-15T22:04:46.475;599616809403281396;10121.663;185
2024-05-15T22:04:46.483;599616809410972768;10129.3545;173
2024-05-15T22:04:46.491;599616809418664140;10137.046;183
2024-05-15T22:04:46.498;599616809426355512;10144.737;178
2024-05-15T22:04:46.506;599616809434046884;10152.429;95
2024-05-15T22:04:46.514;599616809441738256;10160.12;21
2024-05-15T22:04:46.521;599616809449429628;10167.812;38
2024-05-15T22:04:46.529;599616809457121000;10175.502;59
2024-05-15T22:04:46.537;599616809464812372;10183.193;42
2024-05-15T22:04:46.544;599616809472503744;10190.885;45
2024-05-15T22:04:46.552;599616809480195116;10198.577;73
2024-05-15T22:04:46.560;599616809487886488;10206.269;97
2024-05-15T22:04:46.567;599616809495577860;10213.96;85
2024-05-15T22:04:46.575;599616809503269232;10221.651;42
2024-05-15T22:04:46.583;599616809510960604;10229.342;28
2024-05-15T22:04:46.591;599616809518651976;10237.033;28
2024-05-15T22:04:46.598;599616809526343348;10244.725;0
2024-05-15T22:04:46.606;599616809534034720;10252.416;-2
2024-05-15T22:04:46.614;599616809541726092;10260.107;26
2024-05-15T22:04:46.621;599616809549417464;10267.8;7
2024-05-15T22:04:46.629;599616809557108836;10275.491;-21
2024-05-15T22:04:46.637;599616809564800208;10283.182;2
2024-05-15T22:04:46.644;599616809572491580;10290.873;40
2024-05-15T22:04:46.652;599616809580182952;10298.564;49
2024-05-15T22:04:46.660;599616809587874324;10306.256;42
2024-05-15T22:04:46.667;599616809595565696;10313.947;40
2024-05-15T22:04:46.675;599616809603257068;10321.639;47
2024-05-15T22:04:46.683;599616809610948440;10329.33;59
2024-05-15T22:04:46.691;599616809618639812;10337.0205;61
2024-05-15T22:04:46.698;599616809626331184;10344.713;73
2024-05-15T22:04:46.706;599616809634022556;10352.404;95
2024-05-15T22:04:46.714;599616809641713928;10360.096;90
2024-05-15T22:04:46.721;599616809649405300;10367.787;95
2024-05-15T22:04:46.729;599616809657096672;10375.479;135
2024-05-15T22:04:46.737;599616809664788044;10383.17;164
2024-05-15T22:04:46.744;599616809672479416;10390.86;147
2024-05-15T22:04:46.752;599616809680170788;10398.552;109
2024-05-15T22:04:46.760;599616809687862160;10406.243;102
2024-05-15T22:04:46.767;599616809695553532;10413.936;142
2024-05-15T22:04:46.775;599616809703244904;10421.627;159
2024-05-15T22:04:46.783;599616809710936276;10429.318;126
2024-05-15T22:04:46.791;599616809718627648;10437.01;90
2024-05-15T22:04:46.798;599616809726319020;10444.7;142
2024-05-15T22:04:46.806;599616809734010392;10452.392;418
2024-05-15T22:04:46.814;599616809741701764;10460.083;904
2024-05-15T22:04:46.821;599616809749393136;10467.774;1187
2024-05-15T22:04:46.829;599616809757084508;10475.466;868
2024-05-15T22:04:46.837;599616809764775880;10483.157;290
2024-05-15T22:04:46.844;599616809772467252;10490.85;107
2024-05-15T22:04:46.852;599616809780158624;10498.541;216
2024-05-15T22:04:46.860;599616809787849996;10506.231;199
2024-05-15T22:04:46.867;599616809795541368;10513.923;138
2024-05-15T22:04:46.875;599616809803232740;10521.614;159
2024-05-15T22:04:46.883;599616809810924112;10529.306;130
2024-05-15T22:04:46.890;599616809818615484;10536.997;47
2024-05-15T22:04:46.898;599616809826306856;10544.688;30
2024-05-15T22:04:46.906;599616809833998228;10552.379;35
2024-05-15T22:04:46.914;599616809841689600;10560.071;16
2024-05-15T22:04:46.921;599616809849380972;10567.763;28
2024-05-15T22:04:46.929;599616809857072344;10575.454;54
2024-05-15T22:04:46.937;599616809864763716;10583.1455;61
2024-05-15T22:04:46.944;599616809872455088;10590.837;66
2024-05-15T22:04:46.952;599616809880146460;10598.528;83
2024-05-15T22:04:46.960;599616809887837832;10606.22;102
2024-05-15T22:04:46.967;599616809895529204;10613.91;126
2024-05-15T22:04:46.975;599616809903220576;10621.602;166
2024-05-15T22:04:46.983;599616809910911948;10629.293;192
2024-05-15T22:04:46.990;599616809918603320;10636.985;166
2024-05-15T22:04:46.998;599616809926294692;10644.677;123
2024-05-15T22:04:47.006;599616809933986064;10652.368;133
2024-05-15T22:04:47.014;599616809941677436;10660.06;159
2024-05-15T22:04:47.021;599616809949398912;10667.78;149
2024-05-15T22:04:47.029;599616809957089866;10675.472;147
2024-05-15T22:04:47.037;599616809964780820;10683.163;157
2024-05-15T22:04:47.044;599616809972471774;10690.854;145
2024-05-15T22:04:47.052;599616809980162728;10698.544;135
2024-05-15T22:04:47.060;599616809987853682;10706.235;140
2024-05-15T22:04:47.067;599616809995544636;10713.927;111
2024-05-15T22:04:47.075;599616810003235590;10721.617;69
2024-05-15T22:04:47.083;599616810010926544;10729.309;23
2024-05-15T22:04:47.090;599616810018617498;10736.999;-9
2024-05-15T22:04:47.098;599616810026308452;10744.689;-2
2024-05-15T22:04:47.106;599616810033999406;10752.381;-28
2024-05-15T22:04:47.114;599616810041690360;10760.072;-97
2024-05-15T22:04:47.121;599616810049381314;10767.763;-104
2024-05-15T22:04:47.129;599616810057072268;10775.454;-76
2024-05-15T22:04:47.137;599616810064763222;10783.145;-95
2024-05-15T22:04:47.144;599616810072454176;10790.836;-99
2024-05-15T22:04:47.152;599616810080145130;10798.526;-54
2024-05-15T22:04:47.160;599616810087836084;10806.218;-30
2024-05-15T22:04:47.167;599616810095527038;10813.909;-54
2024-05-15T22:04:47.175;599616810103217992;10821.6;-64
2024-05-15T22:04:47.183;599616810110908946;10829.29;-42
2024-05-15T22:04:47.190;599616810118599900;10836.981;-23
2024-05-15T22:04:47.198;599616810126290854;10844.672;-16
2024-05-15T22:04:47.206;599616810133981808;10852.363;-4
2024-05-15T22:04:47.214;599616810141672762;10860.055;4
2024-05-15T22:04:47.221;599616810149363716;10867.746;4
2024-05-15T22:04:47.229;599616810157054670;10875.436;11
2024-05-15T22:04:47.237;599616810164745624;10883.127;7
2024-05-15T22:04:47.244;599616810172436578;10890.818;-9
2024-05-15T22:04:47.252;599616810180127532;10898.509;4
2024-05-15T22:04:47.260;599616810187818486;10906.2;19
2024-05-15T22:04:47.267;599616810195509440;10913.892;9
2024-05-15T22:04:47.275;599616810203200394;10921.582;26
2024-05-15T22:04:47.283;599616810210891348;10929.272;59
2024-05-15T22:04:47.290;599616810218582302;10936.964;64
2024-05-15T22:04:47.298;599616810226273256;10944.655;71
2024-05-15T22:04:47.306;599616810233964210;10952.346;64
2024-05-15T22:04:47.314;599616810241655164;10960.037;-2
2024-05-15T22:04:47.321;599616810249346118;10967.729;19
2024-05-15T22:04:47.329;599616810257037072;10975.418;326
2024-05-15T22:04:47.337;599616810264728026;10983.109;835
2024-05-15T22:04:47.344;599616810272418980;10990.801;1109
2024-05-15T22:04:47.352;599616810280109934;10998.491;780
2024-05-15T22:04:47.360;599616810287800888;11006.183;202
2024-05-15T22:04:47.367;599616810295491842;11013.874;23
2024-05-15T22:04:47.375;599616810303182796;11021.563;154
2024-05-15T22:04:47.383;599616810310873750;11029.255;128
2024-05-15T22:04:47.390;599616810318564704;11036.946;-11
2024-05-15T22:04:47.398;599616810326255658;11044.638;-90
2024-05-15T22:04:47.406;599616810333946612;11052.328;-130
2024-05-15T22:04:47.414;599616810341637566;11060.02;-138
2024-05-15T22:04:47.421;599616810349328520;11067.711;-104
2024-05-15T22:04:47.429;599616810357019474;11075.4;-76
2024-05-15T22:04:47.437;599616810364710428;11083.092;-69
2024-05-15T22:04:47.444;599616810372401382;11090.783;-61
2024-05-15T22:04:47.452;599616810380092336;11098.474;-38
2024-05-15T22:04:47.460;599616810387783290;11106.165;-14
2024-05-15T22:04:47.467;599616810395474244;11113.856;-7
2024-05-15T22:04:47.475;599616810403165198;11121.547;2
2024-05-15T22:04:47.483;599616810410856152;11129.237;19
2024-05-15T22:04:47.490;599616810418547106;11136.929;4
2024-05-15T22:04:47.498;599616810426238060;11144.62;-21
2024-05-15T22:04:47.506;599616810433929014;11152.311;-2
2024-05-15T22:04:47.514;599616810441619968;11160.002;42
2024-05-15T22:04:47.521;599616810449310922;11167.692;66
2024-05-15T22:04:47.529;599616810457001876;11175.383;73
2024-05-15T22:04:47.537;599616810464692830;11183.074;83
2024-05-15T22:04:47.544;599616810472383784;11190.766;85
2024-05-15T22:04:47.552;599616810480074738;11198.457;38
2024-05-15T22:04:47.560;599616810487765692;11206.147;-26
2024-05-15T22:04:47.567;599616810495456646;11213.838;-42
2024-05-15T22:04:47.575;599616810503147600;11221.529;-52
2024-05-15T22:04:47.583;599616810510808462;11229.19;-85
2024-05-15T22:04:47.590;599616810518499834;11236.882;-111
2024-05-15T22:04:47.598;599616810526191206;11244.572;-114
2024-05-15T22:04:47.606;599616810533882578;11252.264;-97
2024-05-15T22:04:47.613;599616810541573950;11259.955;-88
2024-05-15T22:04:47.621;599616810549265322;11267.646;-97
2024-05-15T22:04:47.629;599616810556956694;11275.339;-95
2024-05-15T22:04:47.637;599616810564648066;11283.03;-88
2024-05-15T22:04:47.644;599616810572339438;11290.722;-119
2024-05-15T22:04:47.652;599616810580030810;11298.412;-169
2024-05-15T22:04:47.660;599616810587722182;11306.104;-161
2024-05-15T22:04:47.667;599616810595413554;11313.795;-102
2024-05-15T22:04:47.675;599616810603104926;11321.486;-95
2024-05-15T22:04:47.683;599616810610796298;11329.178;-133
2024-05-15T22:04:47.690;599616810618487670;11336.869;-126
2024-05-15T22:04:47.698;599616810626179042;11344.562;-88
2024-05-15T22:04:47.706;599616810633870414;11352.252;-71
2024-05-15T22:04:47.713;599616810641561786;11359.943;-61
2024-05-15T22:04:47.721;599616810649253158;11367.635;-40
2024-05-15T22:04:47.729;599616810656944530;11375.326;-61
2024-05-15T22:04:47.737;599616810664635902;11383.018;-114
2024-05-15T22:04:47.744;599616810672327274;11390.709;-123
2024-05-15T22:04:47.752;599616810680018646;11398.4;-92
2024-05-15T22:04:47.760;599616810687710018;11406.091;-59
2024-05-15T22:04:47.767;599616810695401390;11413.782;-30
2024-05-15T22:04:47.775;599616810703092762;11421.475;-23
2024-05-15T22:04:47.783;599616810710784134;11429.166;-14
2024-05-15T22:04:47.790;599616810718475506;11436.857;19
2024-05-15T22:04:47.798;599616810726166878;11444.549;33
2024-05-15T22:04:47.806;599616810733858250;11452.24;45
2024-05-15T22:04:47.813;599616810741549622;11459.931;76
2024-05-15T22:04:47.821;599616810749240994;11467.622;73
2024-05-15T22:04:47.829;599616810756932366;11475.313;19
2024-05-15T22:04:47.837;599616810764623738;11483.005;-2
2024-05-15T22:04:47.844;599616810772315110;11490.697;140
2024-05-15T22:04:47.852;599616810780006482;11498.389;518
2024-05-15T22:04:47.860;599616810787697854;11506.08;952
2024-05-15T22:04:47.867;599616810795389226;11513.771;1002
2024-05-15T22:04:47.875;599616810803080598;11521.462;526
2024-05-15T22:04:47.883;599616810810771970;11529.153;28
2024-05-15T22:04:47.890;599616810818463342;11536.845;-52
2024-05-15T22:04:47.898;599616810826154714;11544.536;2
2024-05-15T22:04:47.906;599616810833846086;11552.228;-123
2024-05-15T22:04:47.913;599616810841537458;11559.919;-216
2024-05-15T22:04:47.921;599616810849228830;11567.611;-171
2024-05-15T22:04:47.929;599616810856920202;11575.302;-135
2024-05-15T22:04:47.936;599616810864611574;11582.993;-121
2024-05-15T22:04:47.944;599616810872302946;11590.685;-95
2024-05-15T22:04:47.952;599616810879994318;11598.376;-83
2024-05-15T22:04:47.960;599616810887685690;11606.067;-78
2024-05-15T22:04:47.967;599616810895377062;11613.759;-49
2024-05-15T22:04:47.975;599616810903068434;11621.45;-30
2024-05-15T22:04:47.983;599616810910759806;11629.141;-47
2024-05-15T22:04:47.990;599616810918451178;11636.833;-38
2024-05-15T22:04:47.998;599616810926142550;11644.524;7
2024-05-15T22:04:48.006;599616810933833922;11652.216;14
2024-05-15T22:04:48.013;599616810941525294;11659.907;23
2024-05-15T22:04:48.021;599616810949216666;11667.599;80
2024-05-15T22:04:48.029;599616810956908038;11675.29;116
2024-05-15T22:04:48.036;599616810964599410;11682.98;97
2024-05-15T22:04:48.044;599616810972290782;11690.672;69
2024-05-15T22:04:48.052;599616810979982154;11698.363;49
2024-05-15T22:04:48.060;599616810987673526;11706.055;14
2024-05-15T22:04:48.067;599616810995364898;11713.747;-21
2024-05-15T22:04:48.075;599616811003056270;11721.438;-26
2024-05-15T22:04:48.083;599616811010747642;11729.13;-14
2024-05-15T22:04:48.090;599616811018439014;11736.82;-26
2024-05-15T22:04:48.098;599616811026130386;11744.512;-64
2024-05-15T22:04:48.106;599616811033821758;11752.203;-71
2024-05-15T22:04:48.113;599616811041513130;11759.895;-45
2024-05-15T22:04:48.121;599616811049204502;11767.586;-40
2024-05-15T22:04:48.129;599616811056895874;11775.277;-52
2024-05-15T22:04:48.136;599616811064587246;11782.97;-38
2024-05-15T22:04:48.144;599616811072278626;11790.66;-21
2024-05-15T22:04:48.152;599616811079969998;11798.352;-26
2024-05-15T22:04:48.160;599616811087661370;11806.043;-11
2024-05-15T22:04:48.167;599616811095352742;11813.734;16
2024-05-15T22:04:48.175;599616811103044114;11821.426;42
2024-05-15T22:04:48.183;599616811110735486;11829.117;57
2024-05-15T22:04:48.190;599616811118426858;11836.809;45
2024-05-15T22:04:48.198;599616811126118230;11844.499;47
2024-05-15T22:04:48.206;599616811133809602;11852.19;92
2024-05-15T22:04:48.213;599616811141500974;11859.883;126
2024-05-15T22:04:48.221;599616811149192346;11867.574;111
2024-05-15T22:04:48.229;599616811156883718;11875.266;76
2024-05-15T22:04:48.236;599616811164575090;11882.957;59
2024-05-15T22:04:48.244;599616811172266462;11890.648;30
2024-05-15T22:04:48.252;599616811179957834;11898.339;-30
2024-05-15T22:04:48.260;599616811187649206;11906.03;-47
2024-05-15T22:04:48.267;599616811195340578;11913.722;2
2024-05-15T22:04:48.275;599616811203031950;11921.413;26
2024-05-15T22:04:48.283;599616811210723322;11929.105;11
2024-05-15T22:04:48.290;599616811218414694;11936.797;35
2024-05-15T22:04:48.298;599616811226106066;11944.488;97
2024-05-15T22:04:48.306;599616811233797438;11952.18;121
2024-05-15T22:04:48.313;599616811241488810;11959.87;121
2024-05-15T22:04:48.321;599616811249180182;11967.562;140
2024-05-15T22:04:48.329;599616811256871554;11975.253;152
2024-05-15T22:04:48.336;599616811264562926;11982.944;149
2024-05-15T22:04:48.344;599616811272254298;11990.636;161
2024-05-15T22:04:48.352;599616811279945670;11998.327;195
2024-05-15T22:04:48.360;599616811287637042;12006.02;190
2024-05-15T22:04:48.367;599616811295328414;12013.71;119
2024-05-15T22:04:48.375;599616811303019786;12021.401;161
2024-05-15T22:04:48.383;599616811310711158;12029.093;535
2024-05-15T22:04:48.390;599616811318402530;12036.784;1044
2024-05-15T22:04:48.398;599616811326093902;12044.476;1137
2024-05-15T22:04:48.406;599616811333785274;12052.167;585
2024-05-15T22:04:48.413;599616811341476646;12059.858;-19
2024-05-15T22:04:48.421;599616811349168018;12067.549;-80
2024-05-15T22:04:48.429;599616811356859390;12075.241;52
2024-05-15T22:04:48.436;599616811364550762;12082.933;-11
2024-05-15T22:04:48.444;599616811372242134;12090.624;-38
2024-05-15T22:04:48.452;599616811379933506;12098.315;35
2024-05-15T22:04:48.460;599616811387624878;12106.007;23
2024-05-15T22:04:48.467;599616811395316250;12113.698;-21
2024-05-15T22:04:48.475;599616811403007622;12121.389;-23
2024-05-15T22:04:48.483;599616811410698994;12129.08;-9
2024-05-15T22:04:48.490;599616811418390366;12136.771;0
2024-05-15T22:04:48.498;599616811426081738;12144.463;33
2024-05-15T22:04:48.506;599616811433773110;12152.155;66
2024-05-15T22:04:48.513;599616811441464482;12159.847;71
2024-05-15T22:04:48.521;599616811449155854;12167.538;59
2024-05-15T22:04:48.529;599616811456847226;12175.229;52
2024-05-15T22:04:48.536;599616811464538598;12182.92;54
2024-05-15T22:04:48.544;599616811472229970;12190.611;49
2024-05-15T22:04:48.552;599616811479921342;12198.303;26
2024-05-15T22:04:48.559;599616811487612714;12205.994;19
2024-05-15T22:04:48.567;599616811495304086;12213.686;45
2024-05-15T22:04:48.575;599616811502995458;12221.378;52
2024-05-15T22:04:48.583;599616811510686830;12229.068;47
2024-05-15T22:04:48.590;599616811518378202;12236.76;69
2024-05-15T22:04:48.598;599616811526069574;12244.451;71
2024-05-15T22:04:48.606;599616811533760946;12252.143;40
2024-05-15T22:04:48.613;599616811541452318;12259.834;40
2024-05-15T22:04:48.621;599616811549143690;12267.525;71
2024-05-15T22:04:48.629;599616811556835062;12275.217;83
2024-05-15T22:04:48.636;599616811564526434;12282.907;80
2024-05-15T22:04:48.644;599616811572217806;12290.599;80
2024-05-15T22:04:48.652;599616811579909178;12298.291;80
2024-05-15T22:04:48.659;599616811587600550;12305.982;95
2024-05-15T22:04:48.667;599616811595291922;12313.674;119
2024-05-15T22:04:48.675;599616811602983294;12321.365;140
2024-05-15T22:04:48.683;599616811610674666;12329.057;164
2024-05-15T22:04:48.690;599616811618366038;12336.747;173
2024-05-15T22:04:48.698;599616811626057410;12344.438;154
2024-05-15T22:04:48.706;599616811633748790;12352.13;157
2024-05-15T22:04:48.713;599616811641440162;12359.821;178
2024-05-15T22:04:48.721;599616811649131534;12367.514;147
2024-05-15T22:04:48.729;599616811656822906;12375.205;102
2024-05-15T22:04:48.736;599616811664514278;12382.896;114
2024-05-15T22:04:48.744;599616811672205650;12390.587;135
2024-05-15T22:04:48.752;599616811679897022;12398.278;119
2024-05-15T22:04:48.759;599616811687588394;12405.97;76
2024-05-15T22:04:48.767;599616811695279766;12413.661;57
2024-05-15T22:04:48.775;599616811702971138;12421.353;83
2024-05-15T22:04:48.783;599616811710662510;12429.044;102
2024-05-15T22:04:48.790;599616811718353882;12436.736;92
2024-05-15T22:04:48.798;599616811726045254;12444.428;107
2024-05-15T22:04:48.806;599616811733736626;12452.118;145
2024-05-15T22:04:48.813;599616811741427998;12459.81;166
2024-05-15T22:04:48.821;599616811749119370;12467.501;166
2024-05-15T22:04:48.829;599616811756810742;12475.192;183
2024-05-15T22:04:48.836;599616811764502114;12482.884;218
2024-05-15T22:04:48.844;599616811772193486;12490.575;235
2024-05-15T22:04:48.852;599616811779884858;12498.266;214
2024-05-15T22:04:48.859;599616811787576230;12505.957;183
2024-05-15T22:04:48.867;599616811795267602;12513.649;183
2024-05-15T22:04:48.875;599616811802958974;12521.341;190
2024-05-15T22:04:48.883;599616811810650346;12529.032;161
2024-05-15T22:04:48.890;599616811818341718;12536.724;121
2024-05-15T22:04:48.898;599616811826033090;12544.415;104
2024-05-15T22:04:48.906;599616811833724462;12552.106;145
2024-05-15T22:04:48.913;599616811841415834;12559.797;359
2024-05-15T22:04:48.921;599616811849107206;12567.488;814
2024-05-15T22:04:48.929;599616811856798578;12575.18;1135
2024-05-15T22:04:48.936;599616811864489950;12582.872;835
2024-05-15T22:04:48.944;599616811872181322;12590.563;211
2024-05-15T22:04:48.952;599616811879872694;12598.255;-14
2024-05-15T22:04:48.959;599616811887564066;12605.946;85
2024-05-15T22:04:48.967;599616811895255438;12613.637;45
2024-05-15T22:04:48.975;599616811902946810;12621.328;-38
2024-05-15T22:04:48.983;599616811910638182;12629.02;21
2024-05-15T22:04:48.990;599616811918329554;12636.711;64
2024-05-15T22:04:48.998;599616811926020926;12644.402;54
2024-05-15T22:04:49.006;599616811933712298;12652.094;64
2024-05-15T22:04:49.013;599616811941403670;12659.786;57
2024-05-15T22:04:49.021;599616811949095042;12667.477;16
2024-05-15T22:04:49.029;599616811956786414;12675.168;-16
2024-05-15T22:04:49.036;599616811964477786;12682.859;-21
2024-05-15T22:04:49.044;599616811972169158;12690.551;-2
2024-05-15T22:04:49.052;599616811979860530;12698.242;9
2024-05-15T22:04:49.059;599616811987551902;12705.934;-7
2024-05-15T22:04:49.067;599616811995243274;12713.625;-14
2024-05-15T22:04:49.075;599616812002934646;12721.315;21
2024-05-15T22:04:49.083;599616812010626018;12729.008;52
2024-05-15T22:04:49.090;599616812018317390;12736.699;59
2024-05-15T22:04:49.098;599616812026008762;12744.391;83
2024-05-15T22:04:49.106;599616812033700134;12752.082;107
2024-05-15T22:04:49.113;599616812041391506;12759.773;88
2024-05-15T22:04:49.121;599616812049082878;12767.465;69
2024-05-15T22:04:49.129;599616812056774250;12775.155;90
2024-05-15T22:04:49.136;599616812064465622;12782.847;123
2024-05-15T22:04:49.144;599616812072156994;12790.538;130
2024-05-15T22:04:49.152;599616812079848366;12798.2295;107
2024-05-15T22:04:49.159;599616812087539738;12805.922;95
2024-05-15T22:04:49.167;599616812095231110;12813.613;114
2024-05-15T22:04:49.175;599616812102922482;12821.305;135
2024-05-15T22:04:49.182;599616812110613854;12828.995;142
2024-05-15T22:04:49.190;599616812118305226;12836.687;159
2024-05-15T22:04:49.198;599616812125996598;12844.378;180
2024-05-15T22:04:49.206;599616812133687970;12852.069;169
2024-05-15T22:04:49.213;599616812141379342;12859.761;133
2024-05-15T22:04:49.221;599616812149070714;12867.452;142
2024-05-15T22:04:49.229;599616812156762086;12875.145;178
2024-05-15T22:04:49.236;599616812164453458;12882.836;188
2024-05-15T22:04:49.244;599616812172144830;12890.526;183
2024-05-15T22:04:49.252;599616812179836202;12898.218;202
2024-05-15T22:04:49.259;599616812187527574;12905.909;223
2024-05-15T22:04:49.267;599616812195244080;12913.626;223
2024-05-15T22:04:49.275;599616812202935103;12921.316;223
2024-05-15T22:04:49.283;599616812210626126;12929.008;252
2024-05-15T22:04:49.290;599616812218317149;12936.699;254
2024-05-15T22:04:49.298;599616812226008172;12944.391;190
2024-05-15T22:04:49.306;599616812233699195;12952.08;135
2024-05-15T22:04:49.313;599616812241390218;12959.771;157
2024-05-15T22:04:49.321;599616812249081241;12967.463;197
2024-05-15T22:04:49.329;599616812256772264;12975.154;197
2024-05-15T22:04:49.336;599616812264463287;12982.845;178
2024-05-15T22:04:49.344;599616812272154310;12990.536;152
2024-05-15T22:04:49.352;599616812279845333;12998.227;126
2024-05-15T22:04:49.359;599616812287536356;13005.918;123
2024-05-15T22:04:49.367;599616812295227379;13013.609;149
2024-05-15T22:04:49.375;599616812302918402;13021.3;178
2024-05-15T22:04:49.382;599616812310609425;13028.991;176
2024-05-15T22:04:49.390;599616812318300448;13036.683;149
2024-05-15T22:04:49.398;599616812325991471;13044.373;154
2024-05-15T22:04:49.406;599616812333682494;13052.063;197
2024-05-15T22:04:49.413;599616812341373517;13059.755;209
2024-05-15T22:04:49.421;599616812349064540;13067.446;140
2024-05-15T22:04:49.429;599616812356755563;13075.138;54
2024-05-15T22:04:49.436;599616812364446586;13082.828;19
2024-05-15T22:04:49.444;599616812372137609;13090.519;83
2024-05-15T22:04:49.452;599616812379828632;13098.21;366
2024-05-15T22:04:49.459;599616812387519655;13105.901;847
2024-05-15T22:04:49.467;599616812395210678;13113.592;1128
2024-05-15T22:04:49.475;599616812402901701;13121.283;818
2024-05-15T22:04:49.482;599616812410592724;13128.975;202
2024-05-15T22:04:49.490;599616812418283747;13136.666;-30
2024-05-15T22:04:49.498;599616812425974770;13144.356;61
2024-05-15T22:04:49.506;599616812433665793;13152.047;19
2024-05-15T22:04:49.513;599616812441356816;13159.738;-71
2024-05-15T22:04:49.521;599616812449047839;13167.43;-57
2024-05-15T22:04:49.529;599616812456738862;13175.121;-80
2024-05-15T22:04:49.536;599616812464429885;13182.812;-114
2024-05-15T22:04:49.544;599616812472120908;13190.502;-88
2024-05-15T22:04:49.552;599616812479811931;13198.193;-64
2024-05-15T22:04:49.559;599616812487502954;13205.885;-52
2024-05-15T22:04:49.567;599616812495193977;13213.575;-42
2024-05-15T22:04:49.575;599616812502885000;13221.267;-42
2024-05-15T22:04:49.582;599616812510576023;13228.958;-21
2024-05-15T22:04:49.590;599616812518267046;13236.649;16
2024-05-15T22:04:49.598;599616812525958069;13244.339;30
2024-05-15T22:04:49.606;599616812533649092;13252.03;42
2024-05-15T22:04:49.613;599616812541340115;13259.722;76
2024-05-15T22:04:49.621;599616812549031138;13267.413;95
2024-05-15T22:04:49.629;599616812556722161;13275.1045;99
2024-05-15T22:04:49.636;599616812564413184;13282.795;130
2024-05-15T22:04:49.644;599616812572104207;13290.485;176
2024-05-15T22:04:49.652;599616812579795230;13298.177;190
2024-05-15T22:04:49.659;599616812587486253;13305.868;176
2024-05-15T22:04:49.667;599616812595177276;13313.559;173
2024-05-15T22:04:49.675;599616812602868299;13321.25;197
2024-05-15T22:04:49.682;599616812610559322;13328.941;209
2024-05-15T22:04:49.690;599616812618250345;13336.632;190
2024-05-15T22:04:49.698;599616812625941368;13344.322;173
2024-05-15T22:04:49.706;599616812633632391;13352.014;157
2024-05-15T22:04:49.713;599616812641323414;13359.705;119
2024-05-15T22:04:49.721;599616812649014437;13367.396;102
2024-05-15T22:04:49.729;599616812656705460;13375.087;130
2024-05-15T22:04:49.736;599616812664396483;13382.778;164
2024-05-15T22:04:49.744;599616812672087506;13390.469;178
2024-05-15T22:04:49.752;599616812679778529;13398.16;176
2024-05-15T22:04:49.759;599616812687469552;13405.852;180
2024-05-15T22:04:49.767;599616812695160575;13413.542;202
2024-05-15T22:04:49.775;599616812702851598;13421.233;218
2024-05-15T22:04:49.782;599616812710542621;13428.925;233
2024-05-15T22:04:49.790;599616812718233644;13436.615;252
2024-05-15T22:04:49.798;599616812725924667;13444.306;257
2024-05-15T22:04:49.805;599616812733615690;13451.997;249
2024-05-15T22:04:49.813;599616812741306713;13459.688;247
2024-05-15T22:04:49.821;599616812748997736;13467.38;264
2024-05-15T22:04:49.829;599616812756668726;13475.051;283
2024-05-15T22:04:49.836;599616812764360028;13482.742;259
2024-05-15T22:04:49.844;599616812772051330;13490.433;195
2024-05-15T22:04:49.852;599616812779742632;13498.124;157
2024-05-15T22:04:49.859;599616812787433934;13505.815;157
2024-05-15T22:04:49.867;599616812795125236;13513.507;114
2024-05-15T22:04:49.875;599616812802816538;13521.198;42
2024-05-15T22:04:49.882;599616812810507840;13528.89;54
2024-05-15T22:04:49.890;599616812818199142;13536.581;97
2024-05-15T22:04:49.898;599616812825890444;13544.271;80
2024-05-15T22:04:49.905;599616812833581746;13551.963;80
2024-05-15T22:04:49.913;599616812841273048;13559.654;104
2024-05-15T22:04:49.921;599616812848964350;13567.346;40
2024-05-15T22:04:49.929;599616812856655652;13575.037;-49
2024-05-15T22:04:49.936;599616812864346954;13582.729;-35
2024-05-15T22:04:49.944;599616812872038256;13590.42;-9
2024-05-15T22:04:49.952;599616812879729558;13598.11;-54
2024-05-15T22:04:49.959;599616812887420860;13605.802;-90
2024-05-15T22:04:49.967;599616812895112162;13613.494;-88
2024-05-15T22:04:49.975;599616812902803464;13621.186;-80
2024-05-15T22:04:49.982;599616812910494766;13628.877;7
2024-05-15T22:04:49.990;599616812918186068;13636.568;328
2024-05-15T22:04:49.998;599616812925877370;13644.26;778
2024-05-15T22:04:50.005;599616812933568672;13651.95;906
2024-05-15T22:04:50.013;599616812941259974;13659.642;452
2024-05-15T22:04:50.021;599616812948951276;13667.333;-114
2024-05-15T22:04:50.029;599616812956642578;13675.024;-226
2024-05-15T22:04:50.036;599616812964333880;13682.716;-121
2024-05-15T22:04:50.044;599616812972025182;13690.407;-171
2024-05-15T22:04:50.052;599616812979716484;13698.099;-218
2024-05-15T22:04:50.059;599616812987407786;13705.789;-152
2024-05-15T22:04:50.067;599616812995099088;13713.48;-116
2024-05-15T22:04:50.075;599616813002790390;13721.172;-133
2024-05-15T22:04:50.082;599616813010481692;13728.863;-138
2024-05-15T22:04:50.090;599616813018172994;13736.555;-116
2024-05-15T22:04:50.098;599616813025864296;13744.246;-78
2024-05-15T22:04:50.105;599616813033555598;13751.9375;-47
2024-05-15T22:04:50.113;599616813041246900;13759.628;-38
2024-05-15T22:04:50.121;599616813048938202;13767.319;-26
2024-05-15T22:04:50.129;599616813056629504;13775.011;-9
2024-05-15T22:04:50.136;599616813064320806;13782.702;-4
2024-05-15T22:04:50.144;599616813072012108;13790.394;4
2024-05-15T22:04:50.152;599616813079703410;13798.085;52
2024-05-15T22:04:50.159;599616813087394712;13805.775;104
2024-05-15T22:04:50.167;599616813095086014;13813.467;121
2024-05-15T22:04:50.175;599616813102777316;13821.159;130
2024-05-15T22:04:50.182;599616813110468618;13828.851;157
2024-05-15T22:04:50.190;599616813118159920;13836.542;152
2024-05-15T22:04:50.198;599616813125851222;13844.233;123
2024-05-15T22:04:50.205;599616813133542524;13851.925;128
2024-05-15T22:04:50.213;599616813141233826;13859.616;140
2024-05-15T22:04:50.221;599616813148925128;13867.307;126
2024-05-15T22:04:50.228;599616813156616430;13874.998;123
2024-05-15T22:04:50.236;599616813164307732;13882.689;138
2024-05-15T22:04:50.244;599616813171999034;13890.381;147
2024-05-15T22:04:50.252;599616813179690336;13898.072;152
2024-05-15T22:04:50.259;599616813187381638;13905.764;152
2024-05-15T22:04:50.267;599616813195072940;13913.455;147
2024-05-15T22:04:50.275;599616813202764242;13921.1455;166
2024-05-15T22:04:50.282;599616813210455544;13928.837;199
2024-05-15T22:04:50.290;599616813218146846;13936.528;207
2024-05-15T22:04:50.298;599616813225838148;13944.22;211
2024-05-15T22:04:50.305;599616813233529450;13951.911;240
2024-05-15T22:04:50.313;599616813241220752;13959.603;238
2024-05-15T22:04:50.321;599616813248912054;13967.293;211
2024-05-15T22:04:50.328;599616813256603356;13974.984;228
2024-05-15T22:04:50.336;599616813264294658;13982.676;276
2024-05-15T22:04:50.344;599616813271985960;13990.367;266
2024-05-15T22:04:50.352;599616813279677262;13998.059;202
2024-05-15T22:04:50.359;599616813287368564;14005.75;166
2024-05-15T22:04:50.367;599616813295059866;14013.441;185
2024-05-15T22:04:50.375;599616813302751168;14021.132;197
2024-05-15T22:04:50.382;599616813310442470;14028.824;173
2024-05-15T22:04:50.390;599616813318158860;14036.54;171
2024-05-15T22:04:50.398;599616813325849814;14044.231;183
2024-05-15T22:04:50.405;599616813333540768;14051.922;169
2024-05-15T22:04:50.413;599616813341231722;14059.613;164
2024-05-15T22:04:50.421;599616813348922676;14067.305;157
2024-05-15T22:04:50.428;599616813356613630;14074.996;102
2024-05-15T22:04:50.436;599616813364304584;14082.686;47
2024-05-15T22:04:50.444;599616813371995538;14090.377;23
2024-05-15T22:04:50.452;599616813379686492;14098.068;0
2024-05-15T22:04:50.459;599616813387377446;14105.759;-9
2024-05-15T22:04:50.467;599616813395068400;14113.45;-38
2024-05-15T22:04:50.475;599616813402759354;14121.142;-88
2024-05-15T22:04:50.482;599616813410450308;14128.831;-59
2024-05-15T22:04:50.490;599616813418141262;14136.522;-28
2024-05-15T22:04:50.498;599616813425832216;14144.214;-114
2024-05-15T22:04:50.505;599616813433523170;14151.905;-135
2024-05-15T22:04:50.513;599616813441214124;14159.596;123
2024-05-15T22:04:50.521;599616813448905078;14167.287;566
2024-05-15T22:04:50.528;599616813456596032;14174.979;802
2024-05-15T22:04:50.536;599616813464286986;14182.668;511
2024-05-15T22:04:50.544;599616813471977940;14190.359;-38
2024-05-15T22:04:50.552;599616813479668894;14198.051;-276
2024-05-15T22:04:50.559;599616813487359848;14205.741;-190
2024-05-15T22:04:50.567;599616813495050802;14213.433;-142
2024-05-15T22:04:50.575;599616813502741756;14221.124;-166
2024-05-15T22:04:50.582;599616813510432710;14228.813;-161
2024-05-15T22:04:50.590;599616813518123664;14236.505;-169
2024-05-15T22:04:50.598;599616813525814618;14244.196;-166
2024-05-15T22:04:50.605;599616813533505572;14251.888;-109
2024-05-15T22:04:50.613;599616813541196526;14259.578;-69
2024-05-15T22:04:50.621;599616813548887480;14267.27;-69
2024-05-15T22:04:50.628;599616813556578434;14274.96;-49
2024-05-15T22:04:50.636;599616813564269388;14282.65;-16
2024-05-15T22:04:50.644;599616813571960342;14290.342;-9
2024-05-15T22:04:50.652;599616813579651296;14298.033;-9
2024-05-15T22:04:50.659;599616813587342250;14305.724;28
2024-05-15T22:04:50.667;599616813595033204;14313.415;76
2024-05-15T22:04:50.675;599616813602724158;14321.105;85
2024-05-15T22:04:50.682;599616813610415112;14328.797;71
2024-05-15T22:04:50.690;599616813618106066;14336.487;54
2024-05-15T22:04:50.698;599616813625797020;14344.179;54
2024-05-15T22:04:50.705;599616813633487974;14351.87;85
2024-05-15T22:04:50.713;599616813641178928;14359.561;111
2024-05-15T22:04:50.721;599616813648869882;14367.251;119
2024-05-15T22:04:50.728;599616813656560836;14374.942;126
2024-05-15T22:04:50.736;599616813664251790;14382.633;133
2024-05-15T22:04:50.744;599616813671942744;14390.324;121
2024-05-15T22:04:50.752;599616813679633698;14398.016;128
2024-05-15T22:04:50.759;599616813687324652;14405.707;173
2024-05-15T22:04:50.767;599616813695015606;14413.397;169
2024-05-15T22:04:50.775;599616813702706560;14421.088;107
2024-05-15T22:04:50.782;599616813710397514;14428.779;119
2024-05-15T22:04:50.790;599616813718088468;14436.47;176
2024-05-15T22:04:50.798;599616813725779422;14444.161;180
2024-05-15T22:04:50.805;599616813733470376;14451.853;173
2024-05-15T22:04:50.813;599616813741161330;14459.543;204
2024-05-15T22:04:50.821;599616813748852284;14467.233;214
2024-05-15T22:04:50.828;599616813756543238;14474.925;192
2024-05-15T22:04:50.836;599616813764234192;14482.615;204
2024-05-15T22:04:50.844;599616813771925146;14490.307;254
2024-05-15T22:04:50.851;599616813779616100;14497.998;278
2024-05-15T22:04:50.859;599616813787307054;14505.689;257
2024-05-15T22:04:50.867;599616813794998008;14513.379;209
2024-05-15T22:04:50.875;599616813802688962;14521.07;176
2024-05-15T22:04:50.882;599616813810379916;14528.762;180
2024-05-15T22:04:50.890;599616813818070870;14536.452;188
2024-05-15T22:04:50.898;599616813825761824;14544.144;176
2024-05-15T22:04:50.905;599616813833452778;14551.835;173
2024-05-15T22:04:50.913;599616813841143732;14559.524;166
2024-05-15T22:04:50.921;599616813848834686;14567.216;149
2024-05-15T22:04:50.928;599616813856525640;14574.907;126
2024-05-15T22:04:50.936;599616813864216594;14582.599;64
2024-05-15T22:04:50.944;599616813871907548;14590.289;7
2024-05-15T22:04:50.951;599616813879568410;14597.95;23
2024-05-15T22:04:50.959;599616813887259782;14605.642;64
2024-05-15T22:04:50.967;599616813894951154;14613.333;71
2024-05-15T22:04:50.975;599616813902642526;14621.024;73
2024-05-15T22:04:50.982;599616813910333898;14628.716;90
2024-05-15T22:04:50.990;599616813918025270;14636.407;109
2024-05-15T22:04:50.998;599616813925716642;14644.098;116
2024-05-15T22:04:51.005;599616813933408014;14651.789;80
2024-05-15T22:04:51.013;599616813941099386;14659.48;4
2024-05-15T22:04:51.021;599616813948790758;14667.173;-64
2024-05-15T22:04:51.028;599616813956482130;14674.864;-47
2024-05-15T22:04:51.036;599616813964173502;14682.556;199
2024-05-15T22:04:51.044;599616813971864874;14690.247;656
2024-05-15T22:04:51.051;599616813979556246;14697.9375;899
2024-05-15T22:04:51.059;599616813987247618;14705.629;564
2024-05-15T22:04:51.067;599616813994938990;14713.32;-21
2024-05-15T22:04:51.075;599616814002630362;14721.012;-235
2024-05-15T22:04:51.082;599616814010321734;14728.703;-102
2024-05-15T22:04:51.090;599616814018013106;14736.395;-76
2024-05-15T22:04:51.098;599616814025704478;14744.087;-164
2024-05-15T22:04:51.105;599616814033395850;14751.777;-157
2024-05-15T22:04:51.113;599616814041087222;14759.469;-116
2024-05-15T22:04:51.121;599616814048778594;14767.16;-104
2024-05-15T22:04:51.128;599616814056469966;14774.852;-90
2024-05-15T22:04:51.136;599616814064161338;14782.543;-78
2024-05-15T22:04:51.144;599616814071852710;14790.234;-64
2024-05-15T22:04:51.151;599616814079544082;14797.926;-28
2024-05-15T22:04:51.159;599616814087235454;14805.616;-16
2024-05-15T22:04:51.167;599616814094926826;14813.309;-11
2024-05-15T22:04:51.174;599616814102618198;14821.0;21
2024-05-15T22:04:51.182;599616814110309570;14828.691;4
2024-05-15T22:04:51.190;599616814118000942;14836.383;-47
2024-05-15T22:04:51.198;599616814125692314;14844.074;-9
2024-05-15T22:04:51.205;599616814133383686;14851.766;69
2024-05-15T22:04:51.213;599616814141075058;14859.456;85
2024-05-15T22:04:51.221;599616814148766430;14867.147;90
2024-05-15T22:04:51.228;599616814156457802;14874.839;121
2024-05-15T22:04:51.236;599616814164149174;14882.53;142
2024-05-15T22:04:51.244;599616814171840546;14890.223;145
2024-05-15T22:04:51.251;599616814179531918;14897.914;147
2024-05-15T22:04:51.259;599616814187223290;14905.605;169
2024-05-15T22:04:51.267;599616814194914662;14913.296;197
2024-05-15T22:04:51.274;599616814202606034;14920.987;197
2024-05-15T22:04:51.282;599616814210297406;14928.679;176
2024-05-15T22:04:51.290;599616814217988778;14936.37;178
2024-05-15T22:04:51.298;599616814225680150;14944.062;207
2024-05-15T22:04:51.305;599616814233371522;14951.753;221
2024-05-15T22:04:51.313;599616814241062894;14959.445;223
2024-05-15T22:04:51.321;599616814248754266;14967.137;230
2024-05-15T22:04:51.328;599616814256445638;14974.827;238
2024-05-15T22:04:51.336;599616814264137010;14982.519;240
2024-05-15T22:04:51.344;599616814271828382;14990.21;254
2024-05-15T22:04:51.351;599616814279519754;14997.901;276
2024-05-15T22:04:51.359;599616814287211126;15005.593;295
2024-05-15T22:04:51.367;599616814294902498;15013.284;290
2024-05-15T22:04:51.374;599616814302593870;15020.976;271
2024-05-15T22:04:51.382;599616814310285242;15028.666;273
2024-05-15T22:04:51.390;599616814317976614;15036.358;273
2024-05-15T22:04:51.398;599616814325667986;15044.05;233
2024-05-15T22:04:51.405;599616814333359358;15051.741;199
2024-05-15T22:04:51.413;599616814341050730;15059.433;207
2024-05-15T22:04:51.421;599616814348742102;15067.124;192
2024-05-15T22:04:51.428;599616814356433474;15074.815;142
2024-05-15T22:04:51.436;599616814364124846;15082.506;88
2024-05-15T22:04:51.444;599616814371816218;15090.197;35
2024-05-15T22:04:51.451;599616814379507590;15097.889;-2
2024-05-15T22:04:51.459;599616814387198962;15105.581;-9
2024-05-15T22:04:51.467;599616814394890334;15113.272;9
2024-05-15T22:04:51.474;599616814402581706;15120.964;45
2024-05-15T22:04:51.482;599616814410273078;15128.655;71
2024-05-15T22:04:51.490;599616814417964450;15136.346;71
2024-05-15T22:04:51.498;599616814425655822;15144.037;90
2024-05-15T22:04:51.505;599616814433347194;15151.729;116
2024-05-15T22:04:51.513;599616814441068670;15159.45;104
2024-05-15T22:04:51.521;599616814448759624;15167.141;102
2024-05-15T22:04:51.528;599616814456450578;15174.832;121
2024-05-15T22:04:51.536;599616814464141532;15182.523;85
2024-05-15T22:04:51.544;599616814471832486;15190.214;57
2024-05-15T22:04:51.551;599616814479523440;15197.905;252
2024-05-15T22:04:51.559;599616814487214394;15205.596;716
2024-05-15T22:04:51.567;599616814494905348;15213.287;1056
2024-05-15T22:04:51.574;599616814502596302;15220.978;806
2024-05-15T22:04:51.582;599616814510287256;15228.669;142
2024-05-15T22:04:51.590;599616814517978210;15236.36;-216
2024-05-15T22:04:51.598;599616814525669164;15244.051;-123
2024-05-15T22:04:51.605;599616814533360118;15251.741;-102
2024-05-15T22:04:51.613;599616814541051072;15259.433;-209
2024-05-15T22:04:51.621;599616814548742026;15267.123;-176
2024-05-15T22:04:51.628;599616814556432980;15274.814;-99
2024-05-15T22:04:51.636;599616814564123934;15282.506;-107
2024-05-15T22:04:51.644;599616814571814888;15290.197;-114
2024-05-15T22:04:51.651;599616814579505842;15297.888;-85
2024-05-15T22:04:51.659;599616814587196796;15305.578;-59
2024-05-15T22:04:51.667;599616814594887750;15313.27;-42
2024-05-15T22:04:51.674;599616814602578704;15320.96;-45
2024-05-15T22:04:51.682;599616814610269658;15328.651;-49
2024-05-15T22:04:51.690;599616814617960612;15336.343;-33
2024-05-15T22:04:51.698;599616814625651566;15344.033;-23
2024-05-15T22:04:51.705;599616814633342520;15351.724;-2
2024-05-15T22:04:51.713;599616814641033474;15359.415;49
2024-05-15T22:04:51.721;599616814648724428;15367.105;90
2024-05-15T22:04:51.728;599616814656415382;15374.797;99
2024-05-15T22:04:51.736;599616814664106336;15382.488;111
2024-05-15T22:04:51.744;599616814671797290;15390.18;145
2024-05-15T22:04:51.751;599616814679488244;15397.869;159
2024-05-15T22:04:51.759;599616814687179198;15405.561;149
2024-05-15T22:04:51.767;599616814694870152;15413.252;166
2024-05-15T22:04:51.774;599616814702561106;15420.942;211
2024-05-15T22:04:51.782;599616814710252060;15428.634;221
2024-05-15T22:04:51.790;599616814717943014;15436.325;192
2024-05-15T22:04:51.798;599616814725633968;15444.015;180
2024-05-15T22:04:51.805;599616814733324922;15451.706;207
2024-05-15T22:04:51.813;599616814741015876;15459.397;235
2024-05-15T22:04:51.821;599616814748706830;15467.089;238
2024-05-15T22:04:51.828;599616814756397784;15474.779;235
2024-05-15T22:04:51.836;599616814764088738;15482.471;245
2024-05-15T22:04:51.844;599616814771779692;15490.162;254
2024-05-15T22:04:51.851;599616814779470646;15497.852;254
2024-05-15T22:04:51.859;599616814787161600;15505.543;268
2024-05-15T22:04:51.867;599616814794852554;15513.234;295
2024-05-15T22:04:51.874;599616814802543508;15520.925;299
2024-05-15T22:04:51.882;599616814810234462;15528.616;276
2024-05-15T22:04:51.890;599616814817925416;15536.308;278
2024-05-15T22:04:51.897;599616814825616370;15543.998;311
2024-05-15T22:04:51.905;599616814833307324;15551.688;316
2024-05-15T22:04:51.913;599616814840998278;15559.38;283
2024-05-15T22:04:51.921;599616814848689232;15567.071;223
2024-05-15T22:04:51.928;599616814856380186;15574.762;147
2024-05-15T22:04:51.936;599616814864071140;15582.453;114
2024-05-15T22:04:51.944;599616814871762094;15590.144;99
2024-05-15T22:04:51.951;599616814879453048;15597.834;33
2024-05-15T22:04:51.959;599616814887144002;15605.525;-21
2024-05-15T22:04:51.967;599616814894834956;15613.217;-19
2024-05-15T22:04:51.974;599616814902525910;15620.908;-11
2024-05-15T22:04:51.982;599616814910216864;15628.599;4
2024-05-15T22:04:51.990;599616814917907818;15636.289;52
2024-05-15T22:04:51.997;599616814925598772;15643.98;71
2024-05-15T22:04:52.005;599616814933289726;15651.671;66
2024-05-15T22:04:52.013;599616814940980680;15659.362;90
2024-05-15T22:04:52.021;599616814948671634;15667.054;99
2024-05-15T22:04:52.028;599616814956362588;15674.744;85
2024-05-15T22:04:52.036;599616814964053542;15682.436;97
2024-05-15T22:04:52.044;599616814971744496;15690.126;109
2024-05-15T22:04:52.051;599616814979435450;15697.816;71
2024-05-15T22:04:52.059;599616814987126404;15705.508;95
2024-05-15T22:04:52.067;599616814994817358;15713.199;376
2024-05-15T22:04:52.074;599616815002478220;15720.859;864
2024-05-15T22:04:52.082;599616815010169592;15728.551;1097
2024-05-15T22:04:52.090;599616815017860964;15736.242;728
2024-05-15T22:04:52.097;599616815025552336;15743.934;116
2024-05-15T22:04:52.105;599616815033243708;15751.626;-116
2024-05-15T22:04:52.113;599616815040935080;15759.317;-80
2024-05-15T22:04:52.121;599616815048626452;15767.008;-188
2024-05-15T22:04:52.128;599616815056317824;15774.699;-283
2024-05-15T22:04:52.136;599616815064009196;15782.391;-209
2024-05-15T22:04:52.144;599616815071700568;15790.082;-173
2024-05-15T22:04:52.151;599616815079391940;15797.773;-202
2024-05-15T22:04:52.159;599616815087083312;15805.465;-199
2024-05-15T22:04:52.167;599616815094774684;15813.156;-204
2024-05-15T22:04:52.174;599616815102466056;15820.848;-230
2024-05-15T22:04:52.182;599616815110157428;15828.539;-214
2024-05-15T22:04:52.190;599616815117848800;15836.23;-159
2024-05-15T22:04:52.197;599616815125540172;15843.922;-128
2024-05-15T22:04:52.205;599616815133231544;15851.613;-126
2024-05-15T22:04:52.213;599616815140922916;15859.305;-107
2024-05-15T22:04:52.220;599616815148614288;15866.996;-57
2024-05-15T22:04:52.228;599616815156305660;15874.687;-11
2024-05-15T22:04:52.236;599616815163997032;15882.378;9
2024-05-15T22:04:52.244;599616815171688404;15890.07;28
2024-05-15T22:04:52.251;599616815179379776;15897.762;49
2024-05-15T22:04:52.259;599616815187071148;15905.453;80
2024-05-15T22:04:52.267;599616815194762520;15913.145;99
2024-05-15T22:04:52.274;599616815202453892;15920.836;102
2024-05-15T22:04:52.282;599616815210145264;15928.526;126
2024-05-15T22:04:52.290;599616815217836636;15936.218;149
2024-05-15T22:04:52.297;599616815225528008;15943.909;130
2024-05-15T22:04:52.305;599616815233219380;15951.601;114
2024-05-15T22:04:52.313;599616815240910752;15959.292;154
2024-05-15T22:04:52.320;599616815248602124;15966.984;188
2024-05-15T22:04:52.328;599616815256293496;15974.676;178
2024-05-15T22:04:52.336;599616815263984868;15982.367;171
2024-05-15T22:04:52.344;599616815271676240;15990.058;176
2024-05-15T22:04:52.351;599616815279367612;15997.749;180
2024-05-15T22:04:52.359;599616815287058984;16005.44;192
