Phone timestamp;sensor timestamp [ns];timestamp [ms];ecg [uV]
2024-05-15T22:02:47.693;599616690603816418;0.0;1816
2024-05-15T22:02:47.700;599616690611507790;7.691372;3277
2024-05-15T22:02:47.708;599616690619199162;15.382744;4056
2024-05-15T22:02:47.716;599616690626890534;23.074116;4734
2024-05-15T22:02:47.723;599616690634581906;30.765488;5577
2024-05-15T22:02:47.731;599616690642273278;38.45686;6212
2024-05-15T22:02:47.739;599616690649964650;46.14823;6824
2024-05-15T22:02:47.746;599616690657656022;53.839603;7493
2024-05-15T22:02:47.754;599616690665347394;61.530975;7957
2024-05-15T22:02:47.762;599616690673038766;69.22235;8345
2024-05-15T22:02:47.769;599616690680730138;76.91372;8835
2024-05-15T22:02:47.777;599616690688421510;84.60509;9333
2024-05-15T22:02:47.785;599616690696112882;92.29646;9752
2024-05-15T22:02:47.792;599616690703804254;99.98784;10135
2024-05-15T22:02:47.800;599616690711495626;107.67921;10583
2024-05-15T22:02:47.808;599616690719186998;115.370575;11042
2024-05-15T22:02:47.816;599616690726878370;123.06195;11356
2024-05-15T22:02:47.823;599616690734569742;130.75333;11592
2024-05-15T22:02:47.831;599616690742261114;138.4447;11932
2024-05-15T22:02:47.839;599616690749952486;146.13606;12304
2024-05-15T22:02:47.846;599616690757643858;153.82744;12587
2024-05-15T22:02:47.854;599616690765335230;161.51881;12827
2024-05-15T22:02:47.862;599616690773026602;169.21017;13130
2024-05-15T22:02:47.869;599616690780717974;176.90155;13441
2024-05-15T22:02:47.877;599616690788409346;184.59293;13603
2024-05-15T22:02:47.885;599616690796100718;192.2843;13746
2024-05-15T22:02:47.892;599616690803792090;199.97568;14015
2024-05-15T22:02:47.900;599616690811483462;207.66704;14329
2024-05-15T22:02:47.908;599616690819174834;215.35841;14774
2024-05-15T22:02:47.916;599616690826866206;223.04979;15310
2024-05-15T22:02:47.923;599616690834557578;230.74115;15436
2024-05-15T22:02:47.931;599616690842248950;238.43253;15036
2024-05-15T22:02:47.939;599616690849940322;246.1239;14767
2024-05-15T22:02:47.946;599616690857631694;253.81528;14941
2024-05-15T22:02:47.954;599616690865323066;261.50665;15112
2024-05-15T22:02:47.962;599616690873014438;269.19803;15124
2024-05-15T22:02:47.969;599616690880705810;276.8894;15170
2024-05-15T22:02:47.977;599616690888397182;284.58078;15293
2024-05-15T22:02:47.985;599616690896088554;292.27213;15467
2024-05-15T22:02:47.992;599616690903779926;299.96353;15546
2024-05-15T22:02:48.000;599616690911471298;307.65488;15470
2024-05-15T22:02:48.008;599616690919162670;315.34625;15498
2024-05-15T22:02:48.016;599616690926854042;323.03763;15674
2024-05-15T22:02:48.023;599616690934545414;330.729;15743
2024-05-15T22:02:48.031;599616690942236786;338.42035;15739
2024-05-15T22:02:48.039;599616690949928158;346.11176;15781
2024-05-15T22:02:48.046;599616690957619530;353.8031;15815
2024-05-15T22:02:48.054;599616690965310902;361.4945;15903
2024-05-15T22:02:48.062;599616690973002274;369.18585;15931
2024-05-15T22:02:48.069;599616690980693646;376.87723;15822
2024-05-15T22:02:48.077;599616690988385018;384.5686;15881
2024-05-15T22:02:48.085;599616690996076390;392.25998;15941
2024-05-15T22:02:48.092;599616691003767762;399.95135;15753
2024-05-15T22:02:48.100;599616691011459134;407.64273;15686
2024-05-15T22:02:48.108;599616691019150506;415.33408;15781
2024-05-15T22:02:48.116;599616691026841878;423.02548;15719
2024-05-15T22:02:48.123;599616691034533250;430.71683;15622
2024-05-15T22:02:48.131;599616691042224622;438.4082;15619
2024-05-15T22:02:48.139;599616691049915994;446.09958;15548
2024-05-15T22:02:48.146;599616691057607366;453.79095;15415
2024-05-15T22:02:48.154;599616691065298738;461.4823;15334
2024-05-15T22:02:48.162;599616691072990110;469.1737;15339
2024-05-15T22:02:48.169;599616691080681482;476.86505;15420
2024-05-15T22:02:48.177;599616691088372854;484.55646;15370
2024-05-15T22:02:48.185;599616691096064226;492.2478;15103
2024-05-15T22:02:48.192;599616691103755598;499.93918;14979
2024-05-15T22:02:48.200;599616691111446970;507.63055;15013
2024-05-15T22:02:48.208;599616691119138342;515.3219;14891
2024-05-15T22:02:48.216;599616691126829714;523.0133;14774
2024-05-15T22:02:48.223;599616691134521086;530.70465;14772
2024-05-15T22:02:48.231;599616691142212458;538.39606;14646
2024-05-15T22:02:48.239;599616691149903830;546.0874;14494
2024-05-15T22:02:48.246;599616691157595202;553.7788;14560
2024-05-15T22:02:48.254;599616691165286582;561.47015;14501
2024-05-15T22:02:48.262;599616691172977954;569.16156;14139
2024-05-15T22:02:48.269;599616691180669326;576.8529;13929
2024-05-15T22:02:48.277;599616691188360698;584.54425;13898
2024-05-15T22:02:48.285;599616691196052070;592.23566;13810
2024-05-15T22:02:48.292;599616691203743442;599.92706;13746
2024-05-15T22:02:48.300;599616691211434814;607.61835;13729
2024-05-15T22:02:48.308;599616691219126186;615.30975;13658
2024-05-15T22:02:48.316;599616691226817558;623.00116;13549
2024-05-15T22:02:48.323;599616691234508930;630.6925;13418
2024-05-15T22:02:48.331;599616691242200302;638.38385;13158
2024-05-15T22:02:48.339;599616691249891674;646.07526;12937
2024-05-15T22:02:48.346;599616691257583046;653.76666;12932
2024-05-15T22:02:48.354;599616691265274418;661.458;12849
2024-05-15T22:02:48.362;599616691272965790;669.14935;12511
2024-05-15T22:02:48.369;599616691280657162;676.84076;12330
2024-05-15T22:02:48.377;599616691288348534;684.5321;12570
2024-05-15T22:02:48.385;599616691296039906;692.2235;12946
2024-05-15T22:02:48.392;599616691303731278;699.91486;13087
2024-05-15T22:02:48.400;599616691311422650;707.6062;12770
2024-05-15T22:02:48.408;599616691319114022;715.2976;12116
2024-05-15T22:02:48.415;599616691326805394;722.989;11656
2024-05-15T22:02:48.423;599616691334496766;730.6803;11606
2024-05-15T22:02:48.431;599616691342188138;738.3717;11592
2024-05-15T22:02:48.439;599616691349879510;746.0631;11456
2024-05-15T22:02:48.446;599616691357570882;753.7545;11354
2024-05-15T22:02:48.454;599616691365262254;761.4458;11259
2024-05-15T22:02:48.462;599616691372953626;769.1372;11130
2024-05-15T22:02:48.469;599616691380644998;776.8286;11049
2024-05-15T22:02:48.477;599616691388336370;784.51996;10963
2024-05-15T22:02:48.485;599616691396027742;792.2113;10849
2024-05-15T22:02:48.492;599616691403719114;799.9027;10818
2024-05-15T22:02:48.500;599616691411410486;807.59406;10768
2024-05-15T22:02:48.508;599616691419101858;815.28546;10587
2024-05-15T22:02:48.515;599616691426793230;822.9768;10464
2024-05-15T22:02:48.523;599616691434484602;830.66815;10464
2024-05-15T22:02:48.531;599616691442175974;838.35956;10404
2024-05-15T22:02:48.539;599616691449867346;846.05096;10314
2024-05-15T22:02:48.546;599616691457558718;853.74225;10278
2024-05-15T22:02:48.554;599616691465250090;861.43365;10152
2024-05-15T22:02:48.562;599616691472941462;869.12506;9926
2024-05-15T22:02:48.569;599616691480632834;876.8164;9783
2024-05-15T22:02:48.577;599616691488324206;884.50775;9726
2024-05-15T22:02:48.585;599616691496015578;892.19916;9678
2024-05-15T22:02:48.592;599616691503706950;899.89056;9566
2024-05-15T22:02:48.600;599616691511398322;907.5819;9373
2024-05-15T22:02:48.608;599616691519089694;915.27325;9269
2024-05-15T22:02:48.615;599616691526781066;922.96466;9245
2024-05-15T22:02:48.623;599616691534472438;930.656;9143
2024-05-15T22:02:48.631;599616691542163810;938.3474;9045
2024-05-15T22:02:48.639;599616691549855182;946.03876;9009
2024-05-15T22:02:48.646;599616691557546554;953.7301;8885
2024-05-15T22:02:48.654;599616691565237926;961.4215;8695
2024-05-15T22:02:48.662;599616691572929298;969.1129;8569
2024-05-15T22:02:48.669;599616691580620670;976.8042;8512
2024-05-15T22:02:48.677;599616691588312042;984.4956;8471
2024-05-15T22:02:48.685;599616691596003414;992.187;8367
2024-05-15T22:02:48.692;599616691603694786;999.8784;8193
2024-05-15T22:02:48.700;599616691611386158;1007.5697;8095
2024-05-15T22:02:48.708;599616691619077530;1015.2611;8057
2024-05-15T22:02:48.715;599616691626768902;1022.9525;7952
2024-05-15T22:02:48.723;599616691634460274;1030.6438;7845
2024-05-15T22:02:48.731;599616691642151646;1038.3352;7786
2024-05-15T22:02:48.739;599616691649843018;1046.0266;7710
2024-05-15T22:02:48.746;599616691657534390;1053.7179;7643
2024-05-15T22:02:48.754;599616691665225762;1061.4093;7521
2024-05-15T22:02:48.762;599616691672917134;1069.1007;7302
2024-05-15T22:02:48.769;599616691680608506;1076.7921;7203
2024-05-15T22:02:48.777;599616691688299878;1084.4834;7174
2024-05-15T22:02:48.785;599616691695991250;1092.1748;7069
2024-05-15T22:02:48.792;599616691703682622;1099.8662;7026
2024-05-15T22:02:48.800;599616691711373994;1107.5576;6941
2024-05-15T22:02:48.808;599616691719065366;1115.2489;6731
2024-05-15T22:02:48.815;599616691726756746;1122.9403;6631
2024-05-15T22:02:48.823;599616691734448118;1130.6317;6584
2024-05-15T22:02:48.831;599616691742139490;1138.3231;6412
2024-05-15T22:02:48.839;599616691749830862;1146.0144;6229
2024-05-15T22:02:48.846;599616691757522234;1153.7058;6179
2024-05-15T22:02:48.854;599616691765213606;1161.3972;6393
2024-05-15T22:02:48.862;599616691772904978;1169.0885;6845
2024-05-15T22:02:48.869;599616691780596350;1176.7799;7098
2024-05-15T22:02:48.877;599616691788287722;1184.4713;6760
2024-05-15T22:02:48.885;599616691795979094;1192.1627;6119
2024-05-15T22:02:48.892;599616691803670466;1199.8541;5731
2024-05-15T22:02:48.900;599616691811361838;1207.5455;5620
2024-05-15T22:02:48.908;599616691819053210;1215.2367;5553
2024-05-15T22:02:48.915;599616691826744582;1222.9281;5484
2024-05-15T22:02:48.923;599616691834435954;1230.6195;5415
2024-05-15T22:02:48.931;599616691842127326;1238.3109;5348
2024-05-15T22:02:48.939;599616691849818698;1246.0023;5315
2024-05-15T22:02:48.946;599616691857510070;1253.6937;5310
2024-05-15T22:02:48.954;599616691865201442;1261.385;5272
2024-05-15T22:02:48.962;599616691872892814;1269.0763;5191
2024-05-15T22:02:48.969;599616691880584186;1276.7677;5139
2024-05-15T22:02:48.977;599616691888275558;1284.4591;5134
2024-05-15T22:02:48.985;599616691895966930;1292.1505;5098
2024-05-15T22:02:48.992;599616691903658302;1299.8419;5041
2024-05-15T22:02:49.000;599616691911349674;1307.5333;5034
2024-05-15T22:02:49.008;599616691919041046;1315.2246;5027
2024-05-15T22:02:49.015;599616691926732418;1322.916;4955
2024-05-15T22:02:49.023;599616691934423790;1330.6073;4894
2024-05-15T22:02:49.031;599616691942115162;1338.2987;4886
2024-05-15T22:02:49.038;599616691949806534;1345.9901;4867
2024-05-15T22:02:49.046;599616691957497906;1353.6815;4779
2024-05-15T22:02:49.054;599616691965189278;1361.3728;4660
2024-05-15T22:02:49.062;599616691972880650;1369.0642;4601
2024-05-15T22:02:49.069;599616691980572022;1376.7556;4575
2024-05-15T22:02:49.077;599616691988263394;1384.447;4506
2024-05-15T22:02:49.085;599616691995954766;1392.1384;4448
2024-05-15T22:02:49.092;599616692003646138;1399.8297;4439
2024-05-15T22:02:49.100;599616692011337510;1407.5211;4396
2024-05-15T22:02:49.108;599616692019028882;1415.2124;4279
2024-05-15T22:02:49.115;599616692026720254;1422.9038;4184
2024-05-15T22:02:49.123;599616692034411626;1430.5952;4172
2024-05-15T22:02:49.131;599616692042102998;1438.2866;4144
2024-05-15T22:02:49.138;599616692049794370;1445.978;4063
2024-05-15T22:02:49.146;599616692057485742;1453.6694;4001
2024-05-15T22:02:49.154;599616692065177114;1461.3606;3956
2024-05-15T22:02:49.162;599616692072868486;1469.052;3901
2024-05-15T22:02:49.169;599616692080559858;1476.7434;3849
2024-05-15T22:02:49.177;599616692088251230;1484.4348;3818
2024-05-15T22:02:49.185;599616692095942602;1492.1262;3801
2024-05-15T22:02:49.192;599616692103633974;1499.8176;3753
2024-05-15T22:02:49.200;599616692111325346;1507.509;3677
2024-05-15T22:02:49.208;599616692119016718;1515.2002;3632
2024-05-15T22:02:49.215;599616692126708090;1522.8916;3622
2024-05-15T22:02:49.223;599616692134399462;1530.583;3594
2024-05-15T22:02:49.231;599616692142090834;1538.2744;3549
2024-05-15T22:02:49.238;599616692149782206;1545.9658;3511
2024-05-15T22:02:49.246;599616692157473578;1553.6572;3487
2024-05-15T22:02:49.254;599616692165164950;1561.3485;3468
2024-05-15T22:02:49.262;599616692172856322;1569.0399;3356
2024-05-15T22:02:49.269;599616692180547694;1576.7313;3184
2024-05-15T22:02:49.277;599616692188239066;1584.4226;3134
2024-05-15T22:02:49.285;599616692195930438;1592.114;3099
2024-05-15T22:02:49.292;599616692203621810;1599.8054;2958
2024-05-15T22:02:49.300;599616692211313182;1607.4967;2870
2024-05-15T22:02:49.308;599616692219004554;1615.1881;2861
2024-05-15T22:02:49.315;599616692226695926;1622.8795;2768
2024-05-15T22:02:49.323;599616692234387298;1630.5709;2701
2024-05-15T22:02:49.331;599616692242078670;1638.2623;2920
2024-05-15T22:02:49.338;599616692249770042;1645.9536;3392
2024-05-15T22:02:49.346;599616692257461414;1653.645;3725
2024-05-15T22:02:49.354;599616692265152786;1661.3363;3508
2024-05-15T22:02:49.362;599616692272844158;1669.0277;2896
2024-05-15T22:02:49.369;599616692280535530;1676.7191;2530
2024-05-15T22:02:49.377;599616692288231950;1684.4155;2549
2024-05-15T22:02:49.385;599616692295923252;1692.1069;2542
2024-05-15T22:02:49.392;599616692303614554;1699.7981;2461
2024-05-15T22:02:49.400;599616692311305856;1707.4894;2473
2024-05-15T22:02:49.408;599616692318997158;1715.1808;2485
2024-05-15T22:02:49.415;599616692326688460;1722.8721;2449
2024-05-15T22:02:49.423;599616692334379762;1730.5634;2430
2024-05-15T22:02:49.431;599616692342071064;1738.2546;2377
2024-05-15T22:02:49.438;599616692349762366;1745.946;2292
2024-05-15T22:02:49.446;599616692357453668;1753.6372;2282
2024-05-15T22:02:49.454;599616692365144970;1761.3285;2325
2024-05-15T22:02:49.462;599616692372836272;1769.0199;2318
2024-05-15T22:02:49.469;599616692380527574;1776.7112;2273
2024-05-15T22:02:49.477;599616692388218876;1784.4025;2278
2024-05-15T22:02:49.485;599616692395910178;1792.0938;2325
2024-05-15T22:02:49.492;599616692403601480;1799.785;2328
2024-05-15T22:02:49.500;599616692411292782;1807.4763;2297
2024-05-15T22:02:49.508;599616692418984084;1815.1676;2294
2024-05-15T22:02:49.515;599616692426675386;1822.859;2285
2024-05-15T22:02:49.523;599616692434366688;1830.5503;2244
2024-05-15T22:02:49.531;599616692442057990;1838.2416;2216
2024-05-15T22:02:49.538;599616692449749292;1845.933;2166
2024-05-15T22:02:49.546;599616692457440594;1853.6241;2099
2024-05-15T22:02:49.554;599616692465131896;1861.3154;2089
2024-05-15T22:02:49.562;599616692472823198;1869.0067;2075
2024-05-15T22:02:49.569;599616692480514500;1876.6981;2001
2024-05-15T22:02:49.577;599616692488205802;1884.3894;1944
2024-05-15T22:02:49.585;599616692495897104;1892.0807;1932
2024-05-15T22:02:49.592;599616692503588406;1899.772;1928
2024-05-15T22:02:49.600;599616692511279708;1907.4633;1923
2024-05-15T22:02:49.608;599616692518971010;1915.1545;1909
2024-05-15T22:02:49.615;599616692526662312;1922.846;1878
2024-05-15T22:02:49.623;599616692534353614;1930.5372;1859
2024-05-15T22:02:49.631;599616692542044916;1938.2285;1868
2024-05-15T22:02:49.638;599616692549736218;1945.9198;1863
2024-05-15T22:02:49.646;599616692557427520;1953.6111;1832
2024-05-15T22:02:49.654;599616692565118822;1961.3024;1792
2024-05-15T22:02:49.661;599616692572810124;1968.9937;1773
2024-05-15T22:02:49.669;599616692580501426;1976.685;1766
2024-05-15T22:02:49.677;599616692588192728;1984.3763;1751
2024-05-15T22:02:49.685;599616692595884030;1992.0676;1747
2024-05-15T22:02:49.692;599616692603575332;1999.759;1742
2024-05-15T22:02:49.700;599616692611266634;2007.4502;1701
2024-05-15T22:02:49.708;599616692618957936;2015.1415;1668
2024-05-15T22:02:49.715;599616692626649238;2022.8328;1687
2024-05-15T22:02:49.723;599616692634340540;2030.5242;1685
2024-05-15T22:02:49.731;599616692642031842;2038.2155;1621
2024-05-15T22:02:49.738;599616692649723144;2045.9067;1559
2024-05-15T22:02:49.746;599616692657414446;2053.5981;1506
2024-05-15T22:02:49.754;599616692665105748;2061.2893;1447
2024-05-15T22:02:49.761;599616692672797050;2068.9807;1380
2024-05-15T22:02:49.769;599616692680488352;2076.6719;1299
2024-05-15T22:02:49.777;599616692688179654;2084.3633;1254
2024-05-15T22:02:49.785;599616692695870956;2092.0544;1211
2024-05-15T22:02:49.792;599616692703562258;2099.7458;1097
2024-05-15T22:02:49.800;599616692711253560;2107.4373;1014
2024-05-15T22:02:49.808;599616692718944862;2115.1284;1135
2024-05-15T22:02:49.815;599616692726636164;2122.8198;1540
2024-05-15T22:02:49.823;599616692734327466;2130.511;2020
2024-05-15T22:02:49.831;599616692742018768;2138.2024;2101
2024-05-15T22:02:49.838;599616692749710070;2145.8936;1609
2024-05-15T22:02:49.846;599616692757401372;2153.585;1087
2024-05-15T22:02:49.854;599616692765092674;2161.2761;1009
2024-05-15T22:02:49.861;599616692772783976;2168.9678;1097
2024-05-15T22:02:49.869;599616692780475278;2176.659;1061
2024-05-15T22:02:49.877;599616692788166580;2184.35;1033
2024-05-15T22:02:49.885;599616692795857882;2192.0415;1054
2024-05-15T22:02:49.892;599616692803549184;2199.7327;1056
2024-05-15T22:02:49.900;599616692811240486;2207.424;1064
2024-05-15T22:02:49.908;599616692818931788;2215.1152;1085
2024-05-15T22:02:49.915;599616692826623090;2222.807;1090
2024-05-15T22:02:49.923;599616692834314392;2230.498;1092
2024-05-15T22:02:49.931;599616692842005694;2238.1892;1109
2024-05-15T22:02:49.938;599616692849717114;2245.901;1114
2024-05-15T22:02:49.946;599616692857408137;2253.5918;1118
2024-05-15T22:02:49.954;599616692865099160;2261.2827;1147
2024-05-15T22:02:49.961;599616692872790183;2268.9739;1187
2024-05-15T22:02:49.969;599616692880481206;2276.6648;1199
2024-05-15T22:02:49.977;599616692888172229;2284.356;1173
2024-05-15T22:02:49.985;599616692895863252;2292.0469;1173
2024-05-15T22:02:49.992;599616692903554275;2299.7378;1199
2024-05-15T22:02:50.000;599616692911245298;2307.429;1154
2024-05-15T22:02:50.008;599616692918936321;2315.1199;1059
2024-05-15T22:02:50.015;599616692926627344;2322.8108;1040
2024-05-15T22:02:50.023;599616692934318367;2330.502;1042
2024-05-15T22:02:50.031;599616692942009390;2338.1929;956
2024-05-15T22:02:50.038;599616692949700413;2345.8838;873
2024-05-15T22:02:50.046;599616692957391436;2353.575;875
2024-05-15T22:02:50.054;599616692965082459;2361.2659;887
2024-05-15T22:02:50.061;599616692972773482;2368.9573;859
2024-05-15T22:02:50.069;599616692980464505;2376.6482;840
2024-05-15T22:02:50.077;599616692988155528;2384.339;852
2024-05-15T22:02:50.085;599616692995846551;2392.0303;871
2024-05-15T22:02:50.092;599616693003537574;2399.7212;871
2024-05-15T22:02:50.100;599616693011228597;2407.412;861
2024-05-15T22:02:50.108;599616693018919620;2415.1033;871
2024-05-15T22:02:50.115;599616693026610643;2422.7942;868
2024-05-15T22:02:50.123;599616693034301666;2430.4854;840
2024-05-15T22:02:50.131;599616693041992689;2438.1763;833
2024-05-15T22:02:50.138;599616693049683712;2445.8672;849
2024-05-15T22:02:50.146;599616693057374735;2453.5583;856
2024-05-15T22:02:50.154;599616693065065758;2461.2493;830
2024-05-15T22:02:50.161;599616693072756781;2468.9402;799
2024-05-15T22:02:50.169;599616693080447804;2476.6313;799
2024-05-15T22:02:50.177;599616693088138827;2484.3223;809
2024-05-15T22:02:50.185;599616693095829850;2492.0134;792
2024-05-15T22:02:50.192;599616693103520873;2499.7046;747
2024-05-15T22:02:50.200;599616693111211896;2507.3955;721
2024-05-15T22:02:50.208;599616693118902919;2515.0867;695
2024-05-15T22:02:50.215;599616693126593942;2522.7776;642
2024-05-15T22:02:50.223;599616693134284965;2530.4685;630
2024-05-15T22:02:50.231;599616693141975988;2538.1597;654
2024-05-15T22:02:50.238;599616693149667011;2545.8506;640
2024-05-15T22:02:50.246;599616693157358034;2553.5417;609
2024-05-15T22:02:50.254;599616693165049057;2561.2327;602
2024-05-15T22:02:50.261;599616693172740080;2568.9236;592
2024-05-15T22:02:50.269;599616693180431103;2576.6147;499
2024-05-15T22:02:50.277;599616693188122126;2584.3057;349
2024-05-15T22:02:50.284;599616693195813149;2591.9966;368
2024-05-15T22:02:50.292;599616693203504172;2599.6877;716
2024-05-15T22:02:50.300;599616693211195195;2607.3787;1187
2024-05-15T22:02:50.308;599616693218886218;2615.0696;1363
2024-05-15T22:02:50.315;599616693226577241;2622.7607;999
2024-05-15T22:02:50.323;599616693234268264;2630.452;468
2024-05-15T22:02:50.331;599616693241959287;2638.143;330
2024-05-15T22:02:50.338;599616693249650310;2645.834;452
2024-05-15T22:02:50.346;599616693257341333;2653.525;445
2024-05-15T22:02:50.354;599616693265032356;2661.216;402
2024-05-15T22:02:50.361;599616693272723379;2668.907;440
2024-05-15T22:02:50.369;599616693280414402;2676.598;468
2024-05-15T22:02:50.377;599616693288105425;2684.289;483
2024-05-15T22:02:50.384;599616693295796448;2691.98;504
2024-05-15T22:02:50.392;599616693303487471;2699.6711;502
2024-05-15T22:02:50.400;599616693311178494;2707.362;492
2024-05-15T22:02:50.408;599616693318869517;2715.053;514
2024-05-15T22:02:50.415;599616693326560540;2722.7441;554
2024-05-15T22:02:50.423;599616693334251563;2730.435;592
2024-05-15T22:02:50.431;599616693341942586;2738.126;618
2024-05-15T22:02:50.438;599616693349633609;2745.8171;642
2024-05-15T22:02:50.446;599616693357324632;2753.508;671
2024-05-15T22:02:50.454;599616693365015655;2761.1995;697
2024-05-15T22:02:50.461;599616693372706678;2768.8904;730
2024-05-15T22:02:50.469;599616693380397701;2776.5813;761
2024-05-15T22:02:50.477;599616693388088724;2784.2725;764
2024-05-15T22:02:50.484;599616693395779747;2791.9634;733
2024-05-15T22:02:50.492;599616693403470770;2799.6543;709
2024-05-15T22:02:50.500;599616693411136720;2807.3203;695
2024-05-15T22:02:50.508;599616693418828092;2815.0115;661
2024-05-15T22:02:50.515;599616693426519464;2822.7031;611
2024-05-15T22:02:50.523;599616693434210836;2830.3943;547
2024-05-15T22:02:50.531;599616693441902208;2838.086;478
2024-05-15T22:02:50.538;599616693449593580;2845.777;421
2024-05-15T22:02:50.546;599616693457284952;2853.4685;371
2024-05-15T22:02:50.554;599616693464976324;2861.16;366
2024-05-15T22:02:50.561;599616693472667696;2868.8513;414
2024-05-15T22:02:50.569;599616693480359068;2876.5427;414
2024-05-15T22:02:50.577;599616693488050440;2884.234;371
2024-05-15T22:02:50.584;599616693495741812;2891.9255;383
2024-05-15T22:02:50.592;599616693503433184;2899.6167;421
2024-05-15T22:02:50.600;599616693511124556;2907.308;426
2024-05-15T22:02:50.607;599616693518815928;2914.9995;426
2024-05-15T22:02:50.615;599616693526507300;2922.691;423
2024-05-15T22:02:50.623;599616693534198672;2930.3823;407
2024-05-15T22:02:50.631;599616693541890044;2938.0735;404
2024-05-15T22:02:50.638;599616693549581416;2945.7651;428
2024-05-15T22:02:50.646;599616693557272788;2953.4563;447
2024-05-15T22:02:50.654;599616693564964160;2961.1477;418
2024-05-15T22:02:50.661;599616693572655532;2968.839;361
2024-05-15T22:02:50.669;599616693580346904;2976.5305;333
2024-05-15T22:02:50.677;599616693588038276;2984.222;307
2024-05-15T22:02:50.684;599616693595729648;2991.9133;266
2024-05-15T22:02:50.692;599616693603421020;2999.6045;247
2024-05-15T22:02:50.700;599616693611112392;3007.296;245
2024-05-15T22:02:50.707;599616693618803764;3014.9873;240
2024-05-15T22:02:50.715;599616693626495136;3022.6787;238
2024-05-15T22:02:50.723;599616693634186508;3030.37;235
2024-05-15T22:02:50.731;599616693641877880;3038.0615;264
2024-05-15T22:02:50.738;599616693649569252;3045.753;273
2024-05-15T22:02:50.746;599616693657260624;3053.444;221
2024-05-15T22:02:50.754;599616693664951996;3061.1355;195
2024-05-15T22:02:50.761;599616693672643368;3068.827;342
2024-05-15T22:02:50.769;599616693680334740;3076.5183;702
2024-05-15T22:02:50.777;599616693688026112;3084.2097;1052
2024-05-15T22:02:50.784;599616693695717484;3091.9011;966
2024-05-15T22:02:50.792;599616693703408856;3099.5925;404
2024-05-15T22:02:50.800;599616693711100228;3107.2837;-23
2024-05-15T22:02:50.807;599616693718791600;3114.9753;21
2024-05-15T22:02:50.815;599616693726482972;3122.6665;128
2024-05-15T22:02:50.823;599616693734174344;3130.358;85
2024-05-15T22:02:50.831;599616693741865716;3138.0493;111
2024-05-15T22:02:50.838;599616693749557088;3145.7405;188
2024-05-15T22:02:50.846;599616693757248460;3153.4321;178
2024-05-15T22:02:50.854;599616693764939832;3161.1233;173
2024-05-15T22:02:50.861;599616693772631204;3168.815;228
2024-05-15T22:02:50.869;599616693780322576;3176.506;259
2024-05-15T22:02:50.877;599616693788013948;3184.1978;271
2024-05-15T22:02:50.884;599616693795705320;3191.889;318
2024-05-15T22:02:50.892;599616693803396692;3199.58;361
2024-05-15T22:02:50.900;599616693811088064;3207.2717;361
2024-05-15T22:02:50.907;599616693818779436;3214.963;380
2024-05-15T22:02:50.915;599616693826470808;3222.6545;435
2024-05-15T22:02:50.923;599616693834162180;3230.3457;480
2024-05-15T22:02:50.931;599616693841853552;3238.0374;507
2024-05-15T22:02:50.938;599616693849544924;3245.7285;521
2024-05-15T22:02:50.946;599616693857236296;3253.4197;533
2024-05-15T22:02:50.954;599616693864927668;3261.1113;537
2024-05-15T22:02:50.961;599616693872619040;3268.8025;540
2024-05-15T22:02:50.969;599616693880310412;3276.4941;526
2024-05-15T22:02:50.977;599616693888001784;3284.1853;476
2024-05-15T22:02:50.984;599616693895693156;3291.877;428
2024-05-15T22:02:50.992;599616693903384528;3299.568;407
2024-05-15T22:02:51.000;599616693911075900;3307.2593;404
2024-05-15T22:02:51.007;599616693918767272;3314.951;392
2024-05-15T22:02:51.015;599616693926458644;3322.642;338
2024-05-15T22:02:51.023;599616693934150016;3330.3337;297
2024-05-15T22:02:51.031;599616693941841388;3338.025;316
2024-05-15T22:02:51.038;599616693949532760;3345.7163;326
2024-05-15T22:02:51.046;599616693957224132;3353.4077;318
2024-05-15T22:02:51.054;599616693964915504;3361.099;330
2024-05-15T22:02:51.061;599616693972606884;3368.7905;354
2024-05-15T22:02:51.069;599616693980298256;3376.4817;376
2024-05-15T22:02:51.077;599616693987989628;3384.1733;388
2024-05-15T22:02:51.084;599616693995681000;3391.8645;366
2024-05-15T22:02:51.092;599616694003372372;3399.556;347
2024-05-15T22:02:51.100;599616694011063744;3407.2473;364
2024-05-15T22:02:51.107;599616694018755116;3414.9387;354
2024-05-15T22:02:51.115;599616694026446488;3422.6301;285
2024-05-15T22:02:51.123;599616694034137860;3430.3213;235
2024-05-15T22:02:51.131;599616694041829232;3438.013;221
2024-05-15T22:02:51.138;599616694049520604;3445.704;185
2024-05-15T22:02:51.146;599616694057211976;3453.3955;140
2024-05-15T22:02:51.154;599616694064903348;3461.087;133
2024-05-15T22:02:51.161;599616694072594720;3468.7783;161
2024-05-15T22:02:51.169;599616694080286092;3476.4697;159
2024-05-15T22:02:51.177;599616694087977464;3484.1611;128
2024-05-15T22:02:51.184;599616694095668836;3491.8525;130
2024-05-15T22:02:51.192;599616694103360208;3499.5437;157
2024-05-15T22:02:51.200;599616694111051580;3507.235;173
2024-05-15T22:02:51.207;599616694118742952;3514.9265;183
2024-05-15T22:02:51.215;599616694126434324;3522.618;166
2024-05-15T22:02:51.223;599616694134125696;3530.3093;104
2024-05-15T22:02:51.231;599616694141817068;3538.0007;119
2024-05-15T22:02:51.238;599616694149508440;3545.692;409
2024-05-15T22:02:51.246;599616694157199812;3553.3835;940
2024-05-15T22:02:51.254;599616694164891184;3561.0747;1278
2024-05-15T22:02:51.261;599616694172582556;3568.766;978
2024-05-15T22:02:51.269;599616694180273928;3576.4575;261
2024-05-15T22:02:51.277;599616694187965300;3584.149;-109
2024-05-15T22:02:51.284;599616694195656672;3591.8403;0
2024-05-15T22:02:51.292;599616694203348044;3599.5315;54
2024-05-15T22:02:51.300;599616694211039416;3607.2231;-11
2024-05-15T22:02:51.307;599616694218730788;3614.9143;35
2024-05-15T22:02:51.315;599616694226422160;3622.6057;99
2024-05-15T22:02:51.323;599616694234113532;3630.297;85
2024-05-15T22:02:51.330;599616694241804904;3637.9885;107
2024-05-15T22:02:51.338;599616694249496276;3645.68;171
2024-05-15T22:02:51.346;599616694257187648;3653.371;195
2024-05-15T22:02:51.354;599616694264879020;3661.0627;204
2024-05-15T22:02:51.361;599616694272570392;3668.754;245
2024-05-15T22:02:51.369;599616694280261764;3676.4456;288
2024-05-15T22:02:51.377;599616694287953136;3684.1367;318
2024-05-15T22:02:51.384;599616694295644508;3691.828;352
2024-05-15T22:02:51.392;599616694303335880;3699.5195;392
2024-05-15T22:02:51.400;599616694311027252;3707.2107;423
2024-05-15T22:02:51.407;599616694318718624;3714.9023;430
2024-05-15T22:02:51.415;599616694326409996;3722.5935;428
2024-05-15T22:02:51.423;599616694334101368;3730.2852;454
2024-05-15T22:02:51.430;599616694341792740;3737.9763;485
2024-05-15T22:02:51.438;599616694349484112;3745.6675;478
2024-05-15T22:02:51.446;599616694357175484;3753.3591;449
2024-05-15T22:02:51.454;599616694364866856;3761.0503;423
2024-05-15T22:02:51.461;599616694372558228;3768.742;402
2024-05-15T22:02:51.469;599616694380249600;3776.433;385
2024-05-15T22:02:51.477;599616694387940972;3784.1248;380
2024-05-15T22:02:51.484;599616694395632344;3791.816;392
2024-05-15T22:02:51.492;599616694403323716;3799.507;397
2024-05-15T22:02:51.500;599616694411015088;3807.1987;368
2024-05-15T22:02:51.507;599616694418706460;3814.89;342
2024-05-15T22:02:51.515;599616694426397832;3822.5815;349
2024-05-15T22:02:51.523;599616694434089204;3830.2727;368
2024-05-15T22:02:51.530;599616694441780576;3837.964;366
2024-05-15T22:02:51.538;599616694449471948;3845.6555;361
2024-05-15T22:02:51.546;599616694457163320;3853.347;368
2024-05-15T22:02:51.554;599616694464854692;3861.0383;361
2024-05-15T22:02:51.561;599616694472546064;3868.7295;338
2024-05-15T22:02:51.569;599616694480237436;3876.4211;321
2024-05-15T22:02:51.577;599616694487928808;3884.1123;311
2024-05-15T22:02:51.584;599616694495620180;3891.8037;283
2024-05-15T22:02:51.592;599616694503311552;3899.495;218
2024-05-15T22:02:51.600;599616694511002924;3907.1865;169
2024-05-15T22:02:51.607;599616694518694296;3914.878;152
2024-05-15T22:02:51.615;599616694526385668;3922.5693;121
2024-05-15T22:02:51.623;599616694534077048;3930.2607;61
2024-05-15T22:02:51.630;599616694541768420;3937.952;19
2024-05-15T22:02:51.638;599616694549459792;3945.6433;0
2024-05-15T22:02:51.646;599616694557151164;3953.3347;-14
2024-05-15T22:02:51.654;599616694564842536;3961.0261;-21
2024-05-15T22:02:51.661;599616694572533908;3968.7175;7
2024-05-15T22:02:51.669;599616694580225280;3976.409;64
2024-05-15T22:02:51.677;599616694587916652;3984.1003;95
2024-05-15T22:02:51.684;599616694595608024;3991.7915;54
2024-05-15T22:02:51.692;599616694603299396;3999.483;-16
2024-05-15T22:02:51.700;599616694610990768;4007.1743;-26
2024-05-15T22:02:51.707;599616694618682140;4014.8657;109
2024-05-15T22:02:51.715;599616694626373512;4022.5571;478
2024-05-15T22:02:51.723;599616694634064884;4030.2485;968
2024-05-15T22:02:51.730;599616694641756256;4037.9397;1102
2024-05-15T22:02:51.738;599616694649447628;4045.6313;611
2024-05-15T22:02:51.746;599616694657139000;4053.3225;57
2024-05-15T22:02:51.754;599616694664830372;4061.014;-9
2024-05-15T22:02:51.761;599616694672521744;4068.7053;97
2024-05-15T22:02:51.769;599616694680213116;4076.3967;38
2024-05-15T22:02:51.777;599616694687904488;4084.0881;-35
2024-05-15T22:02:51.784;599616694695595860;4091.7793;-47
2024-05-15T22:02:51.792;599616694703287232;4099.4707;-16
2024-05-15T22:02:51.800;599616694710978604;4107.162;28
2024-05-15T22:02:51.807;599616694718669976;4114.8535;61
2024-05-15T22:02:51.815;599616694726361348;4122.545;97
2024-05-15T22:02:51.823;599616694734052720;4130.2363;130
2024-05-15T22:02:51.830;599616694741744092;4137.9277;154
2024-05-15T22:02:51.838;599616694749435464;4145.619;188
2024-05-15T22:02:51.846;599616694757126836;4153.3105;245
2024-05-15T22:02:51.854;599616694764818208;4161.002;299
2024-05-15T22:02:51.861;599616694772509580;4168.6934;314
2024-05-15T22:02:51.869;599616694780200952;4176.3843;321
2024-05-15T22:02:51.877;599616694787892324;4184.076;368
2024-05-15T22:02:51.884;599616694795583696;4191.767;414
2024-05-15T22:02:51.892;599616694803275068;4199.4585;418
2024-05-15T22:02:51.900;599616694810966440;4207.15;426
2024-05-15T22:02:51.907;599616694818657812;4214.8413;454
2024-05-15T22:02:51.915;599616694826349184;4222.5327;447
2024-05-15T22:02:51.923;599616694834040556;4230.224;397
2024-05-15T22:02:51.930;599616694841731928;4237.9155;354
2024-05-15T22:02:51.938;599616694849423300;4245.607;352
2024-05-15T22:02:51.946;599616694857114672;4253.2983;361
2024-05-15T22:02:51.953;599616694864806044;4260.9897;347
2024-05-15T22:02:51.961;599616694872497416;4268.681;340
2024-05-15T22:02:51.969;599616694880188788;4276.3726;364
2024-05-15T22:02:51.977;599616694887880160;4284.064;383
2024-05-15T22:02:51.984;599616694895571532;4291.755;378
2024-05-15T22:02:51.992;599616694903262904;4299.4463;376
2024-05-15T22:02:52.000;599616694910954276;4307.138;340
2024-05-15T22:02:52.007;599616694918645648;4314.829;278
2024-05-15T22:02:52.015;599616694926337020;4322.5205;278
2024-05-15T22:02:52.023;599616694934028392;4330.212;314
2024-05-15T22:02:52.030;599616694941719764;4337.9033;323
2024-05-15T22:02:52.038;599616694949411136;4345.5947;333
2024-05-15T22:02:52.046;599616694957102508;4353.286;345
2024-05-15T22:02:52.053;599616694964793880;4360.9775;335
2024-05-15T22:02:52.061;599616694972485252;4368.6685;342
2024-05-15T22:02:52.069;599616694980176624;4376.3604;354
2024-05-15T22:02:52.077;599616694987867996;4384.052;328
2024-05-15T22:02:52.084;599616694995559368;4391.743;302
2024-05-15T22:02:52.092;599616695003250740;4399.434;292
2024-05-15T22:02:52.100;599616695010942112;4407.1255;245
2024-05-15T22:02:52.107;599616695018633484;4414.8174;207
2024-05-15T22:02:52.115;599616695026324856;4422.5083;233
2024-05-15T22:02:52.123;599616695034016228;4430.1997;247
2024-05-15T22:02:52.130;599616695041707600;4437.891;218
2024-05-15T22:02:52.138;599616695049398972;4445.5825;202
2024-05-15T22:02:52.146;599616695057090344;4453.274;202
2024-05-15T22:02:52.153;599616695064781716;4460.9653;204
2024-05-15T22:02:52.161;599616695072473088;4468.6567;192
2024-05-15T22:02:52.169;599616695080164460;4476.348;135
2024-05-15T22:02:52.177;599616695087855832;4484.039;130
2024-05-15T22:02:52.184;599616695095547212;4491.731;352
2024-05-15T22:02:52.192;599616695103238584;4499.4224;806
2024-05-15T22:02:52.200;599616695110929956;4507.1133;1183
2024-05-15T22:02:52.207;599616695118621328;4514.8047;1064
2024-05-15T22:02:52.215;599616695126312700;4522.4966;509
2024-05-15T22:02:52.223;599616695134004072;4530.188;138
2024-05-15T22:02:52.230;599616695141695444;4537.879;180
2024-05-15T22:02:52.238;599616695149386816;4545.5703;214
2024-05-15T22:02:52.246;599616695157078188;4553.2617;69
2024-05-15T22:02:52.253;599616695164769560;4560.953;-30
2024-05-15T22:02:52.261;599616695172460932;4568.6445;-11
2024-05-15T22:02:52.269;599616695180152304;4576.336;38
2024-05-15T22:02:52.277;599616695187843676;4584.0273;23
2024-05-15T22:02:52.284;599616695195535048;4591.7183;-49
2024-05-15T22:02:52.292;599616695203226420;4599.41;-42
2024-05-15T22:02:52.300;599616695210917792;4607.1016;38
2024-05-15T22:02:52.307;599616695218609164;4614.7925;66
2024-05-15T22:02:52.315;599616695226300536;4622.484;71
2024-05-15T22:02:52.323;599616695233991908;4630.176;121
2024-05-15T22:02:52.330;599616695241683280;4637.867;176
2024-05-15T22:02:52.338;599616695249374652;4645.558;202
2024-05-15T22:02:52.346;599616695257066024;4653.2495;228
2024-05-15T22:02:52.353;599616695264757396;4660.941;278
2024-05-15T22:02:52.361;599616695272448768;4668.633;323
2024-05-15T22:02:52.369;599616695280140140;4676.3237;330
2024-05-15T22:02:52.377;599616695287831512;4684.015;309
2024-05-15T22:02:52.384;599616695295522884;4691.7065;316
2024-05-15T22:02:52.392;599616695303214256;4699.3975;340
2024-05-15T22:02:52.400;599616695310905628;4707.0894;321
2024-05-15T22:02:52.407;599616695318597000;4714.781;271
2024-05-15T22:02:52.415;599616695326288372;4722.472;245
2024-05-15T22:02:52.423;599616695333979744;4730.163;245
2024-05-15T22:02:52.430;599616695341671116;4737.8545;247
2024-05-15T22:02:52.438;599616695349362488;4745.5464;245
2024-05-15T22:02:52.446;599616695357053860;4753.2373;252
2024-05-15T22:02:52.453;599616695364745232;4760.9287;283
2024-05-15T22:02:52.461;599616695372436604;4768.62;290
2024-05-15T22:02:52.469;599616695380127976;4776.312;261
2024-05-15T22:02:52.477;599616695387819348;4784.003;266
2024-05-15T22:02:52.484;599616695395510720;4791.6943;283
2024-05-15T22:02:52.492;599616695403202092;4799.3857;257
2024-05-15T22:02:52.500;599616695410893464;4807.0767;228
2024-05-15T22:02:52.507;599616695418584836;4814.7686;238
2024-05-15T22:02:52.515;599616695426276208;4822.46;233
2024-05-15T22:02:52.523;599616695433967580;4830.1514;221
2024-05-15T22:02:52.530;599616695441658952;4837.8423;235
2024-05-15T22:02:52.538;599616695449350324;4845.5337;261
2024-05-15T22:02:52.546;599616695457041696;4853.2256;271
2024-05-15T22:02:52.553;599616695464733068;4860.9165;247
2024-05-15T22:02:52.561;599616695472424440;4868.608;209
2024-05-15T22:02:52.569;599616695480115812;4876.2993;192
2024-05-15T22:02:52.576;599616695487807184;4883.9907;178
2024-05-15T22:02:52.584;599616695495498556;4891.682;135
2024-05-15T22:02:52.592;599616695503189928;4899.3735;116
2024-05-15T22:02:52.600;599616695510881300;4907.065;126
2024-05-15T22:02:52.607;599616695518572672;4914.756;104
2024-05-15T22:02:52.615;599616695526264044;4922.4478;78
2024-05-15T22:02:52.623;599616695533955416;4930.139;111
2024-05-15T22:02:52.630;599616695541646788;4937.8306;138
2024-05-15T22:02:52.638;599616695549338160;4945.5215;66
2024-05-15T22:02:52.646;599616695557029532;4953.213;2
2024-05-15T22:02:52.653;599616695564720904;4960.905;152
2024-05-15T22:02:52.661;599616695572412276;4968.596;597
2024-05-15T22:02:52.669;599616695580103648;4976.287;1023
2024-05-15T22:02:52.676;599616695587795020;4983.9785;961
2024-05-15T22:02:52.684;599616695595486392;4991.67;442
2024-05-15T22:02:52.692;599616695603177764;4999.3613;52
2024-05-15T22:02:52.700;599616695610869136;5007.0527;54
2024-05-15T22:02:52.707;599616695618560508;5014.744;104
2024-05-15T22:02:52.715;599616695626251880;5022.4355;64
2024-05-15T22:02:52.723;599616695633943252;5030.1265;92
2024-05-15T22:02:52.730;599616695641634624;5037.8184;135
2024-05-15T22:02:52.738;599616695649325996;5045.51;92
2024-05-15T22:02:52.746;599616695657047472;5053.231;64
2024-05-15T22:02:52.753;599616695664738426;5060.922;102
2024-05-15T22:02:52.761;599616695672429380;5068.6133;121
2024-05-15T22:02:52.769;599616695680120334;5076.3037;121
2024-05-15T22:02:52.776;599616695687811288;5083.9946;147
2024-05-15T22:02:52.784;599616695695502242;5091.686;152
2024-05-15T22:02:52.792;599616695703193196;5099.3765;92
2024-05-15T22:02:52.800;599616695710884150;5107.068;80
2024-05-15T22:02:52.807;599616695718575104;5114.759;154
2024-05-15T22:02:52.815;599616695726266058;5122.449;185
2024-05-15T22:02:52.823;599616695733957012;5130.1406;140
2024-05-15T22:02:52.830;599616695741647966;5137.8315;130
2024-05-15T22:02:52.838;599616695749338920;5145.5225;161
2024-05-15T22:02:52.846;599616695757029874;5153.2134;164
2024-05-15T22:02:52.853;599616695764720828;5160.9043;152
2024-05-15T22:02:52.861;599616695772411782;5168.595;164
2024-05-15T22:02:52.869;599616695780102736;5176.286;188
2024-05-15T22:02:52.876;599616695787793690;5183.9775;176
2024-05-15T22:02:52.884;599616695795484644;5191.6685;119
2024-05-15T22:02:52.892;599616695803175598;5199.359;95
2024-05-15T22:02:52.900;599616695810866552;5207.0503;109
2024-05-15T22:02:52.907;599616695818557506;5214.741;116
2024-05-15T22:02:52.915;599616695826248460;5222.432;128
2024-05-15T22:02:52.923;599616695833939414;5230.123;152
2024-05-15T22:02:52.930;599616695841630368;5237.814;159
2024-05-15T22:02:52.938;599616695849321322;5245.505;147
2024-05-15T22:02:52.946;599616695857012276;5253.196;142
2024-05-15T22:02:52.953;599616695864703230;5260.887;161
2024-05-15T22:02:52.961;599616695872394184;5268.5776;202
2024-05-15T22:02:52.969;599616695880085138;5276.2686;207
2024-05-15T22:02:52.976;599616695887776092;5283.96;149
2024-05-15T22:02:52.984;599616695895467046;5291.6504;104
2024-05-15T22:02:52.992;599616695903158000;5299.342;99
2024-05-15T22:02:53.000;599616695910848954;5307.0327;104
2024-05-15T22:02:53.007;599616695918539908;5314.723;109
2024-05-15T22:02:53.015;599616695926230862;5322.4146;128
2024-05-15T22:02:53.023;599616695933921816;5330.1055;133
2024-05-15T22:02:53.030;599616695941612770;5337.7964;107
2024-05-15T22:02:53.038;599616695949303724;5345.4873;97
2024-05-15T22:02:53.046;599616695956994678;5353.178;119
2024-05-15T22:02:53.053;599616695964685632;5360.869;107
2024-05-15T22:02:53.061;599616695972376586;5368.56;35
2024-05-15T22:02:53.069;599616695980067540;5376.251;-16
2024-05-15T22:02:53.076;599616695987758494;5383.9424;7
2024-05-15T22:02:53.084;599616695995449448;5391.633;35
2024-05-15T22:02:53.092;599616696003140402;5399.324;19
2024-05-15T22:02:53.100;599616696010831356;5407.015;-16
2024-05-15T22:02:53.107;599616696018522310;5414.7056;-45
2024-05-15T22:02:53.115;599616696026213264;5422.397;-9
2024-05-15T22:02:53.123;599616696033904218;5430.088;259
2024-05-15T22:02:53.130;599616696041595172;5437.779;733
2024-05-15T22:02:53.138;599616696049286126;5445.4697;968
2024-05-15T22:02:53.146;599616696056977080;5453.1606;606
2024-05-15T22:02:53.153;599616696064668034;5460.8516;38
2024-05-15T22:02:53.161;599616696072358988;5468.5425;-97
2024-05-15T22:02:53.169;599616696080049942;5476.234;52
2024-05-15T22:02:53.176;599616696087740896;5483.9243;35
2024-05-15T22:02:53.184;599616696095431850;5491.615;-30
2024-05-15T22:02:53.192;599616696103122804;5499.3066;28
2024-05-15T22:02:53.199;599616696110813758;5506.997;59
2024-05-15T22:02:53.207;599616696118504712;5514.6885;30
2024-05-15T22:02:53.215;599616696126195666;5522.3794;40
2024-05-15T22:02:53.223;599616696133886620;5530.07;73
2024-05-15T22:02:53.230;599616696141577574;5537.761;61
2024-05-15T22:02:53.238;599616696149268528;5545.452;40
2024-05-15T22:02:53.246;599616696156959482;5553.143;54
2024-05-15T22:02:53.253;599616696164650436;5560.834;76
2024-05-15T22:02:53.261;599616696172341390;5568.525;109
2024-05-15T22:02:53.269;599616696180032344;5576.216;147
2024-05-15T22:02:53.276;599616696187723298;5583.9067;109
2024-05-15T22:02:53.284;599616696195414252;5591.598;57
2024-05-15T22:02:53.292;599616696203105206;5599.289;71
2024-05-15T22:02:53.299;599616696210796160;5606.9795;54
2024-05-15T22:02:53.307;599616696218457022;5614.6406;28
2024-05-15T22:02:53.315;599616696226148394;5622.332;80
2024-05-15T22:02:53.323;599616696233839766;5630.023;130
2024-05-15T22:02:53.330;599616696241531138;5637.715;121
2024-05-15T22:02:53.338;599616696249222510;5645.4062;109
2024-05-15T22:02:53.346;599616696256913882;5653.0977;116
2024-05-15T22:02:53.353;599616696264605254;5660.7886;107
2024-05-15T22:02:53.361;599616696272296626;5668.48;23
2024-05-15T22:02:53.369;599616696279987998;5676.172;-66
2024-05-15T22:02:53.376;599616696287679370;5683.8633;-45
2024-05-15T22:02:53.384;599616696295370742;5691.554;-4
2024-05-15T22:02:53.392;599616696303062114;5699.2456;-30
2024-05-15T22:02:53.399;599616696310753486;5706.937;-35
2024-05-15T22:02:53.407;599616696318444858;5714.6284;-33
2024-05-15T22:02:53.415;599616696326136230;5722.32;-59
2024-05-15T22:02:53.423;599616696333827602;5730.011;-30
2024-05-15T22:02:53.430;599616696341518974;5737.7026;-2
2024-05-15T22:02:53.438;599616696349210346;5745.394;-35
2024-05-15T22:02:53.446;599616696356901718;5753.0854;-64
2024-05-15T22:02:53.453;599616696364593090;5760.777;-97
2024-05-15T22:02:53.461;599616696372284462;5768.468;-128
2024-05-15T22:02:53.469;599616696379975834;5776.159;-95
2024-05-15T22:02:53.476;599616696387667206;5783.851;-59
2024-05-15T22:02:53.484;599616696395358578;5791.5425;-78
2024-05-15T22:02:53.492;599616696403049950;5799.2334;-57
2024-05-15T22:02:53.499;599616696410741322;5806.925;14
2024-05-15T22:02:53.507;599616696418432694;5814.616;38
2024-05-15T22:02:53.515;599616696426124066;5822.3076;2
2024-05-15T22:02:53.522;599616696433815438;5829.999;-30
2024-05-15T22:02:53.530;599616696441506810;5837.6904;-45
2024-05-15T22:02:53.538;599616696449198182;5845.382;-73
2024-05-15T22:02:53.546;599616696456889554;5853.0728;-85
2024-05-15T22:02:53.553;599616696464580926;5860.7646;-54
2024-05-15T22:02:53.561;599616696472272298;5868.456;-59
2024-05-15T22:02:53.569;599616696479963670;5876.147;-135
2024-05-15T22:02:53.576;599616696487655042;5883.8384;-97
2024-05-15T22:02:53.584;599616696495346414;5891.5303;278
2024-05-15T22:02:53.592;599616696503037786;5899.2217;818
2024-05-15T22:02:53.599;599616696510729158;5906.9126;987
2024-05-15T22:02:53.607;599616696518420530;5914.604;537
2024-05-15T22:02:53.615;599616696526111902;5922.2954;-19
2024-05-15T22:02:53.622;599616696533803274;5929.9873;-114
2024-05-15T22:02:53.630;599616696541494646;5937.678;23
2024-05-15T22:02:53.638;599616696549186018;5945.3696;-2
2024-05-15T22:02:53.646;599616696556877390;5953.061;-35
2024-05-15T22:02:53.653;599616696564568762;5960.752;38
2024-05-15T22:02:53.661;599616696572260134;5968.444;61
2024-05-15T22:02:53.669;599616696579951506;5976.1353;19
2024-05-15T22:02:53.676;599616696587642878;5983.8267;11
2024-05-15T22:02:53.684;599616696595334250;5991.5176;21
2024-05-15T22:02:53.692;599616696603025622;5999.209;4
2024-05-15T22:02:53.699;599616696610716994;6006.901;23
2024-05-15T22:02:53.707;599616696618408366;6014.592;109
2024-05-15T22:02:53.715;599616696626099738;6022.283;166
2024-05-15T22:02:53.722;599616696633791110;6029.9746;147
2024-05-15T22:02:53.730;599616696641482482;6037.6665;149
2024-05-15T22:02:53.738;599616696649173854;6045.3574;223
2024-05-15T22:02:53.746;599616696656865226;6053.049;278
2024-05-15T22:02:53.753;599616696664556598;6060.74;283
2024-05-15T22:02:53.761;599616696672247970;6068.431;268
2024-05-15T22:02:53.769;599616696679939342;6076.123;230
2024-05-15T22:02:53.776;599616696687630714;6083.8145;183
2024-05-15T22:02:53.784;599616696695322086;6091.506;176
2024-05-15T22:02:53.792;599616696703013458;6099.197;166
2024-05-15T22:02:53.799;599616696710704830;6106.888;99
2024-05-15T22:02:53.807;599616696718396202;6114.58;52
2024-05-15T22:02:53.815;599616696726087574;6122.271;73
2024-05-15T22:02:53.822;599616696733778946;6129.9624;111
2024-05-15T22:02:53.830;599616696741470318;6137.654;130
2024-05-15T22:02:53.838;599616696749161690;6145.345;126
2024-05-15T22:02:53.846;599616696756853062;6153.0366;102
2024-05-15T22:02:53.853;599616696764544434;6160.728;102
2024-05-15T22:02:53.861;599616696772235806;6168.4194;121
2024-05-15T22:02:53.869;599616696779927186;6176.1104;107
2024-05-15T22:02:53.876;599616696787618558;6183.8022;73
2024-05-15T22:02:53.884;599616696795309930;6191.4937;66
2024-05-15T22:02:53.892;599616696803001302;6199.185;40
2024-05-15T22:02:53.899;599616696810692674;6206.876;-73
2024-05-15T22:02:53.907;599616696818384046;6214.5674;-192
2024-05-15T22:02:53.915;599616696826075418;6222.2593;-233
2024-05-15T22:02:53.922;599616696833766790;6229.9507;-266
2024-05-15T22:02:53.930;599616696841458162;6237.6416;-311
2024-05-15T22:02:53.938;599616696849149534;6245.333;-307
2024-05-15T22:02:53.946;599616696856840906;6253.0244;-264
2024-05-15T22:02:53.953;599616696864532278;6260.716;-221
2024-05-15T22:02:53.961;599616696872223650;6268.407;-192
2024-05-15T22:02:53.969;599616696879915022;6276.0986;-178
2024-05-15T22:02:53.976;599616696887606394;6283.79;-159
2024-05-15T22:02:53.984;599616696895297766;6291.4814;-126
2024-05-15T22:02:53.992;599616696902989138;6299.173;-114
2024-05-15T22:02:53.999;599616696910680510;6306.8643;-119
2024-05-15T22:02:54.007;599616696918371882;6314.555;-92
2024-05-15T22:02:54.015;599616696926063254;6322.2466;-90
2024-05-15T22:02:54.022;599616696933754626;6329.9385;-152
2024-05-15T22:02:54.030;599616696941445998;6337.63;-192
2024-05-15T22:02:54.038;599616696949137370;6345.321;-49
2024-05-15T22:02:54.046;599616696956828742;6353.012;373
2024-05-15T22:02:54.053;599616696964520114;6360.7036;859
2024-05-15T22:02:54.061;599616696972211486;6368.3955;947
2024-05-15T22:02:54.069;599616696979902858;6376.0864;492
2024-05-15T22:02:54.076;599616696987594230;6383.778;-16
2024-05-15T22:02:54.084;599616696995285602;6391.469;-80
2024-05-15T22:02:54.092;599616697002976974;6399.16;38
2024-05-15T22:02:54.099;599616697010668346;6406.852;11
2024-05-15T22:02:54.107;599616697018359718;6414.5435;-2
2024-05-15T22:02:54.115;599616697026051090;6422.235;52
2024-05-15T22:02:54.122;599616697033742462;6429.926;54
2024-05-15T22:02:54.130;599616697041433834;6437.6177;19
2024-05-15T22:02:54.138;599616697049125206;6445.309;-2
2024-05-15T22:02:54.146;599616697056816578;6453.0;-26
2024-05-15T22:02:54.153;599616697064507950;6460.6914;-71
2024-05-15T22:02:54.161;599616697072199322;6468.383;-116
2024-05-15T22:02:54.169;599616697079890694;6476.0747;-145
2024-05-15T22:02:54.176;599616697087582066;6483.7656;-166
2024-05-15T22:02:54.184;599616697095273438;6491.457;-159
2024-05-15T22:02:54.192;599616697102964810;6499.1484;-123
2024-05-15T22:02:54.199;599616697110656182;6506.8394;-73
2024-05-15T22:02:54.207;599616697118347554;6514.5312;-21
2024-05-15T22:02:54.215;599616697126038926;6522.2227;-21
2024-05-15T22:02:54.222;599616697133730298;6529.914;-38
2024-05-15T22:02:54.230;599616697141421670;6537.605;2
2024-05-15T22:02:54.238;599616697149113042;6545.2964;61
2024-05-15T22:02:54.245;599616697156804414;6552.9883;107
2024-05-15T22:02:54.253;599616697164495786;6560.679;157
2024-05-15T22:02:54.261;599616697172187158;6568.3706;185
2024-05-15T22:02:54.269;599616697179878530;6576.062;188
2024-05-15T22:02:54.276;599616697187569902;6583.754;207
2024-05-15T22:02:54.284;599616697195261274;6591.445;235
2024-05-15T22:02:54.292;599616697202952646;6599.136;230
2024-05-15T22:02:54.299;599616697210644018;6606.8276;173
2024-05-15T22:02:54.307;599616697218335390;6614.5186;90
2024-05-15T22:02:54.315;599616697226026762;6622.2104;52
2024-05-15T22:02:54.322;599616697233718134;6629.902;69
2024-05-15T22:02:54.330;599616697241409506;6637.5933;99
2024-05-15T22:02:54.338;599616697249100878;6645.284;140
2024-05-15T22:02:54.345;599616697256792250;6652.9756;164
2024-05-15T22:02:54.353;599616697264483622;6660.6675;149
2024-05-15T22:02:54.361;599616697272174994;6668.359;140
2024-05-15T22:02:54.369;599616697279866366;6676.05;161
2024-05-15T22:02:54.376;599616697287557738;6683.741;178
2024-05-15T22:02:54.384;599616697295249110;6691.4326;173
2024-05-15T22:02:54.392;599616697302940482;6699.124;190
2024-05-15T22:02:54.399;599616697310631854;6706.8154;228
2024-05-15T22:02:54.407;599616697318323226;6714.507;235
2024-05-15T22:02:54.415;599616697326014598;6722.198;226
2024-05-15T22:02:54.422;599616697333705970;6729.8896;238
2024-05-15T22:02:54.430;599616697341397350;6737.581;242
2024-05-15T22:02:54.438;599616697349088722;6745.2725;207
2024-05-15T22:02:54.445;599616697356780094;6752.9634;126
2024-05-15T22:02:54.453;599616697364471466;6760.655;35
2024-05-15T22:02:54.461;599616697372162838;6768.3467;-49
2024-05-15T22:02:54.469;599616697379854210;6776.038;-183
2024-05-15T22:02:54.476;599616697387545582;6783.729;-333
2024-05-15T22:02:54.484;599616697395236954;6791.4204;-426
2024-05-15T22:02:54.492;599616697402928326;6799.112;-428
2024-05-15T22:02:54.499;599616697410619698;6806.803;-183
2024-05-15T22:02:54.507;599616697418311070;6814.4946;342
2024-05-15T22:02:54.515;599616697426002442;6822.186;742
2024-05-15T22:02:54.522;599616697433693814;6829.8774;568
2024-05-15T22:02:54.530;599616697441385186;6837.5684;-2
2024-05-15T22:02:54.538;599616697449076558;6845.2603;-285
2024-05-15T22:02:54.545;599616697456767930;6852.9517;-164
2024-05-15T22:02:54.553;599616697464459302;6860.6426;-119
2024-05-15T22:02:54.561;599616697472150674;6868.334;-188
2024-05-15T22:02:54.569;599616697479842046;6876.026;-142
2024-05-15T22:02:54.576;599616697487533418;6883.7173;-69
2024-05-15T22:02:54.584;599616697495224790;6891.408;-85
2024-05-15T22:02:54.592;599616697502916162;6899.0996;-119
2024-05-15T22:02:54.599;599616697510607534;6906.791;-111
2024-05-15T22:02:54.607;599616697518298906;6914.483;-90
2024-05-15T22:02:54.615;599616697525990278;6922.174;-80
2024-05-15T22:02:54.622;599616697533681650;6929.865;-69
2024-05-15T22:02:54.630;599616697541373022;6937.5566;-45
2024-05-15T22:02:54.638;599616697549064394;6945.2476;-16
2024-05-15T22:02:54.645;599616697556755766;6952.9395;19
2024-05-15T22:02:54.653;599616697564447138;6960.631;57
2024-05-15T22:02:54.661;599616697572138510;6968.3223;90
2024-05-15T22:02:54.669;599616697579829882;6976.013;128
2024-05-15T22:02:54.676;599616697587521254;6983.705;140
2024-05-15T22:02:54.684;599616697595212626;6991.3965;111
2024-05-15T22:02:54.692;599616697602903998;6999.0874;83
2024-05-15T22:02:54.699;599616697610595370;7006.779;59
2024-05-15T22:02:54.707;599616697618286742;7014.47;-7
2024-05-15T22:02:54.715;599616697625978114;7022.162;-71
2024-05-15T22:02:54.722;599616697633669486;7029.853;-71
2024-05-15T22:02:54.730;599616697641360858;7037.5444;-73
2024-05-15T22:02:54.738;599616697649052230;7045.236;-104
2024-05-15T22:02:54.745;599616697656743602;7052.927;-99
2024-05-15T22:02:54.753;599616697664434974;7060.6187;-59
2024-05-15T22:02:54.761;599616697672126346;7068.31;-26
2024-05-15T22:02:54.769;599616697679817718;7076.0015;-4
2024-05-15T22:02:54.776;599616697687509090;7083.6924;7
2024-05-15T22:02:54.784;599616697695200462;7091.384;7
2024-05-15T22:02:54.792;599616697702891834;7099.0757;-9
2024-05-15T22:02:54.799;599616697710583206;7106.767;-23
2024-05-15T22:02:54.807;599616697718274578;7114.458;-52
2024-05-15T22:02:54.815;599616697725965950;7122.1494;-133
2024-05-15T22:02:54.822;599616697733657322;7129.8413;-204
2024-05-15T22:02:54.830;599616697741348694;7137.532;-202
2024-05-15T22:02:54.838;599616697749040066;7145.2236;-173
2024-05-15T22:02:54.845;599616697756731438;7152.915;-138
2024-05-15T22:02:54.853;599616697764422810;7160.6064;-83
2024-05-15T22:02:54.861;599616697772114182;7168.298;-66
2024-05-15T22:02:54.868;599616697779805554;7175.9893;-73
2024-05-15T22:02:54.876;599616697787496926;7183.6807;-35
2024-05-15T22:02:54.884;599616697795188298;7191.3716;19
2024-05-15T22:02:54.892;599616697802879670;7199.063;38
2024-05-15T22:02:54.899;599616697810571042;7206.755;57
2024-05-15T22:02:54.907;599616697818262414;7214.4463;111
2024-05-15T22:02:54.915;599616697825953786;7222.137;157
2024-05-15T22:02:54.922;599616697833645158;7229.8286;183
2024-05-15T22:02:54.930;599616697841336530;7237.52;209
2024-05-15T22:02:54.938;599616697849027902;7245.2114;197
2024-05-15T22:02:54.945;599616697856719274;7252.903;128
2024-05-15T22:02:54.953;599616697864410646;7260.594;164
2024-05-15T22:02:54.961;599616697872102018;7268.2856;492
2024-05-15T22:02:54.968;599616697879793390;7275.977;959
2024-05-15T22:02:54.976;599616697887484762;7283.6685;1054
2024-05-15T22:02:54.984;599616697895176134;7291.36;571
2024-05-15T22:02:54.992;599616697902867514;7299.051;61
2024-05-15T22:02:54.999;599616697910558886;7306.742;26
2024-05-15T22:02:55.007;599616697918250258;7314.434;121
2024-05-15T22:02:55.015;599616697925941630;7322.1255;42
2024-05-15T22:02:55.022;599616697933633002;7329.8164;33
2024-05-15T22:02:55.030;599616697941324374;7337.508;128
2024-05-15T22:02:55.038;599616697949015746;7345.199;140
2024-05-15T22:02:55.045;599616697956707118;7352.891;109
2024-05-15T22:02:55.053;599616697964398490;7360.582;135
2024-05-15T22:02:55.061;599616697972089862;7368.2734;169
2024-05-15T22:02:55.068;599616697979781234;7375.965;147
2024-05-15T22:02:55.076;599616697987472606;7383.656;107
2024-05-15T22:02:55.084;599616697995163978;7391.3477;128
2024-05-15T22:02:55.092;599616698002855350;7399.039;178
2024-05-15T22:02:55.099;599616698010546722;7406.7305;188
2024-05-15T22:02:55.107;599616698018238094;7414.4214;204
2024-05-15T22:02:55.115;599616698025929466;7422.1133;259
2024-05-15T22:02:55.122;599616698033620838;7429.8047;304
2024-05-15T22:02:55.130;599616698041312210;7437.4956;307
2024-05-15T22:02:55.138;599616698049003582;7445.187;299
2024-05-15T22:02:55.145;599616698056694954;7452.8784;309
2024-05-15T22:02:55.153;599616698064386326;7460.5703;318
2024-05-15T22:02:55.161;599616698072077698;7468.261;314
2024-05-15T22:02:55.168;599616698079769070;7475.9526;311
2024-05-15T22:02:55.176;599616698087460442;7483.644;333
2024-05-15T22:02:55.184;599616698095151814;7491.335;357
2024-05-15T22:02:55.192;599616698102843186;7499.027;347
2024-05-15T22:02:55.199;599616698110534558;7506.7183;311
2024-05-15T22:02:55.207;599616698118225930;7514.4097;292
2024-05-15T22:02:55.215;599616698125917302;7522.1006;311
2024-05-15T22:02:55.222;599616698133608674;7529.7925;335
2024-05-15T22:02:55.230;599616698141300046;7537.484;342
2024-05-15T22:02:55.238;599616698148991418;7545.175;352
2024-05-15T22:02:55.245;599616698156682790;7552.866;361
2024-05-15T22:02:55.253;599616698164374162;7560.5576;352
2024-05-15T22:02:55.261;599616698172065534;7568.2495;328
2024-05-15T22:02:55.268;599616698179756906;7575.9404;307
2024-05-15T22:02:55.276;599616698187448278;7583.632;299
2024-05-15T22:02:55.284;599616698195139650;7591.323;283
2024-05-15T22:02:55.292;599616698202831022;7599.014;259
2024-05-15T22:02:55.299;599616698210522394;7606.706;268
2024-05-15T22:02:55.307;599616698218213766;7614.3975;295
2024-05-15T22:02:55.315;599616698225905138;7622.089;276
2024-05-15T22:02:55.322;599616698233596510;7629.78;197
2024-05-15T22:02:55.330;599616698241287882;7637.471;157
2024-05-15T22:02:55.338;599616698248979254;7645.163;188
2024-05-15T22:02:55.345;599616698256670626;7652.8545;204
2024-05-15T22:02:55.353;599616698264361998;7660.5454;202
2024-05-15T22:02:55.361;599616698272053370;7668.237;218
2024-05-15T22:02:55.368;599616698279744742;7675.9287;228
2024-05-15T22:02:55.376;599616698287436114;7683.6196;202
2024-05-15T22:02:55.384;599616698295127486;7691.311;202
2024-05-15T22:02:55.392;599616698302818858;7699.0024;214
2024-05-15T22:02:55.399;599616698310510230;7706.694;159
2024-05-15T22:02:55.407;599616698318201602;7714.3853;99
2024-05-15T22:02:55.415;599616698325892974;7722.0767;261
2024-05-15T22:02:55.422;599616698333584346;7729.768;704
2024-05-15T22:02:55.430;599616698341275718;7737.459;1073
2024-05-15T22:02:55.438;599616698348967090;7745.1504;883
2024-05-15T22:02:55.445;599616698356658462;7752.8423;245
2024-05-15T22:02:55.453;599616698364349834;7760.5337;-142
2024-05-15T22:02:55.461;599616698372041206;7768.2246;-80
2024-05-15T22:02:55.468;599616698379732578;7775.916;-42
2024-05-15T22:02:55.476;599616698387423950;7783.6074;-128
2024-05-15T22:02:55.484;599616698395115322;7791.299;-99
2024-05-15T22:02:55.491;599616698402806694;7798.99;-45
2024-05-15T22:02:55.499;599616698410498066;7806.6816;-57
2024-05-15T22:02:55.507;599616698418189438;7814.373;-35
2024-05-15T22:02:55.515;599616698425880810;7822.0645;4
2024-05-15T22:02:55.522;599616698433572182;7829.756;2
2024-05-15T22:02:55.530;599616698441263554;7837.4473;16
2024-05-15T22:02:55.538;599616698448954926;7845.1387;71
2024-05-15T22:02:55.545;599616698456646298;7852.8296;107
2024-05-15T22:02:55.553;599616698464347758;7860.5312;114
2024-05-15T22:02:55.561;599616698472038990;7868.2227;128
2024-05-15T22:02:55.568;599616698479730222;7875.9136;159
2024-05-15T22:02:55.576;599616698487421454;7883.605;195
2024-05-15T22:02:55.584;599616698495112686;7891.2964;221
2024-05-15T22:02:55.591;599616698502803918;7898.9873;242
2024-05-15T22:02:55.599;599616698510495150;7906.6787;254
2024-05-15T22:02:55.607;599616698518186382;7914.37;214
2024-05-15T22:02:55.615;599616698525877614;7922.0615;130
2024-05-15T22:02:55.622;599616698533568846;7929.7524;104
2024-05-15T22:02:55.630;599616698541260078;7937.444;138
2024-05-15T22:02:55.638;599616698548951310;7945.1353;149
2024-05-15T22:02:55.645;599616698556642542;7952.826;130
2024-05-15T22:02:55.653;599616698564333774;7960.517;119
2024-05-15T22:02:55.661;599616698572025006;7968.2085;128
2024-05-15T22:02:55.668;599616698579716238;7975.8994;154
2024-05-15T22:02:55.676;599616698587407470;7983.591;178
2024-05-15T22:02:55.684;599616698595098702;7991.282;204
2024-05-15T22:02:55.691;599616698602789934;7998.9736;183
2024-05-15T22:02:55.699;599616698610481166;8006.6646;114
2024-05-15T22:02:55.707;599616698618172398;8014.356;102
2024-05-15T22:02:55.715;599616698625863630;8022.0474;166
2024-05-15T22:02:55.722;599616698633554862;8029.7383;190
2024-05-15T22:02:55.730;599616698641246094;8037.4297;157
2024-05-15T22:02:55.738;599616698648937326;8045.121;119
2024-05-15T22:02:55.745;599616698656628558;8052.8125;92
2024-05-15T22:02:55.753;599616698664319790;8060.5034;88
2024-05-15T22:02:55.761;599616698672011022;8068.195;102
2024-05-15T22:02:55.768;599616698679702254;8075.886;109
2024-05-15T22:02:55.776;599616698687393486;8083.5767;130
2024-05-15T22:02:55.784;599616698695084718;8091.268;152
2024-05-15T22:02:55.791;599616698702775950;8098.9595;140
2024-05-15T22:02:55.799;599616698710467182;8106.6504;138
2024-05-15T22:02:55.807;599616698718158414;8114.342;173
2024-05-15T22:02:55.815;599616698725849646;8122.033;185
2024-05-15T22:02:55.822;599616698733540878;8129.7246;145
2024-05-15T22:02:55.830;599616698741232110;8137.4155;83
2024-05-15T22:02:55.838;599616698748923342;8145.107;64
2024-05-15T22:02:55.845;599616698756614574;8152.7983;83
2024-05-15T22:02:55.853;599616698764305806;8160.4893;66
2024-05-15T22:02:55.861;599616698771997038;8168.1807;26
2024-05-15T22:02:55.868;599616698779688270;8175.872;49
2024-05-15T22:02:55.876;599616698787379502;8183.5635;302
2024-05-15T22:02:55.884;599616698795070734;8191.2544;771
2024-05-15T22:02:55.891;599616698802761966;8198.945;1044
2024-05-15T22:02:55.899;599616698810453198;8206.637;737
2024-05-15T22:02:55.907;599616698818144430;8214.328;138
2024-05-15T22:02:55.915;599616698825835662;8222.02;-121
2024-05-15T22:02:55.922;599616698833526894;8229.71;-30
2024-05-15T22:02:55.930;599616698841218126;8237.401;-35
2024-05-15T22:02:55.938;599616698848909358;8245.093;-142
2024-05-15T22:02:55.945;599616698856600590;8252.784;-142
2024-05-15T22:02:55.953;599616698864291822;8260.476;-92
2024-05-15T22:02:55.961;599616698871983054;8268.167;-80
2024-05-15T22:02:55.968;599616698879674286;8275.858;-76
2024-05-15T22:02:55.976;599616698887365518;8283.549;-66
2024-05-15T22:02:55.984;599616698895056750;8291.24;-40
2024-05-15T22:02:55.991;599616698902747982;8298.932;-2
2024-05-15T22:02:55.999;599616698910439214;8306.623;11
2024-05-15T22:02:56.007;599616698918130446;8314.314;26
2024-05-15T22:02:56.015;599616698925821678;8322.006;57
2024-05-15T22:02:56.022;599616698933512910;8329.696;78
2024-05-15T22:02:56.030;599616698941204142;8337.388;102
2024-05-15T22:02:56.038;599616698948895374;8345.079;140
2024-05-15T22:02:56.045;599616698956586606;8352.7705;185
2024-05-15T22:02:56.053;599616698964277838;8360.461;223
2024-05-15T22:02:56.061;599616698971969070;8368.152;223
2024-05-15T22:02:56.068;599616698979660302;8375.844;195
2024-05-15T22:02:56.076;599616698987351534;8383.535;207
2024-05-15T22:02:56.084;599616698995042766;8391.227;235
2024-05-15T22:02:56.091;599616699002733998;8398.918;216
2024-05-15T22:02:56.099;599616699010425230;8406.609;197
2024-05-15T22:02:56.107;599616699018116462;8414.3;221
2024-05-15T22:02:56.115;599616699025817756;8422.001;211
2024-05-15T22:02:56.122;599616699033508849;8429.692;166
2024-05-15T22:02:56.130;599616699041199942;8437.384;159
2024-05-15T22:02:56.138;599616699048891035;8445.074;209
2024-05-15T22:02:56.145;599616699056582128;8452.766;247
2024-05-15T22:02:56.153;599616699064273221;8460.457;230
2024-05-15T22:02:56.161;599616699071964314;8468.147;202
2024-05-15T22:02:56.168;599616699079655407;8475.839;214
2024-05-15T22:02:56.176;599616699087346500;8483.53;235
2024-05-15T22:02:56.184;599616699095037593;8491.221;216
2024-05-15T22:02:56.191;599616699102728686;8498.912;185
2024-05-15T22:02:56.199;599616699110419779;8506.604;185
2024-05-15T22:02:56.207;599616699118110872;8514.294;130
2024-05-15T22:02:56.214;599616699125801965;8521.985;14
2024-05-15T22:02:56.222;599616699133493058;8529.677;-16
2024-05-15T22:02:56.230;599616699141184151;8537.367;45
2024-05-15T22:02:56.238;599616699148875244;8545.059;59
2024-05-15T22:02:56.245;599616699156566337;8552.75;28
2024-05-15T22:02:56.253;599616699164257430;8560.44;30
2024-05-15T22:02:56.261;599616699171948523;8568.132;66
2024-05-15T22:02:56.268;599616699179639616;8575.823;85
2024-05-15T22:02:56.276;599616699187330709;8583.514;92
2024-05-15T22:02:56.284;599616699195021802;8591.205;123
2024-05-15T22:02:56.291;599616699202712895;8598.896;145
2024-05-15T22:02:56.299;599616699210403988;8606.588;123
2024-05-15T22:02:56.307;599616699218095081;8614.279;102
2024-05-15T22:02:56.314;599616699225786174;8621.97;88
2024-05-15T22:02:56.322;599616699233477267;8629.661;59
2024-05-15T22:02:56.330;599616699241168360;8637.352;126
2024-05-15T22:02:56.338;599616699248859453;8645.043;454
2024-05-15T22:02:56.345;599616699256550546;8652.734;909
2024-05-15T22:02:56.353;599616699264241639;8660.426;999
2024-05-15T22:02:56.361;599616699271932732;8668.116;476
2024-05-15T22:02:56.368;599616699279623825;8675.808;-78
2024-05-15T22:02:56.376;599616699287314918;8683.498;-114
2024-05-15T22:02:56.384;599616699295006011;8691.189;-19
2024-05-15T22:02:56.391;599616699302697104;8698.881;-133
2024-05-15T22:02:56.399;599616699310388197;8706.572;-171
2024-05-15T22:02:56.407;599616699318079290;8714.263;-95
2024-05-15T22:02:56.414;599616699325770383;8721.954;-85
2024-05-15T22:02:56.422;599616699333461476;8729.6455;-107
2024-05-15T22:02:56.430;599616699341152569;8737.336;-123
2024-05-15T22:02:56.438;599616699348843662;8745.027;-147
2024-05-15T22:02:56.445;599616699356534755;8752.719;-142
2024-05-15T22:02:56.453;599616699364225848;8760.409;-109
2024-05-15T22:02:56.461;599616699371916941;8768.101;-76
2024-05-15T22:02:56.468;599616699379608034;8775.792;-33
2024-05-15T22:02:56.476;599616699387299127;8783.482;7
2024-05-15T22:02:56.484;599616699394990220;8791.174;23
2024-05-15T22:02:56.491;599616699402681313;8798.864;57
2024-05-15T22:02:56.499;599616699410372406;8806.556;114
2024-05-15T22:02:56.507;599616699418063499;8814.247;147
2024-05-15T22:02:56.514;599616699425754592;8821.938;159
2024-05-15T22:02:56.522;599616699433445685;8829.63;178
2024-05-15T22:02:56.530;599616699441136778;8837.32;176
2024-05-15T22:02:56.538;599616699448827871;8845.011;152
2024-05-15T22:02:56.545;599616699456518964;8852.702;161
2024-05-15T22:02:56.553;599616699464210057;8860.394;190
2024-05-15T22:02:56.561;599616699471901150;8868.085;195
2024-05-15T22:02:56.568;599616699479592243;8875.776;178
2024-05-15T22:02:56.576;599616699487283336;8883.467;157
2024-05-15T22:02:56.584;599616699494974429;8891.157;157
2024-05-15T22:02:56.591;599616699502665522;8898.849;192
2024-05-15T22:02:56.599;599616699510356615;8906.54;214
2024-05-15T22:02:56.607;599616699518047708;8914.231;214
2024-05-15T22:02:56.614;599616699525738801;8921.923;233
2024-05-15T22:02:56.622;599616699533429894;8929.614;249
2024-05-15T22:02:56.630;599616699541120987;8937.304;245
2024-05-15T22:02:56.637;599616699548812080;8944.995;249
2024-05-15T22:02:56.645;599616699556503173;8952.687;278
2024-05-15T22:02:56.653;599616699564194266;8960.378;299
2024-05-15T22:02:56.661;599616699571885359;8968.069;295
2024-05-15T22:02:56.668;599616699579576452;8975.761;242
2024-05-15T22:02:56.676;599616699587247488;8983.432;145
2024-05-15T22:02:56.684;599616699594938860;8991.122;92
2024-05-15T22:02:56.691;599616699602630232;8998.813;111
2024-05-15T22:02:56.699;599616699610321604;9006.505;119
2024-05-15T22:02:56.707;599616699618012976;9014.196;107
2024-05-15T22:02:56.714;599616699625704348;9021.888;104
2024-05-15T22:02:56.722;599616699633395720;9029.58;52
2024-05-15T22:02:56.730;599616699641087092;9037.271;-4
2024-05-15T22:02:56.737;599616699648778464;9044.962;26
2024-05-15T22:02:56.745;599616699656469836;9052.653;66
2024-05-15T22:02:56.753;599616699664161208;9060.345;47
2024-05-15T22:02:56.761;599616699671852580;9068.036;45
2024-05-15T22:02:56.768;599616699679543952;9075.728;76
2024-05-15T22:02:56.776;599616699687235324;9083.419;49
2024-05-15T22:02:56.784;599616699694926696;9091.11;0
2024-05-15T22:02:56.791;599616699702618068;9098.801;159
2024-05-15T22:02:56.799;599616699710309440;9106.493;626
2024-05-15T22:02:56.807;599616699718000812;9114.185;1080
2024-05-15T22:02:56.814;599616699725692184;9121.876;1052
2024-05-15T22:02:56.822;599616699733383556;9129.567;507
2024-05-15T22:02:56.830;599616699741074928;9137.259;14
2024-05-15T22:02:56.837;599616699748766300;9144.95;-64
2024-05-15T22:02:56.845;599616699756457672;9152.641;-83
2024-05-15T22:02:56.853;599616699764149044;9160.332;-218
2024-05-15T22:02:56.861;599616699771840416;9168.023;-214
2024-05-15T22:02:56.868;599616699779531788;9175.716;-142
2024-05-15T22:02:56.876;599616699787223160;9183.407;-154
2024-05-15T22:02:56.884;599616699794914532;9191.099;-138
2024-05-15T22:02:56.891;599616699802605904;9198.79;-90
2024-05-15T22:02:56.899;599616699810297276;9206.48;-99
2024-05-15T22:02:56.907;599616699817988648;9214.172;-107
2024-05-15T22:02:56.914;599616699825680020;9221.863;-64
2024-05-15T22:02:56.922;599616699833371392;9229.555;-49
2024-05-15T22:02:56.930;599616699841062764;9237.246;-78
2024-05-15T22:02:56.937;599616699848754136;9244.9375;-73
2024-05-15T22:02:56.945;599616699856445508;9252.63;-30
2024-05-15T22:02:56.953;599616699864136880;9260.32;9
2024-05-15T22:02:56.961;599616699871828252;9268.012;33
2024-05-15T22:02:56.968;599616699879519624;9275.703;54
2024-05-15T22:02:56.976;599616699887210996;9283.395;97
2024-05-15T22:02:56.984;599616699894902368;9291.086;111
2024-05-15T22:02:56.991;599616699902593740;9298.777;85
2024-05-15T22:02:56.999;599616699910285112;9306.469;88
2024-05-15T22:02:57.007;599616699917976484;9314.159;135
2024-05-15T22:02:57.014;599616699925667856;9321.852;161
2024-05-15T22:02:57.022;599616699933359228;9329.543;145
2024-05-15T22:02:57.030;599616699941050600;9337.234;126
2024-05-15T22:02:57.037;599616699948741972;9344.926;123
2024-05-15T22:02:57.045;599616699956433344;9352.617;116
2024-05-15T22:02:57.053;599616699964124716;9360.309;104
2024-05-15T22:02:57.060;599616699971816088;9367.999;128
2024-05-15T22:02:57.068;599616699979507460;9375.69;195
2024-05-15T22:02:57.076;599616699987198832;9383.382;228
2024-05-15T22:02:57.084;599616699994890204;9391.073;218
2024-05-15T22:02:57.091;599616700002581576;9398.766;216
2024-05-15T22:02:57.099;599616700010272948;9406.457;254
2024-05-15T22:02:57.107;599616700017964320;9414.148;288
2024-05-15T22:02:57.114;599616700025655692;9421.84;283
2024-05-15T22:02:57.122;599616700033347064;9429.53;276
2024-05-15T22:02:57.130;599616700041038436;9437.222;249
2024-05-15T22:02:57.137;599616700048729808;9444.913;192
2024-05-15T22:02:57.145;599616700056421180;9452.6045;166
2024-05-15T22:02:57.153;599616700064112552;9460.296;197
2024-05-15T22:02:57.160;599616700071803924;9467.988;216
2024-05-15T22:02:57.168;599616700079495296;9475.68;190
2024-05-15T22:02:57.176;599616700087186668;9483.37;154
2024-05-15T22:02:57.184;599616700094878040;9491.062;169
2024-05-15T22:02:57.191;599616700102569412;9498.753;202
2024-05-15T22:02:57.199;599616700110260784;9506.444;197
2024-05-15T22:02:57.207;599616700117952156;9514.136;190
2024-05-15T22:02:57.214;599616700125643528;9521.827;216
2024-05-15T22:02:57.222;599616700133334900;9529.519;230
2024-05-15T22:02:57.230;599616700141026272;9537.209;207
2024-05-15T22:02:57.237;599616700148717652;9544.901;157
2024-05-15T22:02:57.245;599616700156409024;9552.593;130
2024-05-15T22:02:57.253;599616700164100396;9560.284;295
2024-05-15T22:02:57.260;599616700171791768;9567.976;735
2024-05-15T22:02:57.268;599616700179483140;9575.667;1175
2024-05-15T22:02:57.276;599616700187174512;9583.358;1149
2024-05-15T22:02:57.284;599616700194865884;9591.049;571
2024-05-15T22:02:57.291;599616700202557256;9598.74;-7
2024-05-15T22:02:57.299;599616700210248628;9606.432;-104
2024-05-15T22:02:57.307;599616700217940000;9614.124;-40
2024-05-15T22:02:57.314;599616700225631372;9621.815;-149
2024-05-15T22:02:57.322;599616700233322744;9629.507;-207
2024-05-15T22:02:57.330;599616700241014116;9637.198;-138
2024-05-15T22:02:57.337;599616700248705488;9644.889;-130
2024-05-15T22:02:57.345;599616700256396860;9652.58;-207
2024-05-15T22:02:57.353;599616700264088232;9660.271;-261
2024-05-15T22:02:57.360;599616700271779604;9667.963;-235
2024-05-15T22:02:57.368;599616700279470976;9675.654;-183
2024-05-15T22:02:57.376;599616700287162348;9683.347;-147
2024-05-15T22:02:57.384;599616700294853720;9691.038;-126
2024-05-15T22:02:57.391;599616700302545092;9698.729;-85
2024-05-15T22:02:57.399;599616700310236464;9706.42;-30
2024-05-15T22:02:57.407;599616700317927836;9714.111;2
2024-05-15T22:02:57.414;599616700325619208;9721.803;0
2024-05-15T22:02:57.422;599616700333310580;9729.494;4
2024-05-15T22:02:57.430;599616700341001952;9737.186;47
2024-05-15T22:02:57.437;599616700348693324;9744.877;78
2024-05-15T22:02:57.445;599616700356384696;9752.567;66
2024-05-15T22:02:57.453;599616700364076068;9760.26;64
2024-05-15T22:02:57.460;599616700371767440;9767.951;90
2024-05-15T22:02:57.468;599616700379458812;9775.643;109
2024-05-15T22:02:57.476;599616700387150184;9783.334;119
2024-05-15T22:02:57.484;599616700394841556;9791.025;147
2024-05-15T22:02:57.491;599616700402532928;9798.717;176
2024-05-15T22:02:57.499;599616700410224300;9806.407;166
2024-05-15T22:02:57.507;599616700417915672;9814.099;157
2024-05-15T22:02:57.514;599616700425607044;9821.79;207
2024-05-15T22:02:57.522;599616700433298416;9829.482;266
2024-05-15T22:02:57.530;599616700440989788;9837.174;268
2024-05-15T22:02:57.537;599616700448681160;9844.865;257
2024-05-15T22:02:57.545;599616700456372532;9852.557;268
2024-05-15T22:02:57.553;599616700464063904;9860.247;285
2024-05-15T22:02:57.560;599616700471755276;9867.938;295
2024-05-15T22:02:57.568;599616700479446648;9875.63;299
2024-05-15T22:02:57.576;599616700487138020;9883.321;323
2024-05-15T22:02:57.584;599616700494829392;9891.013;326
2024-05-15T22:02:57.591;599616700502520764;9898.704;268
2024-05-15T22:02:57.599;599616700510212136;9906.396;211
2024-05-15T22:02:57.607;599616700517903508;9914.088;221
2024-05-15T22:02:57.614;599616700525594880;9921.778;240
2024-05-15T22:02:57.622;599616700533286252;9929.47;228
2024-05-15T22:02:57.630;599616700540977624;9937.161;223
2024-05-15T22:02:57.637;599616700548668996;9944.853;242
2024-05-15T22:02:57.645;599616700556360368;9952.544;257
2024-05-15T22:02:57.653;599616700564051740;9960.235;247
2024-05-15T22:02:57.660;599616700571743112;9967.927;211
2024-05-15T22:02:57.668;599616700579434484;9975.618;183
2024-05-15T22:02:57.676;599616700587125856;9983.31;173
2024-05-15T22:02:57.684;599616700594817228;9991.001;159
2024-05-15T22:02:57.691;599616700602508600;9998.692;164
2024-05-15T22:02:57.699;599616700610199972;10006.384;178
2024-05-15T22:02:57.707;599616700617891344;10014.075;123
2024-05-15T22:02:57.714;599616700625582716;10021.767;102
2024-05-15T22:02:57.722;599616700633274088;10029.457;366
2024-05-15T22:02:57.730;599616700640965460;10037.148;890
2024-05-15T22:02:57.737;599616700648656832;10044.84;1233
2024-05-15T22:02:57.745;599616700656348204;10052.532;973
2024-05-15T22:02:57.753;599616700664039576;10060.224;326
2024-05-15T22:02:57.760;599616700671730948;10067.915;-2
2024-05-15T22:02:57.768;599616700679422320;10075.606;57
2024-05-15T22:02:57.776;599616700687113692;10083.297;16
2024-05-15T22:02:57.783;599616700694805064;10090.988;-90
2024-05-15T22:02:57.791;599616700702496436;10098.68;-40
2024-05-15T22:02:57.799;599616700710187816;10106.371;2
2024-05-15T22:02:57.807;599616700717879188;10114.0625;-30
2024-05-15T22:02:57.814;599616700725570560;10121.755;-26
2024-05-15T22:02:57.822;599616700733261932;10129.446;-16
2024-05-15T22:02:57.830;599616700740953304;10137.137;-73
2024-05-15T22:02:57.837;599616700748644676;10144.828;-126
2024-05-15T22:02:57.845;599616700756336048;10152.52;-128
2024-05-15T22:02:57.853;599616700764027420;10160.211;-166
2024-05-15T22:02:57.860;599616700771718792;10167.902;-221
2024-05-15T22:02:57.868;599616700779410164;10175.594;-197
2024-05-15T22:02:57.876;599616700787101536;10183.285;-128
2024-05-15T22:02:57.883;599616700794792908;10190.976;-83
2024-05-15T22:02:57.891;599616700802484280;10198.668;-64
2024-05-15T22:02:57.899;599616700810175652;10206.359;-33
2024-05-15T22:02:57.907;599616700817867024;10214.051;-35
2024-05-15T22:02:57.914;599616700825558396;10221.742;-95
2024-05-15T22:02:57.922;599616700833249768;10229.434;-111
2024-05-15T22:02:57.930;599616700840941140;10237.125;-59
2024-05-15T22:02:57.937;599616700848632512;10244.815;-16
2024-05-15T22:02:57.945;599616700856323884;10252.507;-7
2024-05-15T22:02:57.953;599616700864015256;10260.198;-2
2024-05-15T22:02:57.960;599616700871706628;10267.891;2
2024-05-15T22:02:57.968;599616700879398000;10275.582;28
2024-05-15T22:02:57.976;599616700887089372;10283.273;69
2024-05-15T22:02:57.983;599616700894780744;10290.965;88
2024-05-15T22:02:57.991;599616700902472116;10298.655;107
2024-05-15T22:02:57.999;599616700910163488;10306.347;145
2024-05-15T22:02:58.007;599616700917854860;10314.038;154
2024-05-15T22:02:58.014;599616700925546232;10321.7295;140
2024-05-15T22:02:58.022;599616700933237604;10329.421;164
2024-05-15T22:02:58.030;599616700940928976;10337.112;197
2024-05-15T22:02:58.037;599616700948620348;10344.805;204
2024-05-15T22:02:58.045;599616700956311720;10352.496;190
2024-05-15T22:02:58.053;599616700964003092;10360.187;157
2024-05-15T22:02:58.060;599616700971694464;10367.878;123
2024-05-15T22:02:58.068;599616700979385836;10375.569;128
2024-05-15T22:02:58.076;599616700987077208;10383.261;128
2024-05-15T22:02:58.083;599616700994768580;10390.952;126
2024-05-15T22:02:58.091;599616701002459952;10398.644;145
2024-05-15T22:02:58.099;599616701010151324;10406.334;147
2024-05-15T22:02:58.107;599616701017842696;10414.026;140
2024-05-15T22:02:58.114;599616701025534068;10421.718;180
2024-05-15T22:02:58.122;599616701033225440;10429.409;209
2024-05-15T22:02:58.130;599616701040916812;10437.101;180
2024-05-15T22:02:58.137;599616701048608184;10444.792;164
2024-05-15T22:02:58.145;599616701056299556;10452.483;166
2024-05-15T22:02:58.153;599616701063990928;10460.175;138
2024-05-15T22:02:58.160;599616701071682300;10467.865;92
2024-05-15T22:02:58.168;599616701079373672;10475.557;76
2024-05-15T22:02:58.176;599616701087065044;10483.248;71
2024-05-15T22:02:58.183;599616701094756416;10490.94;30
2024-05-15T22:02:58.191;599616701102447788;10498.632;97
2024-05-15T22:02:58.199;599616701110139160;10506.323;478
2024-05-15T22:02:58.207;599616701117830532;10514.015;973
2024-05-15T22:02:58.214;599616701125521904;10521.705;1052
2024-05-15T22:02:58.222;599616701133213276;10529.396;537
2024-05-15T22:02:58.230;599616701140904648;10537.088;-42
2024-05-15T22:02:58.237;599616701148596020;10544.779;-149
2024-05-15T22:02:58.245;599616701156287392;10552.471;-40
2024-05-15T22:02:58.253;599616701163978764;10560.163;-90
2024-05-15T22:02:58.260;599616701171670136;10567.8545;-133
2024-05-15T22:02:58.268;599616701179361508;10575.545;-66
2024-05-15T22:02:58.276;599616701187052880;10583.236;-52
2024-05-15T22:02:58.283;599616701194744252;10590.928;-119
2024-05-15T22:02:58.291;599616701202435624;10598.619;-135
2024-05-15T22:02:58.299;599616701210126996;10606.311;-78
2024-05-15T22:02:58.307;599616701217818368;10614.002;-28
2024-05-15T22:02:58.314;599616701225509740;10621.693;-9
2024-05-15T22:02:58.322;599616701233201112;10629.384;11
2024-05-15T22:02:58.330;599616701240892484;10637.076;45
2024-05-15T22:02:58.337;599616701248583856;10644.768;59
2024-05-15T22:02:58.345;599616701256275228;10652.459;52
2024-05-15T22:02:58.353;599616701263966600;10660.15;19
2024-05-15T22:02:58.360;599616701271688076;10667.871;2
2024-05-15T22:02:58.368;599616701279379030;10675.5625;33
2024-05-15T22:02:58.376;599616701287069984;10683.254;47
2024-05-15T22:02:58.383;599616701294760938;10690.945;52
2024-05-15T22:02:58.391;599616701302451892;10698.636;83
2024-05-15T22:02:58.399;599616701310142846;10706.326;69
2024-05-15T22:02:58.407;599616701317833800;10714.018;30
2024-05-15T22:02:58.414;599616701325524754;10721.708;52
2024-05-15T22:02:58.422;599616701333215708;10729.399;66
2024-05-15T22:02:58.430;599616701340906662;10737.091;0
2024-05-15T22:02:58.437;599616701348597616;10744.781;-54
2024-05-15T22:02:58.445;599616701356288570;10752.472;-9
2024-05-15T22:02:58.453;599616701363979524;10760.163;47
2024-05-15T22:02:58.460;599616701371670478;10767.854;35
2024-05-15T22:02:58.468;599616701379361432;10775.545;30
2024-05-15T22:02:58.476;599616701387052386;10783.236;73
2024-05-15T22:02:58.483;599616701394743340;10790.928;109
2024-05-15T22:02:58.491;599616701402434294;10798.617;121
2024-05-15T22:02:58.499;599616701410125248;10806.309;133
2024-05-15T22:02:58.506;599616701417816202;10814.0;121
2024-05-15T22:02:58.514;599616701425507156;10821.69;76
2024-05-15T22:02:58.522;599616701433198110;10829.382;47
2024-05-15T22:02:58.530;599616701440889064;10837.073;61
2024-05-15T22:02:58.537;599616701448580018;10844.763;85
2024-05-15T22:02:58.545;599616701456270972;10852.454;99
2024-05-15T22:02:58.553;599616701463961926;10860.1455;99
2024-05-15T22:02:58.560;599616701471652880;10867.837;90
2024-05-15T22:02:58.568;599616701479343834;10875.527;109
2024-05-15T22:02:58.576;599616701487034788;10883.219;135
2024-05-15T22:02:58.583;599616701494725742;10890.91;138
2024-05-15T22:02:58.591;599616701502416696;10898.6;166
2024-05-15T22:02:58.599;599616701510107650;10906.291;211
2024-05-15T22:02:58.606;599616701517798604;10913.982;202
2024-05-15T22:02:58.614;599616701525489558;10921.673;178
2024-05-15T22:02:58.622;599616701533180512;10929.364;199
2024-05-15T22:02:58.630;599616701540871466;10937.056;211
2024-05-15T22:02:58.637;599616701548562420;10944.746;154
2024-05-15T22:02:58.645;599616701556253374;10952.437;16
2024-05-15T22:02:58.653;599616701563944328;10960.128;-161
2024-05-15T22:02:58.660;599616701571635282;10967.819;-276
2024-05-15T22:02:58.668;599616701579326236;10975.51;-247
2024-05-15T22:02:58.676;599616701587017190;10983.201;19
2024-05-15T22:02:58.683;599616701594708144;10990.892;468
2024-05-15T22:02:58.691;599616701602399098;10998.582;690
2024-05-15T22:02:58.699;599616701610090052;11006.273;335
2024-05-15T22:02:58.706;599616701617781006;11013.965;-199
2024-05-15T22:02:58.714;599616701625471960;11021.655;-271
2024-05-15T22:02:58.722;599616701633162914;11029.347;-80
2024-05-15T22:02:58.730;599616701640853868;11037.037;-97
2024-05-15T22:02:58.737;599616701648544822;11044.729;-152
2024-05-15T22:02:58.745;599616701656235776;11052.419;-83
2024-05-15T22:02:58.753;599616701663926730;11060.11;-47
2024-05-15T22:02:58.760;599616701671617684;11067.802;-57
2024-05-15T22:02:58.768;599616701679308638;11075.492;-14
2024-05-15T22:02:58.776;599616701686999592;11083.183;49
2024-05-15T22:02:58.783;599616701694690546;11090.874;61
2024-05-15T22:02:58.791;599616701702381500;11098.564;59
2024-05-15T22:02:58.799;599616701710072454;11106.256;85
2024-05-15T22:02:58.806;599616701717763408;11113.947;133
2024-05-15T22:02:58.814;599616701725454362;11121.639;176
2024-05-15T22:02:58.822;599616701733145316;11129.329;199
2024-05-15T22:02:58.830;599616701740836270;11137.02;223
2024-05-15T22:02:58.837;599616701748527224;11144.711;261
2024-05-15T22:02:58.845;599616701756218178;11152.401;292
2024-05-15T22:02:58.853;599616701763909132;11160.093;268
2024-05-15T22:02:58.860;599616701771600086;11167.784;211
2024-05-15T22:02:58.868;599616701779291040;11175.475;195
2024-05-15T22:02:58.876;599616701786981994;11183.165;188
2024-05-15T22:02:58.883;599616701794672948;11190.856;119
2024-05-15T22:02:58.891;599616701802363902;11198.548;33
2024-05-15T22:02:58.899;599616701810054856;11206.238;-16
2024-05-15T22:02:58.906;599616701817745810;11213.93;-42
2024-05-15T22:02:58.914;599616701825436764;11221.621;-76
2024-05-15T22:02:58.922;599616701833097626;11229.281;-78
2024-05-15T22:02:58.929;599616701840788998;11236.973;-30
2024-05-15T22:02:58.937;599616701848480370;11244.664;-4
2024-05-15T22:02:58.945;599616701856171742;11252.355;35
2024-05-15T22:02:58.953;599616701863863114;11260.046;133
2024-05-15T22:02:58.960;599616701871554486;11267.737;180
2024-05-15T22:02:58.968;599616701879245858;11275.43;130
2024-05-15T22:02:58.976;599616701886937230;11283.121;80
2024-05-15T22:02:58.983;599616701894628602;11290.8125;99
2024-05-15T22:02:58.991;599616701902319974;11298.504;126
2024-05-15T22:02:58.999;599616701910011346;11306.195;88
2024-05-15T22:02:59.006;599616701917702718;11313.886;35
2024-05-15T22:02:59.014;599616701925394090;11321.577;35
2024-05-15T22:02:59.022;599616701933085462;11329.269;54
2024-05-15T22:02:59.029;599616701940776834;11336.96;38
2024-05-15T22:02:59.037;599616701948468206;11344.652;38
2024-05-15T22:02:59.045;599616701956159578;11352.344;88
2024-05-15T22:02:59.053;599616701963850950;11360.035;119
2024-05-15T22:02:59.060;599616701971542322;11367.727;107
2024-05-15T22:02:59.068;599616701979233694;11375.417;119
2024-05-15T22:02:59.076;599616701986925066;11383.108;147
2024-05-15T22:02:59.083;599616701994616438;11390.8;161
2024-05-15T22:02:59.091;599616702002307810;11398.491;178
2024-05-15T22:02:59.099;599616702009999182;11406.183;202
2024-05-15T22:02:59.106;599616702017690554;11413.874;233
2024-05-15T22:02:59.114;599616702025381926;11421.566;230
2024-05-15T22:02:59.122;599616702033073298;11429.257;166
2024-05-15T22:02:59.129;599616702040764670;11436.948;90
2024-05-15T22:02:59.137;599616702048456042;11444.64;26
2024-05-15T22:02:59.145;599616702056147414;11452.331;49
2024-05-15T22:02:59.153;599616702063838786;11460.022;383
2024-05-15T22:02:59.160;599616702071530158;11467.714;880
2024-05-15T22:02:59.168;599616702079221530;11475.405;956
2024-05-15T22:02:59.176;599616702086912902;11483.096;442
2024-05-15T22:02:59.183;599616702094604274;11490.788;-71
2024-05-15T22:02:59.191;599616702102295646;11498.4795;-95
2024-05-15T22:02:59.199;599616702109987018;11506.171;33
2024-05-15T22:02:59.206;599616702117678390;11513.862;-35
2024-05-15T22:02:59.214;599616702125369762;11521.554;-85
2024-05-15T22:02:59.222;599616702133061134;11529.245;-9
2024-05-15T22:02:59.229;599616702140752506;11536.936;28
2024-05-15T22:02:59.237;599616702148443878;11544.627;26
2024-05-15T22:02:59.245;599616702156135250;11552.318;47
2024-05-15T22:02:59.253;599616702163826622;11560.01;71
2024-05-15T22:02:59.260;599616702171517994;11567.702;92
2024-05-15T22:02:59.268;599616702179209366;11575.394;114
2024-05-15T22:02:59.276;599616702186900738;11583.085;140
2024-05-15T22:02:59.283;599616702194592110;11590.775;192
2024-05-15T22:02:59.291;599616702202283482;11598.467;230
2024-05-15T22:02:59.299;599616702209974854;11606.158;218
2024-05-15T22:02:59.306;599616702217666226;11613.85;230
2024-05-15T22:02:59.314;599616702225357598;11621.541;292
2024-05-15T22:02:59.322;599616702233048970;11629.232;338
2024-05-15T22:02:59.329;599616702240740342;11636.925;335
2024-05-15T22:02:59.337;599616702248431714;11644.615;328
2024-05-15T22:02:59.345;599616702256123086;11652.307;340
2024-05-15T22:02:59.352;599616702263814458;11659.998;345
2024-05-15T22:02:59.360;599616702271505830;11667.689;285
2024-05-15T22:02:59.368;599616702279197202;11675.381;207
2024-05-15T22:02:59.376;599616702286888574;11683.072;199
2024-05-15T22:02:59.383;599616702294579946;11690.764;188
2024-05-15T22:02:59.391;599616702302271318;11698.454;99
2024-05-15T22:02:59.399;599616702309962690;11706.1455;71
2024-05-15T22:02:59.406;599616702317654062;11713.838;133
2024-05-15T22:02:59.414;599616702325345434;11721.529;159
2024-05-15T22:02:59.422;599616702333036806;11729.221;142
2024-05-15T22:02:59.429;599616702340728178;11736.912;119
2024-05-15T22:02:59.437;599616702348419550;11744.604;99
2024-05-15T22:02:59.445;599616702356110922;11752.294;95
2024-05-15T22:02:59.452;599616702363802294;11759.985;104
2024-05-15T22:02:59.460;599616702371493666;11767.677;121
2024-05-15T22:02:59.468;599616702379185038;11775.368;149
2024-05-15T22:02:59.476;599616702386876410;11783.061;157
2024-05-15T22:02:59.483;599616702394567790;11790.752;121
2024-05-15T22:02:59.491;599616702402259162;11798.443;116
2024-05-15T22:02:59.499;599616702409950534;11806.134;157
2024-05-15T22:02:59.506;599616702417641906;11813.825;171
2024-05-15T22:02:59.514;599616702425333278;11821.517;164
2024-05-15T22:02:59.522;599616702433024650;11829.208;173
2024-05-15T22:02:59.529;599616702440716022;11836.899;176
2024-05-15T22:02:59.537;599616702448407394;11844.591;140
2024-05-15T22:02:59.545;599616702456098766;11852.282;102
2024-05-15T22:02:59.552;599616702463790138;11859.975;111
2024-05-15T22:02:59.560;599616702471481510;11867.665;159
2024-05-15T22:02:59.568;599616702479172882;11875.356;166
2024-05-15T22:02:59.576;599616702486864254;11883.048;119
2024-05-15T22:02:59.583;599616702494555626;11890.739;92
2024-05-15T22:02:59.591;599616702502246998;11898.431;99
2024-05-15T22:02:59.599;599616702509938370;11906.122;69
2024-05-15T22:02:59.606;599616702517629742;11913.813;-11
2024-05-15T22:02:59.614;599616702525321114;11921.504;-71
2024-05-15T22:02:59.622;599616702533012486;11929.196;7
2024-05-15T22:02:59.629;599616702540703858;11936.888;349
2024-05-15T22:02:59.637;599616702548395230;11944.579;818
2024-05-15T22:02:59.645;599616702556086602;11952.2705;975
2024-05-15T22:02:59.652;599616702563777974;11959.962;554
2024-05-15T22:02:59.660;599616702571469346;11967.653;-21
2024-05-15T22:02:59.668;599616702579160718;11975.344;-157
2024-05-15T22:02:59.676;599616702586852090;11983.035;-21
2024-05-15T22:02:59.683;599616702594543462;11990.727;-33
2024-05-15T22:02:59.691;599616702602234834;11998.418;-76
2024-05-15T22:02:59.699;599616702609926206;12006.11;-26
2024-05-15T22:02:59.706;599616702617617578;12013.802;4
2024-05-15T22:02:59.714;599616702625308950;12021.493;-4
2024-05-15T22:02:59.722;599616702633000322;12029.184;9
2024-05-15T22:02:59.729;599616702640691694;12036.875;47
2024-05-15T22:02:59.737;599616702648383066;12044.566;78
2024-05-15T22:02:59.745;599616702656074438;12052.258;97
2024-05-15T22:02:59.752;599616702663765810;12059.949;109
2024-05-15T22:02:59.760;599616702671457182;12067.641;121
2024-05-15T22:02:59.768;599616702679148554;12075.333;154
2024-05-15T22:02:59.776;599616702686839926;12083.023;197
2024-05-15T22:02:59.783;599616702694531298;12090.715;221
2024-05-15T22:02:59.791;599616702702222670;12098.406;247
2024-05-15T22:02:59.799;599616702709914042;12106.098;283
2024-05-15T22:02:59.806;599616702717605414;12113.789;288
2024-05-15T22:02:59.814;599616702725296786;12121.48;268
2024-05-15T22:02:59.822;599616702732988158;12129.172;276
2024-05-15T22:02:59.829;599616702740679530;12136.862;299
2024-05-15T22:02:59.837;599616702748370902;12144.554;302
2024-05-15T22:02:59.845;599616702756062274;12152.246;290
2024-05-15T22:02:59.852;599616702763753646;12159.9375;268
2024-05-15T22:02:59.860;599616702771445018;12167.629;214
2024-05-15T22:02:59.868;599616702779136390;12175.32;133
2024-05-15T22:02:59.876;599616702786827762;12183.012;102
2024-05-15T22:02:59.883;599616702794519134;12190.702;80
2024-05-15T22:02:59.891;599616702802210506;12198.394;38
2024-05-15T22:02:59.899;599616702809901878;12206.085;16
2024-05-15T22:02:59.906;599616702817593250;12213.776;16
2024-05-15T22:02:59.914;599616702825284622;12221.469;35
2024-05-15T22:02:59.922;599616702832975994;12229.16;76
2024-05-15T22:02:59.929;599616702840667366;12236.852;92
2024-05-15T22:02:59.937;599616702848358738;12244.542;76
2024-05-15T22:02:59.945;599616702856050110;12252.233;73
2024-05-15T22:02:59.952;599616702863741482;12259.925;85
2024-05-15T22:02:59.960;599616702871432854;12267.616;90
2024-05-15T22:02:59.968;599616702879124226;12275.308;97
2024-05-15T22:02:59.975;599616702886815598;12282.999;130
2024-05-15T22:02:59.983;599616702894506970;12290.69;142
2024-05-15T22:02:59.991;599616702902198342;12298.383;111
2024-05-15T22:02:59.999;599616702909889714;12306.073;107
2024-05-15T22:03:00.006;599616702917581086;12313.765;152
2024-05-15T22:03:00.014;599616702925272458;12321.456;178
2024-05-15T22:03:00.022;599616702932963830;12329.147;188
2024-05-15T22:03:00.029;599616702940655202;12336.839;199
2024-05-15T22:03:00.037;599616702948346574;12344.53;185
2024-05-15T22:03:00.045;599616702956037954;12352.221;140
2024-05-15T22:03:00.052;599616702963729326;12359.912;109
2024-05-15T22:03:00.060;599616702971420698;12367.6045;85
2024-05-15T22:03:00.068;599616702979112070;12375.296;64
2024-05-15T22:03:00.075;599616702986803442;12382.987;28
2024-05-15T22:03:00.083;599616702994494814;12390.679;-90
2024-05-15T22:03:00.091;599616703002186186;12398.37;-211
2024-05-15T22:03:00.099;599616703009877558;12406.062;-109
2024-05-15T22:03:00.106;599616703017568930;12413.752;292
2024-05-15T22:03:00.114;599616703025260302;12421.443;799
2024-05-15T22:03:00.122;599616703032951674;12429.135;961
2024-05-15T22:03:00.129;599616703040643046;12436.827;483
2024-05-15T22:03:00.137;599616703048334418;12444.519;-149
2024-05-15T22:03:00.145;599616703056025790;12452.21;-273
2024-05-15T22:03:00.152;599616703063717162;12459.901;-126
2024-05-15T22:03:00.160;599616703071408534;12467.592;-138
2024-05-15T22:03:00.168;599616703079099906;12475.283;-173
2024-05-15T22:03:00.175;599616703086791278;12482.975;-140
2024-05-15T22:03:00.183;599616703094482650;12490.666;-123
2024-05-15T22:03:00.191;599616703102174022;12498.357;-97
2024-05-15T22:03:00.199;599616703109865394;12506.049;-47
2024-05-15T22:03:00.206;599616703117556766;12513.741;-23
2024-05-15T22:03:00.214;599616703125248138;12521.432;-4
2024-05-15T22:03:00.222;599616703132939510;12529.123;19
2024-05-15T22:03:00.229;599616703140630882;12536.814;28
2024-05-15T22:03:00.237;599616703148322254;12544.506;54
2024-05-15T22:03:00.245;599616703156013626;12552.197;114
2024-05-15T22:03:00.252;599616703163704998;12559.889;164
2024-05-15T22:03:00.260;599616703171396370;12567.58;169
2024-05-15T22:03:00.268;599616703179087742;12575.2705;169
2024-05-15T22:03:00.275;599616703186779114;12582.963;199
2024-05-15T22:03:00.283;599616703194470486;12590.654;228
2024-05-15T22:03:00.291;599616703202161858;12598.346;228
2024-05-15T22:03:00.299;599616703209853230;12606.037;235
2024-05-15T22:03:00.306;599616703217544602;12613.729;252
2024-05-15T22:03:00.314;599616703225235974;12621.42;245
2024-05-15T22:03:00.322;599616703232927346;12629.11;230
2024-05-15T22:03:00.329;599616703240618718;12636.802;247
2024-05-15T22:03:00.337;599616703248310090;12644.493;271
2024-05-15T22:03:00.345;599616703256001462;12652.185;245
2024-05-15T22:03:00.352;599616703263692834;12659.877;188
2024-05-15T22:03:00.360;599616703271384206;12667.568;140
2024-05-15T22:03:00.368;599616703279075578;12675.26;54
2024-05-15T22:03:00.375;599616703286766950;12682.95;-45
2024-05-15T22:03:00.383;599616703294458322;12690.642;-59
2024-05-15T22:03:00.391;599616703302149694;12698.333;-14
2024-05-15T22:03:00.399;599616703309841066;12706.024;9
2024-05-15T22:03:00.406;599616703317532438;12713.716;7
2024-05-15T22:03:00.414;599616703325223810;12721.407;7
2024-05-15T22:03:00.422;599616703332915182;12729.1;28
2024-05-15T22:03:00.429;599616703340606554;12736.791;52
2024-05-15T22:03:00.437;599616703348297926;12744.481;61
2024-05-15T22:03:00.445;599616703355989298;12752.173;54
2024-05-15T22:03:00.452;599616703363680670;12759.864;57
2024-05-15T22:03:00.460;599616703371372042;12767.556;83
2024-05-15T22:03:00.468;599616703379063414;12775.247;97
2024-05-15T22:03:00.475;599616703386754786;12782.938;102
2024-05-15T22:03:00.483;599616703394446158;12790.629;126
2024-05-15T22:03:00.491;599616703402137530;12798.32;147
2024-05-15T22:03:00.499;599616703409828902;12806.013;126
2024-05-15T22:03:00.506;599616703417520274;12813.704;97
2024-05-15T22:03:00.514;599616703425211646;12821.3955;92
2024-05-15T22:03:00.522;599616703432903018;12829.087;71
2024-05-15T22:03:00.529;599616703440594390;12836.778;28
2024-05-15T22:03:00.537;599616703448285762;12844.47;19
2024-05-15T22:03:00.545;599616703455977134;12852.16;30
2024-05-15T22:03:00.552;599616703463668506;12859.852;30
2024-05-15T22:03:00.560;599616703471359878;12867.543;2
2024-05-15T22:03:00.568;599616703479051250;12875.235;-52
2024-05-15T22:03:00.575;599616703486742622;12882.927;-28
2024-05-15T22:03:00.583;599616703494433994;12890.618;252
2024-05-15T22:03:00.591;599616703502125366;12898.31;745
2024-05-15T22:03:00.599;599616703509816738;12906.0;1059
2024-05-15T22:03:00.606;599616703517508118;12913.691;804
2024-05-15T22:03:00.614;599616703525199490;12921.383;183
2024-05-15T22:03:00.622;599616703532890862;12929.074;-135
2024-05-15T22:03:00.629;599616703540582234;12936.766;-61
2024-05-15T22:03:00.637;599616703548273606;12944.457;-54
2024-05-15T22:03:00.645;599616703555964978;12952.149;-142
2024-05-15T22:03:00.652;599616703563656350;12959.84;-152
2024-05-15T22:03:00.660;599616703571347722;12967.531;-145
2024-05-15T22:03:00.668;599616703579039094;12975.223;-123
2024-05-15T22:03:00.675;599616703586730466;12982.914;-83
2024-05-15T22:03:00.683;599616703594421838;12990.605;-78
2024-05-15T22:03:00.691;599616703602113210;12998.297;-76
2024-05-15T22:03:00.698;599616703609804582;13005.988;-35
2024-05-15T22:03:00.706;599616703617495954;13013.679;-4
2024-05-15T22:03:00.714;599616703625187326;13021.371;4
2024-05-15T22:03:00.722;599616703632878698;13029.0625;30
2024-05-15T22:03:00.729;599616703640570070;13036.754;78
2024-05-15T22:03:00.737;599616703648261442;13044.445;111
2024-05-15T22:03:00.745;599616703655952814;13052.137;126
2024-05-15T22:03:00.752;599616703663644186;13059.828;166
2024-05-15T22:03:00.760;599616703671335558;13067.519;223
2024-05-15T22:03:00.768;599616703679026930;13075.21;228
2024-05-15T22:03:00.775;599616703686718302;13082.901;199
2024-05-15T22:03:00.783;599616703694409674;13090.593;204
2024-05-15T22:03:00.791;599616703702101046;13098.285;230
2024-05-15T22:03:00.798;599616703709792418;13105.977;226
2024-05-15T22:03:00.806;599616703717483790;13113.668;195
2024-05-15T22:03:00.814;599616703725175162;13121.358;166
2024-05-15T22:03:00.822;599616703732866534;13129.05;149
2024-05-15T22:03:00.829;599616703740557906;13136.741;138
2024-05-15T22:03:00.837;599616703748249278;13144.433;138
2024-05-15T22:03:00.845;599616703755940650;13152.124;161
2024-05-15T22:03:00.852;599616703763632022;13159.815;171
2024-05-15T22:03:00.860;599616703771323394;13167.508;126
2024-05-15T22:03:00.868;599616703779014766;13175.198;52
2024-05-15T22:03:00.875;599616703786706138;13182.89;11
2024-05-15T22:03:00.883;599616703794397510;13190.581;30
2024-05-15T22:03:00.891;599616703802088882;13198.272;45
2024-05-15T22:03:00.898;599616703809780254;13205.964;35
2024-05-15T22:03:00.906;599616703817471626;13213.655;49
2024-05-15T22:03:00.914;599616703825162998;13221.347;71
2024-05-15T22:03:00.922;599616703832854370;13229.037;64
2024-05-15T22:03:00.929;599616703840545742;13236.729;61
2024-05-15T22:03:00.937;599616703848237114;13244.421;90
2024-05-15T22:03:00.945;599616703855928486;13252.112;107
2024-05-15T22:03:00.952;599616703863619858;13259.804;90
2024-05-15T22:03:00.960;599616703871311230;13267.495;59
2024-05-15T22:03:00.968;599616703879002602;13275.187;45
2024-05-15T22:03:00.975;599616703886693974;13282.877;45
2024-05-15T22:03:00.983;599616703894385346;13290.568;21
2024-05-15T22:03:00.991;599616703902076718;13298.26;-9
2024-05-15T22:03:00.998;599616703909768090;13305.951;2
2024-05-15T22:03:01.006;599616703917459462;13313.644;7
2024-05-15T22:03:01.014;599616703925150834;13321.335;-14
2024-05-15T22:03:01.022;599616703932842206;13329.026;2
2024-05-15T22:03:01.029;599616703940533578;13336.718;40
2024-05-15T22:03:01.037;599616703948224950;13344.408;21
2024-05-15T22:03:01.045;599616703955916322;13352.1;-57
2024-05-15T22:03:01.052;599616703963607694;13359.791;-61
2024-05-15T22:03:01.060;599616703971299066;13367.482;218
2024-05-15T22:03:01.068;599616703978990438;13375.174;733
2024-05-15T22:03:01.075;599616703986681810;13382.865;1037
2024-05-15T22:03:01.083;599616703994373182;13390.558;771
2024-05-15T22:03:01.091;599616704002064554;13398.248;195
2024-05-15T22:03:01.098;599616704009755926;13405.939;-61
2024-05-15T22:03:01.106;599616704017447298;13413.631;14
2024-05-15T22:03:01.114;599616704025138670;13421.322;-16
2024-05-15T22:03:01.122;599616704032830042;13429.014;-121
2024-05-15T22:03:01.129;599616704040521414;13436.705;-109
2024-05-15T22:03:01.137;599616704048212786;13444.396;-76
2024-05-15T22:03:01.145;599616704055904158;13452.087;-59
2024-05-15T22:03:01.152;599616704063595530;13459.779;-26
2024-05-15T22:03:01.160;599616704071286902;13467.471;-4
2024-05-15T22:03:01.168;599616704078978282;13475.162;2
2024-05-15T22:03:01.175;599616704086669654;13482.854;28
2024-05-15T22:03:01.183;599616704094361026;13490.545;23
2024-05-15T22:03:01.191;599616704102052398;13498.236;-49
2024-05-15T22:03:01.198;599616704109743770;13505.927;-80
2024-05-15T22:03:01.206;599616704117435142;13513.618;-4
2024-05-15T22:03:01.214;599616704125126514;13521.31;61
2024-05-15T22:03:01.222;599616704132817886;13529.001;59
2024-05-15T22:03:01.229;599616704140509258;13536.693;69
2024-05-15T22:03:01.237;599616704148200630;13544.385;109
2024-05-15T22:03:01.245;599616704155892002;13552.076;130
2024-05-15T22:03:01.252;599616704163583374;13559.767;133
2024-05-15T22:03:01.260;599616704171274746;13567.458;145
2024-05-15T22:03:01.268;599616704178966118;13575.149;154
2024-05-15T22:03:01.275;599616704186657490;13582.841;121
2024-05-15T22:03:01.283;599616704194348862;13590.532;73
2024-05-15T22:03:01.291;599616704202040234;13598.224;33
2024-05-15T22:03:01.298;599616704209731606;13605.916;-52
2024-05-15T22:03:01.306;599616704217422978;13613.606;-78
2024-05-15T22:03:01.314;599616704225114350;13621.298;40
2024-05-15T22:03:01.321;599616704232805722;13628.989;95
2024-05-15T22:03:01.329;599616704240497094;13636.681;52
2024-05-15T22:03:01.337;599616704248188466;13644.372;64
2024-05-15T22:03:01.345;599616704255879838;13652.063;92
2024-05-15T22:03:01.352;599616704263571210;13659.755;73
2024-05-15T22:03:01.360;599616704271262582;13667.445;38
2024-05-15T22:03:01.368;599616704278953954;13675.137;-38
2024-05-15T22:03:01.375;599616704286645326;13682.829;-133
2024-05-15T22:03:01.383;599616704294336698;13690.5205;-159
2024-05-15T22:03:01.391;599616704302028070;13698.212;-161
2024-05-15T22:03:01.398;599616704309719442;13705.903;-259
2024-05-15T22:03:01.406;599616704317410814;13713.595;-390
2024-05-15T22:03:01.414;599616704325102186;13721.285;-407
2024-05-15T22:03:01.421;599616704332793558;13728.977;-280
2024-05-15T22:03:01.429;599616704340484930;13736.668;-157
2024-05-15T22:03:01.437;599616704348176302;13744.359;-161
2024-05-15T22:03:01.445;599616704355867674;13752.052;-278
2024-05-15T22:03:01.452;599616704363559046;13759.743;-433
2024-05-15T22:03:01.460;599616704371250418;13767.435;-535
2024-05-15T22:03:01.468;599616704378941790;13775.126;-557
2024-05-15T22:03:01.475;599616704386633162;13782.816;-533
2024-05-15T22:03:01.483;599616704394324534;13790.508;-452
2024-05-15T22:03:01.491;599616704402015906;13798.199;-354
2024-05-15T22:03:01.498;599616704409707278;13805.891;-299
2024-05-15T22:03:01.506;599616704417398650;13813.582;-266
2024-05-15T22:03:01.514;599616704425090022;13821.274;-264
2024-05-15T22:03:01.521;599616704432781394;13828.966;-290
2024-05-15T22:03:01.529;599616704440472766;13836.656;-149
2024-05-15T22:03:01.537;599616704448164138;13844.348;299
2024-05-15T22:03:01.545;599616704455855510;13852.039;811
2024-05-15T22:03:01.552;599616704463546882;13859.73;873
2024-05-15T22:03:01.560;599616704471238254;13867.422;361
2024-05-15T22:03:01.568;599616704478929626;13875.113;-111
2024-05-15T22:03:01.575;599616704486620998;13882.805;-83
2024-05-15T22:03:01.583;599616704494312370;13890.495;45
2024-05-15T22:03:01.591;599616704502003742;13898.1875;-16
2024-05-15T22:03:01.598;599616704509695114;13905.879;-42
2024-05-15T22:03:01.606;599616704517386486;13913.57;-42
2024-05-15T22:03:01.614;599616704525077858;13921.262;-88
2024-05-15T22:03:01.621;599616704532769230;13928.953;-76
2024-05-15T22:03:01.629;599616704540460602;13936.645;-59
2024-05-15T22:03:01.637;599616704548151974;13944.335;-52
2024-05-15T22:03:01.645;599616704555843346;13952.026;19
2024-05-15T22:03:01.652;599616704563534718;13959.718;59
2024-05-15T22:03:01.660;599616704571226090;13967.41;66
2024-05-15T22:03:01.668;599616704578917462;13975.102;104
2024-05-15T22:03:01.675;599616704586608834;13982.793;138
2024-05-15T22:03:01.683;599616704594300206;13990.484;173
2024-05-15T22:03:01.691;599616704601991578;13998.175;218
2024-05-15T22:03:01.698;599616704609682950;14005.866;230
2024-05-15T22:03:01.706;599616704617374322;14013.558;221
2024-05-15T22:03:01.714;599616704625065694;14021.249;247
2024-05-15T22:03:01.721;599616704632757066;14028.94;283
2024-05-15T22:03:01.729;599616704640463494;14036.646;276
2024-05-15T22:03:01.737;599616704648154657;14044.338;254
2024-05-15T22:03:01.745;599616704655845820;14052.029;228
2024-05-15T22:03:01.752;599616704663536983;14059.721;188
2024-05-15T22:03:01.760;599616704671228146;14067.412;159
2024-05-15T22:03:01.768;599616704678919309;14075.104;147
2024-05-15T22:03:01.775;599616704686610472;14082.795;147
2024-05-15T22:03:01.783;599616704694301635;14090.484;130
2024-05-15T22:03:01.791;599616704701992798;14098.176;61
2024-05-15T22:03:01.798;599616704709683961;14105.867;7
2024-05-15T22:03:01.806;599616704717375124;14113.559;38
2024-05-15T22:03:01.814;599616704725066287;14121.25;73
2024-05-15T22:03:01.821;599616704732757450;14128.941;61
2024-05-15T22:03:01.829;599616704740448613;14136.632;47
2024-05-15T22:03:01.837;599616704748139776;14144.323;54
2024-05-15T22:03:01.845;599616704755830939;14152.015;42
2024-05-15T22:03:01.852;599616704763522102;14159.706;9
2024-05-15T22:03:01.860;599616704771213265;14167.396;-9
2024-05-15T22:03:01.868;599616704778904428;14175.088;-30
2024-05-15T22:03:01.875;599616704786595591;14182.779;-99
2024-05-15T22:03:01.883;599616704794286754;14190.47;-147
2024-05-15T22:03:01.891;599616704801977917;14198.161;-121
2024-05-15T22:03:01.898;599616704809669080;14205.853;-95
2024-05-15T22:03:01.906;599616704817360243;14213.544;-126
2024-05-15T22:03:01.914;599616704825051406;14221.235;-149
2024-05-15T22:03:01.921;599616704832742569;14228.927;-149
2024-05-15T22:03:01.929;599616704840433732;14236.618;-176
2024-05-15T22:03:01.937;599616704848124895;14244.308;-190
2024-05-15T22:03:01.944;599616704855816058;14251.999;-176
2024-05-15T22:03:01.952;599616704863507221;14259.69;-166
2024-05-15T22:03:01.960;599616704871198384;14267.382;-140
2024-05-15T22:03:01.968;599616704878889547;14275.073;-121
2024-05-15T22:03:01.975;599616704886580710;14282.765;-154
2024-05-15T22:03:01.983;599616704894271873;14290.455;-202
2024-05-15T22:03:01.991;599616704901963036;14298.146;-207
2024-05-15T22:03:01.998;599616704909654199;14305.838;-59
2024-05-15T22:03:02.006;599616704917345362;14313.529;349
2024-05-15T22:03:02.014;599616704925036525;14321.221;797
2024-05-15T22:03:02.021;599616704932727688;14328.911;783
2024-05-15T22:03:02.029;599616704940418851;14336.603;252
2024-05-15T22:03:02.037;599616704948110014;14344.293;-164
2024-05-15T22:03:02.044;599616704955801177;14351.984;-107
2024-05-15T22:03:02.052;599616704963492340;14359.676;0
2024-05-15T22:03:02.060;599616704971183503;14367.367;-90
2024-05-15T22:03:02.068;599616704978874666;14375.059;-119
2024-05-15T22:03:02.075;599616704986565829;14382.75;-47
2024-05-15T22:03:02.083;599616704994256992;14390.441;-9
2024-05-15T22:03:02.091;599616705001948155;14398.132;-16
2024-05-15T22:03:02.098;599616705009639318;14405.822;-30
2024-05-15T22:03:02.106;599616705017330481;14413.514;-21
2024-05-15T22:03:02.114;599616705025021644;14421.205;2
2024-05-15T22:03:02.121;599616705032712807;14428.896;4
2024-05-15T22:03:02.129;599616705040403970;14436.588;14
2024-05-15T22:03:02.137;599616705048095133;14444.278;61
2024-05-15T22:03:02.144;599616705055786296;14451.97;107
2024-05-15T22:03:02.152;599616705063477459;14459.661;114
2024-05-15T22:03:02.160;599616705071168622;14467.353;121
2024-05-15T22:03:02.168;599616705078859785;14475.044;169
2024-05-15T22:03:02.175;599616705086550948;14482.734;216
2024-05-15T22:03:02.183;599616705094242111;14490.426;223
2024-05-15T22:03:02.191;599616705101933274;14498.116;226
2024-05-15T22:03:02.198;599616705109624437;14505.808;252
2024-05-15T22:03:02.206;599616705117315600;14513.499;254
2024-05-15T22:03:02.214;599616705125006763;14521.19;209
2024-05-15T22:03:02.221;599616705132697926;14528.882;166
2024-05-15T22:03:02.229;599616705140389089;14536.573;145
2024-05-15T22:03:02.237;599616705148080252;14544.265;121
2024-05-15T22:03:02.244;599616705155771415;14551.955;71
2024-05-15T22:03:02.252;599616705163462578;14559.6455;-11
2024-05-15T22:03:02.260;599616705171153741;14567.337;-54
2024-05-15T22:03:02.268;599616705178844904;14575.028;-26
2024-05-15T22:03:02.275;599616705186536067;14582.72;-9
2024-05-15T22:03:02.283;599616705194227230;14590.411;-40
2024-05-15T22:03:02.291;599616705201918398;14598.102;-69
2024-05-15T22:03:02.298;599616705209609561;14605.793;-78
2024-05-15T22:03:02.306;599616705217300724;14613.484;-80
2024-05-15T22:03:02.314;599616705224991887;14621.176;-47
2024-05-15T22:03:02.321;599616705232683050;14628.867;-4
2024-05-15T22:03:02.329;599616705240374213;14636.558;-7
2024-05-15T22:03:02.337;599616705248065376;14644.249;-61
2024-05-15T22:03:02.344;599616705255756539;14651.939;-123
2024-05-15T22:03:02.352;599616705263447702;14659.631;-116
2024-05-15T22:03:02.360;599616705271138865;14667.322;-97
2024-05-15T22:03:02.368;599616705278830028;14675.014;-145
2024-05-15T22:03:02.375;599616705286521191;14682.705;-209
2024-05-15T22:03:02.383;599616705294212354;14690.396;-252
2024-05-15T22:03:02.391;599616705301903517;14698.088;-288
2024-05-15T22:03:02.398;599616705309594680;14705.778;-345
2024-05-15T22:03:02.406;599616705317285843;14713.469;-435
2024-05-15T22:03:02.414;599616705324977006;14721.16;-516
2024-05-15T22:03:02.421;599616705332668169;14728.852;-585
2024-05-15T22:03:02.429;599616705340359332;14736.543;-633
2024-05-15T22:03:02.437;599616705348050495;14744.234;-649
2024-05-15T22:03:02.444;599616705355741658;14751.925;-673
2024-05-15T22:03:02.452;599616705363432821;14759.616;-704
2024-05-15T22:03:02.460;599616705371123984;14767.308;-583
2024-05-15T22:03:02.467;599616705378815147;14774.999;-147
2024-05-15T22:03:02.475;599616705386506310;14782.69;388
2024-05-15T22:03:02.483;599616705394197473;14790.381;514
2024-05-15T22:03:02.491;599616705401888636;14798.072;85
2024-05-15T22:03:02.498;599616705409579799;14805.763;-361
2024-05-15T22:03:02.506;599616705417270962;14813.454;-378
2024-05-15T22:03:02.514;599616705424962125;14821.1455;-271
2024-05-15T22:03:02.521;599616705432653288;14828.837;-297
2024-05-15T22:03:02.529;599616705440344451;14836.528;-247
2024-05-15T22:03:02.537;599616705448035614;14844.22;-126
2024-05-15T22:03:02.544;599616705455726777;14851.911;-76
2024-05-15T22:03:02.552;599616705463417940;14859.602;-23
2024-05-15T22:03:02.560;599616705471109103;14867.293;47
2024-05-15T22:03:02.567;599616705478800266;14874.983;66
2024-05-15T22:03:02.575;599616705486491429;14882.675;69
2024-05-15T22:03:02.583;599616705494182592;14890.366;90
2024-05-15T22:03:02.591;599616705501873755;14898.058;92
2024-05-15T22:03:02.598;599616705509564918;14905.748;97
2024-05-15T22:03:02.606;599616705517256081;14913.439;133
2024-05-15T22:03:02.614;599616705524947244;14921.131;169
2024-05-15T22:03:02.621;599616705532638407;14928.822;204
2024-05-15T22:03:02.629;599616705540329570;14936.514;233
2024-05-15T22:03:02.637;599616705548020733;14944.205;257
2024-05-15T22:03:02.644;599616705555711896;14951.8955;299
2024-05-15T22:03:02.652;599616705563403059;14959.586;345
2024-05-15T22:03:02.660;599616705571094222;14967.277;345
2024-05-15T22:03:02.667;599616705578785385;14974.969;311
2024-05-15T22:03:02.675;599616705586476548;14982.66;278
2024-05-15T22:03:02.683;599616705594167711;14990.352;257
2024-05-15T22:03:02.691;599616705601858874;14998.043;264
2024-05-15T22:03:02.698;599616705609550037;15005.734;276
2024-05-15T22:03:02.706;599616705617241200;15013.425;240
2024-05-15T22:03:02.714;599616705624932363;15021.116;197
2024-05-15T22:03:02.721;599616705632623526;15028.807;199
2024-05-15T22:03:02.729;599616705640314689;15036.498;216
2024-05-15T22:03:02.737;599616705648005852;15044.189;230
2024-05-15T22:03:02.744;599616705655697015;15051.881;252
2024-05-15T22:03:02.752;599616705663388178;15059.571;261
2024-05-15T22:03:02.760;599616705671079341;15067.263;242
2024-05-15T22:03:02.767;599616705678770504;15074.954;252
2024-05-15T22:03:02.775;599616705686461667;15082.6455;271
2024-05-15T22:03:02.783;599616705694152830;15090.337;266
2024-05-15T22:03:02.791;599616705701843993;15098.028;268
2024-05-15T22:03:02.798;599616705709535156;15105.719;288
2024-05-15T22:03:02.806;599616705717226319;15113.409;280
2024-05-15T22:03:02.814;599616705724917482;15121.101;268
2024-05-15T22:03:02.821;599616705732608645;15128.792;280
2024-05-15T22:03:02.829;599616705740299808;15136.483;288
2024-05-15T22:03:02.837;599616705747990971;15144.175;259
2024-05-15T22:03:02.844;599616705755682134;15151.866;221
2024-05-15T22:03:02.852;599616705763358256;15159.542;197
2024-05-15T22:03:02.860;599616705771049628;15167.233;173
2024-05-15T22:03:02.867;599616705778741000;15174.924;157
2024-05-15T22:03:02.875;599616705786432372;15182.615;104
2024-05-15T22:03:02.883;599616705794123744;15190.307;2
2024-05-15T22:03:02.890;599616705801815116;15197.999;-40
2024-05-15T22:03:02.898;599616705809506488;15205.69;-64
2024-05-15T22:03:02.906;599616705817197860;15213.382;-188
2024-05-15T22:03:02.914;599616705824889232;15221.073;-257
2024-05-15T22:03:02.921;599616705832580604;15228.764;-90
2024-05-15T22:03:02.929;599616705840271976;15236.455;321
2024-05-15T22:03:02.937;599616705847963348;15244.146;780
2024-05-15T22:03:02.944;599616705855654720;15251.838;852
2024-05-15T22:03:02.952;599616705863346092;15259.529;366
2024-05-15T22:03:02.960;599616705871037464;15267.222;-119
2024-05-15T22:03:02.967;599616705878728836;15274.913;-121
2024-05-15T22:03:02.975;599616705886420208;15282.6045;14
2024-05-15T22:03:02.983;599616705894111580;15290.295;-38
2024-05-15T22:03:02.990;599616705901802952;15297.986;-73
2024-05-15T22:03:02.998;599616705909494324;15305.678;-21
2024-05-15T22:03:03.006;599616705917185696;15313.369;16
2024-05-15T22:03:03.014;599616705924877068;15321.061;47
2024-05-15T22:03:03.021;599616705932568440;15328.752;73
2024-05-15T22:03:03.029;599616705940259812;15336.444;76
2024-05-15T22:03:03.037;599616705947951184;15344.135;90
2024-05-15T22:03:03.044;599616705955642556;15351.826;130
2024-05-15T22:03:03.052;599616705963333928;15359.518;161
2024-05-15T22:03:03.060;599616705971025300;15367.209;180
2024-05-15T22:03:03.067;599616705978716672;15374.9;223
2024-05-15T22:03:03.075;599616705986408044;15382.592;257
2024-05-15T22:03:03.083;599616705994099416;15390.283;242
2024-05-15T22:03:03.090;599616706001790788;15397.974;238
2024-05-15T22:03:03.098;599616706009482160;15405.665;290
2024-05-15T22:03:03.106;599616706017173532;15413.357;323
2024-05-15T22:03:03.114;599616706024864904;15421.049;318
2024-05-15T22:03:03.121;599616706032556276;15428.74;318
2024-05-15T22:03:03.129;599616706040247648;15436.432;321
2024-05-15T22:03:03.137;599616706047939020;15444.123;309
2024-05-15T22:03:03.144;599616706055630392;15451.813;304
2024-05-15T22:03:03.152;599616706063321764;15459.505;323
2024-05-15T22:03:03.160;599616706071013136;15467.196;345
2024-05-15T22:03:03.167;599616706078704508;15474.888;328
2024-05-15T22:03:03.175;599616706086395880;15482.58;273
2024-05-15T22:03:03.183;599616706094087252;15490.271;240
2024-05-15T22:03:03.190;599616706101778624;15497.963;252
2024-05-15T22:03:03.198;599616706109469996;15505.653;257
2024-05-15T22:03:03.206;599616706117161368;15513.345;257
2024-05-15T22:03:03.214;599616706124852740;15521.036;273
2024-05-15T22:03:03.221;599616706132544112;15528.728;273
2024-05-15T22:03:03.229;599616706140235484;15536.419;257
2024-05-15T22:03:03.237;599616706147926856;15544.11;259
2024-05-15T22:03:03.244;599616706155618228;15551.802;276
2024-05-15T22:03:03.252;599616706163309600;15559.493;285
2024-05-15T22:03:03.260;599616706171000972;15567.185;278
2024-05-15T22:03:03.267;599616706178692344;15574.876;257
2024-05-15T22:03:03.275;599616706186383716;15582.567;257
2024-05-15T22:03:03.283;599616706194075088;15590.259;276
2024-05-15T22:03:03.290;599616706201766460;15597.95;280
2024-05-15T22:03:03.298;599616706209457832;15605.642;299
2024-05-15T22:03:03.306;599616706217149204;15613.332;330
2024-05-15T22:03:03.314;599616706224840576;15621.023;328
2024-05-15T22:03:03.321;599616706232531948;15628.716;302
2024-05-15T22:03:03.329;599616706240223320;15636.407;247
2024-05-15T22:03:03.337;599616706247914692;15644.099;195
2024-05-15T22:03:03.344;599616706255606064;15651.79;188
2024-05-15T22:03:03.352;599616706263297436;15659.481;152
2024-05-15T22:03:03.360;599616706270988808;15667.172;54
2024-05-15T22:03:03.367;599616706278680180;15674.863;-11
2024-05-15T22:03:03.375;599616706286371552;15682.555;-16
2024-05-15T22:03:03.383;599616706294062924;15690.246;135
2024-05-15T22:03:03.390;599616706301754296;15697.9375;573
2024-05-15T22:03:03.398;599616706309445668;15705.63;990
2024-05-15T22:03:03.406;599616706317137040;15713.321;823
2024-05-15T22:03:03.414;599616706324828420;15721.013;192
2024-05-15T22:03:03.421;599616706332519792;15728.703;-140
2024-05-15T22:03:03.429;599616706340211164;15736.395;-16
2024-05-15T22:03:03.437;599616706347902536;15744.086;33
2024-05-15T22:03:03.444;599616706355593908;15751.777;-71
2024-05-15T22:03:03.452;599616706363285280;15759.469;-59
2024-05-15T22:03:03.460;599616706370976652;15767.16;-2
2024-05-15T22:03:03.467;599616706378668024;15774.853;-35
2024-05-15T22:03:03.475;599616706386359396;15782.543;-83
2024-05-15T22:03:03.483;599616706394050768;15790.234;-61
2024-05-15T22:03:03.490;599616706401742140;15797.926;-26
2024-05-15T22:03:03.498;599616706409433512;15805.617;-35
2024-05-15T22:03:03.506;599616706417124884;15813.309;-35
2024-05-15T22:03:03.513;599616706424816256;15821.0;19
2024-05-15T22:03:03.521;599616706432507628;15828.691;38
2024-05-15T22:03:03.529;599616706440199000;15836.382;-35
2024-05-15T22:03:03.537;599616706447890372;15844.073;-104
2024-05-15T22:03:03.544;599616706455581744;15851.766;-83
2024-05-15T22:03:03.552;599616706463273116;15859.457;-14
2024-05-15T22:03:03.560;599616706470964488;15867.148;38
2024-05-15T22:03:03.567;599616706478655860;15874.84;66
2024-05-15T22:03:03.575;599616706486347232;15882.531;99
2024-05-15T22:03:03.583;599616706494038604;15890.222;114
2024-05-15T22:03:03.590;599616706501729976;15897.913;102
2024-05-15T22:03:03.598;599616706509421348;15905.6045;116
2024-05-15T22:03:03.606;599616706517112720;15913.296;161
2024-05-15T22:03:03.613;599616706524804092;15920.988;190
2024-05-15T22:03:03.621;599616706532495464;15928.68;185
2024-05-15T22:03:03.629;599616706540186836;15936.371;178
2024-05-15T22:03:03.637;599616706547878208;15944.062;178
2024-05-15T22:03:03.644;599616706555569580;15951.753;183
2024-05-15T22:03:03.652;599616706563260952;15959.444;192
2024-05-15T22:03:03.660;599616706570952324;15967.136;199
2024-05-15T22:03:03.667;599616706578643696;15974.827;204
