Phone timestamp;sensor timestamp [ns];timestamp [ms];ecg [uV]
2024-05-15T21:55:11.605;599616234515297604;0.0;1309
2024-05-15T21:55:11.612;599616234522989394;7.69179;1159
2024-05-15T21:55:11.620;599616234530681184;15.38358;1759
2024-05-15T21:55:11.628;599616234538372974;23.07537;3020
2024-05-15T21:55:11.635;599616234546064764;30.76716;3925
2024-05-15T21:55:11.643;599616234553756554;38.458954;4570
2024-05-15T21:55:11.651;599616234561448344;46.15074;5362
2024-05-15T21:55:11.658;599616234569140134;53.84253;6055
2024-05-15T21:55:11.666;599616234576831924;61.53432;6655
2024-05-15T21:55:11.674;599616234584523714;69.22611;7322
2024-05-15T21:55:11.681;599616234592215504;76.91791;7898
2024-05-15T21:55:11.689;599616234599907294;84.60969;8376
2024-05-15T21:55:11.697;599616234607599084;92.30148;8985
2024-05-15T21:55:11.704;599616234615290874;99.99327;9576
2024-05-15T21:55:11.712;599616234622982664;107.68506;9911
2024-05-15T21:55:11.720;599616234630674454;115.37685;10211
2024-05-15T21:55:11.728;599616234638366244;123.06864;10630
2024-05-15T21:55:11.735;599616234646058034;130.76044;11030
2024-05-15T21:55:11.743;599616234653749824;138.45222;11349
2024-05-15T21:55:11.751;599616234661441614;146.14401;11647
2024-05-15T21:55:11.758;599616234669133404;153.83582;12004
2024-05-15T21:55:11.766;599616234676825194;161.52759;12358
2024-05-15T21:55:11.774;599616234684516984;169.21938;12577
2024-05-15T21:55:11.781;599616234692208774;176.91116;12784
2024-05-15T21:55:11.789;599616234699900564;184.60297;13115
2024-05-15T21:55:11.797;599616234707592354;192.29475;13458
2024-05-15T21:55:11.804;599616234715284144;199.98654;13701
2024-05-15T21:55:11.812;599616234722975934;207.67833;13879
2024-05-15T21:55:11.820;599616234730667724;215.37012;14082
2024-05-15T21:55:11.828;599616234738359514;223.0619;14303
2024-05-15T21:55:11.835;599616234746051304;230.7537;14444
2024-05-15T21:55:11.843;599616234753743094;238.4455;14575
2024-05-15T21:55:11.851;599616234761434884;246.13728;14879
2024-05-15T21:55:11.858;599616234769126674;253.82907;15201
2024-05-15T21:55:11.866;599616234776818464;261.52087;15248
2024-05-15T21:55:11.874;599616234784510254;269.21265;15265
2024-05-15T21:55:11.881;599616234792202044;276.90445;15505
2024-05-15T21:55:11.889;599616234799893834;284.59622;15598
2024-05-15T21:55:11.897;599616234807585624;292.28802;15520
2024-05-15T21:55:11.904;599616234815277414;299.9798;15572
2024-05-15T21:55:11.912;599616234822969204;307.67163;15600
2024-05-15T21:55:11.920;599616234830660994;315.3634;15515
2024-05-15T21:55:11.928;599616234838352784;323.05518;15581
2024-05-15T21:55:11.935;599616234846044574;330.74698;16031
2024-05-15T21:55:11.943;599616234853736364;338.43875;16636
2024-05-15T21:55:11.951;599616234861428154;346.13055;16584
2024-05-15T21:55:11.958;599616234869119944;353.82233;15808
2024-05-15T21:55:11.966;599616234876811734;361.51413;15467
2024-05-15T21:55:11.974;599616234884503524;369.20593;15741
2024-05-15T21:55:11.981;599616234892195314;376.8977;15753
2024-05-15T21:55:11.989;599616234899887104;384.5895;15605
2024-05-15T21:55:11.997;599616234907578894;392.28128;15698
2024-05-15T21:55:12.004;599616234915270684;399.97308;15739
2024-05-15T21:55:12.012;599616234922962474;407.66486;15605
2024-05-15T21:55:12.020;599616234930654264;415.35666;15508
2024-05-15T21:55:12.028;599616234938346054;423.04846;15524
2024-05-15T21:55:12.035;599616234946037844;430.74023;15608
2024-05-15T21:55:12.043;599616234953729634;438.43204;15617
2024-05-15T21:55:12.051;599616234961421424;446.1238;15474
2024-05-15T21:55:12.058;599616234969113214;453.8156;15465
2024-05-15T21:55:12.066;599616234976805004;461.5074;15446
2024-05-15T21:55:12.074;599616234984496794;469.1992;15039
2024-05-15T21:55:12.081;599616234992188584;476.891;14789
2024-05-15T21:55:12.089;599616234999880374;484.5828;14908
2024-05-15T21:55:12.097;599616235007572164;492.27457;14839
2024-05-15T21:55:12.104;599616235015263954;499.96634;14615
2024-05-15T21:55:12.112;599616235022955744;507.65814;14558
2024-05-15T21:55:12.120;599616235030647534;515.3499;14620
2024-05-15T21:55:12.128;599616235038339324;523.04175;14629
2024-05-15T21:55:12.135;599616235046031114;530.7335;14508
2024-05-15T21:55:12.143;599616235053722904;538.4253;14341
2024-05-15T21:55:12.151;599616235061414694;546.1171;14315
2024-05-15T21:55:12.158;599616235069106484;553.8089;14332
2024-05-15T21:55:12.166;599616235076798286;561.5007;14191
2024-05-15T21:55:12.174;599616235084490076;569.19244;14065
2024-05-15T21:55:12.181;599616235092181866;576.8843;14058
2024-05-15T21:55:12.189;599616235099873656;584.57605;14044
2024-05-15T21:55:12.197;599616235107565446;592.2678;13982
2024-05-15T21:55:12.204;599616235115257236;599.9596;13803
2024-05-15T21:55:12.212;599616235122949026;607.65137;13618
2024-05-15T21:55:12.220;599616235130640816;615.34326;13594
2024-05-15T21:55:12.228;599616235138332606;623.03503;13430
2024-05-15T21:55:12.235;599616235146024396;630.7268;13115
2024-05-15T21:55:12.243;599616235153716186;638.4186;13099
2024-05-15T21:55:12.251;599616235161407976;646.1104;13044
2024-05-15T21:55:12.258;599616235169099766;653.8022;12575
2024-05-15T21:55:12.266;599616235176791556;661.49396;12289
2024-05-15T21:55:12.274;599616235184483346;669.1857;12418
2024-05-15T21:55:12.281;599616235192175136;676.8775;12625
2024-05-15T21:55:12.289;599616235199866926;684.56934;12801
2024-05-15T21:55:12.297;599616235207558716;692.2611;12663
2024-05-15T21:55:12.304;599616235215250506;699.9529;12056
2024-05-15T21:55:12.312;599616235222942296;707.64465;11561
2024-05-15T21:55:12.320;599616235230634086;715.3365;11490
2024-05-15T21:55:12.328;599616235238325876;723.02826;11449
2024-05-15T21:55:12.335;599616235246017666;730.7201;11340
2024-05-15T21:55:12.343;599616235253709456;738.41187;11302
2024-05-15T21:55:12.351;599616235261401246;746.10364;11247
2024-05-15T21:55:12.358;599616235269093036;753.7955;11194
2024-05-15T21:55:12.366;599616235276784826;761.48724;11154
2024-05-15T21:55:12.374;599616235284476616;769.179;10994
2024-05-15T21:55:12.381;599616235292168406;776.8708;10856
2024-05-15T21:55:12.389;599616235299860196;784.56256;10816
2024-05-15T21:55:12.397;599616235307551986;792.2544;10656
2024-05-15T21:55:12.404;599616235315243776;799.94617;10461
2024-05-15T21:55:12.412;599616235322935566;807.63794;10378
2024-05-15T21:55:12.420;599616235330627356;815.3297;10264
2024-05-15T21:55:12.428;599616235338319146;823.02155;10114
2024-05-15T21:55:12.435;599616235346010936;830.7133;10042
2024-05-15T21:55:12.443;599616235353702726;838.4051;9954
2024-05-15T21:55:12.451;599616235361394516;846.0969;9809
2024-05-15T21:55:12.458;599616235369086306;853.7887;9721
2024-05-15T21:55:12.466;599616235376778096;861.4805;9633
2024-05-15T21:55:12.474;599616235384469886;869.1723;9538
2024-05-15T21:55:12.481;599616235392161676;876.8641;9535
2024-05-15T21:55:12.489;599616235399853466;884.55585;9526
2024-05-15T21:55:12.497;599616235407545256;892.2477;9440
2024-05-15T21:55:12.504;599616235415237046;899.93945;9366
2024-05-15T21:55:12.512;599616235422928836;907.6312;9297
2024-05-15T21:55:12.520;599616235430620626;915.323;9185
2024-05-15T21:55:12.528;599616235438312416;923.0148;9081
2024-05-15T21:55:12.535;599616235446004206;930.7066;9066
2024-05-15T21:55:12.543;599616235453695996;938.3984;9100
2024-05-15T21:55:12.551;599616235461387786;946.09015;8997
2024-05-15T21:55:12.558;599616235469079576;953.782;8866
2024-05-15T21:55:12.566;599616235476771366;961.4738;8812
2024-05-15T21:55:12.574;599616235484463156;969.1656;8562
2024-05-15T21:55:12.581;599616235492154946;976.85736;8286
2024-05-15T21:55:12.589;599616235499846736;984.54913;8274
2024-05-15T21:55:12.597;599616235507538526;992.2409;8245
2024-05-15T21:55:12.604;599616235515230316;999.93274;8026
2024-05-15T21:55:12.612;599616235522922106;1007.6245;7826
2024-05-15T21:55:12.620;599616235530613896;1015.3163;7862
2024-05-15T21:55:12.628;599616235538305686;1023.00806;8262
2024-05-15T21:55:12.635;599616235545997476;1030.7;8776
2024-05-15T21:55:12.643;599616235553689266;1038.3917;8721
2024-05-15T21:55:12.651;599616235561381056;1046.0835;8028
2024-05-15T21:55:12.658;599616235569072846;1053.7753;7562
2024-05-15T21:55:12.666;599616235576764636;1061.467;7612
2024-05-15T21:55:12.674;599616235584456426;1069.1588;7598
2024-05-15T21:55:12.681;599616235592148216;1076.8506;7469
2024-05-15T21:55:12.689;599616235599840006;1084.5425;7398
2024-05-15T21:55:12.697;599616235607531796;1092.2343;7200
2024-05-15T21:55:12.704;599616235615223586;1099.926;7014
2024-05-15T21:55:12.712;599616235622915376;1107.6178;7026
2024-05-15T21:55:12.720;599616235630607166;1115.3096;7095
2024-05-15T21:55:12.728;599616235638298968;1123.0013;7114
2024-05-15T21:55:12.735;599616235645990758;1130.6931;7010
2024-05-15T21:55:12.743;599616235653682548;1138.3849;6860
2024-05-15T21:55:12.751;599616235661374338;1146.0767;6853
2024-05-15T21:55:12.758;599616235669066128;1153.7686;6860
2024-05-15T21:55:12.766;599616235676757918;1161.4603;6729
2024-05-15T21:55:12.774;599616235684449708;1169.1521;6615
2024-05-15T21:55:12.781;599616235692141498;1176.8439;6586
2024-05-15T21:55:12.789;599616235699833288;1184.5356;6455
2024-05-15T21:55:12.797;599616235707525078;1192.2274;6205
2024-05-15T21:55:12.804;599616235715216868;1199.9192;6129
2024-05-15T21:55:12.812;599616235722908658;1207.611;6243
2024-05-15T21:55:12.820;599616235730600448;1215.3027;6234
2024-05-15T21:55:12.827;599616235738292238;1222.9946;6072
2024-05-15T21:55:12.835;599616235745984028;1230.6865;5989
2024-05-15T21:55:12.843;599616235753675818;1238.3783;6003
2024-05-15T21:55:12.851;599616235761367608;1246.0701;5950
2024-05-15T21:55:12.858;599616235769059398;1253.7618;5848
2024-05-15T21:55:12.866;599616235776751188;1261.4536;5831
2024-05-15T21:55:12.874;599616235784442978;1269.1454;5834
2024-05-15T21:55:12.881;599616235792134768;1276.8372;5743
2024-05-15T21:55:12.889;599616235799826558;1284.5289;5617
2024-05-15T21:55:12.897;599616235807518348;1292.2208;5524
2024-05-15T21:55:12.904;599616235815210138;1299.9126;5439
2024-05-15T21:55:12.912;599616235822901928;1307.6044;5267
2024-05-15T21:55:12.920;599616235830593718;1315.2961;5072
2024-05-15T21:55:12.927;599616235838285508;1322.9879;4996
2024-05-15T21:55:12.935;599616235845977298;1330.6797;4908
2024-05-15T21:55:12.943;599616235853669088;1338.3715;4703
2024-05-15T21:55:12.951;599616235861360878;1346.0632;4539
2024-05-15T21:55:12.958;599616235869052668;1353.755;4458
2024-05-15T21:55:12.966;599616235876744458;1361.4469;4479
2024-05-15T21:55:12.974;599616235884436248;1369.1387;4801
2024-05-15T21:55:12.981;599616235892128038;1376.8304;5253
2024-05-15T21:55:12.989;599616235899819828;1384.5222;5208
2024-05-15T21:55:12.997;599616235907511618;1392.214;4577
2024-05-15T21:55:13.004;599616235915203408;1399.9058;4118
2024-05-15T21:55:13.012;599616235922895198;1407.5975;4153
2024-05-15T21:55:13.020;599616235930586988;1415.2893;4206
2024-05-15T21:55:13.027;599616235938278778;1422.9811;4118
2024-05-15T21:55:13.035;599616235945970568;1430.673;4098
2024-05-15T21:55:13.043;599616235953662358;1438.3647;4120
2024-05-15T21:55:13.051;599616235961354148;1446.0565;4101
2024-05-15T21:55:13.058;599616235969045938;1453.7483;4058
2024-05-15T21:55:13.066;599616235976737728;1461.4402;4029
2024-05-15T21:55:13.074;599616235984429518;1469.132;3958
2024-05-15T21:55:13.081;599616235992121308;1476.8237;3768
2024-05-15T21:55:13.089;599616235999813098;1484.5155;3630
2024-05-15T21:55:13.097;599616236007504888;1492.2073;3608
2024-05-15T21:55:13.104;599616236015196678;1499.8992;3553
2024-05-15T21:55:13.112;599616236022888468;1507.591;3477
2024-05-15T21:55:13.120;599616236030580258;1515.2827;3449
2024-05-15T21:55:13.127;599616236038272048;1522.9745;3408
2024-05-15T21:55:13.135;599616236045963838;1530.6663;3392
2024-05-15T21:55:13.143;599616236053655628;1538.358;3442
2024-05-15T21:55:13.151;599616236061347418;1546.0498;3442
2024-05-15T21:55:13.158;599616236069039208;1553.7416;3370
2024-05-15T21:55:13.166;599616236076730998;1561.4333;3346
2024-05-15T21:55:13.174;599616236084422788;1569.1251;3353
2024-05-15T21:55:13.181;599616236092114578;1576.817;3303
2024-05-15T21:55:13.189;599616236099806368;1584.5088;3218
2024-05-15T21:55:13.197;599616236107498158;1592.2006;3173
2024-05-15T21:55:13.204;599616236115189948;1599.8923;3142
2024-05-15T21:55:13.212;599616236122881738;1607.5841;3070
2024-05-15T21:55:13.220;599616236130573528;1615.2759;3004
2024-05-15T21:55:13.227;599616236138265318;1622.9677;2970
2024-05-15T21:55:13.235;599616236145957108;1630.6594;2906
2024-05-15T21:55:13.243;599616236153648898;1638.3512;2823
2024-05-15T21:55:13.251;599616236161340688;1646.0431;2761
2024-05-15T21:55:13.258;599616236169032478;1653.7349;2708
2024-05-15T21:55:13.266;599616236176724268;1661.4266;2656
2024-05-15T21:55:13.274;599616236184416058;1669.1184;2613
2024-05-15T21:55:13.281;599616236192107848;1676.8102;2596
2024-05-15T21:55:13.289;599616236199799650;1684.5021;2561
2024-05-15T21:55:13.297;599616236207491440;1692.1938;2420
2024-05-15T21:55:13.304;599616236215183230;1699.8856;2285
2024-05-15T21:55:13.312;599616236222875020;1707.5775;2485
2024-05-15T21:55:13.320;599616236230566810;1715.2693;3023
2024-05-15T21:55:13.327;599616236238258600;1722.961;3349
2024-05-15T21:55:13.335;599616236245950390;1730.6528;2975
2024-05-15T21:55:13.343;599616236253642180;1738.3446;2287
2024-05-15T21:55:13.351;599616236261333970;1746.0364;2070
2024-05-15T21:55:13.358;599616236269025760;1753.7281;2144
2024-05-15T21:55:13.366;599616236276717550;1761.4199;1985
2024-05-15T21:55:13.374;599616236284409340;1769.1117;1863
2024-05-15T21:55:13.381;599616236292101130;1776.8036;1928
2024-05-15T21:55:13.389;599616236299792920;1784.4954;1892
2024-05-15T21:55:13.397;599616236307484710;1792.1871;1811
2024-05-15T21:55:13.404;599616236315176500;1799.8789;1844
2024-05-15T21:55:13.412;599616236322868290;1807.5707;1873
2024-05-15T21:55:13.420;599616236330560080;1815.2625;1809
2024-05-15T21:55:13.427;599616236338251870;1822.9542;1699
2024-05-15T21:55:13.435;599616236345943660;1830.646;1637
2024-05-15T21:55:13.443;599616236353635450;1838.3378;1637
2024-05-15T21:55:13.451;599616236361327240;1846.0297;1611
2024-05-15T21:55:13.458;599616236369019030;1853.7214;1566
2024-05-15T21:55:13.466;599616236376710820;1861.4132;1556
2024-05-15T21:55:13.474;599616236384402610;1869.105;1521
2024-05-15T21:55:13.481;599616236392094400;1876.7968;1449
2024-05-15T21:55:13.489;599616236399786190;1884.4885;1456
2024-05-15T21:55:13.497;599616236407477980;1892.1803;1530
2024-05-15T21:55:13.504;599616236415169770;1899.8721;1568
2024-05-15T21:55:13.512;599616236422861560;1907.564;1582
2024-05-15T21:55:13.520;599616236430553350;1915.2559;1606
2024-05-15T21:55:13.527;599616236438245140;1922.9476;1628
2024-05-15T21:55:13.535;599616236445936930;1930.6394;1640
2024-05-15T21:55:13.543;599616236453628720;1938.3312;1651
2024-05-15T21:55:13.551;599616236461320510;1946.023;1675
2024-05-15T21:55:13.558;599616236469012300;1953.7147;1716
2024-05-15T21:55:13.566;599616236476704090;1961.4065;1716
2024-05-15T21:55:13.574;599616236484395880;1969.0983;1611
2024-05-15T21:55:13.581;599616236492087670;1976.79;1490
2024-05-15T21:55:13.589;599616236499779460;1984.4818;1463
2024-05-15T21:55:13.597;599616236507471250;1992.1737;1432
2024-05-15T21:55:13.604;599616236515163040;1999.8655;1359
2024-05-15T21:55:13.612;599616236522854830;2007.5573;1344
2024-05-15T21:55:13.620;599616236530546620;2015.249;1363
2024-05-15T21:55:13.627;599616236538238410;2022.9408;1352
2024-05-15T21:55:13.635;599616236545930200;2030.6326;1311
2024-05-15T21:55:13.643;599616236553621990;2038.3243;1240
2024-05-15T21:55:13.651;599616236561313780;2046.0161;1190
2024-05-15T21:55:13.658;599616236569005570;2053.708;1373
2024-05-15T21:55:13.666;599616236576697360;2061.4;1851
2024-05-15T21:55:13.674;599616236584389150;2069.0916;2161
2024-05-15T21:55:13.681;599616236592080940;2076.7834;1854
2024-05-15T21:55:13.689;599616236599772730;2084.475;1302
2024-05-15T21:55:13.697;599616236607464520;2092.167;1144
2024-05-15T21:55:13.704;599616236615156310;2099.8586;1244
2024-05-15T21:55:13.712;599616236622848100;2107.5505;1213
2024-05-15T21:55:13.720;599616236630539890;2115.2422;1173
2024-05-15T21:55:13.727;599616236638231680;2122.934;1244
2024-05-15T21:55:13.735;599616236645923470;2130.626;1283
2024-05-15T21:55:13.743;599616236653615260;2138.3176;1254
2024-05-15T21:55:13.751;599616236661307050;2146.0095;1216
2024-05-15T21:55:13.758;599616236668998840;2153.7012;1164
2024-05-15T21:55:13.766;599616236676690630;2161.393;1102
2024-05-15T21:55:13.774;599616236684382420;2169.085;1044
2024-05-15T21:55:13.781;599616236692074210;2176.7766;999
2024-05-15T21:55:13.789;599616236699766000;2184.4685;952
2024-05-15T21:55:13.797;599616236707457790;2192.1602;909
2024-05-15T21:55:13.804;599616236715149580;2199.852;885
2024-05-15T21:55:13.812;599616236722841370;2207.5437;866
2024-05-15T21:55:13.820;599616236730533160;2215.2356;856
2024-05-15T21:55:13.827;599616236738224950;2222.9272;873
2024-05-15T21:55:13.835;599616236745916740;2230.6191;902
2024-05-15T21:55:13.843;599616236753608530;2238.3108;897
2024-05-15T21:55:13.850;599616236761270236;2245.9727;878
2024-05-15T21:55:13.858;599616236768962444;2253.6648;911
2024-05-15T21:55:13.866;599616236776654652;2261.3572;961
2024-05-15T21:55:13.874;599616236784346860;2269.0493;973
2024-05-15T21:55:13.881;599616236792039068;2276.7415;978
2024-05-15T21:55:13.889;599616236799731276;2284.4336;992
2024-05-15T21:55:13.897;599616236807423484;2292.126;961
2024-05-15T21:55:13.904;599616236815115692;2299.8179;921
2024-05-15T21:55:13.912;599616236822807900;2307.5103;966
2024-05-15T21:55:13.920;599616236830500108;2315.2026;997
2024-05-15T21:55:13.927;599616236838192316;2322.8945;949
2024-05-15T21:55:13.935;599616236845884524;2330.587;911
2024-05-15T21:55:13.943;599616236853576732;2338.279;918
2024-05-15T21:55:13.950;599616236861268940;2345.9714;971
2024-05-15T21:55:13.958;599616236868961148;2353.6636;1040
2024-05-15T21:55:13.966;599616236876653356;2361.3557;1068
2024-05-15T21:55:13.974;599616236884345564;2369.048;1104
2024-05-15T21:55:13.981;599616236892037772;2376.74;1147
2024-05-15T21:55:13.989;599616236899729980;2384.4324;1099
2024-05-15T21:55:13.997;599616236907422188;2392.1248;1037
2024-05-15T21:55:14.004;599616236915114396;2399.8167;1261
2024-05-15T21:55:14.012;599616236922806604;2407.509;1794
2024-05-15T21:55:14.020;599616236930498812;2415.2012;2125
2024-05-15T21:55:14.027;599616236938191020;2422.8933;1820
2024-05-15T21:55:14.035;599616236945883228;2430.5857;1261
2024-05-15T21:55:14.043;599616236953575436;2438.2778;1080
2024-05-15T21:55:14.050;599616236961267644;2445.97;1152
2024-05-15T21:55:14.058;599616236968959852;2453.662;1109
2024-05-15T21:55:14.066;599616236976652060;2461.3545;1066
2024-05-15T21:55:14.074;599616236984344268;2469.0469;1104
2024-05-15T21:55:14.081;599616236992036476;2476.7388;1054
2024-05-15T21:55:14.089;599616236999728684;2484.4312;925
2024-05-15T21:55:14.097;599616237007420892;2492.1233;885
2024-05-15T21:55:14.104;599616237015113100;2499.8154;916
2024-05-15T21:55:14.112;599616237022805308;2507.5078;880
2024-05-15T21:55:14.120;599616237030497516;2515.2;830
2024-05-15T21:55:14.127;599616237038189724;2522.892;868
2024-05-15T21:55:14.135;599616237045881932;2530.5842;911
2024-05-15T21:55:14.143;599616237053574140;2538.2766;885
2024-05-15T21:55:14.150;599616237061266348;2545.9688;854
2024-05-15T21:55:14.158;599616237068958556;2553.661;852
2024-05-15T21:55:14.166;599616237076650764;2561.3533;790
2024-05-15T21:55:14.174;599616237084342972;2569.0452;671
2024-05-15T21:55:14.181;599616237092035180;2576.7375;623
2024-05-15T21:55:14.189;599616237099727388;2584.43;637
2024-05-15T21:55:14.197;599616237107419596;2592.122;626
2024-05-15T21:55:14.204;599616237115111804;2599.8142;604
2024-05-15T21:55:14.212;599616237122804012;2607.5063;604
2024-05-15T21:55:14.220;599616237130496220;2615.1987;609
2024-05-15T21:55:14.227;599616237138188428;2622.8909;628
2024-05-15T21:55:14.235;599616237145880636;2630.583;652
2024-05-15T21:55:14.243;599616237153572844;2638.2754;656
2024-05-15T21:55:14.250;599616237161265052;2645.9673;649
2024-05-15T21:55:14.258;599616237168957260;2653.6597;606
2024-05-15T21:55:14.266;599616237176649468;2661.352;547
2024-05-15T21:55:14.274;599616237184341676;2669.044;533
2024-05-15T21:55:14.281;599616237192033884;2676.7363;526
2024-05-15T21:55:14.289;599616237199726092;2684.4285;468
2024-05-15T21:55:14.297;599616237207418300;2692.1206;426
2024-05-15T21:55:14.304;599616237215110508;2699.8127;428
2024-05-15T21:55:14.312;599616237222802716;2707.5051;430
2024-05-15T21:55:14.320;599616237230494924;2715.1975;430
2024-05-15T21:55:14.327;599616237238187132;2722.8894;437
2024-05-15T21:55:14.335;599616237245879340;2730.5818;421
2024-05-15T21:55:14.343;599616237253571548;2738.2742;376
2024-05-15T21:55:14.350;599616237261263756;2745.966;449
2024-05-15T21:55:14.358;599616237268955964;2753.6584;823
2024-05-15T21:55:14.366;599616237276648172;2761.3506;1240
2024-05-15T21:55:14.374;599616237284340380;2769.0427;1135
2024-05-15T21:55:14.381;599616237292032588;2776.7349;654
2024-05-15T21:55:14.389;599616237299724796;2784.4272;487
2024-05-15T21:55:14.397;599616237307417004;2792.1194;614
2024-05-15T21:55:14.404;599616237315109212;2799.8115;597
2024-05-15T21:55:14.412;599616237322861626;2807.564;526
2024-05-15T21:55:14.420;599616237330552998;2815.2554;602
2024-05-15T21:55:14.427;599616237338244370;2822.9468;735
2024-05-15T21:55:14.435;599616237345935742;2830.6382;806
2024-05-15T21:55:14.443;599616237353627114;2838.3296;790
2024-05-15T21:55:14.451;599616237361318486;2846.0208;747
2024-05-15T21:55:14.458;599616237369009858;2853.7122;733
2024-05-15T21:55:14.466;599616237376701230;2861.4036;716
2024-05-15T21:55:14.474;599616237384392602;2869.095;683
2024-05-15T21:55:14.481;599616237392083974;2876.7864;680
2024-05-15T21:55:14.489;599616237399775346;2884.4778;745
2024-05-15T21:55:14.497;599616237407466718;2892.1692;885
2024-05-15T21:55:14.504;599616237415158090;2899.8606;1025
2024-05-15T21:55:14.512;599616237422849462;2907.5518;1097
2024-05-15T21:55:14.520;599616237430540834;2915.2432;1123
2024-05-15T21:55:14.527;599616237438232206;2922.9346;1130
2024-05-15T21:55:14.535;599616237445923578;2930.626;1156
2024-05-15T21:55:14.543;599616237453614950;2938.3174;1247
2024-05-15T21:55:14.551;599616237461306322;2946.0088;1347
2024-05-15T21:55:14.558;599616237468997694;2953.7002;1421
2024-05-15T21:55:14.566;599616237476689066;2961.3914;1518
2024-05-15T21:55:14.574;599616237484380438;2969.0828;1628
2024-05-15T21:55:14.581;599616237492071810;2976.7742;1694
2024-05-15T21:55:14.589;599616237499763182;2984.4656;1694
2024-05-15T21:55:14.597;599616237507454554;2992.157;1640
2024-05-15T21:55:14.604;599616237515145926;2999.8484;1611
2024-05-15T21:55:14.612;599616237522837298;3007.5398;1609
2024-05-15T21:55:14.620;599616237530528670;3015.231;1573
2024-05-15T21:55:14.627;599616237538220042;3022.9226;1528
2024-05-15T21:55:14.635;599616237545911414;3030.6138;1518
2024-05-15T21:55:14.643;599616237553602786;3038.3052;1521
2024-05-15T21:55:14.650;599616237561294158;3045.9966;1532
2024-05-15T21:55:14.658;599616237568985530;3053.6877;1502
2024-05-15T21:55:14.666;599616237576676902;3061.3794;1335
2024-05-15T21:55:14.674;599616237584368274;3069.0706;1104
2024-05-15T21:55:14.681;599616237592059646;3076.7622;935
2024-05-15T21:55:14.689;599616237599751018;3084.4534;780
2024-05-15T21:55:14.697;599616237607442390;3092.1448;668
2024-05-15T21:55:14.704;599616237615133762;3099.8362;821
2024-05-15T21:55:14.712;599616237622825134;3107.5273;1218
2024-05-15T21:55:14.720;599616237630516506;3115.219;1423
2024-05-15T21:55:14.727;599616237638207878;3122.9102;1123
2024-05-15T21:55:14.735;599616237645899250;3130.6018;740
2024-05-15T21:55:14.743;599616237653590622;3138.293;726
2024-05-15T21:55:14.750;599616237661281994;3145.9846;792
2024-05-15T21:55:14.758;599616237668973366;3153.6758;687
2024-05-15T21:55:14.766;599616237676664738;3161.367;609
2024-05-15T21:55:14.774;599616237684356110;3169.0586;626
2024-05-15T21:55:14.781;599616237692047482;3176.7498;676
2024-05-15T21:55:14.789;599616237699738854;3184.4414;756
2024-05-15T21:55:14.797;599616237707430226;3192.1326;795
2024-05-15T21:55:14.804;599616237715121598;3199.824;761
2024-05-15T21:55:14.812;599616237722812970;3207.5154;714
2024-05-15T21:55:14.820;599616237730504342;3215.2065;654
2024-05-15T21:55:14.827;599616237738195714;3222.8982;606
2024-05-15T21:55:14.835;599616237745887086;3230.5894;614
2024-05-15T21:55:14.843;599616237753578458;3238.281;597
2024-05-15T21:55:14.850;599616237761269830;3245.9722;509
2024-05-15T21:55:14.858;599616237768961202;3253.6636;442
2024-05-15T21:55:14.866;599616237776652574;3261.355;445
2024-05-15T21:55:14.874;599616237784343946;3269.0464;492
2024-05-15T21:55:14.881;599616237792035318;3276.7378;528
2024-05-15T21:55:14.889;599616237799726690;3284.429;504
2024-05-15T21:55:14.897;599616237807418062;3292.1206;452
2024-05-15T21:55:14.904;599616237815109434;3299.8118;366
2024-05-15T21:55:14.912;599616237822800806;3307.5032;283
2024-05-15T21:55:14.920;599616237830492178;3315.1946;261
2024-05-15T21:55:14.927;599616237838183550;3322.886;238
2024-05-15T21:55:14.935;599616237845874922;3330.5774;216
2024-05-15T21:55:14.943;599616237853566294;3338.2686;211
2024-05-15T21:55:14.950;599616237861257666;3345.96;133
2024-05-15T21:55:14.958;599616237868949038;3353.6514;61
2024-05-15T21:55:14.966;599616237876640410;3361.3428;80
2024-05-15T21:55:14.974;599616237884301696;3369.0042;57
2024-05-15T21:55:14.981;599616237891993486;3376.6958;-4
2024-05-15T21:55:14.989;599616237899685276;3384.3877;-7
2024-05-15T21:55:14.997;599616237907377066;3392.0793;-19
2024-05-15T21:55:15.004;599616237915068856;3399.7712;-116
2024-05-15T21:55:15.012;599616237922760646;3407.4631;-228
2024-05-15T21:55:15.020;599616237930452436;3415.155;-252
2024-05-15T21:55:15.027;599616237938144226;3422.8467;-228
2024-05-15T21:55:15.035;599616237945836016;3430.5386;-292
2024-05-15T21:55:15.043;599616237953527806;3438.2302;-426
2024-05-15T21:55:15.050;599616237961219596;3445.922;-361
2024-05-15T21:55:15.058;599616237968911386;3453.6138;85
2024-05-15T21:55:15.066;599616237976603176;3461.3057;621
2024-05-15T21:55:15.073;599616237984294966;3468.9973;666
2024-05-15T21:55:15.081;599616237991986756;3476.6892;126
2024-05-15T21:55:15.089;599616237999678546;3484.3809;-323
2024-05-15T21:55:15.097;599616238007370336;3492.0728;-297
2024-05-15T21:55:15.104;599616238015062126;3499.7644;-216
2024-05-15T21:55:15.112;599616238022753916;3507.4563;-240
2024-05-15T21:55:15.120;599616238030445706;3515.148;-164
2024-05-15T21:55:15.127;599616238038137496;3522.8398;-83
2024-05-15T21:55:15.135;599616238045829286;3530.5315;-85
2024-05-15T21:55:15.143;599616238053521076;3538.2234;-76
2024-05-15T21:55:15.150;599616238061212866;3545.915;-73
2024-05-15T21:55:15.158;599616238068904656;3553.6072;-73
2024-05-15T21:55:15.166;599616238076596446;3561.2988;-7
2024-05-15T21:55:15.173;599616238084288236;3568.9907;54
2024-05-15T21:55:15.181;599616238091980026;3576.6826;35
2024-05-15T21:55:15.189;599616238099671816;3584.3743;9
2024-05-15T21:55:15.197;599616238107363606;3592.0662;49
2024-05-15T21:55:15.204;599616238115055396;3599.7578;104
2024-05-15T21:55:15.212;599616238122747186;3607.4497;102
2024-05-15T21:55:15.220;599616238130438976;3615.1414;73
2024-05-15T21:55:15.227;599616238138130766;3622.8333;78
2024-05-15T21:55:15.235;599616238145822556;3630.525;123
2024-05-15T21:55:15.243;599616238153514346;3638.2168;173
2024-05-15T21:55:15.250;599616238161206136;3645.9084;197
2024-05-15T21:55:15.258;599616238168897926;3653.6003;226
2024-05-15T21:55:15.266;599616238176589716;3661.292;271
2024-05-15T21:55:15.273;599616238184281506;3668.984;278
2024-05-15T21:55:15.281;599616238191973296;3676.6755;276
2024-05-15T21:55:15.289;599616238199665086;3684.3674;323
2024-05-15T21:55:15.297;599616238207356876;3692.0593;373
2024-05-15T21:55:15.304;599616238215048666;3699.7512;376
2024-05-15T21:55:15.312;599616238222740456;3707.4429;359
2024-05-15T21:55:15.320;599616238230432246;3715.1348;371
2024-05-15T21:55:15.327;599616238238124036;3722.8264;399
2024-05-15T21:55:15.335;599616238245815826;3730.5183;421
2024-05-15T21:55:15.343;599616238253507616;3738.21;452
2024-05-15T21:55:15.350;599616238261199406;3745.9019;497
2024-05-15T21:55:15.358;599616238268891196;3753.5935;542
2024-05-15T21:55:15.366;599616238276582986;3761.2854;542
2024-05-15T21:55:15.373;599616238284274776;3768.977;528
2024-05-15T21:55:15.381;599616238291966566;3776.669;554
2024-05-15T21:55:15.389;599616238299658356;3784.3606;533
2024-05-15T21:55:15.397;599616238307350146;3792.0525;447
2024-05-15T21:55:15.404;599616238315041936;3799.7441;602
2024-05-15T21:55:15.412;599616238322733726;3807.436;1156
2024-05-15T21:55:15.420;599616238330425516;3815.128;1623
2024-05-15T21:55:15.427;599616238338117306;3822.8196;1399
2024-05-15T21:55:15.435;599616238345809096;3830.5117;747
2024-05-15T21:55:15.443;599616238353500886;3838.2034;473
2024-05-15T21:55:15.450;599616238361192676;3845.8953;580
2024-05-15T21:55:15.458;599616238368884466;3853.587;523
2024-05-15T21:55:15.466;599616238376576256;3861.2788;399
2024-05-15T21:55:15.473;599616238384268046;3868.9705;435
2024-05-15T21:55:15.481;599616238391959836;3876.6624;428
2024-05-15T21:55:15.489;599616238399651626;3884.354;347
2024-05-15T21:55:15.497;599616238407343416;3892.046;345
2024-05-15T21:55:15.504;599616238415035206;3899.7375;383
2024-05-15T21:55:15.512;599616238422726996;3907.4294;397
2024-05-15T21:55:15.520;599616238430418786;3915.121;433
2024-05-15T21:55:15.527;599616238438110576;3922.813;495
2024-05-15T21:55:15.535;599616238445802378;3930.5046;573
2024-05-15T21:55:15.543;599616238453494168;3938.1965;642
2024-05-15T21:55:15.550;599616238461185958;3945.8882;659
2024-05-15T21:55:15.558;599616238468877748;3953.58;659
2024-05-15T21:55:15.566;599616238476569538;3961.2717;699
2024-05-15T21:55:15.573;599616238484261328;3968.9639;733
2024-05-15T21:55:15.581;599616238491953118;3976.6555;745
2024-05-15T21:55:15.589;599616238499644908;3984.3474;818
2024-05-15T21:55:15.597;599616238507336698;3992.039;930
2024-05-15T21:55:15.604;599616238515028488;3999.731;959
2024-05-15T21:55:15.612;599616238522720278;4007.4226;904
2024-05-15T21:55:15.620;599616238530412068;4015.1145;887
2024-05-15T21:55:15.627;599616238538103858;4022.8062;914
2024-05-15T21:55:15.635;599616238545795648;4030.498;866
2024-05-15T21:55:15.643;599616238553487438;4038.19;735
2024-05-15T21:55:15.650;599616238561179228;4045.8816;616
2024-05-15T21:55:15.658;599616238568871018;4053.5735;573
2024-05-15T21:55:15.666;599616238576562808;4061.2651;518
2024-05-15T21:55:15.673;599616238584254598;4068.957;414
2024-05-15T21:55:15.681;599616238591946388;4076.6487;359
2024-05-15T21:55:15.689;599616238599638178;4084.3406;342
2024-05-15T21:55:15.697;599616238607329968;4092.0322;283
2024-05-15T21:55:15.704;599616238615021758;4099.724;233
2024-05-15T21:55:15.712;599616238622713548;4107.416;235
2024-05-15T21:55:15.720;599616238630405338;4115.108;235
2024-05-15T21:55:15.727;599616238638097128;4122.8;199
2024-05-15T21:55:15.735;599616238645788918;4130.491;128
2024-05-15T21:55:15.743;599616238653480708;4138.183;35
2024-05-15T21:55:15.750;599616238661172498;4145.875;59
2024-05-15T21:55:15.758;599616238668864288;4153.567;395
2024-05-15T21:55:15.766;599616238676556078;4161.2583;937
2024-05-15T21:55:15.773;599616238684247868;4168.95;1159
2024-05-15T21:55:15.781;599616238691939658;4176.642;714
2024-05-15T21:55:15.789;599616238699631448;4184.334;119
2024-05-15T21:55:15.797;599616238707323238;4192.0254;33
2024-05-15T21:55:15.804;599616238715015028;4199.7173;171
2024-05-15T21:55:15.812;599616238722706818;4207.409;121
2024-05-15T21:55:15.820;599616238730398608;4215.101;59
2024-05-15T21:55:15.827;599616238738090398;4222.7925;45
2024-05-15T21:55:15.835;599616238745782188;4230.4844;2
2024-05-15T21:55:15.843;599616238753473978;4238.1763;-11
2024-05-15T21:55:15.850;599616238761165768;4245.868;2
2024-05-15T21:55:15.858;599616238768857558;4253.56;0
2024-05-15T21:55:15.866;599616238776549348;4261.252;-14
2024-05-15T21:55:15.873;599616238784241138;4268.944;-38
2024-05-15T21:55:15.881;599616238791932928;4276.6353;-71
2024-05-15T21:55:15.889;599616238799624718;4284.327;-109
2024-05-15T21:55:15.897;599616238807316508;4292.019;-135
2024-05-15T21:55:15.904;599616238815008298;4299.7104;-121
2024-05-15T21:55:15.912;599616238822700088;4307.4023;-121
2024-05-15T21:55:15.920;599616238830391878;4315.0947;-135
2024-05-15T21:55:15.927;599616238838083668;4322.786;-97
2024-05-15T21:55:15.935;599616238845775458;4330.478;-42
2024-05-15T21:55:15.943;599616238853467248;4338.17;-19
2024-05-15T21:55:15.950;599616238861159038;4345.862;38
2024-05-15T21:55:15.958;599616238868850828;4353.553;130
2024-05-15T21:55:15.966;599616238876542618;4361.245;180
2024-05-15T21:55:15.973;599616238884234408;4368.937;209
2024-05-15T21:55:15.981;599616238891926198;4376.629;218
2024-05-15T21:55:15.989;599616238899617988;4384.3203;161
2024-05-15T21:55:15.997;599616238907309778;4392.012;59
2024-05-15T21:55:16.004;599616238915001568;4399.704;-30
2024-05-15T21:55:16.012;599616238922693358;4407.396;-73
2024-05-15T21:55:16.020;599616238930385148;4415.0874;-64
2024-05-15T21:55:16.027;599616238938076938;4422.7793;-61
2024-05-15T21:55:16.035;599616238945768728;4430.471;-73
2024-05-15T21:55:16.043;599616238953460518;4438.163;-73
2024-05-15T21:55:16.050;599616238961152308;4445.8545;-85
2024-05-15T21:55:16.058;599616238968844098;4453.5464;-109
2024-05-15T21:55:16.066;599616238976535888;4461.2383;-78
2024-05-15T21:55:16.073;599616238984227678;4468.93;0
2024-05-15T21:55:16.081;599616238991919468;4476.6216;35
2024-05-15T21:55:16.089;599616238999611258;4484.3135;-9
2024-05-15T21:55:16.097;599616239007303060;4492.0054;-90
2024-05-15T21:55:16.104;599616239014994850;4499.6973;4
2024-05-15T21:55:16.112;599616239022686640;4507.389;433
2024-05-15T21:55:16.120;599616239030378430;4515.0806;916
2024-05-15T21:55:16.127;599616239038070220;4522.7725;906
2024-05-15T21:55:16.135;599616239045762010;4530.4644;437
2024-05-15T21:55:16.143;599616239053453800;4538.1562;257
2024-05-15T21:55:16.150;599616239061145590;4545.8477;521
2024-05-15T21:55:16.158;599616239068837380;4553.5396;668
2024-05-15T21:55:16.166;599616239076529170;4561.2314;680
2024-05-15T21:55:16.173;599616239084220960;4568.9233;773
2024-05-15T21:55:16.181;599616239091912750;4576.6147;764
2024-05-15T21:55:16.189;599616239099604540;4584.3066;699
2024-05-15T21:55:16.196;599616239107296330;4591.999;804
2024-05-15T21:55:16.204;599616239114988120;4599.691;909
2024-05-15T21:55:16.212;599616239122679910;4607.3823;866
2024-05-15T21:55:16.220;599616239130371700;4615.074;864
2024-05-15T21:55:16.227;599616239138063490;4622.766;954
2024-05-15T21:55:16.235;599616239145755280;4630.458;975
2024-05-15T21:55:16.243;599616239153447070;4638.1494;930
2024-05-15T21:55:16.250;599616239161138860;4645.8413;921
2024-05-15T21:55:16.258;599616239168830650;4653.533;933
2024-05-15T21:55:16.266;599616239176522440;4661.225;904
2024-05-15T21:55:16.273;599616239184214230;4668.9165;875
2024-05-15T21:55:16.281;599616239191906020;4676.6084;935
2024-05-15T21:55:16.289;599616239199597810;4684.3003;1004
2024-05-15T21:55:16.296;599616239207289600;4691.992;1016
2024-05-15T21:55:16.304;599616239214981390;4699.684;1102
2024-05-15T21:55:16.312;599616239222673180;4707.3755;1254
2024-05-15T21:55:16.320;599616239230364970;4715.0674;1321
2024-05-15T21:55:16.327;599616239238056760;4722.7593;1306
2024-05-15T21:55:16.335;599616239245748550;4730.451;1283
2024-05-15T21:55:16.343;599616239253440340;4738.1426;1254
2024-05-15T21:55:16.350;599616239261132130;4745.8345;1192
2024-05-15T21:55:16.358;599616239268823920;4753.5264;1097
2024-05-15T21:55:16.366;599616239276515710;4761.2183;1025
2024-05-15T21:55:16.373;599616239284207500;4768.9097;997
2024-05-15T21:55:16.381;599616239291899290;4776.6016;954
2024-05-15T21:55:16.389;599616239299591080;4784.2935;914
2024-05-15T21:55:16.396;599616239307282870;4791.9854;959
2024-05-15T21:55:16.404;599616239314974660;4799.677;1040
2024-05-15T21:55:16.412;599616239322666450;4807.3687;1080
2024-05-15T21:55:16.420;599616239330358240;4815.0605;1087
2024-05-15T21:55:16.427;599616239338050030;4822.7524;1087
2024-05-15T21:55:16.435;599616239345741820;4830.444;1075
2024-05-15T21:55:16.443;599616239353433610;4838.1357;997
2024-05-15T21:55:16.450;599616239361125400;4845.8276;916
2024-05-15T21:55:16.458;599616239368817190;4853.5195;1144
2024-05-15T21:55:16.466;599616239376508980;4861.211;1718
2024-05-15T21:55:16.473;599616239384200770;4868.903;2049
2024-05-15T21:55:16.481;599616239391892560;4876.595;1704
2024-05-15T21:55:16.489;599616239399584350;4884.287;1194
2024-05-15T21:55:16.496;599616239407276140;4891.9785;1149
2024-05-15T21:55:16.504;599616239414967930;4899.6704;1294
2024-05-15T21:55:16.512;599616239422659720;4907.3623;1213
2024-05-15T21:55:16.520;599616239430351510;4915.054;1106
2024-05-15T21:55:16.527;599616239438043300;4922.746;1142
2024-05-15T21:55:16.535;599616239445735090;4930.4375;1166
2024-05-15T21:55:16.543;599616239453426880;4938.1294;1152
2024-05-15T21:55:16.550;599616239461118670;4945.8213;1211
2024-05-15T21:55:16.558;599616239468810460;4953.513;1283
2024-05-15T21:55:16.566;599616239476502250;4961.2046;1280
2024-05-15T21:55:16.573;599616239484194040;4968.8965;1275
2024-05-15T21:55:16.581;599616239491885830;4976.5884;1316
2024-05-15T21:55:16.589;599616239499577620;4984.2803;1354
2024-05-15T21:55:16.596;599616239507269410;4991.9717;1347
2024-05-15T21:55:16.604;599616239514961200;4999.6636;1297
2024-05-15T21:55:16.612;599616239522652990;5007.3555;1175
2024-05-15T21:55:16.620;599616239530344780;5015.0474;1002
2024-05-15T21:55:16.627;599616239538036570;5022.739;890
2024-05-15T21:55:16.635;599616239545728360;5030.4307;878
2024-05-15T21:55:16.643;599616239553420150;5038.1226;897
2024-05-15T21:55:16.650;599616239561111940;5045.8145;921
2024-05-15T21:55:16.658;599616239568803742;5053.506;935
2024-05-15T21:55:16.666;599616239576495532;5061.1978;930
2024-05-15T21:55:16.673;599616239584187322;5068.8896;899
2024-05-15T21:55:16.681;599616239591879112;5076.5815;854
2024-05-15T21:55:16.689;599616239599570902;5084.273;799
2024-05-15T21:55:16.696;599616239607262692;5091.965;730
2024-05-15T21:55:16.704;599616239614954482;5099.6567;690
2024-05-15T21:55:16.712;599616239622646272;5107.3486;683
2024-05-15T21:55:16.720;599616239630338062;5115.04;623
2024-05-15T21:55:16.727;599616239638029852;5122.732;564
2024-05-15T21:55:16.735;599616239645721642;5130.424;609
2024-05-15T21:55:16.743;599616239653413432;5138.1157;642
2024-05-15T21:55:16.750;599616239661105222;5145.808;587
2024-05-15T21:55:16.758;599616239668797012;5153.4995;585
2024-05-15T21:55:16.766;599616239676488802;5161.1914;654
2024-05-15T21:55:16.773;599616239684180592;5168.8833;685
2024-05-15T21:55:16.781;599616239691872382;5176.575;680
2024-05-15T21:55:16.789;599616239699564172;5184.2666;664
2024-05-15T21:55:16.796;599616239707255962;5191.9585;585
2024-05-15T21:55:16.804;599616239714947752;5199.6504;587
2024-05-15T21:55:16.812;599616239722639542;5207.3423;935
2024-05-15T21:55:16.820;599616239730331332;5215.0337;1468
2024-05-15T21:55:16.827;599616239738023122;5222.7256;1601
2024-05-15T21:55:16.835;599616239745714912;5230.4175;1147
2024-05-15T21:55:16.843;599616239753406702;5238.1094;697
2024-05-15T21:55:16.850;599616239761098492;5245.801;699
2024-05-15T21:55:16.858;599616239768790282;5253.4927;776
2024-05-15T21:55:16.866;599616239776482072;5261.1846;654
2024-05-15T21:55:16.873;599616239784173862;5268.8765;580
2024-05-15T21:55:16.881;599616239791865652;5276.568;592
2024-05-15T21:55:16.889;599616239799557442;5284.26;568
2024-05-15T21:55:16.896;599616239807249232;5291.9517;545
2024-05-15T21:55:16.904;599616239814941022;5299.6436;566
2024-05-15T21:55:16.912;599616239822632812;5307.335;606
2024-05-15T21:55:16.920;599616239830324602;5315.027;666
2024-05-15T21:55:16.927;599616239838016392;5322.7188;735
2024-05-15T21:55:16.935;599616239845708182;5330.4106;776
2024-05-15T21:55:16.943;599616239853399972;5338.102;823
2024-05-15T21:55:16.950;599616239861091762;5345.794;871
2024-05-15T21:55:16.958;599616239868783552;5353.486;875
2024-05-15T21:55:16.966;599616239876475342;5361.1777;890
2024-05-15T21:55:16.973;599616239884167132;5368.869;942
2024-05-15T21:55:16.981;599616239891858922;5376.561;966
2024-05-15T21:55:16.989;599616239899550712;5384.253;956
2024-05-15T21:55:16.996;599616239907242502;5391.945;956
2024-05-15T21:55:17.004;599616239914934292;5399.6367;999
2024-05-15T21:55:17.012;599616239922626082;5407.328;1042
2024-05-15T21:55:17.020;599616239930317872;5415.02;1004
2024-05-15T21:55:17.027;599616239938009662;5422.712;895
2024-05-15T21:55:17.035;599616239945701452;5430.4043;802
2024-05-15T21:55:17.043;599616239953393242;5438.0957;749
2024-05-15T21:55:17.050;599616239961085032;5445.7876;697
2024-05-15T21:55:17.058;599616239968776822;5453.4795;637
2024-05-15T21:55:17.066;599616239976468612;5461.1714;628
2024-05-15T21:55:17.073;599616239984160402;5468.863;630
2024-05-15T21:55:17.081;599616239991852192;5476.5547;604
2024-05-15T21:55:17.089;599616239999543982;5484.2466;599
2024-05-15T21:55:17.096;599616240007235772;5491.9385;606
2024-05-15T21:55:17.104;599616240014927562;5499.63;592
2024-05-15T21:55:17.112;599616240022619352;5507.322;526
2024-05-15T21:55:17.120;599616240030311142;5515.0137;376
2024-05-15T21:55:17.127;599616240038002932;5522.7056;297
2024-05-15T21:55:17.135;599616240045694722;5530.397;357
2024-05-15T21:55:17.143;599616240053386512;5538.089;352
2024-05-15T21:55:17.150;599616240061078302;5545.781;261
2024-05-15T21:55:17.158;599616240068770092;5553.4727;311
2024-05-15T21:55:17.166;599616240076461882;5561.164;652
2024-05-15T21:55:17.173;599616240084153672;5568.856;1137
2024-05-15T21:55:17.181;599616240091845462;5576.548;1268
2024-05-15T21:55:17.189;599616240099537252;5584.2397;825
2024-05-15T21:55:17.196;599616240107229042;5591.931;399
2024-05-15T21:55:17.204;599616240114920832;5599.623;388
2024-05-15T21:55:17.212;599616240122612622;5607.315;411
2024-05-15T21:55:17.219;599616240130274328;5614.9766;326
2024-05-15T21:55:17.227;599616240137966536;5622.669;354
2024-05-15T21:55:17.235;599616240145658744;5630.3613;435
2024-05-15T21:55:17.243;599616240153350952;5638.053;471
2024-05-15T21:55:17.250;599616240161043160;5645.7456;502
2024-05-15T21:55:17.258;599616240168735368;5653.438;473
2024-05-15T21:55:17.266;599616240176427576;5661.13;414
2024-05-15T21:55:17.273;599616240184119784;5668.822;454
2024-05-15T21:55:17.281;599616240191811992;5676.514;523
2024-05-15T21:55:17.289;599616240199504200;5684.2065;535
2024-05-15T21:55:17.296;599616240207196408;5691.899;559
2024-05-15T21:55:17.304;599616240214888616;5699.5913;599
2024-05-15T21:55:17.312;599616240222580824;5707.2837;623
2024-05-15T21:55:17.319;599616240230273032;5714.975;656
2024-05-15T21:55:17.327;599616240237965240;5722.6675;699
2024-05-15T21:55:17.335;599616240245657448;5730.36;737
2024-05-15T21:55:17.343;599616240253349656;5738.0522;768
2024-05-15T21:55:17.350;599616240261041864;5745.744;792
2024-05-15T21:55:17.358;599616240268734072;5753.4365;778
2024-05-15T21:55:17.366;599616240276426280;5761.1284;716
2024-05-15T21:55:17.373;599616240284118488;5768.821;656
2024-05-15T21:55:17.381;599616240291810696;5776.513;606
2024-05-15T21:55:17.389;599616240299502904;5784.205;547
2024-05-15T21:55:17.396;599616240307195112;5791.8975;528
2024-05-15T21:55:17.404;599616240314887320;5799.59;537
2024-05-15T21:55:17.412;599616240322579528;5807.282;540
2024-05-15T21:55:17.419;599616240330271736;5814.974;561
2024-05-15T21:55:17.427;599616240337963944;5822.666;611
2024-05-15T21:55:17.435;599616240345656152;5830.3584;626
2024-05-15T21:55:17.443;599616240353348360;5838.051;614
2024-05-15T21:55:17.450;599616240361040568;5845.743;618
2024-05-15T21:55:17.458;599616240368732776;5853.4355;642
2024-05-15T21:55:17.466;599616240376424984;5861.127;654
2024-05-15T21:55:17.473;599616240384117192;5868.8193;645
2024-05-15T21:55:17.481;599616240391809400;5876.5117;659
2024-05-15T21:55:17.489;599616240399501608;5884.204;690
2024-05-15T21:55:17.496;599616240407193816;5891.8965;666
2024-05-15T21:55:17.504;599616240414886024;5899.5884;592
2024-05-15T21:55:17.512;599616240422578232;5907.2803;616
2024-05-15T21:55:17.519;599616240430270440;5914.9727;959
2024-05-15T21:55:17.527;599616240437962648;5922.665;1509
2024-05-15T21:55:17.535;599616240445654856;5930.3574;1694
2024-05-15T21:55:17.543;599616240453347064;5938.0493;1199
2024-05-15T21:55:17.550;599616240461039272;5945.7417;580
2024-05-15T21:55:17.558;599616240468731480;5953.434;445
2024-05-15T21:55:17.566;599616240476423688;5961.126;528
2024-05-15T21:55:17.573;599616240484115896;5968.8184;468
2024-05-15T21:55:17.581;599616240491808104;5976.5103;414
2024-05-15T21:55:17.589;599616240499500312;5984.2026;423
2024-05-15T21:55:17.596;599616240507192520;5991.895;402
2024-05-15T21:55:17.604;599616240514884728;5999.5874;390
2024-05-15T21:55:17.612;599616240522576936;6007.2793;373
2024-05-15T21:55:17.619;599616240530269144;6014.971;261
2024-05-15T21:55:17.627;599616240537961352;6022.6636;164
2024-05-15T21:55:17.635;599616240545653560;6030.356;204
2024-05-15T21:55:17.643;599616240553345768;6038.0483;257
2024-05-15T21:55:17.650;599616240561037976;6045.7407;252
2024-05-15T21:55:17.658;599616240568730184;6053.4326;280
2024-05-15T21:55:17.666;599616240576422392;6061.1245;323
2024-05-15T21:55:17.673;599616240584114600;6068.817;311
2024-05-15T21:55:17.681;599616240591806808;6076.5093;307
2024-05-15T21:55:17.689;599616240599499016;6084.2017;366
2024-05-15T21:55:17.696;599616240607191224;6091.8936;433
2024-05-15T21:55:17.704;599616240614883432;6099.586;449
2024-05-15T21:55:17.712;599616240622575640;6107.278;421
2024-05-15T21:55:17.719;599616240630267848;6114.97;390
2024-05-15T21:55:17.727;599616240637960056;6122.6626;373
2024-05-15T21:55:17.735;599616240645652264;6130.3545;352
2024-05-15T21:55:17.743;599616240653344472;6138.047;342
2024-05-15T21:55:17.750;599616240661036680;6145.7393;361
2024-05-15T21:55:17.758;599616240668728888;6153.431;371
2024-05-15T21:55:17.766;599616240676421096;6161.1235;338
2024-05-15T21:55:17.773;599616240684113304;6168.8154;321
2024-05-15T21:55:17.781;599616240691860750;6176.563;354
2024-05-15T21:55:17.789;599616240699552191;6184.2544;390
2024-05-15T21:55:17.796;599616240707243632;6191.9463;404
2024-05-15T21:55:17.804;599616240714935073;6199.6377;404
2024-05-15T21:55:17.812;599616240722626514;6207.3286;388
2024-05-15T21:55:17.820;599616240730317955;6215.0205;373
2024-05-15T21:55:17.827;599616240738009396;6222.712;340
2024-05-15T21:55:17.835;599616240745700837;6230.403;307
2024-05-15T21:55:17.843;599616240753392278;6238.0947;326
2024-05-15T21:55:17.850;599616240761083719;6245.786;326
2024-05-15T21:55:17.858;599616240768775160;6253.4775;195
2024-05-15T21:55:17.866;599616240776466601;6261.169;138
2024-05-15T21:55:17.873;599616240784158042;6268.8604;495
2024-05-15T21:55:17.881;599616240791849483;6276.552;1156
2024-05-15T21:55:17.889;599616240799540924;6284.2437;1504
2024-05-15T21:55:17.896;599616240807232365;6291.9346;1099
2024-05-15T21:55:17.904;599616240814923806;6299.626;416
2024-05-15T21:55:17.912;599616240822615247;6307.318;228
2024-05-15T21:55:17.920;599616240830306688;6315.009;368
2024-05-15T21:55:17.927;599616240837998129;6322.7;345
2024-05-15T21:55:17.935;599616240845689570;6330.392;307
2024-05-15T21:55:17.943;599616240853381011;6338.0835;366
2024-05-15T21:55:17.950;599616240861072452;6345.775;361
2024-05-15T21:55:17.958;599616240868763893;6353.4663;347
2024-05-15T21:55:17.966;599616240876455334;6361.1577;407
2024-05-15T21:55:17.973;599616240884146775;6368.8496;454
2024-05-15T21:55:17.981;599616240891838216;6376.5405;471
2024-05-15T21:55:17.989;599616240899529657;6384.232;507
2024-05-15T21:55:17.996;599616240907221098;6391.924;557
2024-05-15T21:55:18.004;599616240914912539;6399.6147;590
2024-05-15T21:55:18.012;599616240922603980;6407.306;614
2024-05-15T21:55:18.019;599616240930295421;6414.998;647
2024-05-15T21:55:18.027;599616240937986862;6422.6895;676
2024-05-15T21:55:18.035;599616240945678303;6430.3804;671
2024-05-15T21:55:18.043;599616240953369744;6438.0723;637
2024-05-15T21:55:18.050;599616240961061185;6445.7637;623
2024-05-15T21:55:18.058;599616240968752626;6453.455;633
2024-05-15T21:55:18.066;599616240976444067;6461.1465;602
2024-05-15T21:55:18.073;599616240984135508;6468.838;528
2024-05-15T21:55:18.081;599616240991826949;6476.5293;442
2024-05-15T21:55:18.089;599616240999518390;6484.2207;342
2024-05-15T21:55:18.096;599616241007209831;6491.912;254
2024-05-15T21:55:18.104;599616241014901272;6499.6035;195
2024-05-15T21:55:18.112;599616241022592713;6507.2954;128
2024-05-15T21:55:18.119;599616241030284154;6514.9863;-19
2024-05-15T21:55:18.127;599616241037975595;6522.6777;-283
2024-05-15T21:55:18.135;599616241045667036;6530.3696;-483
2024-05-15T21:55:18.143;599616241053358477;6538.061;-476
2024-05-15T21:55:18.150;599616241061049918;6545.752;-480
2024-05-15T21:55:18.158;599616241068741359;6553.444;-578
2024-05-15T21:55:18.166;599616241076432800;6561.1353;-547
2024-05-15T21:55:18.173;599616241084124241;6568.8267;-378
2024-05-15T21:55:18.181;599616241091815682;6576.518;-299
2024-05-15T21:55:18.189;599616241099507123;6584.2095;-340
2024-05-15T21:55:18.196;599616241107198564;6591.9014;-373
2024-05-15T21:55:18.204;599616241114890005;6599.5923;-454
2024-05-15T21:55:18.212;599616241122581446;6607.2837;-611
2024-05-15T21:55:18.219;599616241130272887;6614.9756;-685
2024-05-15T21:55:18.227;599616241137964328;6622.667;-461
2024-05-15T21:55:18.235;599616241145655769;6630.358;76
2024-05-15T21:55:18.243;599616241153347210;6638.05;537
2024-05-15T21:55:18.250;599616241161038651;6645.741;376
2024-05-15T21:55:18.258;599616241168730092;6653.432;-261
2024-05-15T21:55:18.266;599616241176421533;6661.124;-528
2024-05-15T21:55:18.273;599616241184112974;6668.8154;-371
2024-05-15T21:55:18.281;599616241191804415;6676.507;-390
2024-05-15T21:55:18.289;599616241199495856;6684.198;-485
2024-05-15T21:55:18.296;599616241207187297;6691.8896;-480
2024-05-15T21:55:18.304;599616241214878738;6699.581;-590
2024-05-15T21:55:18.312;599616241222570179;6707.2725;-764
2024-05-15T21:55:18.319;599616241230261620;6714.964;-814
2024-05-15T21:55:18.327;599616241237953061;6722.6553;-811
2024-05-15T21:55:18.335;599616241245644502;6730.347;-849
2024-05-15T21:55:18.343;599616241253305906;6738.0083;-868
2024-05-15T21:55:18.350;599616241260997765;6745.7;-856
2024-05-15T21:55:18.358;599616241268689624;6753.392;-878
2024-05-15T21:55:18.366;599616241276381483;6761.084;-975
2024-05-15T21:55:18.373;599616241284073342;6768.776;-1087
2024-05-15T21:55:18.381;599616241291765201;6776.4673;-1090
2024-05-15T21:55:18.389;599616241299457060;6784.159;-1035
2024-05-15T21:55:18.396;599616241307148919;6791.8516;-1025
2024-05-15T21:55:18.404;599616241314840778;6799.5435;-1040
2024-05-15T21:55:18.412;599616241322532637;6807.235;-1016
2024-05-15T21:55:18.419;599616241330224496;6814.927;-973
2024-05-15T21:55:18.427;599616241337916355;6822.6187;-997
2024-05-15T21:55:18.435;599616241345608214;6830.3105;-1016
2024-05-15T21:55:18.443;599616241353300073;6838.003;-966
2024-05-15T21:55:18.450;599616241360991932;6845.6943;-954
2024-05-15T21:55:18.458;599616241368683791;6853.386;-1009
2024-05-15T21:55:18.466;599616241376375650;6861.078;-1018
2024-05-15T21:55:18.473;599616241384067509;6868.77;-973
2024-05-15T21:55:18.481;599616241391759368;6876.4614;-947
2024-05-15T21:55:18.489;599616241399451227;6884.154;-928
2024-05-15T21:55:18.496;599616241407143086;6891.8457;-909
2024-05-15T21:55:18.504;599616241414834945;6899.5376;-902
2024-05-15T21:55:18.512;599616241422526804;6907.229;-883
2024-05-15T21:55:18.519;599616241430218663;6914.921;-854
2024-05-15T21:55:18.527;599616241437910522;6922.613;-825
2024-05-15T21:55:18.535;599616241445602381;6930.305;-785
2024-05-15T21:55:18.542;599616241453294240;6937.9966;-749
2024-05-15T21:55:18.550;599616241460986099;6945.6885;-747
2024-05-15T21:55:18.558;599616241468677958;6953.3804;-745
2024-05-15T21:55:18.566;599616241476369817;6961.0723;-764
2024-05-15T21:55:18.573;599616241484061676;6968.7637;-802
2024-05-15T21:55:18.581;599616241491753535;6976.4556;-604
2024-05-15T21:55:18.589;599616241499445394;6984.148;-61
2024-05-15T21:55:18.596;599616241507137253;6991.84;321
2024-05-15T21:55:18.604;599616241514829112;6999.5317;26
2024-05-15T21:55:18.612;599616241522520971;7007.223;-633
2024-05-15T21:55:18.619;599616241530212830;7014.915;-883
2024-05-15T21:55:18.627;599616241537904689;7022.607;-737
2024-05-15T21:55:18.635;599616241545596548;7030.2993;-799
2024-05-15T21:55:18.642;599616241553288407;7037.9907;-973
2024-05-15T21:55:18.650;599616241560980266;7045.6826;-904
2024-05-15T21:55:18.658;599616241568672125;7053.3745;-792
2024-05-15T21:55:18.666;599616241576363984;7061.0664;-797
2024-05-15T21:55:18.673;599616241584055843;7068.758;-773
2024-05-15T21:55:18.681;599616241591747702;7076.45;-697
2024-05-15T21:55:18.689;599616241599439561;7084.142;-661
2024-05-15T21:55:18.696;599616241607131420;7091.834;-642
2024-05-15T21:55:18.704;599616241614823279;7099.5254;-597
2024-05-15T21:55:18.712;599616241622515138;7107.2173;-545
2024-05-15T21:55:18.719;599616241630206997;7114.909;-499
2024-05-15T21:55:18.727;599616241637898856;7122.6016;-473
2024-05-15T21:55:18.735;599616241645590715;7130.2935;-468
2024-05-15T21:55:18.742;599616241653282574;7137.985;-457
2024-05-15T21:55:18.750;599616241660974433;7145.677;-435
2024-05-15T21:55:18.758;599616241668666292;7153.3687;-433
2024-05-15T21:55:18.766;599616241676358151;7161.0605;-428
2024-05-15T21:55:18.773;599616241684050010;7168.7524;-407
2024-05-15T21:55:18.781;599616241691741869;7176.4443;-409
2024-05-15T21:55:18.789;599616241699433728;7184.136;-409
2024-05-15T21:55:18.796;599616241707125587;7191.828;-378
2024-05-15T21:55:18.804;599616241714817446;7199.5195;-352
2024-05-15T21:55:18.812;599616241722509305;7207.2114;-335
2024-05-15T21:55:18.819;599616241730201164;7214.904;-335
2024-05-15T21:55:18.827;599616241737893023;7222.5957;-345
2024-05-15T21:55:18.835;599616241745584882;7230.2876;-316
2024-05-15T21:55:18.842;599616241753276741;7237.979;-323
2024-05-15T21:55:18.850;599616241760968600;7245.671;-354
2024-05-15T21:55:18.858;599616241768660459;7253.363;-264
2024-05-15T21:55:18.866;599616241776352318;7261.0547;-99
2024-05-15T21:55:18.873;599616241784044177;7268.7466;-38
2024-05-15T21:55:18.881;599616241791736036;7276.4385;-38
2024-05-15T21:55:18.889;599616241799427895;7284.1304;-2
2024-05-15T21:55:18.896;599616241807119754;7291.8223;59
2024-05-15T21:55:18.904;599616241814796626;7299.499;123
2024-05-15T21:55:18.912;599616241822488694;7307.1914;121
2024-05-15T21:55:18.919;599616241830180762;7314.8833;11
2024-05-15T21:55:18.927;599616241837872830;7322.575;-78
2024-05-15T21:55:18.935;599616241845564898;7330.267;114
2024-05-15T21:55:18.942;599616241853256966;7337.9595;730
2024-05-15T21:55:18.950;599616241860949034;7345.6514;1411
2024-05-15T21:55:18.958;599616241868641102;7353.3433;1449
2024-05-15T21:55:18.966;599616241876333170;7361.0356;797
2024-05-15T21:55:18.973;599616241884025238;7368.7275;318
2024-05-15T21:55:18.981;599616241891717306;7376.42;402
2024-05-15T21:55:18.989;599616241899409374;7384.112;507
2024-05-15T21:55:18.996;599616241907101442;7391.8037;445
2024-05-15T21:55:19.004;599616241914793510;7399.4956;492
2024-05-15T21:55:19.012;599616241922485578;7407.188;604
2024-05-15T21:55:19.019;599616241930177646;7414.8804;645
2024-05-15T21:55:19.027;599616241937869714;7422.5723;680
2024-05-15T21:55:19.035;599616241945561782;7430.264;752
2024-05-15T21:55:19.042;599616241953253850;7437.956;849
2024-05-15T21:55:19.050;599616241960945918;7445.6484;933
2024-05-15T21:55:19.058;599616241968637986;7453.3403;959
2024-05-15T21:55:19.066;599616241976330054;7461.032;964
2024-05-15T21:55:19.073;599616241984022122;7468.7246;1006
2024-05-15T21:55:19.081;599616241991714190;7476.4165;1028
2024-05-15T21:55:19.089;599616241999406258;7484.109;966
2024-05-15T21:55:19.096;599616242007098326;7491.801;887
2024-05-15T21:55:19.104;599616242014790394;7499.4927;895
2024-05-15T21:55:19.112;599616242022482462;7507.1846;921
2024-05-15T21:55:19.119;599616242030174530;7514.877;887
2024-05-15T21:55:19.127;599616242037866598;7522.5693;847
2024-05-15T21:55:19.135;599616242045558666;7530.261;814
2024-05-15T21:55:19.142;599616242053250734;7537.953;737
2024-05-15T21:55:19.150;599616242060942802;7545.645;635
2024-05-15T21:55:19.158;599616242068634870;7553.3374;621
2024-05-15T21:55:19.166;599616242076326938;7561.0293;687
2024-05-15T21:55:19.173;599616242084019006;7568.721;714
2024-05-15T21:55:19.181;599616242091711074;7576.4136;697
2024-05-15T21:55:19.189;599616242099403142;7584.1055;702
2024-05-15T21:55:19.196;599616242107095210;7591.798;730
2024-05-15T21:55:19.204;599616242114787278;7599.4897;730
2024-05-15T21:55:19.212;599616242122479346;7607.1816;711
2024-05-15T21:55:19.219;599616242130171414;7614.8735;742
2024-05-15T21:55:19.227;599616242137863482;7622.566;811
2024-05-15T21:55:19.235;599616242145555550;7630.2583;828
2024-05-15T21:55:19.242;599616242153247618;7637.95;792
2024-05-15T21:55:19.250;599616242160939686;7645.642;795
2024-05-15T21:55:19.258;599616242168631754;7653.334;840
2024-05-15T21:55:19.266;599616242176323822;7661.0264;845
2024-05-15T21:55:19.273;599616242184015890;7668.7183;787
2024-05-15T21:55:19.281;599616242191707958;7676.41;706
2024-05-15T21:55:19.289;599616242199400026;7684.1025;711
2024-05-15T21:55:19.296;599616242207092094;7691.7944;1025
2024-05-15T21:55:19.304;599616242214784162;7699.487;1537
2024-05-15T21:55:19.312;599616242222476230;7707.1787;1680
2024-05-15T21:55:19.319;599616242230168298;7714.8706;1242
2024-05-15T21:55:19.327;599616242237860366;7722.5625;768
2024-05-15T21:55:19.335;599616242245552434;7730.255;676
2024-05-15T21:55:19.342;599616242253244502;7737.9473;659
2024-05-15T21:55:19.350;599616242260936570;7745.6387;571
2024-05-15T21:55:19.358;599616242268628638;7753.331;590
2024-05-15T21:55:19.366;599616242276320706;7761.023;633
2024-05-15T21:55:19.373;599616242284012774;7768.7153;628
2024-05-15T21:55:19.381;599616242291704842;7776.407;652
2024-05-15T21:55:19.389;599616242299396910;7784.099;676
2024-05-15T21:55:19.396;599616242307088978;7791.7915;673
2024-05-15T21:55:19.404;599616242314781046;7799.4834;718
2024-05-15T21:55:19.412;599616242322473114;7807.176;783
2024-05-15T21:55:19.419;599616242330165182;7814.8677;792
2024-05-15T21:55:19.427;599616242337857250;7822.5596;778
2024-05-15T21:55:19.435;599616242345549318;7830.2515;799
2024-05-15T21:55:19.442;599616242353241386;7837.944;835
2024-05-15T21:55:19.450;599616242360933454;7845.636;833
2024-05-15T21:55:19.458;599616242368625522;7853.3276;797
2024-05-15T21:55:19.466;599616242376337670;7861.04;766
2024-05-15T21:55:19.473;599616242384029460;7868.732;742
2024-05-15T21:55:19.481;599616242391721250;7876.424;699
2024-05-15T21:55:19.489;599616242399413040;7884.115;671
2024-05-15T21:55:19.496;599616242407104830;7891.807;685
2024-05-15T21:55:19.504;599616242414796620;7899.499;695
2024-05-15T21:55:19.512;599616242422488410;7907.191;664
2024-05-15T21:55:19.519;599616242430180200;7914.8823;630
2024-05-15T21:55:19.527;599616242437871990;7922.574;628
2024-05-15T21:55:19.535;599616242445563780;7930.266;592
2024-05-15T21:55:19.542;599616242453255570;7937.958;485
2024-05-15T21:55:19.550;599616242460947360;7945.65;433
2024-05-15T21:55:19.558;599616242468639150;7953.3413;471
2024-05-15T21:55:19.566;599616242476330940;7961.033;461
2024-05-15T21:55:19.573;599616242484022730;7968.725;416
2024-05-15T21:55:19.581;599616242491714520;7976.417;409
2024-05-15T21:55:19.589;599616242499406310;7984.1084;388
2024-05-15T21:55:19.596;599616242507098100;7991.8003;349
2024-05-15T21:55:19.604;599616242514789890;7999.492;352
2024-05-15T21:55:19.612;599616242522481680;8007.184;371
2024-05-15T21:55:19.619;599616242530173470;8014.8755;373
2024-05-15T21:55:19.627;599616242537865260;8022.5674;368
2024-05-15T21:55:19.635;599616242545557050;8030.2593;314
2024-05-15T21:55:19.642;599616242553248840;8037.9517;199
2024-05-15T21:55:19.650;599616242560940630;8045.643;207
2024-05-15T21:55:19.658;599616242568632420;8053.335;542
2024-05-15T21:55:19.666;599616242576324210;8061.027;954
2024-05-15T21:55:19.673;599616242584016000;8068.7188;885
2024-05-15T21:55:19.681;599616242591707790;8076.41;383
2024-05-15T21:55:19.689;599616242599399580;8084.102;95
2024-05-15T21:55:19.696;599616242607091370;8091.794;161
2024-05-15T21:55:19.704;599616242614783160;8099.486;183
2024-05-15T21:55:19.712;599616242622474950;8107.1772;126
2024-05-15T21:55:19.719;599616242630166740;8114.869;157
2024-05-15T21:55:19.727;599616242637858530;8122.561;197
2024-05-15T21:55:19.735;599616242645550320;8130.253;221
2024-05-15T21:55:19.742;599616242653242110;8137.9443;257
2024-05-15T21:55:19.750;599616242660933900;8145.636;259
2024-05-15T21:55:19.758;599616242668625690;8153.328;261
2024-05-15T21:55:19.766;599616242676317480;8161.02;311
2024-05-15T21:55:19.773;599616242684009270;8168.712;345
2024-05-15T21:55:19.781;599616242691701060;8176.4033;316
2024-05-15T21:55:19.789;599616242699392850;8184.095;288
2024-05-15T21:55:19.796;599616242707084640;8191.787;290
2024-05-15T21:55:19.804;599616242714776430;8199.479;268
2024-05-15T21:55:19.812;599616242722468220;8207.171;202
2024-05-15T21:55:19.819;599616242730160010;8214.862;152
2024-05-15T21:55:19.827;599616242737851800;8222.554;104
2024-05-15T21:55:19.835;599616242745543590;8230.246;16
2024-05-15T21:55:19.842;599616242753235380;8237.9375;-33
2024-05-15T21:55:19.850;599616242760927170;8245.63;-14
2024-05-15T21:55:19.858;599616242768618960;8253.321;2
2024-05-15T21:55:19.866;599616242776310750;8261.013;4
2024-05-15T21:55:19.873;599616242784002540;8268.705;7
2024-05-15T21:55:19.881;599616242791694330;8276.396;4
2024-05-15T21:55:19.889;599616242799386120;8284.088;9
2024-05-15T21:55:19.896;599616242807077910;8291.78;16
2024-05-15T21:55:19.904;599616242814769700;8299.472;16
2024-05-15T21:55:19.912;599616242822461490;8307.164;35
2024-05-15T21:55:19.919;599616242830153280;8314.855;73
2024-05-15T21:55:19.927;599616242837845070;8322.548;85
2024-05-15T21:55:19.935;599616242845536860;8330.239;80
2024-05-15T21:55:19.942;599616242853228650;8337.932;119
2024-05-15T21:55:19.950;599616242860920440;8345.623;180
2024-05-15T21:55:19.958;599616242868612230;8353.314;207
2024-05-15T21:55:19.966;599616242876304020;8361.007;209
2024-05-15T21:55:19.973;599616242883995810;8368.698;233
2024-05-15T21:55:19.981;599616242891687600;8376.391;280
2024-05-15T21:55:19.989;599616242899379390;8384.082;292
2024-05-15T21:55:19.996;599616242907071180;8391.773;207
2024-05-15T21:55:20.004;599616242914762970;8399.466;83
2024-05-15T21:55:20.012;599616242922454760;8407.157;152
2024-05-15T21:55:20.019;599616242930146550;8414.849;537
2024-05-15T21:55:20.027;599616242937838352;8422.541;904
2024-05-15T21:55:20.035;599616242945530142;8430.232;730
2024-05-15T21:55:20.042;599616242953221932;8437.925;133
2024-05-15T21:55:20.050;599616242960913722;8445.616;-176
2024-05-15T21:55:20.058;599616242968605512;8453.308;-88
2024-05-15T21:55:20.065;599616242976297302;8461.0;-109
2024-05-15T21:55:20.073;599616242983989092;8468.691;-338
2024-05-15T21:55:20.081;599616242991680882;8476.383;-490
2024-05-15T21:55:20.089;599616242999372672;8484.075;-459
2024-05-15T21:55:20.096;599616243007064462;8491.767;-323
2024-05-15T21:55:20.104;599616243014756252;8499.459;-223
2024-05-15T21:55:20.112;599616243022448042;8507.15;-221
2024-05-15T21:55:20.119;599616243030139832;8514.842;-226
2024-05-15T21:55:20.127;599616243037831622;8522.534;-171
2024-05-15T21:55:20.135;599616243045523412;8530.226;-78
2024-05-15T21:55:20.142;599616243053215202;8537.917;-23
2024-05-15T21:55:20.150;599616243060906992;8545.609;-109
2024-05-15T21:55:20.158;599616243068598782;8553.301;-214
2024-05-15T21:55:20.165;599616243076290572;8560.993;-159
2024-05-15T21:55:20.173;599616243083982362;8568.685;-92
2024-05-15T21:55:20.181;599616243091674152;8576.376;-95
2024-05-15T21:55:20.189;599616243099365942;8584.068;-26
2024-05-15T21:55:20.196;599616243107057732;8591.761;71
2024-05-15T21:55:20.204;599616243114749522;8599.451;90
2024-05-15T21:55:20.212;599616243122441312;8607.144;88
2024-05-15T21:55:20.219;599616243130133102;8614.835;135
2024-05-15T21:55:20.227;599616243137824892;8622.527;176
2024-05-15T21:55:20.235;599616243145516682;8630.219;204
2024-05-15T21:55:20.242;599616243153208472;8637.911;278
2024-05-15T21:55:20.250;599616243160900262;8645.603;352
2024-05-15T21:55:20.258;599616243168592052;8653.295;359
2024-05-15T21:55:20.265;599616243176283842;8660.986;378
2024-05-15T21:55:20.273;599616243183975632;8668.678;468
2024-05-15T21:55:20.281;599616243191667422;8676.369;540
2024-05-15T21:55:20.289;599616243199359212;8684.062;535
2024-05-15T21:55:20.296;599616243207051002;8691.753;518
2024-05-15T21:55:20.304;599616243214742792;8699.445;528
2024-05-15T21:55:20.312;599616243222434582;8707.137;528
2024-05-15T21:55:20.319;599616243230126372;8714.829;473
2024-05-15T21:55:20.327;599616243237818162;8722.5205;397
2024-05-15T21:55:20.335;599616243245509952;8730.212;385
2024-05-15T21:55:20.342;599616243253201742;8737.904;404
2024-05-15T21:55:20.350;599616243260893532;8745.596;361
2024-05-15T21:55:20.358;599616243268585322;8753.288;257
2024-05-15T21:55:20.365;599616243276277112;8760.9795;190
2024-05-15T21:55:20.373;599616243283968902;8768.672;340
2024-05-15T21:55:20.381;599616243291660692;8776.363;837
2024-05-15T21:55:20.389;599616243299352482;8784.056;1392
2024-05-15T21:55:20.396;599616243307044272;8791.746;1363
2024-05-15T21:55:20.404;599616243314736062;8799.438;723
2024-05-15T21:55:20.412;599616243322427852;8807.13;280
2024-05-15T21:55:20.419;599616243330119642;8814.822;349
2024-05-15T21:55:20.427;599616243337811432;8822.514;414
2024-05-15T21:55:20.435;599616243345503222;8830.206;321
2024-05-15T21:55:20.442;599616243353195012;8837.897;318
2024-05-15T21:55:20.450;599616243360886802;8845.59;364
2024-05-15T21:55:20.458;599616243368578592;8853.281;371
2024-05-15T21:55:20.465;599616243376270382;8860.973;392
2024-05-15T21:55:20.473;599616243383962172;8868.664;440
2024-05-15T21:55:20.481;599616243391653962;8876.356;464
2024-05-15T21:55:20.489;599616243399345752;8884.048;466
2024-05-15T21:55:20.496;599616243407037542;8891.74;485
2024-05-15T21:55:20.504;599616243414729332;8899.432;514
2024-05-15T21:55:20.512;599616243422421122;8907.124;502
2024-05-15T21:55:20.519;599616243430112912;8914.815;459
2024-05-15T21:55:20.527;599616243437804702;8922.507;418
2024-05-15T21:55:20.535;599616243445496492;8930.198;366
2024-05-15T21:55:20.542;599616243453188282;8937.891;333
2024-05-15T21:55:20.550;599616243460880072;8945.582;349
2024-05-15T21:55:20.558;599616243468571862;8953.274;364
2024-05-15T21:55:20.565;599616243476263652;8960.966;340
2024-05-15T21:55:20.573;599616243483955442;8968.658;311
2024-05-15T21:55:20.581;599616243491647232;8976.35;285
2024-05-15T21:55:20.589;599616243499339034;8984.041;221
2024-05-15T21:55:20.596;599616243507030824;8991.732;128
2024-05-15T21:55:20.604;599616243514722614;8999.425;78
2024-05-15T21:55:20.612;599616243522414404;9007.116;26
2024-05-15T21:55:20.619;599616243530106194;9014.809;-192
2024-05-15T21:55:20.627;599616243537797984;9022.501;-485
2024-05-15T21:55:20.635;599616243545489774;9030.192;-580
2024-05-15T21:55:20.642;599616243553181564;9037.885;-561
2024-05-15T21:55:20.650;599616243560873354;9045.575;-664
2024-05-15T21:55:20.658;599616243568565144;9053.268;-766
2024-05-15T21:55:20.665;599616243576256934;9060.959;-635
2024-05-15T21:55:20.673;599616243583948724;9068.651;-440
2024-05-15T21:55:20.681;599616243591640514;9076.343;-423
2024-05-15T21:55:20.689;599616243599332304;9084.035;-388
2024-05-15T21:55:20.696;599616243607024094;9091.727;-173
2024-05-15T21:55:20.704;599616243614715884;9099.419;2
2024-05-15T21:55:20.712;599616243622407674;9107.11;9
2024-05-15T21:55:20.719;599616243630099464;9114.802;-52
2024-05-15T21:55:20.727;599616243637791254;9122.493;-99
2024-05-15T21:55:20.735;599616243645483044;9130.186;30
2024-05-15T21:55:20.742;599616243653174834;9137.877;442
2024-05-15T21:55:20.750;599616243660866624;9145.569;828
2024-05-15T21:55:20.758;599616243668558414;9153.261;754
2024-05-15T21:55:20.765;599616243676250204;9160.953;192
2024-05-15T21:55:20.773;599616243683941994;9168.645;-228
2024-05-15T21:55:20.781;599616243691633784;9176.336;-42
2024-05-15T21:55:20.789;599616243699325574;9184.027;209
2024-05-15T21:55:20.796;599616243707017364;9191.72;164
2024-05-15T21:55:20.804;599616243714709154;9199.411;176
2024-05-15T21:55:20.812;599616243722400944;9207.104;238
2024-05-15T21:55:20.819;599616243730092734;9214.795;190
2024-05-15T21:55:20.827;599616243737784524;9222.487;195
2024-05-15T21:55:20.835;599616243745476314;9230.179;292
2024-05-15T21:55:20.842;599616243753168104;9237.87;368
2024-05-15T21:55:20.850;599616243760859894;9245.562;364
2024-05-15T21:55:20.858;599616243768551684;9253.254;309
2024-05-15T21:55:20.865;599616243776243474;9260.945;271
2024-05-15T21:55:20.873;599616243783935264;9268.638;254
2024-05-15T21:55:20.881;599616243791627054;9276.329;230
2024-05-15T21:55:20.889;599616243799318844;9284.021;211
2024-05-15T21:55:20.896;599616243807010634;9291.714;202
2024-05-15T21:55:20.904;599616243814702424;9299.405;218
2024-05-15T21:55:20.912;599616243822394214;9307.097;266
2024-05-15T21:55:20.919;599616243830086004;9314.788;302
2024-05-15T21:55:20.927;599616243837777794;9322.48;326
2024-05-15T21:55:20.935;599616243845469584;9330.172;371
2024-05-15T21:55:20.942;599616243853161374;9337.864;411
2024-05-15T21:55:20.950;599616243860853164;9345.556;402
2024-05-15T21:55:20.958;599616243868544954;9353.248;390
2024-05-15T21:55:20.965;599616243876236744;9360.939;421
2024-05-15T21:55:20.973;599616243883928534;9368.631;468
2024-05-15T21:55:20.981;599616243891620324;9376.322;502
2024-05-15T21:55:20.989;599616243899312114;9384.015;504
2024-05-15T21:55:20.996;599616243907003904;9391.706;483
2024-05-15T21:55:21.004;599616243914695694;9399.398;471
2024-05-15T21:55:21.012;599616243922387484;9407.09;464
2024-05-15T21:55:21.019;599616243930079274;9414.782;476
2024-05-15T21:55:21.027;599616243937771064;9422.474;523
2024-05-15T21:55:21.035;599616243945462854;9430.165;554
2024-05-15T21:55:21.042;599616243953154644;9437.856;511
2024-05-15T21:55:21.050;599616243960846434;9445.549;473
2024-05-15T21:55:21.058;599616243968538224;9453.24;452
2024-05-15T21:55:21.065;599616243976230014;9460.933;354
2024-05-15T21:55:21.073;599616243983921804;9468.624;259
2024-05-15T21:55:21.081;599616243991613594;9476.316;240
2024-05-15T21:55:21.089;599616243999305384;9484.008;142
2024-05-15T21:55:21.096;599616244006997174;9491.7;21
2024-05-15T21:55:21.104;599616244014688964;9499.391;290
2024-05-15T21:55:21.112;599616244022380754;9507.083;947
2024-05-15T21:55:21.119;599616244030072544;9514.774;1302
2024-05-15T21:55:21.127;599616244037764334;9522.467;864
2024-05-15T21:55:21.135;599616244045456124;9530.158;161
2024-05-15T21:55:21.142;599616244053147914;9537.851;19
2024-05-15T21:55:21.150;599616244060809620;9545.512;190
2024-05-15T21:55:21.158;599616244068501828;9553.204;95
2024-05-15T21:55:21.165;599616244076194036;9560.896;-21
2024-05-15T21:55:21.173;599616244083886244;9568.589;83
2024-05-15T21:55:21.181;599616244091578452;9576.281;107
2024-05-15T21:55:21.188;599616244099270660;9583.974;-28
2024-05-15T21:55:21.196;599616244106962868;9591.666;-69
2024-05-15T21:55:21.204;599616244114655076;9599.358;7
2024-05-15T21:55:21.212;599616244122347284;9607.049;0
2024-05-15T21:55:21.219;599616244130039492;9614.741;-80
2024-05-15T21:55:21.227;599616244137731700;9622.434;-111
2024-05-15T21:55:21.235;599616244145423908;9630.126;-147
2024-05-15T21:55:21.242;599616244153116116;9637.818;-238
2024-05-15T21:55:21.250;599616244160808324;9645.511;-297
2024-05-15T21:55:21.258;599616244168500532;9653.203;-299
2024-05-15T21:55:21.265;599616244176192740;9660.8955;-288
2024-05-15T21:55:21.273;599616244183884948;9668.588;-266
2024-05-15T21:55:21.281;599616244191577156;9676.28;-230
2024-05-15T21:55:21.288;599616244199269364;9683.972;-192
2024-05-15T21:55:21.296;599616244206961572;9691.664;-180
2024-05-15T21:55:21.304;599616244214653780;9699.356;-164
2024-05-15T21:55:21.312;599616244222345988;9707.048;-180
2024-05-15T21:55:21.319;599616244230038196;9714.74;-354
2024-05-15T21:55:21.327;599616244237730404;9722.433;-487
2024-05-15T21:55:21.335;599616244245422612;9730.125;-404
2024-05-15T21:55:21.342;599616244253114820;9737.817;-264
2024-05-15T21:55:21.350;599616244260807028;9745.51;-199
2024-05-15T21:55:21.358;599616244268499236;9753.202;-161
2024-05-15T21:55:21.365;599616244276191444;9760.894;-59
2024-05-15T21:55:21.373;599616244283883652;9768.586;66
2024-05-15T21:55:21.381;599616244291575860;9776.278;147
2024-05-15T21:55:21.388;599616244299268068;9783.971;223
2024-05-15T21:55:21.396;599616244306960276;9791.663;261
2024-05-15T21:55:21.404;599616244314652484;9799.3545;157
2024-05-15T21:55:21.412;599616244322344692;9807.047;47
2024-05-15T21:55:21.419;599616244330036900;9814.739;104
2024-05-15T21:55:21.427;599616244337729108;9822.432;176
2024-05-15T21:55:21.435;599616244345421316;9830.123;176
2024-05-15T21:55:21.442;599616244353113524;9837.815;197
2024-05-15T21:55:21.450;599616244360805732;9845.508;147
2024-05-15T21:55:21.458;599616244368497940;9853.2;19
2024-05-15T21:55:21.465;599616244376190148;9860.893;152
2024-05-15T21:55:21.473;599616244383882356;9868.585;687
2024-05-15T21:55:21.481;599616244391574564;9876.277;1142
2024-05-15T21:55:21.488;599616244399266772;9883.97;935
2024-05-15T21:55:21.496;599616244406958980;9891.662;288
2024-05-15T21:55:21.504;599616244414651188;9899.354;11
2024-05-15T21:55:21.512;599616244422343396;9907.045;149
2024-05-15T21:55:21.519;599616244430035604;9914.737;185
2024-05-15T21:55:21.527;599616244437727812;9922.43;195
2024-05-15T21:55:21.535;599616244445420020;9930.122;342
2024-05-15T21:55:21.542;599616244453112228;9937.814;385
2024-05-15T21:55:21.550;599616244460804436;9945.507;268
2024-05-15T21:55:21.558;599616244468496644;9953.199;171
2024-05-15T21:55:21.565;599616244476188852;9960.892;145
2024-05-15T21:55:21.573;599616244483881060;9968.584;99
2024-05-15T21:55:21.581;599616244491573268;9976.276;28
2024-05-15T21:55:21.588;599616244499265476;9983.968;14
2024-05-15T21:55:21.596;599616244506957684;9991.66;4
2024-05-15T21:55:21.604;599616244514649892;9999.352;-66
2024-05-15T21:55:21.612;599616244522342100;10007.044;-119
2024-05-15T21:55:21.619;599616244530034308;10014.736;-135
2024-05-15T21:55:21.627;599616244537726516;10022.429;-235
2024-05-15T21:55:21.635;599616244545418724;10030.121;-399
2024-05-15T21:55:21.642;599616244553110932;10037.813;-523
2024-05-15T21:55:21.650;599616244560803140;10045.506;-590
2024-05-15T21:55:21.658;599616244568495348;10053.198;-699
2024-05-15T21:55:21.665;599616244576187556;10060.89;-883
2024-05-15T21:55:21.673;599616244583879764;10068.582;-945
2024-05-15T21:55:21.681;599616244591571972;10076.274;-833
2024-05-15T21:55:21.688;599616244599264180;10083.967;-752
2024-05-15T21:55:21.696;599616244606956388;10091.659;-754
2024-05-15T21:55:21.704;599616244614648596;10099.351;-733
2024-05-15T21:55:21.712;599616244622370916;10107.073;-668
2024-05-15T21:55:21.719;599616244630062706;10114.765;-621
2024-05-15T21:55:21.727;599616244637754496;10122.457;-592
2024-05-15T21:55:21.735;599616244645446286;10130.148;-461
2024-05-15T21:55:21.742;599616244653138076;10137.841;-135
2024-05-15T21:55:21.750;599616244660829866;10145.532;214
2024-05-15T21:55:21.758;599616244668521656;10153.225;330
2024-05-15T21:55:21.765;599616244676213446;10160.915;345
2024-05-15T21:55:21.773;599616244683905236;10168.607;457
2024-05-15T21:55:21.781;599616244691597026;10176.299;547
2024-05-15T21:55:21.788;599616244699288816;10183.991;578
2024-05-15T21:55:21.796;599616244706980606;10191.683;618
2024-05-15T21:55:21.804;599616244714672396;10199.375;626
2024-05-15T21:55:21.812;599616244722364186;10207.066;580
2024-05-15T21:55:21.819;599616244730055976;10214.759;509
2024-05-15T21:55:21.827;599616244737747766;10222.449;561
2024-05-15T21:55:21.835;599616244745439556;10230.142;999
2024-05-15T21:55:21.842;599616244753131346;10237.834;1621
2024-05-15T21:55:21.850;599616244760823136;10245.525;1797
2024-05-15T21:55:21.858;599616244768514926;10253.218;1352
2024-05-15T21:55:21.865;599616244776206716;10260.909;873
2024-05-15T21:55:21.873;599616244783898506;10268.602;835
2024-05-15T21:55:21.881;599616244791590296;10276.293;921
2024-05-15T21:55:21.888;599616244799282086;10283.985;873
2024-05-15T21:55:21.896;599616244806973876;10291.676;890
2024-05-15T21:55:21.904;599616244814665666;10299.368;964
2024-05-15T21:55:21.912;599616244822357456;10307.06;961
2024-05-15T21:55:21.919;599616244830049246;10314.752;940
2024-05-15T21:55:21.927;599616244837741036;10322.443;935
2024-05-15T21:55:21.935;599616244845432826;10330.136;890
2024-05-15T21:55:21.942;599616244853124616;10337.827;809
2024-05-15T21:55:21.950;599616244860816406;10345.52;728
2024-05-15T21:55:21.958;599616244868508196;10353.21;599
2024-05-15T21:55:21.965;599616244876199986;10360.902;426
2024-05-15T21:55:21.973;599616244883891776;10368.594;285
2024-05-15T21:55:21.981;599616244891583566;10376.286;199
2024-05-15T21:55:21.988;599616244899275356;10383.978;119
2024-05-15T21:55:21.996;599616244906967146;10391.67;9
2024-05-15T21:55:22.004;599616244914658936;10399.361;-95
2024-05-15T21:55:22.012;599616244922350726;10407.054;-176
2024-05-15T21:55:22.019;599616244930042516;10414.744;-240
2024-05-15T21:55:22.027;599616244937734306;10422.437;-307
2024-05-15T21:55:22.035;599616244945426096;10430.128;-390
2024-05-15T21:55:22.042;599616244953117886;10437.82;-459
2024-05-15T21:55:22.050;599616244960809676;10445.512;-495
2024-05-15T21:55:22.058;599616244968501466;10453.204;-523
2024-05-15T21:55:22.065;599616244976193256;10460.8955;-571
2024-05-15T21:55:22.073;599616244983885046;10468.588;-633
2024-05-15T21:55:22.081;599616244991576836;10476.278;-668
2024-05-15T21:55:22.088;599616244999268626;10483.971;-687
2024-05-15T21:55:22.096;599616245006960416;10491.662;-709
2024-05-15T21:55:22.104;599616245014652206;10499.3545;-723
2024-05-15T21:55:22.112;599616245022343996;10507.046;-716
2024-05-15T21:55:22.119;599616245030035786;10514.738;-690
2024-05-15T21:55:22.127;599616245037727576;10522.431;-666
2024-05-15T21:55:22.135;599616245045419366;10530.122;-609
2024-05-15T21:55:22.142;599616245053111156;10537.814;-478
2024-05-15T21:55:22.150;599616245060802946;10545.505;-321
2024-05-15T21:55:22.158;599616245068494736;10553.197;-192
2024-05-15T21:55:22.165;599616245076186526;10560.889;-116
2024-05-15T21:55:22.173;599616245083878316;10568.581;-104
2024-05-15T21:55:22.181;599616245091570106;10576.272;-123
2024-05-15T21:55:22.188;599616245099261896;10583.965;-128
2024-05-15T21:55:22.196;599616245106953686;10591.656;59
2024-05-15T21:55:22.204;599616245114645476;10599.349;573
2024-05-15T21:55:22.212;599616245122337266;10607.039;1071
2024-05-15T21:55:22.219;599616245130029056;10614.731;1025
2024-05-15T21:55:22.227;599616245137720846;10622.423;516
2024-05-15T21:55:22.235;599616245145412636;10630.115;183
2024-05-15T21:55:22.242;599616245153104426;10637.807;247
2024-05-15T21:55:22.250;599616245160796216;10645.499;316
2024-05-15T21:55:22.258;599616245168488006;10653.19;290
2024-05-15T21:55:22.265;599616245176179796;10660.883;335
2024-05-15T21:55:22.273;599616245183871598;10668.573;392
2024-05-15T21:55:22.281;599616245191563388;10676.266;378
2024-05-15T21:55:22.288;599616245199255178;10683.957;318
2024-05-15T21:55:22.296;599616245206946968;10691.649;245
2024-05-15T21:55:22.304;599616245214638758;10699.341;211
2024-05-15T21:55:22.312;599616245222330548;10707.033;233
2024-05-15T21:55:22.319;599616245230022338;10714.725;264
2024-05-15T21:55:22.327;599616245237714128;10722.417;268
2024-05-15T21:55:22.335;599616245245405918;10730.107;242
2024-05-15T21:55:22.342;599616245253097708;10737.8;242
2024-05-15T21:55:22.350;599616245260789498;10745.491;264
2024-05-15T21:55:22.358;599616245268481288;10753.184;209
2024-05-15T21:55:22.365;599616245276173078;10760.875;123
2024-05-15T21:55:22.373;599616245283864868;10768.567;152
2024-05-15T21:55:22.381;599616245291556658;10776.259;221
2024-05-15T21:55:22.388;599616245299248448;10783.951;235
2024-05-15T21:55:22.396;599616245306940238;10791.644;273
2024-05-15T21:55:22.404;599616245314632028;10799.334;347
2024-05-15T21:55:22.412;599616245322323818;10807.026;383
2024-05-15T21:55:22.419;599616245330015608;10814.718;392
2024-05-15T21:55:22.427;599616245337707398;10822.41;411
2024-05-15T21:55:22.435;599616245345399188;10830.102;428
2024-05-15T21:55:22.442;599616245353090978;10837.794;449
2024-05-15T21:55:22.450;599616245360782768;10845.485;478
2024-05-15T21:55:22.458;599616245368474558;10853.178;490
2024-05-15T21:55:22.465;599616245376166348;10860.868;490
2024-05-15T21:55:22.473;599616245383858138;10868.561;495
2024-05-15T21:55:22.481;599616245391549928;10876.252;480
2024-05-15T21:55:22.488;599616245399241718;10883.944;452
2024-05-15T21:55:22.496;599616245406933508;10891.636;452
2024-05-15T21:55:22.504;599616245414625298;10899.328;461
2024-05-15T21:55:22.512;599616245422317088;10907.02;428
2024-05-15T21:55:22.519;599616245430008878;10914.712;390
2024-05-15T21:55:22.527;599616245437700668;10922.402;404
2024-05-15T21:55:22.535;599616245445392458;10930.095;411
2024-05-15T21:55:22.542;599616245453084248;10937.786;349
2024-05-15T21:55:22.550;599616245460776038;10945.479;266
2024-05-15T21:55:22.558;599616245468467828;10953.17;230
2024-05-15T21:55:22.565;599616245476159618;10960.862;385
2024-05-15T21:55:22.573;599616245483851408;10968.554;837
2024-05-15T21:55:22.581;599616245491543198;10976.246;1275
2024-05-15T21:55:22.588;599616245499234988;10983.9375;1175
2024-05-15T21:55:22.596;599616245506926778;10991.629;637
2024-05-15T21:55:22.604;599616245514618568;10999.32;326
2024-05-15T21:55:22.612;599616245522310358;11007.013;376
2024-05-15T21:55:22.619;599616245530002148;11014.704;364
2024-05-15T21:55:22.627;599616245537693938;11022.396;264
2024-05-15T21:55:22.635;599616245545385728;11030.088;261
2024-05-15T21:55:22.642;599616245553077518;11037.78;266
2024-05-15T21:55:22.650;599616245560769308;11045.472;238
2024-05-15T21:55:22.658;599616245568461098;11053.163;218
2024-05-15T21:55:22.665;599616245576152888;11060.8545;126
2024-05-15T21:55:22.673;599616245583844678;11068.547;9
2024-05-15T21:55:22.681;599616245591536468;11076.239;-2
2024-05-15T21:55:22.688;599616245599228258;11083.931;33
2024-05-15T21:55:22.696;599616245606920048;11091.623;21
2024-05-15T21:55:22.704;599616245614611838;11099.314;4
2024-05-15T21:55:22.712;599616245622303628;11107.007;9
2024-05-15T21:55:22.719;599616245629995418;11114.697;9
2024-05-15T21:55:22.727;599616245637687208;11122.39;30
2024-05-15T21:55:22.735;599616245645378998;11130.081;71
2024-05-15T21:55:22.742;599616245653070788;11137.773;85
2024-05-15T21:55:22.750;599616245660762578;11145.465;69
2024-05-15T21:55:22.758;599616245668454368;11153.157;69
2024-05-15T21:55:22.765;599616245676146158;11160.849;107
2024-05-15T21:55:22.773;599616245683837948;11168.541;130
2024-05-15T21:55:22.781;599616245691529738;11176.232;102
2024-05-15T21:55:22.788;599616245699221528;11183.924;47
2024-05-15T21:55:22.796;599616245706913318;11191.615;21
2024-05-15T21:55:22.804;599616245714605108;11199.308;33
2024-05-15T21:55:22.811;599616245722296898;11206.999;47
2024-05-15T21:55:22.819;599616245729988688;11214.691;59
2024-05-15T21:55:22.827;599616245737680478;11222.383;78
2024-05-15T21:55:22.835;599616245745372280;11230.075;80
2024-05-15T21:55:22.842;599616245753064070;11237.767;64
2024-05-15T21:55:22.850;599616245760755860;11245.458;76
2024-05-15T21:55:22.858;599616245768447650;11253.149;119
2024-05-15T21:55:22.865;599616245776139440;11260.842;138
2024-05-15T21:55:22.873;599616245783831230;11268.533;147
2024-05-15T21:55:22.881;599616245791523020;11276.226;169
2024-05-15T21:55:22.888;599616245799214810;11283.917;161
2024-05-15T21:55:22.896;599616245806906600;11291.609;97
2024-05-15T21:55:22.904;599616245814598390;11299.301;26
2024-05-15T21:55:22.911;599616245822290180;11306.992;33
2024-05-15T21:55:22.919;599616245829981970;11314.684;35
2024-05-15T21:55:22.927;599616245837673760;11322.376;-66
2024-05-15T21:55:22.935;599616245845365550;11330.067;-54
2024-05-15T21:55:22.942;599616245853057340;11337.76;357
2024-05-15T21:55:22.950;599616245860749130;11345.452;952
2024-05-15T21:55:22.958;599616245868440920;11353.144;1094
2024-05-15T21:55:22.965;599616245876132710;11360.836;576
2024-05-15T21:55:22.973;599616245883824500;11368.526;66
2024-05-15T21:55:22.981;599616245891516290;11376.219;78
2024-05-15T21:55:22.988;599616245899208080;11383.91;169
2024-05-15T21:55:22.996;599616245906899870;11391.603;47
2024-05-15T21:55:23.004;599616245914591660;11399.294;9
2024-05-15T21:55:23.011;599616245922283450;11406.986;54
2024-05-15T21:55:23.019;599616245929975240;11414.678;-21
2024-05-15T21:55:23.027;599616245937667030;11422.37;-133
2024-05-15T21:55:23.035;599616245945358820;11430.062;-164
2024-05-15T21:55:23.042;599616245953050610;11437.753;-149
2024-05-15T21:55:23.050;599616245960742400;11445.444;-133
2024-05-15T21:55:23.058;599616245968434190;11453.137;-116
2024-05-15T21:55:23.065;599616245976125980;11460.828;-95
2024-05-15T21:55:23.073;599616245983817770;11468.5205;-95
2024-05-15T21:55:23.081;599616245991509560;11476.212;-111
2024-05-15T21:55:23.088;599616245999201350;11483.904;-90
2024-05-15T21:55:23.096;599616246006893140;11491.596;-33
2024-05-15T21:55:23.104;599616246014584930;11499.287;-14
2024-05-15T21:55:23.111;599616246022276720;11506.979;-19
2024-05-15T21:55:23.119;599616246029968510;11514.671;2
2024-05-15T21:55:23.127;599616246037660300;11522.362;33
2024-05-15T21:55:23.135;599616246045352090;11530.055;49
2024-05-15T21:55:23.142;599616246053043880;11537.746;64
2024-05-15T21:55:23.150;599616246060735670;11545.438;109
2024-05-15T21:55:23.158;599616246068427460;11553.13;164
2024-05-15T21:55:23.165;599616246076119250;11560.821;164
2024-05-15T21:55:23.173;599616246083811040;11568.513;102
2024-05-15T21:55:23.181;599616246091502830;11576.205;47
2024-05-15T21:55:23.188;599616246099194620;11583.896;64
2024-05-15T21:55:23.196;599616246106886410;11591.589;71
2024-05-15T21:55:23.204;599616246114578200;11599.28;14
2024-05-15T21:55:23.211;599616246122269990;11606.973;-14
2024-05-15T21:55:23.219;599616246129961780;11614.664;9
2024-05-15T21:55:23.227;599616246137653570;11622.356;33
2024-05-15T21:55:23.235;599616246145345360;11630.048;61
2024-05-15T21:55:23.242;599616246153037150;11637.739;121
2024-05-15T21:55:23.250;599616246160728940;11645.432;169
2024-05-15T21:55:23.258;599616246168420730;11653.123;161
2024-05-15T21:55:23.265;599616246176112520;11660.815;145
2024-05-15T21:55:23.273;599616246183804310;11668.507;159
2024-05-15T21:55:23.281;599616246191496100;11676.199;154
2024-05-15T21:55:23.288;599616246199187890;11683.891;123
2024-05-15T21:55:23.296;599616246206879680;11691.582;61
2024-05-15T21:55:23.304;599616246214571470;11699.273;28
2024-05-15T21:55:23.311;599616246222263260;11706.966;283
2024-05-15T21:55:23.319;599616246229955050;11714.657;866
2024-05-15T21:55:23.327;599616246237646840;11722.35;1273
2024-05-15T21:55:23.335;599616246245338630;11730.041;975
2024-05-15T21:55:23.342;599616246253030420;11737.733;292
2024-05-15T21:55:23.350;599616246260722210;11745.425;23
2024-05-15T21:55:23.358;599616246268414000;11753.116;133
2024-05-15T21:55:23.365;599616246276105790;11760.808;97
2024-05-15T21:55:23.373;599616246283797580;11768.5;2
2024-05-15T21:55:23.381;599616246291489370;11776.191;28
2024-05-15T21:55:23.388;599616246299181160;11783.884;61
2024-05-15T21:55:23.396;599616246306872962;11791.575;64
2024-05-15T21:55:23.404;599616246314564752;11799.268;95
2024-05-15T21:55:23.411;599616246322256542;11806.959;130
2024-05-15T21:55:23.419;599616246329948332;11814.651;169
2024-05-15T21:55:23.427;599616246337640122;11822.342;233
2024-05-15T21:55:23.435;599616246345331912;11830.034;266
2024-05-15T21:55:23.442;599616246353023702;11837.726;264
2024-05-15T21:55:23.450;599616246360715492;11845.418;288
2024-05-15T21:55:23.458;599616246368407282;11853.109;323
2024-05-15T21:55:23.465;599616246376099072;11860.802;295
2024-05-15T21:55:23.473;599616246383790862;11868.493;230
2024-05-15T21:55:23.481;599616246391482652;11876.186;230
2024-05-15T21:55:23.488;599616246399174442;11883.876;268
2024-05-15T21:55:23.496;599616246406866232;11891.568;280
2024-05-15T21:55:23.504;599616246414558022;11899.261;292
2024-05-15T21:55:23.511;599616246422249812;11906.952;335
2024-05-15T21:55:23.519;599616246429941602;11914.645;335
2024-05-15T21:55:23.527;599616246437633392;11922.336;259
2024-05-15T21:55:23.535;599616246445325182;11930.028;207
2024-05-15T21:55:23.542;599616246453016972;11937.72;238
2024-05-15T21:55:23.550;599616246460708762;11945.411;278
2024-05-15T21:55:23.558;599616246468400552;11953.103;266
2024-05-15T21:55:23.565;599616246476092342;11960.795;233
2024-05-15T21:55:23.573;599616246483784132;11968.486;235
2024-05-15T21:55:23.581;599616246491475922;11976.179;252
2024-05-15T21:55:23.588;599616246499167712;11983.87;245
2024-05-15T21:55:23.596;599616246506859502;11991.5625;252
2024-05-15T21:55:23.604;599616246514551292;11999.254;304
2024-05-15T21:55:23.611;599616246522243082;12006.945;347
2024-05-15T21:55:23.619;599616246529934872;12014.637;345
2024-05-15T21:55:23.627;599616246537626662;12022.329;354
2024-05-15T21:55:23.635;599616246545318452;12030.0205;418
2024-05-15T21:55:23.642;599616246553010242;12037.713;478
2024-05-15T21:55:23.650;599616246560702032;12045.404;495
2024-05-15T21:55:23.658;599616246568393822;12053.097;492
2024-05-15T21:55:23.665;599616246576085612;12060.788;430
2024-05-15T21:55:23.673;599616246583777402;12068.48;292
2024-05-15T21:55:23.681;599616246591469192;12076.171;285
2024-05-15T21:55:23.688;599616246599160982;12083.863;671
2024-05-15T21:55:23.696;599616246606852772;12091.555;1249
2024-05-15T21:55:23.704;599616246614544562;12099.247;1352
2024-05-15T21:55:23.711;599616246622236352;12106.938;723
2024-05-15T21:55:23.719;599616246629928142;12114.631;116
2024-05-15T21:55:23.727;599616246637619932;12122.322;121
2024-05-15T21:55:23.735;599616246645311722;12130.015;211
2024-05-15T21:55:23.742;599616246653003512;12137.705;49
2024-05-15T21:55:23.750;599616246660695302;12145.397;14
2024-05-15T21:55:23.758;599616246668387092;12153.089;102
2024-05-15T21:55:23.765;599616246676078882;12160.781;54
2024-05-15T21:55:23.773;599616246683770672;12168.473;-23
2024-05-15T21:55:23.781;599616246691462462;12176.165;-4
2024-05-15T21:55:23.788;599616246699154252;12183.857;33
2024-05-15T21:55:23.796;599616246706846042;12191.549;30
2024-05-15T21:55:23.804;599616246714537832;12199.24;30
2024-05-15T21:55:23.811;599616246722229622;12206.932;45
2024-05-15T21:55:23.819;599616246729921412;12214.624;64
2024-05-15T21:55:23.827;599616246737613202;12222.315;78
2024-05-15T21:55:23.835;599616246745304992;12230.008;83
2024-05-15T21:55:23.842;599616246752996782;12237.699;97
2024-05-15T21:55:23.850;599616246760688572;12245.392;104
2024-05-15T21:55:23.858;599616246768380362;12253.083;83
2024-05-15T21:55:23.865;599616246776072152;12260.775;85
2024-05-15T21:55:23.873;599616246783763942;12268.466;140
2024-05-15T21:55:23.881;599616246791455732;12276.158;188
2024-05-15T21:55:23.888;599616246799147522;12283.85;202
2024-05-15T21:55:23.896;599616246806839312;12291.542;221
2024-05-15T21:55:23.904;599616246814531102;12299.233;242
2024-05-15T21:55:23.911;599616246822222892;12306.926;259
2024-05-15T21:55:23.919;599616246829914682;12314.617;252
2024-05-15T21:55:23.927;599616246837606472;12322.31;214
2024-05-15T21:55:23.935;599616246845298262;12330.0;209
2024-05-15T21:55:23.942;599616246852990052;12337.692;221
2024-05-15T21:55:23.950;599616246860681842;12345.384;197
2024-05-15T21:55:23.958;599616246868373644;12353.076;190
2024-05-15T21:55:23.965;599616246876065434;12360.768;240
2024-05-15T21:55:23.973;599616246883757224;12368.46;273
2024-05-15T21:55:23.981;599616246891449014;12376.151;268
2024-05-15T21:55:23.988;599616246899140804;12383.844;276
2024-05-15T21:55:23.996;599616246906832594;12391.534;295
2024-05-15T21:55:24.004;599616246914524384;12399.227;295
2024-05-15T21:55:24.011;599616246922216174;12406.918;278
2024-05-15T21:55:24.019;599616246929907964;12414.61;257
2024-05-15T21:55:24.027;599616246937599754;12422.302;254
2024-05-15T21:55:24.034;599616246945291544;12429.994;202
2024-05-15T21:55:24.042;599616246952983334;12437.686;14
2024-05-15T21:55:24.050;599616246960675124;12445.378;-57
2024-05-15T21:55:24.058;599616246968366914;12453.068;292
2024-05-15T21:55:24.065;599616246976058704;12460.761;890
2024-05-15T21:55:24.073;599616246983750494;12468.453;1192
2024-05-15T21:55:24.081;599616246991442284;12476.145;821
2024-05-15T21:55:24.088;599616246999134074;12483.837;135
2024-05-15T21:55:24.096;599616247006825864;12491.528;-147
2024-05-15T21:55:24.104;599616247014517654;12499.221;-104
2024-05-15T21:55:24.111;599616247022209444;12506.912;-173
2024-05-15T21:55:24.119;599616247029901234;12514.6045;-245
2024-05-15T21:55:24.127;599616247037593024;12522.295;-238
2024-05-15T21:55:24.134;599616247045284814;12529.987;-278
2024-05-15T21:55:24.142;599616247052976604;12537.679;-290
2024-05-15T21:55:24.150;599616247060668394;12545.371;-238
2024-05-15T21:55:24.158;599616247068360184;12553.0625;-233
2024-05-15T21:55:24.165;599616247076051974;12560.755;-240
2024-05-15T21:55:24.173;599616247083743764;12568.446;-207
2024-05-15T21:55:24.181;599616247091435554;12576.139;-199
2024-05-15T21:55:24.188;599616247099127344;12583.829;-254
2024-05-15T21:55:24.196;599616247106819134;12591.521;-318
2024-05-15T21:55:24.204;599616247114510924;12599.213;-321
2024-05-15T21:55:24.211;599616247122202714;12606.905;-285
2024-05-15T21:55:24.219;599616247129894504;12614.597;-283
2024-05-15T21:55:24.227;599616247137586294;12622.289;-290
2024-05-15T21:55:24.234;599616247145278084;12629.98;-240
2024-05-15T21:55:24.242;599616247152969874;12637.673;-161
2024-05-15T21:55:24.250;599616247160661664;12645.363;-111
2024-05-15T21:55:24.258;599616247168353454;12653.056;-76
2024-05-15T21:55:24.265;599616247176045244;12660.747;-45
2024-05-15T21:55:24.273;599616247183737034;12668.439;-21
2024-05-15T21:55:24.281;599616247191428824;12676.131;-19
2024-05-15T21:55:24.288;599616247199120614;12683.823;-23
2024-05-15T21:55:24.296;599616247206812404;12691.515;4
2024-05-15T21:55:24.304;599616247214504194;12699.207;47
2024-05-15T21:55:24.311;599616247222195984;12706.897;54
2024-05-15T21:55:24.319;599616247229887774;12714.59;49
2024-05-15T21:55:24.327;599616247237579564;12722.281;73
2024-05-15T21:55:24.334;599616247245271354;12729.974;116
2024-05-15T21:55:24.342;599616247252963144;12737.666;149
2024-05-15T21:55:24.350;599616247260654934;12745.357;178
2024-05-15T21:55:24.358;599616247268346724;12753.05;216
2024-05-15T21:55:24.365;599616247276038514;12760.741;233
2024-05-15T21:55:24.373;599616247283730304;12768.434;226
2024-05-15T21:55:24.381;599616247291422094;12776.124;249
2024-05-15T21:55:24.388;599616247299113884;12783.816;292
2024-05-15T21:55:24.396;599616247306805674;12791.508;314
2024-05-15T21:55:24.404;599616247314497464;12799.2;316
2024-05-15T21:55:24.411;599616247322189254;12806.892;285
2024-05-15T21:55:24.419;599616247329881044;12814.584;211
2024-05-15T21:55:24.427;599616247337572834;12822.275;257
2024-05-15T21:55:24.434;599616247345264624;12829.968;626
2024-05-15T21:55:24.442;599616247352956414;12837.658;1147
2024-05-15T21:55:24.450;599616247360648204;12845.351;1285
2024-05-15T21:55:24.458;599616247368339994;12853.042;761
2024-05-15T21:55:24.465;599616247376031784;12860.734;133
2024-05-15T21:55:24.473;599616247383723574;12868.426;54
2024-05-15T21:55:24.481;599616247391415364;12876.118;185
2024-05-15T21:55:24.488;599616247399107154;12883.81;102
2024-05-15T21:55:24.496;599616247406798944;12891.502;47
2024-05-15T21:55:24.504;599616247414490734;12899.192;66
2024-05-15T21:55:24.511;599616247422182524;12906.885;-9
2024-05-15T21:55:24.519;599616247429874326;12914.576;-78
2024-05-15T21:55:24.527;599616247437566116;12922.269;-54
2024-05-15T21:55:24.534;599616247445257906;12929.96;-33
2024-05-15T21:55:24.542;599616247452949696;12937.652;-73
2024-05-15T21:55:24.550;599616247460641486;12945.344;-157
2024-05-15T21:55:24.558;599616247468333276;12953.036;-197
2024-05-15T21:55:24.565;599616247476025066;12960.727;-147
2024-05-15T21:55:24.573;599616247483716856;12968.419;-107
2024-05-15T21:55:24.581;599616247491408646;12976.11;-114
2024-05-15T21:55:24.588;599616247499100436;12983.803;-99
2024-05-15T21:55:24.596;599616247506792226;12991.494;-49
2024-05-15T21:55:24.604;599616247514484016;12999.187;-16
2024-05-15T21:55:24.611;599616247522175806;13006.878;7
2024-05-15T21:55:24.619;599616247529867596;13014.57;69
2024-05-15T21:55:24.627;599616247537559386;13022.263;161
2024-05-15T21:55:24.634;599616247545251176;13029.953;214
2024-05-15T21:55:24.642;599616247552942966;13037.6455;211
2024-05-15T21:55:24.650;599616247560634756;13045.337;204
2024-05-15T21:55:24.658;599616247568326546;13053.029;216
2024-05-15T21:55:24.665;599616247576018336;13060.721;223
2024-05-15T21:55:24.673;599616247583710126;13068.413;226
2024-05-15T21:55:24.681;599616247591401916;13076.1045;228
2024-05-15T21:55:24.688;599616247599093706;13083.797;180
2024-05-15T21:55:24.696;599616247606785496;13091.487;69
2024-05-15T21:55:24.704;599616247614477286;13099.18;26
2024-05-15T21:55:24.711;599616247622169076;13106.871;85
2024-05-15T21:55:24.719;599616247629860866;13114.563;126
2024-05-15T21:55:24.727;599616247637552656;13122.255;135
2024-05-15T21:55:24.734;599616247645244446;13129.947;161
2024-05-15T21:55:24.742;599616247652936236;13137.639;192
2024-05-15T21:55:24.750;599616247660628026;13145.331;192
2024-05-15T21:55:24.758;599616247668319816;13153.021;161
2024-05-15T21:55:24.765;599616247676011606;13160.714;164
2024-05-15T21:55:24.773;599616247683703396;13168.405;216
2024-05-15T21:55:24.781;599616247691395186;13176.098;233
2024-05-15T21:55:24.788;599616247699086976;13183.789;171
2024-05-15T21:55:24.796;599616247706778766;13191.481;99
2024-05-15T21:55:24.804;599616247714470556;13199.173;190
2024-05-15T21:55:24.811;599616247722162346;13206.865;595
2024-05-15T21:55:24.819;599616247729854136;13214.557;1071
2024-05-15T21:55:24.827;599616247737545926;13222.248;1052
2024-05-15T21:55:24.834;599616247745237716;13229.939;478
2024-05-15T21:55:24.842;599616247752929506;13237.632;42
2024-05-15T21:55:24.850;599616247760621296;13245.323;78
2024-05-15T21:55:24.858;599616247768313086;13253.016;145
2024-05-15T21:55:24.865;599616247776004876;13260.707;71
2024-05-15T21:55:24.873;599616247783696666;13268.399;64
2024-05-15T21:55:24.881;599616247791388456;13276.091;88
2024-05-15T21:55:24.888;599616247799080246;13283.782;85
2024-05-15T21:55:24.896;599616247806772036;13291.475;128
2024-05-15T21:55:24.904;599616247814463826;13299.166;173
2024-05-15T21:55:24.911;599616247822155616;13306.858;171
2024-05-15T21:55:24.919;599616247829847406;13314.55;176
2024-05-15T21:55:24.927;599616247837539196;13322.242;214
2024-05-15T21:55:24.934;599616247845230986;13329.934;238
2024-05-15T21:55:24.942;599616247852922776;13337.626;252
2024-05-15T21:55:24.950;599616247860614566;13345.316;295
2024-05-15T21:55:24.958;599616247868306356;13353.009;323
2024-05-15T21:55:24.965;599616247875998146;13360.7;299
2024-05-15T21:55:24.973;599616247883689936;13368.393;273
2024-05-15T21:55:24.981;599616247891381726;13376.084;297
2024-05-15T21:55:24.988;599616247899073516;13383.776;347
2024-05-15T21:55:24.996;599616247906765306;13391.468;366
2024-05-15T21:55:25.004;599616247914457096;13399.16;342
2024-05-15T21:55:25.011;599616247922148886;13406.851;290
2024-05-15T21:55:25.019;599616247929840676;13414.543;252
2024-05-15T21:55:25.027;599616247937532466;13422.234;245
2024-05-15T21:55:25.034;599616247945224256;13429.927;254
2024-05-15T21:55:25.042;599616247952916046;13437.618;266
2024-05-15T21:55:25.050;599616247960607836;13445.311;276
2024-05-15T21:55:25.058;599616247968299626;13453.002;254
2024-05-15T21:55:25.065;599616247975991416;13460.694;235
2024-05-15T21:55:25.073;599616247983683206;13468.386;238
2024-05-15T21:55:25.081;599616247991375008;13476.077;249
2024-05-15T21:55:25.088;599616247999066798;13483.769;257
2024-05-15T21:55:25.096;599616248006758588;13491.461;261
2024-05-15T21:55:25.104;599616248014450378;13499.152;264
2024-05-15T21:55:25.111;599616248022142168;13506.845;249
2024-05-15T21:55:25.119;599616248029833958;13514.536;183
2024-05-15T21:55:25.127;599616248037525748;13522.229;99
2024-05-15T21:55:25.134;599616248045217538;13529.92;99
2024-05-15T21:55:25.142;599616248052909328;13537.611;119
2024-05-15T21:55:25.150;599616248060601118;13545.303;73
2024-05-15T21:55:25.157;599616248068292908;13552.995;42
2024-05-15T21:55:25.165;599616248075984698;13560.687;21
2024-05-15T21:55:25.173;599616248083676488;13568.379;-102
2024-05-15T21:55:25.181;599616248091368278;13576.071;-142
2024-05-15T21:55:25.188;599616248099060068;13583.763;176
2024-05-15T21:55:25.196;599616248106751858;13591.455;640
2024-05-15T21:55:25.204;599616248114443648;13599.1455;668
2024-05-15T21:55:25.211;599616248122135438;13606.838;121
2024-05-15T21:55:25.219;599616248129827228;13614.529;-395
2024-05-15T21:55:25.227;599616248137519018;13622.222;-402
2024-05-15T21:55:25.234;599616248145210808;13629.913;-273
2024-05-15T21:55:25.242;599616248152902598;13637.605;-359
2024-05-15T21:55:25.250;599616248160594388;13645.297;-418
2024-05-15T21:55:25.257;599616248168286178;13652.989;-316
2024-05-15T21:55:25.265;599616248175977968;13660.681;-233
2024-05-15T21:55:25.273;599616248183669758;13668.372;-228
2024-05-15T21:55:25.281;599616248191361548;13676.063;-211
2024-05-15T21:55:25.288;599616248199053338;13683.756;-188
2024-05-15T21:55:25.296;599616248206745128;13691.447;-185
2024-05-15T21:55:25.304;599616248214436918;13699.14;-164
2024-05-15T21:55:25.311;599616248222128708;13706.831;-99
2024-05-15T21:55:25.319;599616248229820498;13714.523;-42
2024-05-15T21:55:25.327;599616248237512288;13722.215;-16
2024-05-15T21:55:25.334;599616248245204078;13729.906;9
2024-05-15T21:55:25.342;599616248252895868;13737.598;49
2024-05-15T21:55:25.350;599616248260587658;13745.29;83
2024-05-15T21:55:25.357;599616248268279448;13752.981;99
2024-05-15T21:55:25.365;599616248275971238;13760.674;126
2024-05-15T21:55:25.373;599616248283663028;13768.365;149
2024-05-15T21:55:25.381;599616248291354818;13776.058;116
2024-05-15T21:55:25.388;599616248299046608;13783.749;73
2024-05-15T21:55:25.396;599616248306738398;13791.44;95
2024-05-15T21:55:25.404;599616248314430188;13799.132;145
2024-05-15T21:55:25.411;599616248322121978;13806.824;176
2024-05-15T21:55:25.419;599616248329813768;13814.516;190
2024-05-15T21:55:25.427;599616248337505558;13822.208;188
2024-05-15T21:55:25.434;599616248345197348;13829.899;204
2024-05-15T21:55:25.442;599616248352889138;13837.592;240
2024-05-15T21:55:25.450;599616248360580928;13845.283;245
2024-05-15T21:55:25.457;599616248368272718;13852.976;254
2024-05-15T21:55:25.465;599616248375964508;13860.667;299
2024-05-15T21:55:25.473;599616248383656298;13868.358;304
2024-05-15T21:55:25.481;599616248391348088;13876.051;285
2024-05-15T21:55:25.488;599616248399039878;13883.742;302
2024-05-15T21:55:25.496;599616248406731668;13891.435;288
2024-05-15T21:55:25.504;599616248414423458;13899.126;240
2024-05-15T21:55:25.511;599616248422115248;13906.818;228
2024-05-15T21:55:25.519;599616248429807038;13914.51;240
2024-05-15T21:55:25.527;599616248437498828;13922.201;257
2024-05-15T21:55:25.534;599616248445190618;13929.893;242
2024-05-15T21:55:25.542;599616248452882408;13937.585;161
2024-05-15T21:55:25.550;599616248460574198;13945.276;30
2024-05-15T21:55:25.557;599616248468265988;13952.969;-59
2024-05-15T21:55:25.565;599616248475957778;13960.66;147
2024-05-15T21:55:25.573;599616248483649568;13968.353;702
2024-05-15T21:55:25.581;599616248491341358;13976.044;1099
2024-05-15T21:55:25.588;599616248499033148;13983.735;811
2024-05-15T21:55:25.596;599616248506724938;13991.427;142
2024-05-15T21:55:25.604;599616248514416728;13999.119;-104
2024-05-15T21:55:25.611;599616248522108518;14006.811;42
2024-05-15T21:55:25.619;599616248529800308;14014.503;42
2024-05-15T21:55:25.627;599616248537492098;14022.194;-23
2024-05-15T21:55:25.634;599616248545183888;14029.887;30
2024-05-15T21:55:25.642;599616248552875690;14037.578;92
2024-05-15T21:55:25.650;599616248560567480;14045.27;140
2024-05-15T21:55:25.657;599616248568259270;14052.961;192
2024-05-15T21:55:25.665;599616248575951060;14060.653;226
2024-05-15T21:55:25.673;599616248583642850;14068.345;266
2024-05-15T21:55:25.681;599616248591334640;14076.037;290
2024-05-15T21:55:25.688;599616248599026430;14083.729;290
2024-05-15T21:55:25.696;599616248606718220;14091.421;292
2024-05-15T21:55:25.704;599616248614410010;14099.112;235
2024-05-15T21:55:25.711;599616248622101800;14106.805;114
2024-05-15T21:55:25.719;599616248629793590;14114.495;23
2024-05-15T21:55:25.727;599616248637485380;14122.1875;9
2024-05-15T21:55:25.734;599616248645177170;14129.88;9
2024-05-15T21:55:25.742;599616248652868960;14137.571;-47
2024-05-15T21:55:25.750;599616248660560750;14145.264;-116
2024-05-15T21:55:25.757;599616248668252540;14152.955;-97
2024-05-15T21:55:25.765;599616248675944330;14160.647;-33
2024-05-15T21:55:25.773;599616248683636120;14168.339;-2
2024-05-15T21:55:25.781;599616248691327910;14176.03;-7
2024-05-15T21:55:25.788;599616248699019700;14183.722;2
2024-05-15T21:55:25.796;599616248706711490;14191.414;40
2024-05-15T21:55:25.804;599616248714403280;14199.105;52
2024-05-15T21:55:25.811;599616248722095070;14206.798;49
2024-05-15T21:55:25.819;599616248729786860;14214.489;83
2024-05-15T21:55:25.827;599616248737478650;14222.182;114
2024-05-15T21:55:25.834;599616248745170440;14229.873;97
2024-05-15T21:55:25.842;599616248752862230;14237.564;71
2024-05-15T21:55:25.850;599616248760554020;14245.256;88
2024-05-15T21:55:25.857;599616248768245810;14252.948;135
2024-05-15T21:55:25.865;599616248775937600;14260.64;152
2024-05-15T21:55:25.873;599616248783629390;14268.332;138
2024-05-15T21:55:25.881;599616248791321180;14276.023;149
2024-05-15T21:55:25.888;599616248799012970;14283.716;166
2024-05-15T21:55:25.896;599616248806704760;14291.407;142
2024-05-15T21:55:25.904;599616248814396550;14299.1;95
2024-05-15T21:55:25.911;599616248822088340;14306.79;80
2024-05-15T21:55:25.919;599616248829780130;14314.482;66
2024-05-15T21:55:25.927;599616248837471920;14322.174;-42
2024-05-15T21:55:25.934;599616248845163710;14329.866;-192
2024-05-15T21:55:25.942;599616248852855500;14337.558;-92
2024-05-15T21:55:25.950;599616248860547290;14345.25;421
2024-05-15T21:55:25.957;599616248868239080;14352.941;992
2024-05-15T21:55:25.965;599616248875930870;14360.634;999
2024-05-15T21:55:25.973;599616248883622660;14368.324;359
2024-05-15T21:55:25.981;599616248891314450;14376.017;-185
2024-05-15T21:55:25.988;599616248899006240;14383.708;-183
2024-05-15T21:55:25.996;599616248906698030;14391.4;-97
2024-05-15T21:55:26.004;599616248914389820;14399.092;-157
2024-05-15T21:55:26.011;599616248922081610;14406.784;-114
2024-05-15T21:55:26.019;599616248929773400;14414.477;-42
2024-05-15T21:55:26.027;599616248937465190;14422.168;-52
2024-05-15T21:55:26.034;599616248945156980;14429.859;-19
2024-05-15T21:55:26.042;599616248952848770;14437.551;49
2024-05-15T21:55:26.050;599616248960540560;14445.243;59
2024-05-15T21:55:26.057;599616248968232350;14452.935;69
2024-05-15T21:55:26.065;599616248975924140;14460.627;121
2024-05-15T21:55:26.073;599616248983615930;14468.318;152
2024-05-15T21:55:26.081;599616248991307720;14476.011;152
2024-05-15T21:55:26.088;599616248998999510;14483.702;180
2024-05-15T21:55:26.096;599616249006691300;14491.395;223
2024-05-15T21:55:26.104;599616249014383090;14499.085;226
2024-05-15T21:55:26.111;599616249022074880;14506.777;176
2024-05-15T21:55:26.119;599616249029766670;14514.469;114
2024-05-15T21:55:26.127;599616249037458460;14522.161;102
2024-05-15T21:55:26.134;599616249045150250;14529.853;126
2024-05-15T21:55:26.142;599616249052842040;14537.545;128
2024-05-15T21:55:26.150;599616249060533830;14545.236;130
2024-05-15T21:55:26.157;599616249068225620;14552.929;152
2024-05-15T21:55:26.165;599616249075917410;14560.619;140
2024-05-15T21:55:26.173;599616249083609200;14568.312;97
2024-05-15T21:55:26.181;599616249091300990;14576.003;104
2024-05-15T21:55:26.188;599616249098992780;14583.695;149
2024-05-15T21:55:26.196;599616249106684570;14591.387;149
2024-05-15T21:55:26.204;599616249114376372;14599.079;85
2024-05-15T21:55:26.211;599616249122068162;14606.7705;-21
2024-05-15T21:55:26.219;599616249129759952;14614.463;-99
2024-05-15T21:55:26.227;599616249137451742;14622.153;-97
2024-05-15T21:55:26.234;599616249145143532;14629.846;-95
2024-05-15T21:55:26.242;599616249152835322;14637.537;-109
2024-05-15T21:55:26.250;599616249160527112;14645.2295;-85
2024-05-15T21:55:26.257;599616249168218902;14652.921;-128
2024-05-15T21:55:26.265;599616249175910692;14660.613;-242
2024-05-15T21:55:26.273;599616249183602482;14668.305;-259
2024-05-15T21:55:26.280;599616249191294272;14675.997;-228
2024-05-15T21:55:26.288;599616249198986062;14683.688;-268
2024-05-15T21:55:26.296;599616249206677852;14691.38;-321
2024-05-15T21:55:26.304;599616249214369642;14699.072;-349
2024-05-15T21:55:26.311;599616249222061432;14706.764;-423
2024-05-15T21:55:26.319;599616249229753222;14714.456;-423
2024-05-15T21:55:26.327;599616249237445012;14722.147;-66
2024-05-15T21:55:26.334;599616249245136802;14729.84;557
2024-05-15T21:55:26.342;599616249252828592;14737.531;849
2024-05-15T21:55:26.350;599616249260520382;14745.224;418
2024-05-15T21:55:26.357;599616249268212172;14752.914;-221
2024-05-15T21:55:26.365;599616249275903962;14760.606;-338
2024-05-15T21:55:26.373;599616249283595752;14768.298;-183
2024-05-15T21:55:26.380;599616249291287542;14775.99;-233
2024-05-15T21:55:26.388;599616249298979332;14783.682;-295
2024-05-15T21:55:26.396;599616249306671122;14791.374;-238
2024-05-15T21:55:26.404;599616249314362912;14799.065;-221
2024-05-15T21:55:26.411;599616249322054702;14806.758;-230
2024-05-15T21:55:26.419;599616249329746492;14814.448;-188
2024-05-15T21:55:26.427;599616249337438282;14822.141;-138
2024-05-15T21:55:26.434;599616249345130072;14829.832;-123
2024-05-15T21:55:26.442;599616249352821862;14837.524;-126
2024-05-15T21:55:26.450;599616249360513652;14845.216;-104
2024-05-15T21:55:26.457;599616249368205442;14852.908;-54
2024-05-15T21:55:26.465;599616249375897232;14860.6;-16
2024-05-15T21:55:26.473;599616249383589022;14868.292;-26
2024-05-15T21:55:26.480;599616249391280812;14875.982;-78
2024-05-15T21:55:26.488;599616249398972602;14883.675;-149
2024-05-15T21:55:26.496;599616249406664392;14891.366;-188
2024-05-15T21:55:26.504;599616249414356182;14899.059;-159
2024-05-15T21:55:26.511;599616249422047972;14906.75;-88
2024-05-15T21:55:26.519;599616249429739762;14914.442;-42
2024-05-15T21:55:26.527;599616249437431552;14922.134;-47
2024-05-15T21:55:26.534;599616249445123342;14929.826;-52
2024-05-15T21:55:26.542;599616249452815132;14937.517;-11
2024-05-15T21:55:26.550;599616249460506922;14945.209;35
2024-05-15T21:55:26.557;599616249468198712;14952.9;71
2024-05-15T21:55:26.565;599616249475890502;14960.593;116
2024-05-15T21:55:26.573;599616249483582292;14968.285;164
2024-05-15T21:55:26.580;599616249491274082;14975.977;188
2024-05-15T21:55:26.588;599616249498965872;14983.669;202
2024-05-15T21:55:26.596;599616249506657662;14991.36;226
2024-05-15T21:55:26.604;599616249514349452;14999.053;271
2024-05-15T21:55:26.611;599616249522041242;15006.743;321
2024-05-15T21:55:26.619;599616249529733032;15014.436;333
2024-05-15T21:55:26.627;599616249537424822;15022.127;326
2024-05-15T21:55:26.634;599616249545116612;15029.819;361
2024-05-15T21:55:26.642;599616249552808402;15037.511;383
2024-05-15T21:55:26.650;599616249560500192;15045.203;338
2024-05-15T21:55:26.657;599616249568191982;15052.895;299
2024-05-15T21:55:26.665;599616249575883772;15060.587;285
2024-05-15T21:55:26.673;599616249583575562;15068.277;235
2024-05-15T21:55:26.680;599616249591267352;15075.97;176
2024-05-15T21:55:26.688;599616249598959142;15083.661;114
2024-05-15T21:55:26.696;599616249606650932;15091.354;71
2024-05-15T21:55:26.704;599616249614342722;15099.045;245
2024-05-15T21:55:26.711;599616249622034512;15106.737;714
2024-05-15T21:55:26.719;599616249629726302;15114.429;1068
2024-05-15T21:55:26.727;599616249637418092;15122.121;833
2024-05-15T21:55:26.734;599616249645109882;15129.812;188
2024-05-15T21:55:26.742;599616249652801672;15137.504;-171
2024-05-15T21:55:26.750;599616249660493462;15145.195;-78
2024-05-15T21:55:26.757;599616249668185252;15152.888;-16
2024-05-15T21:55:26.765;599616249675877054;15160.579;-99
2024-05-15T21:55:26.773;599616249683568844;15168.271;-80
2024-05-15T21:55:26.780;599616249691260634;15175.963;7
2024-05-15T21:55:26.788;599616249698952424;15183.655;54
2024-05-15T21:55:26.796;599616249706644214;15191.346;85
2024-05-15T21:55:26.804;599616249714336004;15199.038;116
2024-05-15T21:55:26.811;599616249722027794;15206.7295;138
2024-05-15T21:55:26.819;599616249729719584;15214.422;154
2024-05-15T21:55:26.827;599616249737411374;15222.113;133
2024-05-15T21:55:26.834;599616249745103164;15229.806;90
2024-05-15T21:55:26.842;599616249752794954;15237.498;109
2024-05-15T21:55:26.850;599616249760486744;15245.189;140
2024-05-15T21:55:26.857;599616249768178534;15252.882;97
2024-05-15T21:55:26.865;599616249775870324;15260.572;33
2024-05-15T21:55:26.873;599616249783562114;15268.265;35
2024-05-15T21:55:26.880;599616249791253904;15275.956;64
2024-05-15T21:55:26.888;599616249798945694;15283.648;64
2024-05-15T21:55:26.896;599616249806637484;15291.34;64
2024-05-15T21:55:26.904;599616249814329274;15299.032;85
2024-05-15T21:55:26.911;599616249822021064;15306.724;114
2024-05-15T21:55:26.919;599616249829712854;15314.416;147
2024-05-15T21:55:26.927;599616249837404644;15322.106;185
2024-05-15T21:55:26.934;599616249845096434;15329.799;226
2024-05-15T21:55:26.942;599616249852788224;15337.49;245
2024-05-15T21:55:26.950;599616249860480014;15345.183;235
2024-05-15T21:55:26.957;599616249868171804;15352.874;235
2024-05-15T21:55:26.965;599616249875863594;15360.566;252
2024-05-15T21:55:26.973;599616249883555384;15368.258;238
2024-05-15T21:55:26.980;599616249891247174;15375.95;214
2024-05-15T21:55:26.988;599616249898938964;15383.641;247
2024-05-15T21:55:26.996;599616249906630754;15391.333;290
2024-05-15T21:55:27.004;599616249914322544;15399.024;309
2024-05-15T21:55:27.011;599616249922014334;15406.717;323
2024-05-15T21:55:27.019;599616249929706124;15414.408;321
2024-05-15T21:55:27.027;599616249937397914;15422.101;311
2024-05-15T21:55:27.034;599616249945089704;15429.792;292
2024-05-15T21:55:27.042;599616249952781494;15437.484;247
2024-05-15T21:55:27.050;599616249960473284;15445.176;230
2024-05-15T21:55:27.057;599616249968165074;15452.867;266
2024-05-15T21:55:27.065;599616249975856864;15460.559;242
2024-05-15T21:55:27.073;599616249983548654;15468.251;138
2024-05-15T21:55:27.080;599616249991240444;15475.942;121
2024-05-15T21:55:27.088;599616249998932234;15483.635;411
2024-05-15T21:55:27.096;599616250006624024;15491.326;949
2024-05-15T21:55:27.104;599616250014315814;15499.019;1261
2024-05-15T21:55:27.111;599616250022007604;15506.71;966
2024-05-15T21:55:27.119;599616250029699394;15514.401;409
2024-05-15T21:55:27.127;599616250037391184;15522.094;223
2024-05-15T21:55:27.134;599616250045082974;15529.785;311
2024-05-15T21:55:27.142;599616250052774764;15537.478;302
2024-05-15T21:55:27.150;599616250060466554;15545.169;292
2024-05-15T21:55:27.157;599616250068158344;15552.861;359
2024-05-15T21:55:27.165;599616250075850134;15560.553;388
2024-05-15T21:55:27.173;599616250083541924;15568.245;407
2024-05-15T21:55:27.180;599616250091233714;15575.936;437
2024-05-15T21:55:27.188;599616250098925504;15583.628;449
2024-05-15T21:55:27.196;599616250106617294;15591.319;476
2024-05-15T21:55:27.204;599616250114309084;15599.012;526
2024-05-15T21:55:27.211;599616250122000874;15606.703;554
2024-05-15T21:55:27.219;599616250129692664;15614.3955;509
2024-05-15T21:55:27.227;599616250137384454;15622.087;371
2024-05-15T21:55:27.234;599616250145076244;15629.779;233
2024-05-15T21:55:27.242;599616250152768034;15637.47;190
2024-05-15T21:55:27.250;599616250160459824;15645.162;183
2024-05-15T21:55:27.257;599616250168151614;15652.854;149
2024-05-15T21:55:27.265;599616250175843404;15660.546;147
2024-05-15T21:55:27.273;599616250183535194;15668.237;164
2024-05-15T21:55:27.280;599616250191226984;15675.93;161
2024-05-15T21:55:27.288;599616250198918774;15683.621;190
2024-05-15T21:55:27.296;599616250206610564;15691.313;259
2024-05-15T21:55:27.304;599616250214302354;15699.005;302
2024-05-15T21:55:27.311;599616250221994144;15706.696;297
2024-05-15T21:55:27.319;599616250229685934;15714.388;304
2024-05-15T21:55:27.327;599616250237377736;15722.08;330
2024-05-15T21:55:27.334;599616250245069526;15729.771;328
2024-05-15T21:55:27.342;599616250252761316;15737.464;316
2024-05-15T21:55:27.350;599616250260453106;15745.155;330
2024-05-15T21:55:27.357;599616250268144896;15752.848;335
2024-05-15T21:55:27.365;599616250275836686;15760.539;280
2024-05-15T21:55:27.373;599616250283528476;15768.23;202
2024-05-15T21:55:27.380;599616250291220266;15775.922;188
2024-05-15T21:55:27.388;599616250298912056;15783.614;204
2024-05-15T21:55:27.396;599616250306603846;15791.307;185
2024-05-15T21:55:27.403;599616250314295636;15798.998;140
2024-05-15T21:55:27.411;599616250321987426;15806.69;107
2024-05-15T21:55:27.419;599616250329679216;15814.382;85
2024-05-15T21:55:27.427;599616250337371006;15822.074;71
2024-05-15T21:55:27.434;599616250345062796;15829.765;61
2024-05-15T21:55:27.442;599616250352754586;15837.457;61
2024-05-15T21:55:27.450;599616250360446376;15845.148;21
2024-05-15T21:55:27.457;599616250368138166;15852.841;-76
2024-05-15T21:55:27.465;599616250375829956;15860.532;-71
2024-05-15T21:55:27.473;599616250383521746;15868.225;283
2024-05-15T21:55:27.480;599616250391213536;15875.916;830
2024-05-15T21:55:27.488;599616250398905326;15883.608;1006
2024-05-15T21:55:27.496;599616250406597116;15891.3;566
2024-05-15T21:55:27.503;599616250414288906;15898.991;54
2024-05-15T21:55:27.511;599616250421980696;15906.683;4
2024-05-15T21:55:27.519;599616250429672486;15914.375;116
2024-05-15T21:55:27.527;599616250437364276;15922.066;59
