Phone timestamp;sensor timestamp [ns];timestamp [ms];ecg [uV]
2024-05-15T21:57:56.029;599616398901206096;0.0;1278
2024-05-15T21:57:56.036;599616398908897468;7.691372;2342
2024-05-15T21:57:56.044;599616398916588840;15.382744;3561
2024-05-15T21:57:56.052;599616398924280212;23.074116;4308
2024-05-15T21:57:56.059;599616398931971584;30.765488;4972
2024-05-15T21:57:56.067;599616398939662956;38.45686;5670
2024-05-15T21:57:56.075;599616398947354328;46.14823;6277
2024-05-15T21:57:56.082;599616398955045700;53.839603;6905
2024-05-15T21:57:56.090;599616398962737072;61.530975;7571
2024-05-15T21:57:56.098;599616398970428444;69.22235;8107
2024-05-15T21:57:56.105;599616398978119816;76.91372;8502
2024-05-15T21:57:56.113;599616398985811188;84.60509;8969
2024-05-15T21:57:56.121;599616398993502560;92.29646;9469
2024-05-15T21:57:56.128;599616399001193932;99.98784;9845
2024-05-15T21:57:56.136;599616399008885304;107.67921;10221
2024-05-15T21:57:56.144;599616399016576676;115.370575;10654
2024-05-15T21:57:56.152;599616399024268048;123.06195;10999
2024-05-15T21:57:56.159;599616399031959420;130.75333;11285
2024-05-15T21:57:56.167;599616399039650792;138.4447;11604
2024-05-15T21:57:56.175;599616399047342164;146.13606;11949
2024-05-15T21:57:56.182;599616399055033536;153.82744;12280
2024-05-15T21:57:56.190;599616399062724908;161.51881;12504
2024-05-15T21:57:56.198;599616399070416280;169.21017;12677
2024-05-15T21:57:56.205;599616399078107652;176.90155;12958
2024-05-15T21:57:56.213;599616399085799024;184.59293;13225
2024-05-15T21:57:56.221;599616399093490396;192.2843;13358
2024-05-15T21:57:56.228;599616399101181768;199.97568;13560
2024-05-15T21:57:56.236;599616399108873140;207.66704;13844
2024-05-15T21:57:56.244;599616399116564512;215.35841;14070
2024-05-15T21:57:56.252;599616399124255884;223.04979;14277
2024-05-15T21:57:56.259;599616399131947256;230.74115;14375
2024-05-15T21:57:56.267;599616399139638628;238.43253;14432
2024-05-15T21:57:56.275;599616399147330000;246.1239;14575
2024-05-15T21:57:56.282;599616399155021372;253.81528;14589
2024-05-15T21:57:56.290;599616399162712744;261.50665;14572
2024-05-15T21:57:56.298;599616399170404116;269.19803;14741
2024-05-15T21:57:56.305;599616399178095488;276.8894;14858
2024-05-15T21:57:56.313;599616399185786860;284.58078;14870
2024-05-15T21:57:56.321;599616399193478232;292.27213;15029
2024-05-15T21:57:56.328;599616399201169604;299.96353;15203
2024-05-15T21:57:56.336;599616399208860976;307.65488;15153
2024-05-15T21:57:56.344;599616399216552348;315.34625;15101
2024-05-15T21:57:56.352;599616399224243720;323.03763;15224
2024-05-15T21:57:56.359;599616399231935092;330.729;15324
2024-05-15T21:57:56.367;599616399239626464;338.42035;15310
2024-05-15T21:57:56.375;599616399247317836;346.11176;15293
2024-05-15T21:57:56.382;599616399255009208;353.8031;15320
2024-05-15T21:57:56.390;599616399262700580;361.4945;15351
2024-05-15T21:57:56.398;599616399270391952;369.18585;15329
2024-05-15T21:57:56.405;599616399278083324;376.87723;15301
2024-05-15T21:57:56.413;599616399285774696;384.5686;15405
2024-05-15T21:57:56.421;599616399293466068;392.25998;15470
2024-05-15T21:57:56.428;599616399301157440;399.95135;15324
2024-05-15T21:57:56.436;599616399308848812;407.64273;15241
2024-05-15T21:57:56.444;599616399316540184;415.33408;15339
2024-05-15T21:57:56.452;599616399324231556;423.02548;15362
2024-05-15T21:57:56.459;599616399331922928;430.71683;15258
2024-05-15T21:57:56.467;599616399339614300;438.4082;15155
2024-05-15T21:57:56.475;599616399347305672;446.09958;15060
2024-05-15T21:57:56.482;599616399354997044;453.79095;15048
2024-05-15T21:57:56.490;599616399362688416;461.4823;15348
2024-05-15T21:57:56.498;599616399370379788;469.1737;15905
2024-05-15T21:57:56.505;599616399378071160;476.86505;16043
2024-05-15T21:57:56.513;599616399385762532;484.55646;15343
2024-05-15T21:57:56.521;599616399393453904;492.2478;14575
2024-05-15T21:57:56.528;599616399401145276;499.93918;14475
2024-05-15T21:57:56.536;599616399408836648;507.63055;14605
2024-05-15T21:57:56.544;599616399416528020;515.3219;14494
2024-05-15T21:57:56.552;599616399424219392;523.0133;14501
2024-05-15T21:57:56.559;599616399431910764;530.70465;14551
2024-05-15T21:57:56.567;599616399439602136;538.39606;14198
2024-05-15T21:57:56.575;599616399447293508;546.0874;13901
2024-05-15T21:57:56.582;599616399454984880;553.7788;13946
2024-05-15T21:57:56.590;599616399462676260;561.47015;13996
2024-05-15T21:57:56.598;599616399470367632;569.16156;13932
2024-05-15T21:57:56.605;599616399478059004;576.8529;13741
2024-05-15T21:57:56.613;599616399485750376;584.54425;13534
2024-05-15T21:57:56.621;599616399493441748;592.23566;13487
2024-05-15T21:57:56.628;599616399501133120;599.92706;13475
2024-05-15T21:57:56.636;599616399508824492;607.61835;13351
2024-05-15T21:57:56.644;599616399516515864;615.30975;13268
2024-05-15T21:57:56.652;599616399524207236;623.00116;13311
2024-05-15T21:57:56.659;599616399531898608;630.6925;13282
2024-05-15T21:57:56.667;599616399539589980;638.38385;13032
2024-05-15T21:57:56.675;599616399547281352;646.07526;12780
2024-05-15T21:57:56.682;599616399554972724;653.76666;12754
2024-05-15T21:57:56.690;599616399562664096;661.458;12761
2024-05-15T21:57:56.698;599616399570355468;669.14935;12582
2024-05-15T21:57:56.705;599616399578046840;676.84076;12375
2024-05-15T21:57:56.713;599616399585738212;684.5321;12325
2024-05-15T21:57:56.721;599616399593429584;692.2235;12280
2024-05-15T21:57:56.728;599616399601120956;699.91486;12118
2024-05-15T21:57:56.736;599616399608812328;707.6062;12063
2024-05-15T21:57:56.744;599616399616503700;715.2976;12139
2024-05-15T21:57:56.751;599616399624195072;722.989;11949
2024-05-15T21:57:56.759;599616399631886444;730.6803;11597
2024-05-15T21:57:56.767;599616399639577816;738.3717;11528
2024-05-15T21:57:56.775;599616399647269188;746.0631;11506
2024-05-15T21:57:56.782;599616399654960560;753.7545;11311
2024-05-15T21:57:56.790;599616399662651932;761.4458;11140
2024-05-15T21:57:56.798;599616399670343304;769.1372;11016
2024-05-15T21:57:56.805;599616399678034676;776.8286;10925
2024-05-15T21:57:56.813;599616399685726048;784.51996;10842
2024-05-15T21:57:56.821;599616399693417420;792.2113;10704
2024-05-15T21:57:56.828;599616399701108792;799.9027;10630
2024-05-15T21:57:56.836;599616399708800164;807.59406;10592
2024-05-15T21:57:56.844;599616399716491536;815.28546;10421
2024-05-15T21:57:56.851;599616399724182908;822.9768;10223
2024-05-15T21:57:56.859;599616399731874280;830.66815;10178
2024-05-15T21:57:56.867;599616399739565652;838.35956;10164
2024-05-15T21:57:56.875;599616399747257024;846.05096;10057
2024-05-15T21:57:56.882;599616399754948396;853.74225;9911
2024-05-15T21:57:56.890;599616399762639768;861.43365;9811
2024-05-15T21:57:56.898;599616399770331140;869.12506;9750
2024-05-15T21:57:56.905;599616399778022512;876.8164;9642
2024-05-15T21:57:56.913;599616399785713884;884.50775;9507
2024-05-15T21:57:56.921;599616399793405256;892.19916;9464
2024-05-15T21:57:56.928;599616399801096628;899.89056;9431
2024-05-15T21:57:56.936;599616399808788000;907.5819;9264
2024-05-15T21:57:56.944;599616399816479372;915.27325;9102
2024-05-15T21:57:56.951;599616399824170744;922.96466;9014
2024-05-15T21:57:56.959;599616399831862116;930.656;8926
2024-05-15T21:57:56.967;599616399839553488;938.3474;8983
2024-05-15T21:57:56.975;599616399847244860;946.03876;9326
2024-05-15T21:57:56.982;599616399854936232;953.7301;9688
2024-05-15T21:57:56.990;599616399862627604;961.4215;9561
2024-05-15T21:57:56.998;599616399870318976;969.1129;8831
2024-05-15T21:57:57.005;599616399878010348;976.8042;8224
2024-05-15T21:57:57.013;599616399885701720;984.4956;8247
2024-05-15T21:57:57.021;599616399893393092;992.187;8286
2024-05-15T21:57:57.028;599616399901084464;999.8784;8009
2024-05-15T21:57:57.036;599616399908775836;1007.5697;7893
2024-05-15T21:57:57.044;599616399916467208;1015.2611;7938
2024-05-15T21:57:57.051;599616399924158580;1022.9525;7917
2024-05-15T21:57:57.059;599616399931849952;1030.6438;7836
2024-05-15T21:57:57.067;599616399939541324;1038.3352;7621
2024-05-15T21:57:57.075;599616399947232696;1046.0266;7443
2024-05-15T21:57:57.082;599616399954924068;1053.7179;7441
2024-05-15T21:57:57.090;599616399962615440;1061.4093;7352
2024-05-15T21:57:57.098;599616399970306812;1069.1007;7179
2024-05-15T21:57:57.105;599616399977998184;1076.7921;7143
2024-05-15T21:57:57.113;599616399985689556;1084.4834;7105
2024-05-15T21:57:57.121;599616399993380928;1092.1748;6953
2024-05-15T21:57:57.128;599616400001072300;1099.8662;6888
2024-05-15T21:57:57.136;599616400008763672;1107.5576;6907
2024-05-15T21:57:57.144;599616400016455044;1115.2489;6836
2024-05-15T21:57:57.151;599616400024116328;1122.9102;6731
2024-05-15T21:57:57.159;599616400031808118;1130.6019;6681
2024-05-15T21:57:57.167;599616400039499908;1138.2937;6610
2024-05-15T21:57:57.174;599616400047191698;1145.9857;6491
2024-05-15T21:57:57.182;599616400054883488;1153.6775;6398
2024-05-15T21:57:57.190;599616400062575278;1161.3693;6360
2024-05-15T21:57:57.198;599616400070267068;1169.061;6322
2024-05-15T21:57:57.205;599616400077958858;1176.7528;6208
2024-05-15T21:57:57.213;599616400085650648;1184.4446;6065
2024-05-15T21:57:57.221;599616400093342438;1192.1364;6008
2024-05-15T21:57:57.228;599616400101034228;1199.8281;5996
2024-05-15T21:57:57.236;599616400108726018;1207.5199;5962
2024-05-15T21:57:57.244;599616400116417808;1215.2118;5858
2024-05-15T21:57:57.251;599616400124109598;1222.9036;5705
2024-05-15T21:57:57.259;599616400131801388;1230.5953;5598
2024-05-15T21:57:57.267;599616400139493178;1238.2871;5439
2024-05-15T21:57:57.274;599616400147184968;1245.9789;5246
2024-05-15T21:57:57.282;599616400154876758;1253.6707;5208
2024-05-15T21:57:57.290;599616400162568548;1261.3624;5203
2024-05-15T21:57:57.298;599616400170260338;1269.0542;5086
2024-05-15T21:57:57.305;599616400177952128;1276.746;4982
2024-05-15T21:57:57.313;599616400185643918;1284.4377;4970
2024-05-15T21:57:57.321;599616400193335708;1292.1296;4934
2024-05-15T21:57:57.328;599616400201027498;1299.8214;4839
2024-05-15T21:57:57.336;599616400208719288;1307.5132;4791
2024-05-15T21:57:57.344;599616400216411078;1315.205;4784
2024-05-15T21:57:57.351;599616400224102868;1322.8967;4701
2024-05-15T21:57:57.359;599616400231794658;1330.5885;4598
2024-05-15T21:57:57.367;599616400239486448;1338.2803;4591
2024-05-15T21:57:57.374;599616400247178238;1345.972;4608
2024-05-15T21:57:57.382;599616400254870028;1353.6638;4553
2024-05-15T21:57:57.390;599616400262561818;1361.3558;4467
2024-05-15T21:57:57.398;599616400270253608;1369.0476;4415
2024-05-15T21:57:57.405;599616400277945398;1376.7394;4398
2024-05-15T21:57:57.413;599616400285637188;1384.4312;4365
2024-05-15T21:57:57.421;599616400293328978;1392.1229;4303
2024-05-15T21:57:57.428;599616400301020768;1399.8147;4248
2024-05-15T21:57:57.436;599616400308712558;1407.5065;4165
2024-05-15T21:57:57.444;599616400316404348;1415.1982;4089
2024-05-15T21:57:57.451;599616400324096138;1422.89;4251
2024-05-15T21:57:57.459;599616400331787928;1430.5819;4725
2024-05-15T21:57:57.467;599616400339479718;1438.2737;5155
2024-05-15T21:57:57.474;599616400347171508;1445.9655;5041
2024-05-15T21:57:57.482;599616400354863298;1453.6572;4375
2024-05-15T21:57:57.490;599616400362555088;1461.349;3830
2024-05-15T21:57:57.498;599616400370246878;1469.0408;3801
2024-05-15T21:57:57.505;599616400377938668;1476.7325;3846
2024-05-15T21:57:57.513;599616400385630458;1484.4243;3718
2024-05-15T21:57:57.521;599616400393322248;1492.1161;3677
2024-05-15T21:57:57.528;599616400401014038;1499.808;3691
2024-05-15T21:57:57.536;599616400408705828;1507.4998;3603
2024-05-15T21:57:57.544;599616400416397618;1515.1915;3546
2024-05-15T21:57:57.551;599616400424089408;1522.8833;3580
2024-05-15T21:57:57.559;599616400431781198;1530.5751;3553
2024-05-15T21:57:57.567;599616400439472988;1538.2668;3420
2024-05-15T21:57:57.574;599616400447164778;1545.9586;3318
2024-05-15T21:57:57.582;599616400454856568;1553.6504;3270
2024-05-15T21:57:57.590;599616400462548358;1561.3422;3215
2024-05-15T21:57:57.598;599616400470240148;1569.034;3182
2024-05-15T21:57:57.605;599616400477931938;1576.7258;3184
2024-05-15T21:57:57.613;599616400485623728;1584.4177;3201
2024-05-15T21:57:57.621;599616400493315518;1592.1095;3180
2024-05-15T21:57:57.628;599616400501007308;1599.8013;3130
2024-05-15T21:57:57.636;599616400508699098;1607.493;3130
2024-05-15T21:57:57.644;599616400516390888;1615.1848;3151
2024-05-15T21:57:57.651;599616400524082678;1622.8766;3099
2024-05-15T21:57:57.659;599616400531774468;1630.5684;3034
2024-05-15T21:57:57.667;599616400539466258;1638.2603;3011
2024-05-15T21:57:57.674;599616400547158048;1645.952;2992
2024-05-15T21:57:57.682;599616400554849838;1653.6438;2951
2024-05-15T21:57:57.690;599616400562541628;1661.3356;2911
2024-05-15T21:57:57.698;599616400570233418;1669.0273;2901
2024-05-15T21:57:57.705;599616400577925208;1676.7191;2896
2024-05-15T21:57:57.713;599616400585647106;1684.4409;2844
2024-05-15T21:57:57.721;599616400593338478;1692.1323;2794
2024-05-15T21:57:57.728;599616400601029850;1699.8237;2789
2024-05-15T21:57:57.736;599616400608721222;1707.5151;2720
2024-05-15T21:57:57.744;599616400616412594;1715.2065;2608
2024-05-15T21:57:57.751;599616400624103966;1722.898;2561
2024-05-15T21:57:57.759;599616400631795338;1730.5892;2508
2024-05-15T21:57:57.767;599616400639486710;1738.2805;2406
2024-05-15T21:57:57.774;599616400647178082;1745.9719;2304
2024-05-15T21:57:57.782;599616400654869454;1753.6633;2242
2024-05-15T21:57:57.790;599616400662560826;1761.3547;2232
2024-05-15T21:57:57.798;599616400670252198;1769.0461;2228
2024-05-15T21:57:57.805;599616400677943570;1776.7375;2173
2024-05-15T21:57:57.813;599616400685634942;1784.4288;2120
2024-05-15T21:57:57.821;599616400693326314;1792.1202;2120
2024-05-15T21:57:57.828;599616400701017686;1799.8115;2123
2024-05-15T21:57:57.836;599616400708709058;1807.5029;2092
2024-05-15T21:57:57.844;599616400716400430;1815.1943;2068
2024-05-15T21:57:57.851;599616400724091802;1822.8857;2075
2024-05-15T21:57:57.859;599616400731783174;1830.577;2068
2024-05-15T21:57:57.867;599616400739474546;1838.2684;2044
2024-05-15T21:57:57.874;599616400747165918;1845.9598;2042
2024-05-15T21:57:57.882;599616400754857290;1853.6512;2056
2024-05-15T21:57:57.890;599616400762548662;1861.3427;2044
2024-05-15T21:57:57.898;599616400770240034;1869.0339;2006
2024-05-15T21:57:57.905;599616400777931406;1876.7252;1985
2024-05-15T21:57:57.913;599616400785622778;1884.4166;1975
2024-05-15T21:57:57.921;599616400793314150;1892.108;1916
2024-05-15T21:57:57.928;599616400801005522;1899.7994;1875
2024-05-15T21:57:57.936;599616400808696894;1907.4908;2104
2024-05-15T21:57:57.944;599616400816388266;1915.1823;2635
2024-05-15T21:57:57.951;599616400824079638;1922.8737;3027
2024-05-15T21:57:57.959;599616400831771010;1930.5648;2835
2024-05-15T21:57:57.967;599616400839462382;1938.2562;2213
2024-05-15T21:57:57.974;599616400847153754;1945.9476;1816
2024-05-15T21:57:57.982;599616400854845126;1953.639;1825
2024-05-15T21:57:57.990;599616400862536498;1961.3304;1806
2024-05-15T21:57:57.998;599616400870227870;1969.0219;1713
2024-05-15T21:57:58.005;599616400877919242;1976.7131;1732
2024-05-15T21:57:58.013;599616400885610614;1984.4045;1759
2024-05-15T21:57:58.021;599616400893301986;1992.0958;1730
2024-05-15T21:57:58.028;599616400900993358;1999.7872;1732
2024-05-15T21:57:58.036;599616400908684730;2007.4786;1732
2024-05-15T21:57:58.044;599616400916376102;2015.17;1694
2024-05-15T21:57:58.051;599616400924067474;2022.8615;1680
2024-05-15T21:57:58.059;599616400931758846;2030.5527;1704
2024-05-15T21:57:58.067;599616400939450218;2038.2441;1659
2024-05-15T21:57:58.074;599616400947141590;2045.9355;1502
2024-05-15T21:57:58.082;599616400954832962;2053.627;1402
2024-05-15T21:57:58.090;599616400962524334;2061.3184;1425
2024-05-15T21:57:58.098;599616400970215706;2069.0098;1447
2024-05-15T21:57:58.105;599616400977907078;2076.701;1430
2024-05-15T21:57:58.113;599616400985598450;2084.3923;1442
2024-05-15T21:57:58.121;599616400993289822;2092.0837;1463
2024-05-15T21:57:58.128;599616401000981194;2099.7751;1435
2024-05-15T21:57:58.136;599616401008672566;2107.4666;1392
2024-05-15T21:57:58.144;599616401016363938;2115.158;1404
2024-05-15T21:57:58.151;599616401024055310;2122.849;1425
2024-05-15T21:57:58.159;599616401031746682;2130.5405;1413
2024-05-15T21:57:58.167;599616401039438054;2138.232;1387
2024-05-15T21:57:58.174;599616401047129426;2145.9233;1371
2024-05-15T21:57:58.182;599616401054820798;2153.6145;1373
2024-05-15T21:57:58.190;599616401062512170;2161.3062;1380
2024-05-15T21:57:58.197;599616401070203542;2168.9973;1366
2024-05-15T21:57:58.205;599616401077894914;2176.689;1366
2024-05-15T21:57:58.213;599616401085586286;2184.3801;1387
2024-05-15T21:57:58.221;599616401093277658;2192.0718;1352
2024-05-15T21:57:58.228;599616401100969030;2199.763;1247
2024-05-15T21:57:58.236;599616401108660402;2207.454;1202
2024-05-15T21:57:58.244;599616401116351774;2215.1458;1204
2024-05-15T21:57:58.251;599616401124043146;2222.837;1149
2024-05-15T21:57:58.259;599616401131734518;2230.5286;1075
2024-05-15T21:57:58.267;599616401139425890;2238.2197;1071
2024-05-15T21:57:58.274;599616401147117270;2245.9114;1078
2024-05-15T21:57:58.282;599616401154808642;2253.6025;1054
2024-05-15T21:57:58.290;599616401162500014;2261.294;1030
2024-05-15T21:57:58.297;599616401170191386;2268.9854;1040
2024-05-15T21:57:58.305;599616401177882758;2276.6765;1047
2024-05-15T21:57:58.313;599616401185574130;2284.3682;1011
2024-05-15T21:57:58.321;599616401193265502;2292.0593;994
2024-05-15T21:57:58.328;599616401200956874;2299.7507;1035
2024-05-15T21:57:58.336;599616401208648246;2307.4421;1042
2024-05-15T21:57:58.344;599616401216339618;2315.1335;980
2024-05-15T21:57:58.351;599616401224030990;2322.825;935
2024-05-15T21:57:58.359;599616401231722362;2330.516;945
2024-05-15T21:57:58.367;599616401239413734;2338.2078;947
2024-05-15T21:57:58.374;599616401247105106;2345.899;935
2024-05-15T21:57:58.382;599616401254796478;2353.5903;949
2024-05-15T21:57:58.390;599616401262487850;2361.2817;973
2024-05-15T21:57:58.397;599616401270179222;2368.9731;968
2024-05-15T21:57:58.405;599616401277870594;2376.6646;911
2024-05-15T21:57:58.413;599616401285561966;2384.356;852
2024-05-15T21:57:58.421;599616401293253338;2392.0474;959
2024-05-15T21:57:58.428;599616401300944710;2399.7385;1356
2024-05-15T21:57:58.436;599616401308636082;2407.43;1868
2024-05-15T21:57:58.444;599616401316327454;2415.1213;2035
2024-05-15T21:57:58.451;599616401324018826;2422.8127;1592
2024-05-15T21:57:58.459;599616401331710198;2430.5042;985
2024-05-15T21:57:58.467;599616401339401570;2438.1956;833
2024-05-15T21:57:58.474;599616401347092942;2445.8867;933
2024-05-15T21:57:58.482;599616401354784314;2453.5781;878
2024-05-15T21:57:58.490;599616401362475686;2461.2695;823
2024-05-15T21:57:58.497;599616401370167058;2468.961;861
2024-05-15T21:57:58.505;599616401377858430;2476.6523;873
2024-05-15T21:57:58.513;599616401385549802;2484.3438;883
2024-05-15T21:57:58.521;599616401393241174;2492.0352;918
2024-05-15T21:57:58.528;599616401400932546;2499.7263;928
2024-05-15T21:57:58.536;599616401408623918;2507.418;935
2024-05-15T21:57:58.544;599616401416315290;2515.1091;952
2024-05-15T21:57:58.551;599616401424006662;2522.8005;952
2024-05-15T21:57:58.559;599616401431698034;2530.492;947
2024-05-15T21:57:58.567;599616401439389406;2538.1833;918
2024-05-15T21:57:58.574;599616401447080778;2545.8748;821
2024-05-15T21:57:58.582;599616401454772150;2553.566;718
2024-05-15T21:57:58.590;599616401462463522;2561.2576;711
2024-05-15T21:57:58.597;599616401470154894;2568.9487;749
2024-05-15T21:57:58.605;599616401477846266;2576.6401;761
2024-05-15T21:57:58.613;599616401485537638;2584.3315;754
2024-05-15T21:57:58.621;599616401493229010;2592.023;764
2024-05-15T21:57:58.628;599616401500920382;2599.7144;780
2024-05-15T21:57:58.636;599616401508611754;2607.4055;766
2024-05-15T21:57:58.644;599616401516303126;2615.0972;742
2024-05-15T21:57:58.651;599616401523994498;2622.7883;761
2024-05-15T21:57:58.659;599616401531685870;2630.48;792
2024-05-15T21:57:58.667;599616401539377242;2638.1711;797
2024-05-15T21:57:58.674;599616401547068614;2645.8623;790
2024-05-15T21:57:58.682;599616401554759986;2653.554;783
2024-05-15T21:57:58.690;599616401562451358;2661.245;792
2024-05-15T21:57:58.697;599616401570142730;2668.9368;811
2024-05-15T21:57:58.705;599616401577834102;2676.628;816
2024-05-15T21:57:58.713;599616401585525474;2684.3196;797
2024-05-15T21:57:58.721;599616401593216846;2692.0107;730
2024-05-15T21:57:58.728;599616401600908218;2699.702;630
2024-05-15T21:57:58.736;599616401608599590;2707.3936;578
2024-05-15T21:57:58.744;599616401616290962;2715.0847;566
2024-05-15T21:57:58.751;599616401623982334;2722.7764;547
2024-05-15T21:57:58.759;599616401631673706;2730.4675;528
2024-05-15T21:57:58.767;599616401639365078;2738.1592;511
2024-05-15T21:57:58.774;599616401647056450;2745.8503;497
2024-05-15T21:57:58.782;599616401654747822;2753.5417;495
2024-05-15T21:57:58.790;599616401662439194;2761.2332;487
2024-05-15T21:57:58.797;599616401670130566;2768.9243;478
2024-05-15T21:57:58.805;599616401677821938;2776.616;495
2024-05-15T21:57:58.813;599616401685513310;2784.3071;514
2024-05-15T21:57:58.820;599616401693204682;2791.9985;492
2024-05-15T21:57:58.828;599616401700896054;2799.69;483
2024-05-15T21:57:58.836;599616401708587434;2807.3813;530
2024-05-15T21:57:58.844;599616401716278806;2815.0728;566
2024-05-15T21:57:58.851;599616401723970178;2822.764;557
2024-05-15T21:57:58.859;599616401731661550;2830.4556;549
2024-05-15T21:57:58.867;599616401739352922;2838.1467;554
2024-05-15T21:57:58.874;599616401747044294;2845.8381;547
2024-05-15T21:57:58.882;599616401754735666;2853.5295;497
2024-05-15T21:57:58.890;599616401762427038;2861.221;440
2024-05-15T21:57:58.897;599616401770118410;2868.9124;418
2024-05-15T21:57:58.905;599616401777809782;2876.6038;402
2024-05-15T21:57:58.913;599616401785501154;2884.2952;485
2024-05-15T21:57:58.920;599616401793192526;2891.9863;880
2024-05-15T21:57:58.928;599616401800883898;2899.6777;1411
2024-05-15T21:57:58.936;599616401808575270;2907.3691;1492
2024-05-15T21:57:58.944;599616401816266642;2915.0605;966
2024-05-15T21:57:58.951;599616401823958014;2922.752;457
2024-05-15T21:57:58.959;599616401831649386;2930.4434;416
2024-05-15T21:57:58.967;599616401839340758;2938.1348;466
2024-05-15T21:57:58.974;599616401847032130;2945.826;357
2024-05-15T21:57:58.982;599616401854723502;2953.5173;354
2024-05-15T21:57:58.990;599616401862414874;2961.2087;445
2024-05-15T21:57:58.997;599616401870106246;2968.9001;440
2024-05-15T21:57:59.005;599616401877797618;2976.5916;416
2024-05-15T21:57:59.013;599616401885488990;2984.283;457
2024-05-15T21:57:59.020;599616401893180362;2991.974;507
2024-05-15T21:57:59.028;599616401900871734;2999.6658;518
2024-05-15T21:57:59.036;599616401908563106;3007.357;521
2024-05-15T21:57:59.044;599616401916254478;3015.0483;554
2024-05-15T21:57:59.051;599616401923945850;3022.7397;580
2024-05-15T21:57:59.059;599616401931637222;3030.4312;554
2024-05-15T21:57:59.067;599616401939328594;3038.1226;528
2024-05-15T21:57:59.074;599616401947019966;3045.8137;535
2024-05-15T21:57:59.082;599616401954711338;3053.5054;497
2024-05-15T21:57:59.090;599616401962402710;3061.1965;399
2024-05-15T21:57:59.097;599616401970094082;3068.8882;361
2024-05-15T21:57:59.105;599616401977785454;3076.5793;397
2024-05-15T21:57:59.113;599616401985476826;3084.2708;423
2024-05-15T21:57:59.120;599616401993168198;3091.9622;418
2024-05-15T21:57:59.128;599616402000859570;3099.6533;423
2024-05-15T21:57:59.136;599616402008550942;3107.345;447
2024-05-15T21:57:59.144;599616402016242314;3115.0361;447
2024-05-15T21:57:59.151;599616402023933686;3122.7278;418
2024-05-15T21:57:59.159;599616402031625058;3130.419;409
2024-05-15T21:57:59.167;599616402039316430;3138.11;428
2024-05-15T21:57:59.174;599616402047007802;3145.8018;447
2024-05-15T21:57:59.182;599616402054699174;3153.493;442
2024-05-15T21:57:59.190;599616402062390546;3161.1846;416
2024-05-15T21:57:59.197;599616402070081918;3168.8757;426
2024-05-15T21:57:59.205;599616402077773290;3176.5674;449
2024-05-15T21:57:59.213;599616402085464662;3184.2585;402
2024-05-15T21:57:59.220;599616402093156034;3191.9497;335
2024-05-15T21:57:59.228;599616402100847406;3199.6414;323
2024-05-15T21:57:59.236;599616402108538778;3207.3325;283
2024-05-15T21:57:59.244;599616402116230150;3215.0242;202
2024-05-15T21:57:59.251;599616402123921522;3222.7153;204
2024-05-15T21:57:59.259;599616402131612894;3230.407;242
2024-05-15T21:57:59.267;599616402139304266;3238.0981;233
2024-05-15T21:57:59.274;599616402146995638;3245.7896;216
2024-05-15T21:57:59.282;599616402154687010;3253.481;214
2024-05-15T21:57:59.290;599616402162378382;3261.172;214
2024-05-15T21:57:59.297;599616402170069754;3268.8638;218
2024-05-15T21:57:59.305;599616402177761126;3276.555;230
2024-05-15T21:57:59.313;599616402185452498;3284.2466;252
2024-05-15T21:57:59.320;599616402193143870;3291.9377;283
2024-05-15T21:57:59.328;599616402200835242;3299.6292;299
2024-05-15T21:57:59.336;599616402208526614;3307.3206;299
2024-05-15T21:57:59.344;599616402216217986;3315.0117;316
2024-05-15T21:57:59.351;599616402223909358;3322.7034;357
2024-05-15T21:57:59.359;599616402231600730;3330.3945;383
2024-05-15T21:57:59.367;599616402239292102;3338.086;383
2024-05-15T21:57:59.374;599616402246983474;3345.7773;383
2024-05-15T21:57:59.382;599616402254674846;3353.4688;373
2024-05-15T21:57:59.390;599616402262366218;3361.1602;311
2024-05-15T21:57:59.397;599616402270047590;3368.8416;299
2024-05-15T21:57:59.405;599616402277739101;3376.533;545
2024-05-15T21:57:59.413;599616402285430612;3384.2246;1037
2024-05-15T21:57:59.420;599616402293122123;3391.916;1328
2024-05-15T21:57:59.428;599616402300813634;3399.6077;1033
2024-05-15T21:57:59.436;599616402308505145;3407.299;442
2024-05-15T21:57:59.443;599616402316196656;3414.9905;161
2024-05-15T21:57:59.451;599616402323888167;3422.6821;245
2024-05-15T21:57:59.459;599616402331579678;3430.3735;245
2024-05-15T21:57:59.467;599616402339271189;3438.0652;140
2024-05-15T21:57:59.474;599616402346962700;3445.7566;166
2024-05-15T21:57:59.482;599616402354654211;3453.4482;211
2024-05-15T21:57:59.490;599616402362345722;3461.1396;192
2024-05-15T21:57:59.497;599616402370037233;3468.8313;235
2024-05-15T21:57:59.505;599616402377728744;3476.5227;295
2024-05-15T21:57:59.513;599616402385420255;3484.2144;283
2024-05-15T21:57:59.520;599616402393111766;3491.9058;280
2024-05-15T21:57:59.528;599616402400803277;3499.5972;335
2024-05-15T21:57:59.536;599616402408494788;3507.2886;376
2024-05-15T21:57:59.543;599616402416186299;3514.98;380
2024-05-15T21:57:59.551;599616402423877810;3522.6716;395
2024-05-15T21:57:59.559;599616402431569321;3530.363;414
2024-05-15T21:57:59.567;599616402439260832;3538.0547;435
2024-05-15T21:57:59.574;599616402446952343;3545.746;452
2024-05-15T21:57:59.582;599616402454643854;3553.4377;452
2024-05-15T21:57:59.590;599616402462335365;3561.1292;409
2024-05-15T21:57:59.597;599616402470026876;3568.8208;335
2024-05-15T21:57:59.605;599616402477718387;3576.5122;307
2024-05-15T21:57:59.613;599616402485409898;3584.2039;328
2024-05-15T21:57:59.620;599616402493101409;3591.8953;347
2024-05-15T21:57:59.628;599616402500792920;3599.587;352
2024-05-15T21:57:59.636;599616402508484431;3607.2783;359
2024-05-15T21:57:59.643;599616402516175942;3614.97;366
2024-05-15T21:57:59.651;599616402523867453;3622.6614;359
2024-05-15T21:57:59.659;599616402531558964;3630.3528;347
2024-05-15T21:57:59.667;599616402539250475;3638.0444;349
2024-05-15T21:57:59.674;599616402546941986;3645.7358;371
2024-05-15T21:57:59.682;599616402554633497;3653.4275;399
2024-05-15T21:57:59.690;599616402562325008;3661.119;402
2024-05-15T21:57:59.697;599616402570016519;3668.8105;364
2024-05-15T21:57:59.705;599616402577708030;3676.502;316
2024-05-15T21:57:59.713;599616402585399541;3684.1936;307
2024-05-15T21:57:59.720;599616402593091052;3691.885;330
2024-05-15T21:57:59.728;599616402600782563;3699.5767;345
2024-05-15T21:57:59.736;599616402608474074;3707.268;349
2024-05-15T21:57:59.743;599616402616165585;3714.9597;361
2024-05-15T21:57:59.751;599616402623857096;3722.651;357
2024-05-15T21:57:59.759;599616402631548607;3730.3423;354
2024-05-15T21:57:59.767;599616402639240118;3738.034;383
2024-05-15T21:57:59.774;599616402646931629;3745.7253;402
2024-05-15T21:57:59.782;599616402654623140;3753.417;390
2024-05-15T21:57:59.790;599616402662314651;3761.1084;380
2024-05-15T21:57:59.797;599616402670006162;3768.8;397
2024-05-15T21:57:59.805;599616402677697673;3776.4915;416
2024-05-15T21:57:59.813;599616402685389184;3784.183;430
2024-05-15T21:57:59.820;599616402693080695;3791.8745;445
2024-05-15T21:57:59.828;599616402700772206;3799.5662;454
2024-05-15T21:57:59.836;599616402708463717;3807.2576;442
2024-05-15T21:57:59.843;599616402716155228;3814.9492;426
2024-05-15T21:57:59.851;599616402723846739;3822.6406;442
2024-05-15T21:57:59.859;599616402731538250;3830.3323;471
2024-05-15T21:57:59.867;599616402739229761;3838.0237;478
2024-05-15T21:57:59.874;599616402746921272;3845.715;437
2024-05-15T21:57:59.882;599616402754612783;3853.4067;357
2024-05-15T21:57:59.890;599616402762304294;3861.0981;376
2024-05-15T21:57:59.897;599616402769995805;3868.7898;676
2024-05-15T21:57:59.905;599616402777687316;3876.4812;1178
2024-05-15T21:57:59.913;599616402785378827;3884.1729;1490
2024-05-15T21:57:59.920;599616402793070338;3891.8643;1216
2024-05-15T21:57:59.928;599616402800761849;3899.556;571
2024-05-15T21:57:59.936;599616402808453360;3907.2473;266
2024-05-15T21:57:59.943;599616402816144871;3914.939;388
2024-05-15T21:57:59.951;599616402823836382;3922.6304;376
2024-05-15T21:57:59.959;599616402831532966;3930.327;238
2024-05-15T21:57:59.967;599616402839224407;3938.0183;254
2024-05-15T21:57:59.974;599616402846915848;3945.7097;290
2024-05-15T21:57:59.982;599616402854607289;3953.4011;259
2024-05-15T21:57:59.990;599616402862298730;3961.0925;268
2024-05-15T21:57:59.997;599616402869990171;3968.7842;297
2024-05-15T21:58:00.005;599616402877681612;3976.4753;314
2024-05-15T21:58:00.013;599616402885373053;3984.167;309
2024-05-15T21:58:00.020;599616402893064494;3991.8584;245
2024-05-15T21:58:00.028;599616402900755935;3999.55;183
2024-05-15T21:58:00.036;599616402908447376;4007.2412;195
2024-05-15T21:58:00.043;599616402916138817;4014.9326;195
2024-05-15T21:58:00.051;599616402923830258;4022.6243;147
2024-05-15T21:58:00.059;599616402931521699;4030.3154;133
2024-05-15T21:58:00.067;599616402939213140;4038.007;145
2024-05-15T21:58:00.074;599616402946904581;4045.6985;149
2024-05-15T21:58:00.082;599616402954596022;4053.39;152
2024-05-15T21:58:00.090;599616402962287463;4061.0813;123
2024-05-15T21:58:00.097;599616402969978904;4068.773;42
2024-05-15T21:58:00.105;599616402977670345;4076.464;-28
2024-05-15T21:58:00.113;599616402985361786;4084.1558;-42
2024-05-15T21:58:00.120;599616402993053227;4091.8472;-33
2024-05-15T21:58:00.128;599616403000744668;4099.5386;-21
2024-05-15T21:58:00.136;599616403008436109;4107.23;-4
2024-05-15T21:58:00.143;599616403016127550;4114.9214;2
2024-05-15T21:58:00.151;599616403023818991;4122.613;2
2024-05-15T21:58:00.159;599616403031510432;4130.304;-2
2024-05-15T21:58:00.166;599616403039201873;4137.9956;-7
2024-05-15T21:58:00.174;599616403046893314;4145.6875;4
2024-05-15T21:58:00.182;599616403054584755;4153.3784;45
2024-05-15T21:58:00.190;599616403062276196;4161.0703;52
2024-05-15T21:58:00.197;599616403069967637;4168.7617;-40
2024-05-15T21:58:00.205;599616403077659078;4176.4526;-142
2024-05-15T21:58:00.213;599616403085350519;4184.1445;-147
2024-05-15T21:58:00.220;599616403093041960;4191.836;-135
2024-05-15T21:58:00.228;599616403100733401;4199.5273;-164
2024-05-15T21:58:00.236;599616403108424842;4207.2188;-169
2024-05-15T21:58:00.243;599616403116116283;4214.91;-147
2024-05-15T21:58:00.251;599616403123807724;4222.6016;-164
2024-05-15T21:58:00.259;599616403131499165;4230.293;-190
2024-05-15T21:58:00.266;599616403139190606;4237.9844;-173
2024-05-15T21:58:00.274;599616403146882047;4245.6763;-142
2024-05-15T21:58:00.282;599616403154573488;4253.367;-126
2024-05-15T21:58:00.290;599616403162264929;4261.0586;-119
2024-05-15T21:58:00.297;599616403169956370;4268.7505;-126
2024-05-15T21:58:00.305;599616403177647811;4276.4414;-107
2024-05-15T21:58:00.313;599616403185339252;4284.1333;-57
2024-05-15T21:58:00.320;599616403193030693;4291.8247;-35
2024-05-15T21:58:00.328;599616403200722134;4299.516;-30
2024-05-15T21:58:00.336;599616403208413575;4307.2075;-7
2024-05-15T21:58:00.343;599616403216105016;4314.899;4
2024-05-15T21:58:00.351;599616403223796457;4322.5903;2
2024-05-15T21:58:00.359;599616403231487898;4330.282;23
2024-05-15T21:58:00.366;599616403239179339;4337.973;57
2024-05-15T21:58:00.374;599616403246870780;4345.6646;33
2024-05-15T21:58:00.382;599616403254562221;4353.3564;-21
2024-05-15T21:58:00.390;599616403262253662;4361.0474;73
2024-05-15T21:58:00.397;599616403269945103;4368.739;497
2024-05-15T21:58:00.405;599616403277636544;4376.4307;1049
2024-05-15T21:58:00.413;599616403285327985;4384.122;1185
2024-05-15T21:58:00.420;599616403293019426;4391.813;690
2024-05-15T21:58:00.428;599616403300710867;4399.505;119
2024-05-15T21:58:00.436;599616403308402308;4407.1963;11
2024-05-15T21:58:00.443;599616403316093749;4414.887;76
2024-05-15T21:58:00.451;599616403323785190;4422.579;2
2024-05-15T21:58:00.459;599616403331476631;4430.2705;-2
2024-05-15T21:58:00.466;599616403339168072;4437.962;61
2024-05-15T21:58:00.474;599616403346859513;4445.6533;42
2024-05-15T21:58:00.482;599616403354550954;4453.3447;30
2024-05-15T21:58:00.490;599616403362242395;4461.0366;80
2024-05-15T21:58:00.497;599616403369933836;4468.728;104
2024-05-15T21:58:00.505;599616403377625277;4476.419;104
2024-05-15T21:58:00.513;599616403385316718;4484.111;128
2024-05-15T21:58:00.520;599616403392998136;4491.792;126
2024-05-15T21:58:00.528;599616403400689717;4499.484;69
2024-05-15T21:58:00.536;599616403408381298;4507.1753;47
2024-05-15T21:58:00.543;599616403416072879;4514.8667;88
2024-05-15T21:58:00.551;599616403423764460;4522.5586;119
2024-05-15T21:58:00.559;599616403431456041;4530.2495;126
2024-05-15T21:58:00.566;599616403439147622;4537.9414;130
2024-05-15T21:58:00.574;599616403446839203;4545.6333;130
2024-05-15T21:58:00.582;599616403454530784;4553.3247;116
2024-05-15T21:58:00.590;599616403462222365;4561.016;66
2024-05-15T21:58:00.597;599616403469913946;4568.708;-14
2024-05-15T21:58:00.605;599616403477605527;4576.3994;-95
2024-05-15T21:58:00.613;599616403485297108;4584.0913;-159
2024-05-15T21:58:00.620;599616403492988689;4591.782;-188
2024-05-15T21:58:00.628;599616403500680270;4599.474;-161
2024-05-15T21:58:00.636;599616403508371851;4607.166;-114
2024-05-15T21:58:00.643;599616403516063432;4614.8574;-85
2024-05-15T21:58:00.651;599616403523755013;4622.549;-66
2024-05-15T21:58:00.659;599616403531446594;4630.24;-42
2024-05-15T21:58:00.666;599616403539138175;4637.932;-16
2024-05-15T21:58:00.674;599616403546829756;4645.624;-9
2024-05-15T21:58:00.682;599616403554521337;4653.315;-30
2024-05-15T21:58:00.690;599616403562212918;4661.007;-83
2024-05-15T21:58:00.697;599616403569904499;4668.6987;-123
2024-05-15T21:58:00.705;599616403577596080;4676.3896;-138
2024-05-15T21:58:00.713;599616403585287661;4684.0815;-154
2024-05-15T21:58:00.720;599616403592979242;4691.773;-157
2024-05-15T21:58:00.728;599616403600670823;4699.465;-126
2024-05-15T21:58:00.736;599616403608362404;4707.1562;-104
2024-05-15T21:58:00.743;599616403616053985;4714.8477;-109
2024-05-15T21:58:00.751;599616403623745566;4722.5396;-99
2024-05-15T21:58:00.759;599616403631437147;4730.2314;-78
2024-05-15T21:58:00.766;599616403639128728;4737.9224;-71
2024-05-15T21:58:00.774;599616403646820309;4745.6143;-69
2024-05-15T21:58:00.782;599616403654511890;4753.3057;-45
2024-05-15T21:58:00.789;599616403662203471;4760.9976;-2
2024-05-15T21:58:00.797;599616403669895052;4768.689;11
2024-05-15T21:58:00.805;599616403677586633;4776.3804;2
2024-05-15T21:58:00.813;599616403685278214;4784.0723;38
2024-05-15T21:58:00.820;599616403692969795;4791.7637;97
2024-05-15T21:58:00.828;599616403700661376;4799.455;114
2024-05-15T21:58:00.836;599616403708352957;4807.147;109
2024-05-15T21:58:00.843;599616403716044538;4814.8384;133
2024-05-15T21:58:00.851;599616403723736119;4822.5303;154
2024-05-15T21:58:00.859;599616403731427700;4830.2217;157
2024-05-15T21:58:00.866;599616403739119281;4837.913;161
2024-05-15T21:58:00.874;599616403746810862;4845.605;149
2024-05-15T21:58:00.882;599616403754502443;4853.296;116
2024-05-15T21:58:00.889;599616403762194024;4860.988;188
2024-05-15T21:58:00.897;599616403769885605;4868.6797;545
2024-05-15T21:58:00.905;599616403777577186;4876.371;1092
2024-05-15T21:58:00.913;599616403785268767;4884.0625;1321
2024-05-15T21:58:00.920;599616403792960348;4891.7544;887
2024-05-15T21:58:00.928;599616403800651929;4899.446;252
2024-05-15T21:58:00.936;599616403808343510;4907.1377;66
2024-05-15T21:58:00.943;599616403816035091;4914.8286;149
2024-05-15T21:58:00.951;599616403823726672;4922.5205;99
2024-05-15T21:58:00.959;599616403831418253;4930.2124;57
2024-05-15T21:58:00.966;599616403839109834;4937.904;135
2024-05-15T21:58:00.974;599616403846801415;4945.595;178
2024-05-15T21:58:00.982;599616403854492996;4953.2866;157
2024-05-15T21:58:00.989;599616403862184577;4960.9785;161
2024-05-15T21:58:00.997;599616403869876158;4968.6704;188
2024-05-15T21:58:01.005;599616403877567739;4976.3613;180
2024-05-15T21:58:01.013;599616403885259320;4984.053;147
2024-05-15T21:58:01.020;599616403892950901;4991.745;149
2024-05-15T21:58:01.028;599616403900642482;4999.4365;180
2024-05-15T21:58:01.036;599616403908334063;5007.128;180
2024-05-15T21:58:01.043;599616403916025644;5014.8193;166
2024-05-15T21:58:01.051;599616403923717225;5022.511;197
2024-05-15T21:58:01.059;599616403931408806;5030.2026;245
2024-05-15T21:58:01.066;599616403939100387;5037.894;266
2024-05-15T21:58:01.074;599616403946791968;5045.586;264
2024-05-15T21:58:01.082;599616403954498608;5053.2925;261
2024-05-15T21:58:01.089;599616403962189980;5060.984;266
2024-05-15T21:58:01.097;599616403969881352;5068.6753;276
2024-05-15T21:58:01.105;599616403977572724;5076.3667;259
2024-05-15T21:58:01.113;599616403985264096;5084.058;197
2024-05-15T21:58:01.120;599616403992955468;5091.7495;114
2024-05-15T21:58:01.128;599616404000646840;5099.4404;45
2024-05-15T21:58:01.136;599616404008338212;5107.132;-4
2024-05-15T21:58:01.143;599616404016029584;5114.8237;-2
2024-05-15T21:58:01.151;599616404023720956;5122.515;47
2024-05-15T21:58:01.159;599616404031412328;5130.206;49
2024-05-15T21:58:01.166;599616404039103700;5137.8975;-7
2024-05-15T21:58:01.174;599616404046795072;5145.589;-59
2024-05-15T21:58:01.182;599616404054486444;5153.2803;-119
2024-05-15T21:58:01.189;599616404062177816;5160.9717;-180
2024-05-15T21:58:01.197;599616404069869188;5168.663;-166
2024-05-15T21:58:01.205;599616404077560560;5176.3545;-114
2024-05-15T21:58:01.213;599616404085251932;5184.046;-92
2024-05-15T21:58:01.220;599616404092943304;5191.7373;-102
2024-05-15T21:58:01.228;599616404100634676;5199.4287;-104
2024-05-15T21:58:01.236;599616404108326048;5207.1196;-71
2024-05-15T21:58:01.243;599616404116017420;5214.811;-30
2024-05-15T21:58:01.251;599616404123708792;5222.503;-14
2024-05-15T21:58:01.259;599616404131400164;5230.1943;-16
2024-05-15T21:58:01.266;599616404139091536;5237.8853;-2
2024-05-15T21:58:01.274;599616404146782908;5245.5767;16
2024-05-15T21:58:01.282;599616404154474280;5253.268;26
2024-05-15T21:58:01.289;599616404162165652;5260.96;47
2024-05-15T21:58:01.297;599616404169857024;5268.651;90
2024-05-15T21:58:01.305;599616404177548396;5276.3423;121
2024-05-15T21:58:01.313;599616404185239768;5284.0337;126
2024-05-15T21:58:01.320;599616404192931140;5291.7246;149
2024-05-15T21:58:01.328;599616404200622512;5299.4165;195
2024-05-15T21:58:01.336;599616404208313884;5307.108;218
2024-05-15T21:58:01.343;599616404216005256;5314.7993;226
2024-05-15T21:58:01.351;599616404223696628;5322.49;245
2024-05-15T21:58:01.359;599616404231388000;5330.182;261
2024-05-15T21:58:01.366;599616404239079372;5337.8735;261
2024-05-15T21:58:01.374;599616404246770744;5345.5645;238
2024-05-15T21:58:01.382;599616404254462116;5353.256;195
2024-05-15T21:58:01.389;599616404262153488;5360.9473;235
2024-05-15T21:58:01.397;599616404269844860;5368.639;537
2024-05-15T21:58:01.405;599616404277536232;5376.33;1044
2024-05-15T21:58:01.413;599616404285227604;5384.0215;1349
2024-05-15T21:58:01.420;599616404292918976;5391.713;1037
2024-05-15T21:58:01.428;599616404300610348;5399.404;368
2024-05-15T21:58:01.436;599616404308301720;5407.0957;80
2024-05-15T21:58:01.443;599616404315993092;5414.787;218
2024-05-15T21:58:01.451;599616404323684464;5422.4785;240
2024-05-15T21:58:01.459;599616404331375836;5430.1694;135
2024-05-15T21:58:01.466;599616404339067208;5437.861;161
2024-05-15T21:58:01.474;599616404346758580;5445.5527;223
2024-05-15T21:58:01.482;599616404354449952;5453.244;228
2024-05-15T21:58:01.489;599616404362141324;5460.935;197
2024-05-15T21:58:01.497;599616404369832696;5468.6265;154
2024-05-15T21:58:01.505;599616404377524068;5476.3184;149
2024-05-15T21:58:01.513;599616404385215440;5484.0093;183
2024-05-15T21:58:01.520;599616404392906812;5491.7007;180
2024-05-15T21:58:01.528;599616404400598184;5499.392;171
2024-05-15T21:58:01.536;599616404408289556;5507.0835;188
2024-05-15T21:58:01.543;599616404415980928;5514.775;202
2024-05-15T21:58:01.551;599616404423672300;5522.4663;211
2024-05-15T21:58:01.559;599616404431363672;5530.1577;242
2024-05-15T21:58:01.566;599616404439055044;5537.8486;288
2024-05-15T21:58:01.574;599616404446746416;5545.54;316
2024-05-15T21:58:01.582;599616404454437788;5553.232;309
2024-05-15T21:58:01.589;599616404462129160;5560.9233;292
2024-05-15T21:58:01.597;599616404469820532;5568.6143;302
2024-05-15T21:58:01.605;599616404477511904;5576.3057;316
2024-05-15T21:58:01.612;599616404485203276;5583.997;283
2024-05-15T21:58:01.620;599616404492894648;5591.6885;204
2024-05-15T21:58:01.628;599616404500586020;5599.38;164
2024-05-15T21:58:01.636;599616404508277392;5607.0713;164
2024-05-15T21:58:01.643;599616404515968772;5614.7627;128
2024-05-15T21:58:01.651;599616404523660144;5622.454;88
2024-05-15T21:58:01.659;599616404531351516;5630.1455;90
2024-05-15T21:58:01.666;599616404539042888;5637.837;54
2024-05-15T21:58:01.674;599616404546734260;5645.528;-40
2024-05-15T21:58:01.682;599616404554425632;5653.219;-85
2024-05-15T21:58:01.689;599616404562117004;5660.911;-59
2024-05-15T21:58:01.697;599616404569808376;5668.6025;-71
2024-05-15T21:58:01.705;599616404577499748;5676.2935;-130
2024-05-15T21:58:01.712;599616404585191120;5683.985;-130
2024-05-15T21:58:01.720;599616404592882492;5691.6763;-80
2024-05-15T21:58:01.728;599616404600573864;5699.368;-92
2024-05-15T21:58:01.736;599616404608265236;5707.059;-109
2024-05-15T21:58:01.743;599616404615956608;5714.7505;-64
2024-05-15T21:58:01.751;599616404623647980;5722.442;-21
2024-05-15T21:58:01.759;599616404631339352;5730.1333;-16
2024-05-15T21:58:01.766;599616404639030724;5737.8247;-14
2024-05-15T21:58:01.774;599616404646722096;5745.516;2
2024-05-15T21:58:01.782;599616404654413468;5753.2075;23
2024-05-15T21:58:01.789;599616404662104840;5760.8984;54
2024-05-15T21:58:01.797;599616404669796212;5768.5903;85
2024-05-15T21:58:01.805;599616404677487584;5776.2817;126
2024-05-15T21:58:01.812;599616404685178956;5783.9727;169
2024-05-15T21:58:01.820;599616404692870328;5791.664;183
2024-05-15T21:58:01.828;599616404700561700;5799.3555;185
2024-05-15T21:58:01.836;599616404708253072;5807.0474;214
2024-05-15T21:58:01.843;599616404715944444;5814.7383;249
2024-05-15T21:58:01.851;599616404723635816;5822.4297;268
2024-05-15T21:58:01.859;599616404731327188;5830.121;285
2024-05-15T21:58:01.866;599616404739018560;5837.812;302
2024-05-15T21:58:01.874;599616404746709932;5845.504;292
2024-05-15T21:58:01.882;599616404754401304;5853.1953;245
2024-05-15T21:58:01.889;599616404762092676;5860.8867;245
2024-05-15T21:58:01.897;599616404769784048;5868.5776;483
2024-05-15T21:58:01.905;599616404777475420;5876.2695;980
2024-05-15T21:58:01.912;599616404785166792;5883.961;1366
2024-05-15T21:58:01.920;599616404792858164;5891.652;1175
2024-05-15T21:58:01.928;599616404800549536;5899.3433;566
2024-05-15T21:58:01.936;599616404808240908;5907.0347;238
2024-05-15T21:58:01.943;599616404815932280;5914.7266;338
2024-05-15T21:58:01.951;599616404823623652;5922.4175;395
2024-05-15T21:58:01.959;599616404831315024;5930.109;326
2024-05-15T21:58:01.966;599616404839006396;5937.8003;345
2024-05-15T21:58:01.974;599616404846697768;5945.4917;376
2024-05-15T21:58:01.982;599616404854389140;5953.183;333
2024-05-15T21:58:01.989;599616404862080512;5960.8745;318
2024-05-15T21:58:01.997;599616404869771884;5968.566;335
2024-05-15T21:58:02.005;599616404877463256;5976.257;318
2024-05-15T21:58:02.012;599616404885154628;5983.948;321
2024-05-15T21:58:02.020;599616404892846000;5991.64;359
2024-05-15T21:58:02.028;599616404900537372;5999.3315;380
2024-05-15T21:58:02.036;599616404908228744;6007.0225;390
2024-05-15T21:58:02.043;599616404915920116;6014.714;421
2024-05-15T21:58:02.051;599616404923611488;6022.406;447
2024-05-15T21:58:02.059;599616404931302860;6030.0967;449
2024-05-15T21:58:02.066;599616404938994232;6037.788;468
2024-05-15T21:58:02.074;599616404946685604;6045.4795;507
2024-05-15T21:58:02.082;599616404954376976;6053.171;530
2024-05-15T21:58:02.089;599616404962068348;6060.8623;521
2024-05-15T21:58:02.097;599616404969759720;6068.5537;495
2024-05-15T21:58:02.105;599616404977451092;6076.245;490
2024-05-15T21:58:02.112;599616404985142464;6083.936;504
2024-05-15T21:58:02.120;599616404992833836;6091.6274;461
2024-05-15T21:58:02.128;599616405000525208;6099.3193;347
2024-05-15T21:58:02.136;599616405008216580;6107.0107;259
2024-05-15T21:58:02.143;599616405015907952;6114.7017;211
2024-05-15T21:58:02.151;599616405023599324;6122.393;140
2024-05-15T21:58:02.159;599616405031290696;6130.0845;47
2024-05-15T21:58:02.166;599616405038982068;6137.7764;-14
2024-05-15T21:58:02.174;599616405046673440;6145.4673;-33
2024-05-15T21:58:02.182;599616405054364812;6153.1587;-45
2024-05-15T21:58:02.189;599616405062056184;6160.85;-66
2024-05-15T21:58:02.197;599616405069747556;6168.5415;-64
2024-05-15T21:58:02.205;599616405077408840;6176.2026;-33
2024-05-15T21:58:02.212;599616405085100630;6183.8945;-21
2024-05-15T21:58:02.220;599616405092792420;6191.5864;-21
2024-05-15T21:58:02.228;599616405100484210;6199.2783;-4
2024-05-15T21:58:02.235;599616405108176000;6206.9697;-28
2024-05-15T21:58:02.243;599616405115867790;6214.6616;-109
2024-05-15T21:58:02.251;599616405123559580;6222.3535;-140
2024-05-15T21:58:02.259;599616405131251370;6230.0454;-90
2024-05-15T21:58:02.266;599616405138943160;6237.737;-64
2024-05-15T21:58:02.274;599616405146634950;6245.4287;-97
2024-05-15T21:58:02.282;599616405154326740;6253.1206;-95
2024-05-15T21:58:02.289;599616405162018530;6260.8125;-38
2024-05-15T21:58:02.297;599616405169710320;6268.504;0
2024-05-15T21:58:02.305;599616405177402110;6276.196;4
2024-05-15T21:58:02.312;599616405185093900;6283.8877;38
2024-05-15T21:58:02.320;599616405192785690;6291.5796;83
2024-05-15T21:58:02.328;599616405200477480;6299.271;85
2024-05-15T21:58:02.335;599616405208169270;6306.963;83
2024-05-15T21:58:02.343;599616405215861060;6314.655;128
2024-05-15T21:58:02.351;599616405223552850;6322.347;178
2024-05-15T21:58:02.359;599616405231244640;6330.0386;195
2024-05-15T21:58:02.366;599616405238936430;6337.7305;190
2024-05-15T21:58:02.374;599616405246628220;6345.4224;166
2024-05-15T21:58:02.382;599616405254320010;6353.1143;128
2024-05-15T21:58:02.389;599616405262011800;6360.8057;180
2024-05-15T21:58:02.397;599616405269703590;6368.4976;511
2024-05-15T21:58:02.405;599616405277395380;6376.1895;1042
2024-05-15T21:58:02.412;599616405285087170;6383.8813;1244
2024-05-15T21:58:02.420;599616405292778960;6391.5728;773
2024-05-15T21:58:02.428;599616405300470750;6399.2646;140
2024-05-15T21:58:02.435;599616405308162540;6406.9565;9
2024-05-15T21:58:02.443;599616405315854330;6414.6484;169
2024-05-15T21:58:02.451;599616405323546120;6422.3403;154
2024-05-15T21:58:02.459;599616405331237910;6430.0317;85
2024-05-15T21:58:02.466;599616405338929700;6437.7236;102
2024-05-15T21:58:02.474;599616405346621490;6445.4155;76
2024-05-15T21:58:02.482;599616405354313280;6453.1074;23
2024-05-15T21:58:02.489;599616405362005070;6460.799;49
2024-05-15T21:58:02.497;599616405369696860;6468.4907;107
2024-05-15T21:58:02.505;599616405377388650;6476.1826;126
2024-05-15T21:58:02.512;599616405385080440;6483.8745;109
2024-05-15T21:58:02.520;599616405392772230;6491.566;109
2024-05-15T21:58:02.528;599616405400464020;6499.258;147
2024-05-15T21:58:02.535;599616405408155810;6506.9497;183
2024-05-15T21:58:02.543;599616405415847600;6514.6416;197
2024-05-15T21:58:02.551;599616405423539390;6522.333;202
2024-05-15T21:58:02.559;599616405431231180;6530.025;216
2024-05-15T21:58:02.566;599616405438922970;6537.717;218
2024-05-15T21:58:02.574;599616405446614760;6545.4087;216
2024-05-15T21:58:02.582;599616405454306550;6553.1;235
2024-05-15T21:58:02.589;599616405461998340;6560.792;259
2024-05-15T21:58:02.597;599616405469690130;6568.484;242
2024-05-15T21:58:02.605;599616405477381920;6576.176;209
2024-05-15T21:58:02.612;599616405485073710;6583.867;204
2024-05-15T21:58:02.620;599616405492765500;6591.559;176
2024-05-15T21:58:02.628;599616405500457290;6599.251;49
2024-05-15T21:58:02.635;599616405508149080;6606.9434;-71
2024-05-15T21:58:02.643;599616405515840870;6614.635;-99
2024-05-15T21:58:02.651;599616405523532660;6622.3267;-147
2024-05-15T21:58:02.659;599616405531224450;6630.0186;-226
2024-05-15T21:58:02.666;599616405538916240;6637.7104;-238
2024-05-15T21:58:02.674;599616405546608030;6645.4023;-197
2024-05-15T21:58:02.682;599616405554299820;6653.0938;-169
2024-05-15T21:58:02.689;599616405561991610;6660.7856;-166
2024-05-15T21:58:02.697;599616405569683400;6668.4775;-171
2024-05-15T21:58:02.705;599616405577375190;6676.1694;-152
2024-05-15T21:58:02.712;599616405585066980;6683.861;-114
2024-05-15T21:58:02.720;599616405592758770;6691.5527;-92
2024-05-15T21:58:02.728;599616405600450560;6699.2446;-73
2024-05-15T21:58:02.735;599616405608142350;6706.9365;-45
2024-05-15T21:58:02.743;599616405615834140;6714.628;-35
2024-05-15T21:58:02.751;599616405623525930;6722.32;-45
2024-05-15T21:58:02.759;599616405631217720;6730.0117;-28
2024-05-15T21:58:02.766;599616405638939618;6737.7334;4
2024-05-15T21:58:02.774;599616405646630990;6745.425;23
2024-05-15T21:58:02.782;599616405654322362;6753.116;19
2024-05-15T21:58:02.789;599616405662013734;6760.8076;16
2024-05-15T21:58:02.797;599616405669705106;6768.499;33
2024-05-15T21:58:02.805;599616405677396478;6776.1904;33
2024-05-15T21:58:02.812;599616405685087850;6783.882;-4
2024-05-15T21:58:02.820;599616405692779222;6791.5728;-26
2024-05-15T21:58:02.828;599616405700470594;6799.264;2
2024-05-15T21:58:02.835;599616405708161966;6806.956;4
2024-05-15T21:58:02.843;599616405715853338;6814.6475;-11
2024-05-15T21:58:02.851;599616405723544710;6822.3384;28
2024-05-15T21:58:02.859;599616405731236082;6830.03;92
2024-05-15T21:58:02.866;599616405738927454;6837.7217;104
2024-05-15T21:58:02.874;599616405746618826;6845.413;66
2024-05-15T21:58:02.882;599616405754310198;6853.104;9
2024-05-15T21:58:02.889;599616405762001570;6860.7954;54
2024-05-15T21:58:02.897;599616405769692942;6868.487;368
2024-05-15T21:58:02.905;599616405777384314;6876.178;873
2024-05-15T21:58:02.912;599616405785075686;6883.8696;1161
2024-05-15T21:58:02.920;599616405792767058;6891.561;873
2024-05-15T21:58:02.928;599616405800458430;6899.2524;240
2024-05-15T21:58:02.935;599616405808149802;6906.9434;-45
2024-05-15T21:58:02.943;599616405815841174;6914.6353;97
2024-05-15T21:58:02.951;599616405823532546;6922.3267;140
2024-05-15T21:58:02.959;599616405831223918;6930.0176;16
2024-05-15T21:58:02.966;599616405838915290;6937.709;-11
2024-05-15T21:58:02.974;599616405846606662;6945.4004;19
2024-05-15T21:58:02.982;599616405854298034;6953.0923;28
2024-05-15T21:58:02.989;599616405861989406;6960.783;49
2024-05-15T21:58:02.997;599616405869680778;6968.4746;76
2024-05-15T21:58:03.005;599616405877372150;6976.166;97
2024-05-15T21:58:03.012;599616405885063522;6983.8574;123
2024-05-15T21:58:03.020;599616405892754894;6991.549;123
2024-05-15T21:58:03.028;599616405900446266;6999.24;128
2024-05-15T21:58:03.035;599616405908137638;7006.9316;171
2024-05-15T21:58:03.043;599616405915829010;7014.6226;214
2024-05-15T21:58:03.051;599616405923520382;7022.3145;228
2024-05-15T21:58:03.059;599616405931211754;7030.006;240
2024-05-15T21:58:03.066;599616405938903126;7037.6973;259
2024-05-15T21:58:03.074;599616405946594498;7045.388;278
2024-05-15T21:58:03.082;599616405954285870;7053.0796;295
2024-05-15T21:58:03.089;599616405961977242;7060.7715;307
2024-05-15T21:58:03.097;599616405969668614;7068.4624;326
2024-05-15T21:58:03.105;599616405977359986;7076.154;333
2024-05-15T21:58:03.112;599616405985051358;7083.845;278
2024-05-15T21:58:03.120;599616405992742730;7091.5366;207
2024-05-15T21:58:03.128;599616406000434102;7099.228;147
2024-05-15T21:58:03.135;599616406008125474;7106.9194;42
2024-05-15T21:58:03.143;599616406015816846;7114.611;-47
2024-05-15T21:58:03.151;599616406023508218;7122.302;-80
2024-05-15T21:58:03.158;599616406031199590;7129.9937;-119
2024-05-15T21:58:03.166;599616406038890962;7137.685;-145
2024-05-15T21:58:03.174;599616406046582334;7145.3765;-128
2024-05-15T21:58:03.182;599616406054273706;7153.0674;-99
2024-05-15T21:58:03.189;599616406061965078;7160.759;-69
2024-05-15T21:58:03.197;599616406069656450;7168.4507;-49
2024-05-15T21:58:03.205;599616406077347822;7176.1416;-66
2024-05-15T21:58:03.212;599616406085039194;7183.833;-59
2024-05-15T21:58:03.220;599616406092730566;7191.5244;-9
2024-05-15T21:58:03.228;599616406100421938;7199.216;19
2024-05-15T21:58:03.235;599616406108113310;7206.907;21
2024-05-15T21:58:03.243;599616406115804682;7214.5986;40
2024-05-15T21:58:03.251;599616406123496054;7222.29;59
2024-05-15T21:58:03.258;599616406131187426;7229.981;52
2024-05-15T21:58:03.266;599616406138878798;7237.6724;59
2024-05-15T21:58:03.274;599616406146570170;7245.3643;97
2024-05-15T21:58:03.282;599616406154261542;7253.0557;130
2024-05-15T21:58:03.289;599616406161952914;7260.7466;133
2024-05-15T21:58:03.297;599616406169644286;7268.438;123
2024-05-15T21:58:03.305;599616406177335658;7276.13;149
2024-05-15T21:58:03.312;599616406185027030;7283.8213;202
2024-05-15T21:58:03.320;599616406192718402;7291.512;228
2024-05-15T21:58:03.328;599616406200409782;7299.2036;230
2024-05-15T21:58:03.335;599616406208101154;7306.895;247
2024-05-15T21:58:03.343;599616406215792526;7314.5864;254
2024-05-15T21:58:03.351;599616406223483898;7322.278;238
2024-05-15T21:58:03.358;599616406231175270;7329.969;238
2024-05-15T21:58:03.366;599616406238866642;7337.6606;261
2024-05-15T21:58:03.374;599616406246558014;7345.3516;252
2024-05-15T21:58:03.382;599616406254249386;7353.0435;171
2024-05-15T21:58:03.389;599616406261940758;7360.735;149
2024-05-15T21:58:03.397;599616406269632130;7368.426;421
2024-05-15T21:58:03.405;599616406277323502;7376.117;942
2024-05-15T21:58:03.412;599616406285014874;7383.809;1218
2024-05-15T21:58:03.420;599616406292706246;7391.5005;852
2024-05-15T21:58:03.428;599616406300397618;7399.1914;207
2024-05-15T21:58:03.435;599616406308088990;7406.883;-33
2024-05-15T21:58:03.443;599616406315780362;7414.574;49
2024-05-15T21:58:03.451;599616406323471734;7422.2656;9
2024-05-15T21:58:03.458;599616406331163106;7429.957;-69
2024-05-15T21:58:03.466;599616406338854478;7437.6484;-14
2024-05-15T21:58:03.474;599616406346545850;7445.34;9
2024-05-15T21:58:03.482;599616406354237222;7453.031;-19
2024-05-15T21:58:03.489;599616406361928594;7460.7227;21
2024-05-15T21:58:03.497;599616406369619966;7468.414;73
2024-05-15T21:58:03.505;599616406377311338;7476.105;78
2024-05-15T21:58:03.512;599616406385002710;7483.7964;104
2024-05-15T21:58:03.520;599616406392694082;7491.488;145
2024-05-15T21:58:03.528;599616406400385454;7499.1797;147
2024-05-15T21:58:03.535;599616406408076826;7506.8706;145
2024-05-15T21:58:03.543;599616406415768198;7514.562;188
2024-05-15T21:58:03.551;599616406423459570;7522.2534;238
2024-05-15T21:58:03.558;599616406431150942;7529.9453;254
2024-05-15T21:58:03.566;599616406438842314;7537.636;257
2024-05-15T21:58:03.574;599616406446533686;7545.3276;273
2024-05-15T21:58:03.582;599616406454225058;7553.019;297
2024-05-15T21:58:03.589;599616406461916430;7560.71;309
2024-05-15T21:58:03.597;599616406469607802;7568.402;304
2024-05-15T21:58:03.605;599616406477299174;7576.0933;290
2024-05-15T21:58:03.612;599616406484990546;7583.7847;254
2024-05-15T21:58:03.620;599616406492681918;7591.4756;188
2024-05-15T21:58:03.628;599616406500373290;7599.167;99
2024-05-15T21:58:03.635;599616406508064662;7606.859;-9
2024-05-15T21:58:03.643;599616406515756034;7614.55;-130
2024-05-15T21:58:03.651;599616406523447406;7622.241;-185
2024-05-15T21:58:03.658;599616406531138778;7629.9326;-169
2024-05-15T21:58:03.666;599616406538830150;7637.624;-159
2024-05-15T21:58:03.674;599616406546521522;7645.3154;-152
2024-05-15T21:58:03.682;599616406554212894;7653.007;-123
2024-05-15T21:58:03.689;599616406561904266;7660.698;-95
2024-05-15T21:58:03.697;599616406569595638;7668.389;-64
2024-05-15T21:58:03.705;599616406577287010;7676.081;-40
2024-05-15T21:58:03.712;599616406584978382;7683.7725;-45
2024-05-15T21:58:03.720;599616406592669754;7691.464;-45
2024-05-15T21:58:03.728;599616406600361126;7699.155;-4
2024-05-15T21:58:03.735;599616406608052498;7706.846;33
2024-05-15T21:58:03.743;599616406615743870;7714.538;42
2024-05-15T21:58:03.751;599616406623435242;7722.229;57
2024-05-15T21:58:03.758;599616406631126614;7729.9204;78
2024-05-15T21:58:03.766;599616406638817986;7737.612;88
2024-05-15T21:58:03.774;599616406646509358;7745.303;97
2024-05-15T21:58:03.781;599616406654200730;7752.9946;114
2024-05-15T21:58:03.789;599616406661892102;7760.686;157
2024-05-15T21:58:03.797;599616406669583474;7768.3774;185
2024-05-15T21:58:03.805;599616406677274846;7776.069;176
2024-05-15T21:58:03.812;599616406684966218;7783.76;195
2024-05-15T21:58:03.820;599616406692657590;7791.4517;261
2024-05-15T21:58:03.828;599616406700348962;7799.143;290
2024-05-15T21:58:03.835;599616406708040334;7806.834;292
2024-05-15T21:58:03.843;599616406715731706;7814.5254;326
2024-05-15T21:58:03.851;599616406723423078;7822.2173;347
2024-05-15T21:58:03.858;599616406731114450;7829.9087;338
2024-05-15T21:58:03.866;599616406738805822;7837.5996;342
2024-05-15T21:58:03.874;599616406746497194;7845.291;352
2024-05-15T21:58:03.881;599616406754188566;7852.9824;299
2024-05-15T21:58:03.889;599616406761879946;7860.674;230
2024-05-15T21:58:03.897;599616406769571318;7868.365;368
2024-05-15T21:58:03.905;599616406777262690;7876.0566;856
2024-05-15T21:58:03.912;599616406784954062;7883.748;1344
2024-05-15T21:58:03.920;599616406792645434;7891.439;1273
2024-05-15T21:58:03.928;599616406800336806;7899.131;652
2024-05-15T21:58:03.935;599616406808028178;7906.8223;192
2024-05-15T21:58:03.943;599616406815719550;7914.513;197
2024-05-15T21:58:03.951;599616406823410922;7922.2046;164
2024-05-15T21:58:03.958;599616406831102294;7929.8965;-19
2024-05-15T21:58:03.966;599616406838793666;7937.588;-21
2024-05-15T21:58:03.974;599616406846485038;7945.279;54
2024-05-15T21:58:03.981;599616406854176410;7952.97;19
2024-05-15T21:58:03.989;599616406861867782;7960.6616;2
2024-05-15T21:58:03.997;599616406869559154;7968.3535;47
2024-05-15T21:58:04.005;599616406877250526;7976.0444;64
2024-05-15T21:58:04.012;599616406884941898;7983.736;61
2024-05-15T21:58:04.020;599616406892633270;7991.4272;85
2024-05-15T21:58:04.028;599616406900324642;7999.118;104
2024-05-15T21:58:04.035;599616406908016014;8006.81;90
2024-05-15T21:58:04.043;599616406915707386;8014.5015;76
2024-05-15T21:58:04.051;599616406923398758;8022.193;109
2024-05-15T21:58:04.058;599616406931090130;8029.884;164
2024-05-15T21:58:04.066;599616406938781502;8037.575;183
2024-05-15T21:58:04.074;599616406946472874;8045.267;171
2024-05-15T21:58:04.081;599616406954164246;8052.958;161
2024-05-15T21:58:04.089;599616406961855618;8060.6494;176
2024-05-15T21:58:04.097;599616406969546990;8068.341;169
2024-05-15T21:58:04.105;599616406977238362;8076.0327;109
2024-05-15T21:58:04.112;599616406984929734;8083.7236;69
2024-05-15T21:58:04.120;599616406992621106;8091.415;49
2024-05-15T21:58:04.128;599616407000312478;8099.1064;-21
2024-05-15T21:58:04.135;599616407008003850;8106.7974;-130
2024-05-15T21:58:04.143;599616407015695222;8114.4893;-228
2024-05-15T21:58:04.151;599616407023386594;8122.1807;-288
2024-05-15T21:58:04.158;599616407031077966;8129.872;-292
2024-05-15T21:58:04.166;599616407038769338;8137.563;-290
2024-05-15T21:58:04.174;599616407046460710;8145.2544;-285
2024-05-15T21:58:04.181;599616407054152082;8152.9463;-257
2024-05-15T21:58:04.189;599616407061843454;8160.637;-223
2024-05-15T21:58:04.197;599616407069534826;8168.3286;-195
2024-05-15T21:58:04.205;599616407077226198;8176.02;-149
2024-05-15T21:58:04.212;599616407084917570;8183.7114;-109
2024-05-15T21:58:04.220;599616407092608942;8191.403;-116
2024-05-15T21:58:04.228;599616407100300314;8199.095;-114
2024-05-15T21:58:04.235;599616407107991686;8206.785;-64
2024-05-15T21:58:04.243;599616407115683058;8214.477;-23
2024-05-15T21:58:04.251;599616407123374430;8222.169;-11
2024-05-15T21:58:04.258;599616407131065802;8229.859;-4
2024-05-15T21:58:04.266;599616407138757174;8237.551;9
2024-05-15T21:58:04.274;599616407146448546;8245.242;28
2024-05-15T21:58:04.281;599616407154139918;8252.934;35
2024-05-15T21:58:04.289;599616407161831290;8260.625;49
2024-05-15T21:58:04.297;599616407169522662;8268.316;90
2024-05-15T21:58:04.305;599616407177214034;8276.008;114
2024-05-15T21:58:04.312;599616407184905406;8283.699;109
2024-05-15T21:58:04.320;599616407192596778;8291.391;138
2024-05-15T21:58:04.328;599616407200288150;8299.082;192
2024-05-15T21:58:04.335;599616407207979522;8306.773;214
2024-05-15T21:58:04.343;599616407215670894;8314.465;207
2024-05-15T21:58:04.351;599616407223362266;8322.156;216
2024-05-15T21:58:04.358;599616407231053638;8329.848;240
2024-05-15T21:58:04.366;599616407238745010;8337.539;252
2024-05-15T21:58:04.374;599616407246436382;8345.23;238
2024-05-15T21:58:04.381;599616407254127754;8352.922;169
2024-05-15T21:58:04.389;599616407261819126;8360.613;80
2024-05-15T21:58:04.397;599616407269510498;8368.305;133
2024-05-15T21:58:04.404;599616407277201870;8375.996;478
2024-05-15T21:58:04.412;599616407284893242;8383.6875;1011
2024-05-15T21:58:04.420;599616407292584614;8391.379;1259
2024-05-15T21:58:04.428;599616407300275986;8399.069;866
2024-05-15T21:58:04.435;599616407307967358;8406.762;264
2024-05-15T21:58:04.443;599616407315658730;8414.453;114
2024-05-15T21:58:04.451;599616407323350110;8422.144;211
2024-05-15T21:58:04.458;599616407331041482;8429.835;123
2024-05-15T21:58:04.466;599616407338732854;8437.526;52
2024-05-15T21:58:04.474;599616407346424226;8445.219;123
2024-05-15T21:58:04.481;599616407354115598;8452.909;149
2024-05-15T21:58:04.489;599616407361806970;8460.601;111
2024-05-15T21:58:04.497;599616407369498342;8468.292;102
2024-05-15T21:58:04.504;599616407377189714;8475.983;133
2024-05-15T21:58:04.512;599616407384881086;8483.675;159
2024-05-15T21:58:04.520;599616407392572458;8491.366;128
2024-05-15T21:58:04.528;599616407400263830;8499.058;73
2024-05-15T21:58:04.535;599616407407955202;8506.749;90
2024-05-15T21:58:04.543;599616407415646574;8514.44;135
2024-05-15T21:58:04.551;599616407423337946;8522.132;135
2024-05-15T21:58:04.558;599616407431029318;8529.823;149
2024-05-15T21:58:04.566;599616407438720690;8537.515;207
2024-05-15T21:58:04.574;599616407446412062;8545.206;249
2024-05-15T21:58:04.581;599616407454103434;8552.897;252
2024-05-15T21:58:04.589;599616407461794806;8560.589;247
2024-05-15T21:58:04.597;599616407469486178;8568.28;257
2024-05-15T21:58:04.604;599616407477177550;8575.972;240
2024-05-15T21:58:04.612;599616407484868922;8583.662;195
2024-05-15T21:58:04.620;599616407492560294;8591.354;154
2024-05-15T21:58:04.628;599616407500251666;8599.045;76
2024-05-15T21:58:04.635;599616407507943038;8606.737;-23
2024-05-15T21:58:04.643;599616407515634410;8614.429;-83
2024-05-15T21:58:04.651;599616407523325782;8622.12;-152
2024-05-15T21:58:04.658;599616407531017154;8629.812;-185
2024-05-15T21:58:04.666;599616407538708526;8637.503;-145
2024-05-15T21:58:04.674;599616407546399898;8645.193;-142
2024-05-15T21:58:04.681;599616407554091270;8652.885;-166
2024-05-15T21:58:04.689;599616407561782642;8660.576;-130
2024-05-15T21:58:04.697;599616407569474014;8668.268;-76
2024-05-15T21:58:04.704;599616407577165386;8675.959;-61
2024-05-15T21:58:04.712;599616407584856758;8683.651;-38
2024-05-15T21:58:04.720;599616407592548130;8691.343;4
2024-05-15T21:58:04.728;599616407600239502;8699.033;7
2024-05-15T21:58:04.735;599616407607930874;8706.725;0
2024-05-15T21:58:04.743;599616407615622246;8714.416;38
2024-05-15T21:58:04.751;599616407623313618;8722.107;85
2024-05-15T21:58:04.758;599616407631004990;8729.799;99
2024-05-15T21:58:04.766;599616407638696362;8737.49;107
2024-05-15T21:58:04.774;599616407646387734;8745.182;126
2024-05-15T21:58:04.781;599616407654079106;8752.873;145
2024-05-15T21:58:04.789;599616407661770478;8760.564;154
2024-05-15T21:58:04.797;599616407669461850;8768.256;164
2024-05-15T21:58:04.804;599616407677153222;8775.947;204
2024-05-15T21:58:04.812;599616407684844594;8783.639;240
2024-05-15T21:58:04.820;599616407692535966;8791.33;238
2024-05-15T21:58:04.828;599616407700227338;8799.021;242
2024-05-15T21:58:04.835;599616407707918710;8806.712;278
2024-05-15T21:58:04.843;599616407715610082;8814.403;302
2024-05-15T21:58:04.851;599616407723301454;8822.095;309
2024-05-15T21:58:04.858;599616407730992826;8829.787;316
2024-05-15T21:58:04.866;599616407738684198;8837.479;314
2024-05-15T21:58:04.874;599616407746375570;8845.17;280
2024-05-15T21:58:04.881;599616407754066942;8852.861;218
2024-05-15T21:58:04.889;599616407761758314;8860.552;169
2024-05-15T21:58:04.897;599616407769449686;8868.243;197
2024-05-15T21:58:04.904;599616407777141058;8875.935;416
2024-05-15T21:58:04.912;599616407784832430;8883.626;861
2024-05-15T21:58:04.920;599616407792523802;8891.317;1249
2024-05-15T21:58:04.928;599616407800215174;8899.01;1123
2024-05-15T21:58:04.935;599616407807906546;8906.701;549
2024-05-15T21:58:04.943;599616407815597918;8914.392;185
2024-05-15T21:58:04.951;599616407823289290;8922.083;233
2024-05-15T21:58:04.958;599616407830980662;8929.774;245
2024-05-15T21:58:04.966;599616407838672034;8937.466;154
2024-05-15T21:58:04.974;599616407846363406;8945.157;173
2024-05-15T21:58:04.981;599616407854054778;8952.849;223
2024-05-15T21:58:04.989;599616407861746150;8960.54;233
2024-05-15T21:58:04.997;599616407869437522;8968.232;249
2024-05-15T21:58:05.004;599616407877128894;8975.923;254
2024-05-15T21:58:05.012;599616407884760082;8983.554;257
2024-05-15T21:58:05.020;599616407892452290;8991.246;295
2024-05-15T21:58:05.027;599616407900144498;8998.938;333
2024-05-15T21:58:05.035;599616407907836706;9006.631;342
2024-05-15T21:58:05.043;599616407915528914;9014.323;345
2024-05-15T21:58:05.051;599616407923221122;9022.016;345
2024-05-15T21:58:05.058;599616407930913330;9029.707;311
2024-05-15T21:58:05.066;599616407938605538;9037.399;266
2024-05-15T21:58:05.074;599616407946297746;9045.092;290
2024-05-15T21:58:05.081;599616407953989954;9052.783;352
2024-05-15T21:58:05.089;599616407961682162;9060.476;359
2024-05-15T21:58:05.097;599616407969374370;9068.168;321
2024-05-15T21:58:05.104;599616407977066578;9075.86;288
2024-05-15T21:58:05.112;599616407984758786;9083.553;257
2024-05-15T21:58:05.120;599616407992450994;9091.245;199
2024-05-15T21:58:05.127;599616408000143202;9098.9375;121
2024-05-15T21:58:05.135;599616408007835410;9106.63;83
2024-05-15T21:58:05.143;599616408015527618;9114.322;73
2024-05-15T21:58:05.151;599616408023219826;9122.015;2
2024-05-15T21:58:05.158;599616408030912034;9129.705;-92
2024-05-15T21:58:05.166;599616408038604242;9137.397;-97
2024-05-15T21:58:05.174;599616408046296450;9145.09;-64
2024-05-15T21:58:05.181;599616408053988658;9152.782;-73
2024-05-15T21:58:05.189;599616408061680866;9160.475;-80
2024-05-15T21:58:05.197;599616408069373074;9168.167;-47
2024-05-15T21:58:05.204;599616408077065282;9175.859;-14
2024-05-15T21:58:05.212;599616408084757490;9183.552;-16
2024-05-15T21:58:05.220;599616408092449698;9191.244;-7
2024-05-15T21:58:05.227;599616408100141906;9198.937;35
2024-05-15T21:58:05.235;599616408107834114;9206.628;49
2024-05-15T21:58:05.243;599616408115526322;9214.32;33
2024-05-15T21:58:05.251;599616408123218530;9222.013;57
2024-05-15T21:58:05.258;599616408130910738;9229.704;111
2024-05-15T21:58:05.266;599616408138602946;9237.396;138
2024-05-15T21:58:05.274;599616408146295154;9245.089;135
2024-05-15T21:58:05.281;599616408153987362;9252.781;135
2024-05-15T21:58:05.289;599616408161679570;9260.474;152
2024-05-15T21:58:05.297;599616408169371778;9268.166;180
2024-05-15T21:58:05.304;599616408177063986;9275.858;197
2024-05-15T21:58:05.312;599616408184756194;9283.55;228
2024-05-15T21:58:05.320;599616408192448402;9291.242;278
2024-05-15T21:58:05.327;599616408200140610;9298.935;292
2024-05-15T21:58:05.335;599616408207832818;9306.627;278
2024-05-15T21:58:05.343;599616408215525026;9314.319;299
2024-05-15T21:58:05.351;599616408223217234;9322.012;342
2024-05-15T21:58:05.358;599616408230909442;9329.703;364
2024-05-15T21:58:05.366;599616408238601650;9337.3955;352
2024-05-15T21:58:05.374;599616408246293858;9345.088;309
2024-05-15T21:58:05.381;599616408253986066;9352.779;280
2024-05-15T21:58:05.389;599616408261678274;9360.472;247
2024-05-15T21:58:05.397;599616408269370482;9368.164;247
2024-05-15T21:58:05.404;599616408277062690;9375.856;509
2024-05-15T21:58:05.412;599616408284754898;9383.549;1042
2024-05-15T21:58:05.420;599616408292447106;9391.241;1382
2024-05-15T21:58:05.427;599616408300139314;9398.934;1102
2024-05-15T21:58:05.435;599616408307831522;9406.626;485
2024-05-15T21:58:05.443;599616408315523730;9414.318;209
2024-05-15T21:58:05.451;599616408323215938;9422.01;295
2024-05-15T21:58:05.458;599616408330908146;9429.701;276
2024-05-15T21:58:05.466;599616408338600354;9437.394;173
2024-05-15T21:58:05.474;599616408346292562;9445.086;197
2024-05-15T21:58:05.481;599616408353984770;9452.778;230
2024-05-15T21:58:05.489;599616408361676978;9460.471;214
2024-05-15T21:58:05.497;599616408369369186;9468.163;240
2024-05-15T21:58:05.504;599616408377061394;9475.855;271
2024-05-15T21:58:05.512;599616408384753602;9483.548;247
2024-05-15T21:58:05.520;599616408392445810;9491.24;235
2024-05-15T21:58:05.527;599616408400138018;9498.933;280
2024-05-15T21:58:05.535;599616408407830226;9506.625;326
2024-05-15T21:58:05.543;599616408415522434;9514.316;338
2024-05-15T21:58:05.551;599616408423214642;9522.008;345
2024-05-15T21:58:05.558;599616408430906850;9529.7;359
2024-05-15T21:58:05.566;599616408438599058;9537.393;385
2024-05-15T21:58:05.574;599616408446286314;9545.08;409
2024-05-15T21:58:05.581;599616408453978591;9552.772;440
2024-05-15T21:58:05.589;599616408461670868;9560.465;478
2024-05-15T21:58:05.597;599616408469363145;9568.156;478
2024-05-15T21:58:05.604;599616408477055422;9575.849;399
2024-05-15T21:58:05.612;599616408484747699;9583.541;290
2024-05-15T21:58:05.620;599616408492439976;9591.233;216
2024-05-15T21:58:05.627;599616408500132253;9598.926;128
2024-05-15T21:58:05.635;599616408507824530;9606.618;9
2024-05-15T21:58:05.643;599616408515516807;9614.311;-35
2024-05-15T21:58:05.651;599616408523209084;9622.003;-78
2024-05-15T21:58:05.658;599616408530901361;9629.695;-207
2024-05-15T21:58:05.666;599616408538593638;9637.388;-257
2024-05-15T21:58:05.674;599616408546285915;9645.079;-195
2024-05-15T21:58:05.681;599616408553978192;9652.771;-157
2024-05-15T21:58:05.689;599616408561670469;9660.464;-164
2024-05-15T21:58:05.697;599616408569362746;9668.156;-159
2024-05-15T21:58:05.704;599616408577055023;9675.849;-123
2024-05-15T21:58:05.712;599616408584747300;9683.541;-76
2024-05-15T21:58:05.720;599616408592439577;9691.233;-45
2024-05-15T21:58:05.727;599616408600131854;9698.926;-23
2024-05-15T21:58:05.735;599616408607824131;9706.618;9
2024-05-15T21:58:05.743;599616408615516408;9714.311;26
2024-05-15T21:58:05.751;599616408623208685;9722.002;16
2024-05-15T21:58:05.758;599616408630900962;9729.694;28
2024-05-15T21:58:05.766;599616408638593239;9737.387;69
2024-05-15T21:58:05.774;599616408646285516;9745.079;95
2024-05-15T21:58:05.781;599616408653977793;9752.771;88
2024-05-15T21:58:05.789;599616408661670070;9760.464;88
2024-05-15T21:58:05.797;599616408669362347;9768.156;123
2024-05-15T21:58:05.804;599616408677054624;9775.849;166
2024-05-15T21:58:05.812;599616408684746901;9783.541;178
2024-05-15T21:58:05.820;599616408692439178;9791.233;197
2024-05-15T21:58:05.827;599616408700131455;9798.926;242
2024-05-15T21:58:05.835;599616408707823732;9806.617;266
2024-05-15T21:58:05.843;599616408715516009;9814.31;259
2024-05-15T21:58:05.851;599616408723208286;9822.002;261
2024-05-15T21:58:05.858;599616408730900563;9829.694;259
2024-05-15T21:58:05.866;599616408738592840;9837.387;230
2024-05-15T21:58:05.874;599616408746285117;9845.079;226
2024-05-15T21:58:05.881;599616408753977394;9852.771;240
2024-05-15T21:58:05.889;599616408761669671;9860.464;218
2024-05-15T21:58:05.897;599616408769361948;9868.156;185
2024-05-15T21:58:05.904;599616408777054225;9875.849;288
2024-05-15T21:58:05.912;599616408784746502;9883.54;702
2024-05-15T21:58:05.920;599616408792438779;9891.232;1268
2024-05-15T21:58:05.927;599616408800131056;9898.925;1444
2024-05-15T21:58:05.935;599616408807823333;9906.617;956
2024-05-15T21:58:05.943;599616408815515610;9914.31;338
2024-05-15T21:58:05.951;599616408823207887;9922.002;204
2024-05-15T21:58:05.958;599616408830900164;9929.694;307
2024-05-15T21:58:05.966;599616408838592441;9937.387;245
2024-05-15T21:58:05.974;599616408846284718;9945.079;185
2024-05-15T21:58:05.981;599616408853976995;9952.771;233
2024-05-15T21:58:05.989;599616408861669272;9960.463;247
2024-05-15T21:58:05.997;599616408869361549;9968.155;238
2024-05-15T21:58:06.004;599616408877053826;9975.848;271
2024-05-15T21:58:06.012;599616408884746103;9983.54;292
2024-05-15T21:58:06.020;599616408892438380;9991.232;273
2024-05-15T21:58:06.027;599616408900130657;9998.925;271
2024-05-15T21:58:06.035;599616408907822934;10006.617;309
2024-05-15T21:58:06.043;599616408915515211;10014.31;342
2024-05-15T21:58:06.051;599616408923207488;10022.002;352
2024-05-15T21:58:06.058;599616408930899765;10029.694;359
2024-05-15T21:58:06.066;599616408938592042;10037.387;376
2024-05-15T21:58:06.074;599616408946284319;10045.078;397
2024-05-15T21:58:06.081;599616408953976596;10052.7705;414
2024-05-15T21:58:06.089;599616408961668873;10060.463;430
2024-05-15T21:58:06.097;599616408969361150;10068.155;445
2024-05-15T21:58:06.104;599616408977053427;10075.848;383
2024-05-15T21:58:06.112;599616408984745704;10083.54;261
2024-05-15T21:58:06.120;599616408992437981;10091.232;197
2024-05-15T21:58:06.127;599616409000130258;10098.925;188
2024-05-15T21:58:06.135;599616409007802512;10106.597;169
2024-05-15T21:58:06.143;599616409015495068;10114.289;154
2024-05-15T21:58:06.150;599616409023187624;10121.982;145
2024-05-15T21:58:06.158;599616409030880180;10129.674;78
2024-05-15T21:58:06.166;599616409038572736;10137.366;-66
2024-05-15T21:58:06.174;599616409046265292;10145.059;-195
2024-05-15T21:58:06.181;599616409053957848;10152.752;-202
2024-05-15T21:58:06.189;599616409061650404;10160.444;-140
2024-05-15T21:58:06.197;599616409069342960;10168.137;-121
2024-05-15T21:58:06.204;599616409077035516;10175.829;-135
2024-05-15T21:58:06.212;599616409084728072;10183.522;-107
2024-05-15T21:58:06.220;599616409092420628;10191.215;-49
2024-05-15T21:58:06.227;599616409100113184;10198.907;-23
2024-05-15T21:58:06.235;599616409107805740;10206.6;-14
2024-05-15T21:58:06.243;599616409115498296;10214.292;9
2024-05-15T21:58:06.250;599616409123190852;10221.984;35
2024-05-15T21:58:06.258;599616409130883408;10229.677;42
2024-05-15T21:58:06.266;599616409138575964;10237.37;57
2024-05-15T21:58:06.274;599616409146268520;10245.0625;99
2024-05-15T21:58:06.281;599616409153961076;10252.755;135
2024-05-15T21:58:06.289;599616409161653632;10260.447;133
2024-05-15T21:58:06.297;599616409169346188;10268.141;121
2024-05-15T21:58:06.304;599616409177038744;10275.833;152
2024-05-15T21:58:06.312;599616409184731300;10283.525;197
2024-05-15T21:58:06.320;599616409192423856;10291.218;209
2024-05-15T21:58:06.327;599616409200116412;10298.911;228
2024-05-15T21:58:06.335;599616409207808968;10306.603;273
2024-05-15T21:58:06.343;599616409215501524;10314.295;280
2024-05-15T21:58:06.350;599616409223194080;10321.987;240
2024-05-15T21:58:06.358;599616409230886636;10329.681;218
2024-05-15T21:58:06.366;599616409238579192;10337.373;249
2024-05-15T21:58:06.374;599616409246271748;10345.065;283
2024-05-15T21:58:06.381;599616409253964304;10352.758;285
2024-05-15T21:58:06.389;599616409261656860;10360.451;259
2024-05-15T21:58:06.397;599616409269349416;10368.144;218
2024-05-15T21:58:06.404;599616409277041972;10375.836;214
2024-05-15T21:58:06.412;599616409284734528;10383.528;418
2024-05-15T21:58:06.420;599616409292427084;10391.222;918
2024-05-15T21:58:06.427;599616409300119640;10398.913;1409
2024-05-15T21:58:06.435;599616409307812196;10406.605;1342
2024-05-15T21:58:06.443;599616409315504752;10414.299;692
2024-05-15T21:58:06.450;599616409323197308;10421.991;166
2024-05-15T21:58:06.458;599616409330889864;10429.684;166
2024-05-15T21:58:06.466;599616409338582420;10437.376;240
2024-05-15T21:58:06.474;599616409346274976;10445.069;138
2024-05-15T21:58:06.481;599616409353967532;10452.762;102
2024-05-15T21:58:06.489;599616409361660088;10460.454;152
2024-05-15T21:58:06.497;599616409369352644;10468.146;154
2024-05-15T21:58:06.504;599616409377045200;10475.84;145
2024-05-15T21:58:06.512;599616409384737756;10483.532;180
2024-05-15T21:58:06.520;599616409392430312;10491.224;209
2024-05-15T21:58:06.527;599616409400122868;10498.916;190
2024-05-15T21:58:06.535;599616409407815424;10506.609;176
2024-05-15T21:58:06.543;599616409415507980;10514.302;209
2024-05-15T21:58:06.550;599616409423200536;10521.994;254
2024-05-15T21:58:06.558;599616409430893092;10529.687;259
2024-05-15T21:58:06.566;599616409438585648;10537.38;252
2024-05-15T21:58:06.574;599616409446278204;10545.072;273
2024-05-15T21:58:06.581;599616409453970760;10552.765;311
2024-05-15T21:58:06.589;599616409461663316;10560.458;335
2024-05-15T21:58:06.597;599616409469355872;10568.15;321
2024-05-15T21:58:06.604;599616409477048428;10575.843;266
2024-05-15T21:58:06.612;599616409484740984;10583.534;207
2024-05-15T21:58:06.620;599616409492433540;10591.228;159
2024-05-15T21:58:06.627;599616409500126096;10598.92;102
2024-05-15T21:58:06.635;599616409507818652;10606.612;85
2024-05-15T21:58:06.643;599616409515511208;10614.305;114
2024-05-15T21:58:06.650;599616409523203764;10621.998;109
2024-05-15T21:58:06.658;599616409530896320;10629.69;54
2024-05-15T21:58:06.666;599616409538588876;10637.383;-26
2024-05-15T21:58:06.674;599616409546281432;10645.075;-95
2024-05-15T21:58:06.681;599616409553973988;10652.769;-85
2024-05-15T21:58:06.689;599616409561666544;10660.461;-30
2024-05-15T21:58:06.697;599616409569444392;10668.238;4
2024-05-15T21:58:06.704;599616409577135764;10675.93;26
2024-05-15T21:58:06.712;599616409584827136;10683.621;35
2024-05-15T21:58:06.720;599616409592518508;10691.3125;49
2024-05-15T21:58:06.728;599616409600209880;10699.004;85
2024-05-15T21:58:06.735;599616409607901252;10706.695;104
2024-05-15T21:58:06.743;599616409615592624;10714.387;97
2024-05-15T21:58:06.751;599616409623283996;10722.078;97
2024-05-15T21:58:06.758;599616409630975368;10729.769;107
2024-05-15T21:58:06.766;599616409638666740;10737.46;85
2024-05-15T21:58:06.774;599616409646358112;10745.152;35
2024-05-15T21:58:06.781;599616409654049484;10752.844;14
2024-05-15T21:58:06.789;599616409661740856;10760.535;49
2024-05-15T21:58:06.797;599616409669432228;10768.227;64
2024-05-15T21:58:06.804;599616409677123600;10775.918;30
2024-05-15T21:58:06.812;599616409684814972;10783.608;42
2024-05-15T21:58:06.820;599616409692506344;10791.3;104
2024-05-15T21:58:06.827;599616409700197716;10798.991;130
2024-05-15T21:58:06.835;599616409707889088;10806.683;123
2024-05-15T21:58:06.843;599616409715580460;10814.374;123
2024-05-15T21:58:06.851;599616409723271832;10822.066;99
2024-05-15T21:58:06.858;599616409730963204;10829.758;78
2024-05-15T21:58:06.866;599616409738654576;10837.448;95
2024-05-15T21:58:06.874;599616409746345948;10845.14;130
2024-05-15T21:58:06.881;599616409754037320;10852.831;159
2024-05-15T21:58:06.889;599616409761728692;10860.522;164
2024-05-15T21:58:06.897;599616409769420064;10868.214;142
2024-05-15T21:58:06.904;599616409777111436;10875.905;111
2024-05-15T21:58:06.912;599616409784802808;10883.597;99
2024-05-15T21:58:06.920;599616409792494180;10891.289;226
2024-05-15T21:58:06.927;599616409800185552;10898.9795;640
2024-05-15T21:58:06.935;599616409807876924;10906.671;1178
2024-05-15T21:58:06.943;599616409815568296;10914.362;1290
2024-05-15T21:58:06.951;599616409823259668;10922.054;728
2024-05-15T21:58:06.958;599616409830951040;10929.745;102
2024-05-15T21:58:06.966;599616409838642412;10937.437;23
2024-05-15T21:58:06.974;599616409846333784;10945.127;145
2024-05-15T21:58:06.981;599616409854025156;10952.818;66
2024-05-15T21:58:06.989;599616409861716528;10960.51;0
2024-05-15T21:58:06.997;599616409869407900;10968.202;47
2024-05-15T21:58:07.004;599616409877099272;10975.894;64
2024-05-15T21:58:07.012;599616409884790644;10983.585;49
2024-05-15T21:58:07.020;599616409892482016;10991.276;69
2024-05-15T21:58:07.027;599616409900173388;10998.968;97
2024-05-15T21:58:07.035;599616409907864760;11006.658;95
2024-05-15T21:58:07.043;599616409915556132;11014.35;76
2024-05-15T21:58:07.051;599616409923247504;11022.041;88
2024-05-15T21:58:07.058;599616409930938876;11029.732;126
2024-05-15T21:58:07.066;599616409938630248;11037.425;147
2024-05-15T21:58:07.074;599616409946321620;11045.116;145
2024-05-15T21:58:07.081;599616409954012992;11052.808;135
2024-05-15T21:58:07.089;599616409961704364;11060.498;119
2024-05-15T21:58:07.097;599616409969395736;11068.189;83
2024-05-15T21:58:07.104;599616409977087108;11075.881;52
2024-05-15T21:58:07.112;599616409984778480;11083.572;40
2024-05-15T21:58:07.120;599616409992469852;11091.264;23
2024-05-15T21:58:07.127;599616410000161224;11098.955;-33
2024-05-15T21:58:07.135;599616410007852596;11106.646;-90
2024-05-15T21:58:07.143;599616410015543968;11114.338;-78
2024-05-15T21:58:07.151;599616410023235340;11122.029;-47
2024-05-15T21:58:07.158;599616410030926712;11129.721;-61
2024-05-15T21:58:07.166;599616410038618084;11137.412;-123
2024-05-15T21:58:07.174;599616410046309456;11145.104;-216
2024-05-15T21:58:07.181;599616410054000828;11152.795;-271
2024-05-15T21:58:07.189;599616410061692200;11160.486;-254
2024-05-15T21:58:07.197;599616410069383572;11168.177;-228
2024-05-15T21:58:07.204;599616410077074944;11175.868;-204
2024-05-15T21:58:07.212;599616410084766316;11183.561;-166
2024-05-15T21:58:07.220;599616410092457688;11191.252;-157
2024-05-15T21:58:07.227;599616410100149060;11198.943;-154
2024-05-15T21:58:07.235;599616410107840432;11206.635;-102
2024-05-15T21:58:07.243;599616410115531804;11214.326;-47
2024-05-15T21:58:07.251;599616410123223176;11222.017;-42
2024-05-15T21:58:07.258;599616410130914556;11229.708;-38
2024-05-15T21:58:07.266;599616410138605928;11237.399;-7
2024-05-15T21:58:07.274;599616410146297300;11245.091;26
2024-05-15T21:58:07.281;599616410153988672;11252.782;35
2024-05-15T21:58:07.289;599616410161680044;11260.475;49
2024-05-15T21:58:07.297;599616410169371416;11268.166;83
2024-05-15T21:58:07.304;599616410177062788;11275.856;73
2024-05-15T21:58:07.312;599616410184754160;11283.548;0
2024-05-15T21:58:07.320;599616410192445532;11291.239;-45
2024-05-15T21:58:07.327;599616410200136904;11298.931;-4
2024-05-15T21:58:07.335;599616410207828276;11306.622;9
2024-05-15T21:58:07.343;599616410215519648;11314.313;-35
2024-05-15T21:58:07.351;599616410223211020;11322.005;-23
2024-05-15T21:58:07.358;599616410230902392;11329.696;30
2024-05-15T21:58:07.366;599616410238593764;11337.388;45
2024-05-15T21:58:07.374;599616410246285136;11345.079;47
2024-05-15T21:58:07.381;599616410253976508;11352.7705;80
2024-05-15T21:58:07.389;599616410261667880;11360.462;126
2024-05-15T21:58:07.397;599616410269359252;11368.153;142
2024-05-15T21:58:07.404;599616410277050624;11375.845;128
2024-05-15T21:58:07.412;599616410284741996;11383.535;116
2024-05-15T21:58:07.420;599616410292433368;11391.227;97
2024-05-15T21:58:07.427;599616410300124740;11398.918;109
2024-05-15T21:58:07.435;599616410307816112;11406.61;352
2024-05-15T21:58:07.443;599616410315507484;11414.302;873
2024-05-15T21:58:07.450;599616410323198856;11421.993;1254
2024-05-15T21:58:07.458;599616410330890228;11429.685;1006
2024-05-15T21:58:07.466;599616410338581600;11437.375;349
2024-05-15T21:58:07.474;599616410346272972;11445.066;11
2024-05-15T21:58:07.481;599616410353964344;11452.758;109
2024-05-15T21:58:07.489;599616410361655716;11460.449;138
2024-05-15T21:58:07.497;599616410369347088;11468.141;38
2024-05-15T21:58:07.504;599616410377038460;11475.833;66
2024-05-15T21:58:07.512;599616410384729832;11483.524;138
2024-05-15T21:58:07.520;599616410392421204;11491.216;130
2024-05-15T21:58:07.527;599616410400112576;11498.906;140
2024-05-15T21:58:07.535;599616410407803948;11506.598;185
2024-05-15T21:58:07.543;599616410415495320;11514.289;195
2024-05-15T21:58:07.550;599616410423186692;11521.98;195
2024-05-15T21:58:07.558;599616410430878064;11529.672;221
2024-05-15T21:58:07.566;599616410438569436;11537.363;264
2024-05-15T21:58:07.574;599616410446260808;11545.055;307
2024-05-15T21:58:07.581;599616410453952180;11552.746;309
2024-05-15T21:58:07.589;599616410461643552;11560.4375;276
2024-05-15T21:58:07.597;599616410469334924;11568.129;288
2024-05-15T21:58:07.604;599616410477026296;11575.82;330
2024-05-15T21:58:07.612;599616410484717668;11583.512;314
2024-05-15T21:58:07.620;599616410492409040;11591.203;283
2024-05-15T21:58:07.627;599616410500100412;11598.895;268
2024-05-15T21:58:07.635;599616410507791784;11606.585;209
2024-05-15T21:58:07.643;599616410515483156;11614.276;154
2024-05-15T21:58:07.650;599616410523174528;11621.969;161
2024-05-15T21:58:07.658;599616410530865900;11629.66;183
2024-05-15T21:58:07.666;599616410538557272;11637.352;178
2024-05-15T21:58:07.674;599616410546248644;11645.043;102
2024-05-15T21:58:07.681;599616410553940016;11652.734;7
2024-05-15T21:58:07.689;599616410561631388;11660.425;7
2024-05-15T21:58:07.697;599616410569322760;11668.116;40
2024-05-15T21:58:07.704;599616410577014132;11675.808;33
2024-05-15T21:58:07.712;599616410584705504;11683.499;49
2024-05-15T21:58:07.720;599616410592396876;11691.19;83
2024-05-15T21:58:07.727;599616410600088248;11698.883;73
2024-05-15T21:58:07.735;599616410607779620;11706.574;66
2024-05-15T21:58:07.743;599616410615470992;11714.265;102
2024-05-15T21:58:07.750;599616410623162364;11721.956;140
2024-05-15T21:58:07.758;599616410630853736;11729.647;145
2024-05-15T21:58:07.766;599616410638545108;11737.339;135
2024-05-15T21:58:07.774;599616410646236480;11745.03;142
2024-05-15T21:58:07.781;599616410653927852;11752.722;169
2024-05-15T21:58:07.789;599616410661619224;11760.413;171
2024-05-15T21:58:07.797;599616410669310596;11768.1045;166
2024-05-15T21:58:07.804;599616410677001968;11775.796;192
2024-05-15T21:58:07.812;599616410684693340;11783.487;223
2024-05-15T21:58:07.820;599616410692384720;11791.179;211
2024-05-15T21:58:07.827;599616410700076092;11798.87;183
2024-05-15T21:58:07.835;599616410707767464;11806.562;173
2024-05-15T21:58:07.843;599616410715458836;11814.253;188
2024-05-15T21:58:07.850;599616410723150208;11821.943;197
2024-05-15T21:58:07.858;599616410730841580;11829.635;202
2024-05-15T21:58:07.866;599616410738532952;11837.327;218
2024-05-15T21:58:07.874;599616410746224324;11845.019;223
2024-05-15T21:58:07.881;599616410753915696;11852.71;176
2024-05-15T21:58:07.889;599616410761607068;11860.401;126
2024-05-15T21:58:07.897;599616410769298440;11868.093;154
2024-05-15T21:58:07.904;599616410776989812;11875.783;197
2024-05-15T21:58:07.912;599616410784681184;11883.475;171
2024-05-15T21:58:07.920;599616410792372556;11891.166;123
2024-05-15T21:58:07.927;599616410800063928;11898.857;111
2024-05-15T21:58:07.935;599616410807755300;11906.549;185
2024-05-15T21:58:07.943;599616410815446672;11914.241;471
2024-05-15T21:58:07.950;599616410823138044;11921.933;961
2024-05-15T21:58:07.958;599616410830829416;11929.624;1211
2024-05-15T21:58:07.966;599616410838520788;11937.314;818
2024-05-15T21:58:07.974;599616410846212160;11945.006;180
2024-05-15T21:58:07.981;599616410853903532;11952.697;-11
2024-05-15T21:58:07.989;599616410861594904;11960.389;133
2024-05-15T21:58:07.997;599616410869286276;11968.08;123
2024-05-15T21:58:08.004;599616410876977648;11975.771;4
2024-05-15T21:58:08.012;599616410884669020;11983.464;11
2024-05-15T21:58:08.020;599616410892360392;11991.154;64
2024-05-15T21:58:08.027;599616410900051764;11998.846;57
2024-05-15T21:58:08.035;599616410907743136;12006.537;61
2024-05-15T21:58:08.043;599616410915434508;12014.229;90
2024-05-15T21:58:08.050;599616410923125880;12021.92;97
2024-05-15T21:58:08.058;599616410930817252;12029.611;95
2024-05-15T21:58:08.066;599616410938508624;12037.303;99
2024-05-15T21:58:08.073;599616410946199996;12044.993;88
2024-05-15T21:58:08.081;599616410953891368;12052.685;76
2024-05-15T21:58:08.089;599616410961582740;12060.377;85
2024-05-15T21:58:08.097;599616410969274112;12068.068;97
2024-05-15T21:58:08.104;599616410976965484;12075.76;116
2024-05-15T21:58:08.112;599616410984656856;12083.451;135
2024-05-15T21:58:08.120;599616410992348228;12091.143;119
2024-05-15T21:58:08.127;599616411000039600;12098.833;92
2024-05-15T21:58:08.135;599616411007730972;12106.524;66
2024-05-15T21:58:08.143;599616411015422344;12114.216;28
2024-05-15T21:58:08.150;599616411023113716;12121.907;-11
2024-05-15T21:58:08.158;599616411030805088;12129.6;-23
2024-05-15T21:58:08.166;599616411038496460;12137.291;-19
2024-05-15T21:58:08.173;599616411046187832;12144.982;-52
2024-05-15T21:58:08.181;599616411053879204;12152.673;-147
2024-05-15T21:58:08.189;599616411061570576;12160.364;-211
2024-05-15T21:58:08.197;599616411069261948;12168.056;-185
2024-05-15T21:58:08.204;599616411076953320;12175.747;-161
2024-05-15T21:58:08.212;599616411084644692;12183.438;-188
2024-05-15T21:58:08.220;599616411092336064;12191.13;-183
2024-05-15T21:58:08.227;599616411100027436;12198.821;-140
2024-05-15T21:58:08.235;599616411107718808;12206.513;-128
2024-05-15T21:58:08.243;599616411115410180;12214.204;-138
2024-05-15T21:58:08.250;599616411123101552;12221.8955;-114
2024-05-15T21:58:08.258;599616411130792924;12229.587;-69
2024-05-15T21:58:08.266;599616411138484296;12237.278;-45
2024-05-15T21:58:08.273;599616411146175668;12244.97;-47
2024-05-15T21:58:08.281;599616411153867040;12252.661;-49
2024-05-15T21:58:08.289;599616411161558412;12260.352;-21
2024-05-15T21:58:08.297;599616411169249784;12268.043;0
2024-05-15T21:58:08.304;599616411176941156;12275.735;-2
2024-05-15T21:58:08.312;599616411184632528;12283.427;-2
2024-05-15T21:58:08.320;599616411192323900;12291.118;-23
2024-05-15T21:58:08.327;599616411200015272;12298.81;-95
2024-05-15T21:58:08.335;599616411207706644;12306.501;-126
2024-05-15T21:58:08.343;599616411215398016;12314.191;-78
2024-05-15T21:58:08.350;599616411223089388;12321.883;-33
2024-05-15T21:58:08.358;599616411230780760;12329.574;-23
2024-05-15T21:58:08.366;599616411238472132;12337.266;-4
2024-05-15T21:58:08.373;599616411246163504;12344.957;26
2024-05-15T21:58:08.381;599616411253824788;12352.618;54
2024-05-15T21:58:08.389;599616411261516578;12360.311;69
2024-05-15T21:58:08.397;599616411269208368;12368.002;73
2024-05-15T21:58:08.404;599616411276900158;12375.694;95
2024-05-15T21:58:08.412;599616411284591948;12383.386;121
2024-05-15T21:58:08.420;599616411292283738;12391.078;71
2024-05-15T21:58:08.427;599616411299975528;12398.77;-40
2024-05-15T21:58:08.435;599616411307667318;12406.462;-80
2024-05-15T21:58:08.443;599616411315359108;12414.152;4
2024-05-15T21:58:08.450;599616411323050898;12421.845;304
2024-05-15T21:58:08.458;599616411330742688;12429.536;787
2024-05-15T21:58:08.466;599616411338434478;12437.229;1033
2024-05-15T21:58:08.473;599616411346126268;12444.92;656
2024-05-15T21:58:08.481;599616411353818058;12452.612;16
2024-05-15T21:58:08.489;599616411361509848;12460.304;-195
2024-05-15T21:58:08.496;599616411369201638;12467.996;-33
2024-05-15T21:58:08.504;599616411376893428;12475.687;-26
2024-05-15T21:58:08.512;599616411384585218;12483.379;-133
2024-05-15T21:58:08.520;599616411392277008;12491.07;-97
2024-05-15T21:58:08.527;599616411399968798;12498.763;-26
2024-05-15T21:58:08.535;599616411407660588;12506.454;-21
2024-05-15T21:58:08.543;599616411415352378;12514.146;-7
2024-05-15T21:58:08.550;599616411423044168;12521.838;26
2024-05-15T21:58:08.558;599616411430735958;12529.53;35
2024-05-15T21:58:08.566;599616411438427748;12537.222;21
2024-05-15T21:58:08.573;599616411446119538;12544.913;16
2024-05-15T21:58:08.581;599616411453811328;12552.605;47
2024-05-15T21:58:08.589;599616411461503118;12560.297;97
2024-05-15T21:58:08.596;599616411469194908;12567.989;119
2024-05-15T21:58:08.604;599616411476886698;12575.681;114
2024-05-15T21:58:08.612;599616411484578488;12583.373;119
2024-05-15T21:58:08.620;599616411492270278;12591.064;119
2024-05-15T21:58:08.627;599616411499962068;12598.757;95
2024-05-15T21:58:08.635;599616411507653858;12606.447;61
2024-05-15T21:58:08.643;599616411515345648;12614.14;28
2024-05-15T21:58:08.650;599616411523037438;12621.831;7
2024-05-15T21:58:08.658;599616411530729228;12629.523;-7
2024-05-15T21:58:08.666;599616411538421018;12637.215;-21
2024-05-15T21:58:08.673;599616411546112808;12644.907;-33
2024-05-15T21:58:08.681;599616411553804598;12652.599;-92
2024-05-15T21:58:08.689;599616411561496388;12660.291;-195
2024-05-15T21:58:08.696;599616411569188178;12667.981;-233
2024-05-15T21:58:08.704;599616411576879968;12675.674;-199
2024-05-15T21:58:08.712;599616411584571758;12683.365;-173
2024-05-15T21:58:08.720;599616411592263548;12691.058;-161
2024-05-15T21:58:08.727;599616411599955338;12698.749;-128
2024-05-15T21:58:08.735;599616411607647128;12706.441;-95
2024-05-15T21:58:08.743;599616411615338918;12714.133;-85
2024-05-15T21:58:08.750;599616411623030708;12721.825;-78
2024-05-15T21:58:08.758;599616411630722498;12729.516;-42
2024-05-15T21:58:08.766;599616411638414288;12737.208;4
2024-05-15T21:58:08.773;599616411646106078;12744.899;35
2024-05-15T21:58:08.781;599616411653797868;12752.592;42
2024-05-15T21:58:08.789;599616411661489658;12760.283;42
2024-05-15T21:58:08.796;599616411669181448;12767.976;71
2024-05-15T21:58:08.804;599616411676873238;12775.667;111
2024-05-15T21:58:08.812;599616411684565028;12783.359;102
2024-05-15T21:58:08.820;599616411692256818;12791.05;76
2024-05-15T21:58:08.827;599616411699948608;12798.742;83
2024-05-15T21:58:08.835;599616411707640398;12806.434;90
2024-05-15T21:58:08.843;599616411715332188;12814.126;76
2024-05-15T21:58:08.850;599616411723023978;12821.818;95
2024-05-15T21:58:08.858;599616411730715768;12829.51;147
2024-05-15T21:58:08.866;599616411738407558;12837.202;173
2024-05-15T21:58:08.873;599616411746099348;12844.894;173
2024-05-15T21:58:08.881;599616411753791138;12852.586;185
2024-05-15T21:58:08.889;599616411761482928;12860.276;214
2024-05-15T21:58:08.896;599616411769174718;12867.969;235
2024-05-15T21:58:08.904;599616411776866508;12875.66;247
2024-05-15T21:58:08.912;599616411784558298;12883.353;264
2024-05-15T21:58:08.920;599616411792250088;12891.044;276
2024-05-15T21:58:08.927;599616411799941878;12898.736;266
2024-05-15T21:58:08.935;599616411807633668;12906.428;247
2024-05-15T21:58:08.943;599616411815355564;12914.149;216
2024-05-15T21:58:08.950;599616411823046936;12921.841;204
2024-05-15T21:58:08.958;599616411830738308;12929.532;357
2024-05-15T21:58:08.966;599616411838429680;12937.224;787
2024-05-15T21:58:08.973;599616411846121052;12944.915;1242
2024-05-15T21:58:08.981;599616411853812424;12952.606;1202
2024-05-15T21:58:08.989;599616411861503796;12960.298;554
2024-05-15T21:58:08.996;599616411869195168;12967.989;-21
2024-05-15T21:58:09.004;599616411876886540;12975.681;-14
2024-05-15T21:58:09.012;599616411884577912;12983.372;109
2024-05-15T21:58:09.020;599616411892269284;12991.063;-7
2024-05-15T21:58:09.027;599616411899960656;12998.754;-52
2024-05-15T21:58:09.035;599616411907652028;13006.445;40
2024-05-15T21:58:09.043;599616411915343400;13014.137;73
2024-05-15T21:58:09.050;599616411923034772;13021.829;83
2024-05-15T21:58:09.058;599616411930726144;13029.5205;83
2024-05-15T21:58:09.066;599616411938417516;13037.212;33
2024-05-15T21:58:09.073;599616411946108888;13044.903;14
2024-05-15T21:58:09.081;599616411953800260;13052.594;52
2024-05-15T21:58:09.089;599616411961491632;13060.285;73
2024-05-15T21:58:09.096;599616411969183004;13067.977;97
2024-05-15T21:58:09.104;599616411976874376;13075.668;126
2024-05-15T21:58:09.112;599616411984565748;13083.359;90
2024-05-15T21:58:09.120;599616411992257120;13091.052;40
2024-05-15T21:58:09.127;599616411999948492;13098.743;52
2024-05-15T21:58:09.135;599616412007639864;13106.434;47
2024-05-15T21:58:09.143;599616412015331236;13114.125;-2
2024-05-15T21:58:09.150;599616412023022608;13121.816;-19
2024-05-15T21:58:09.158;599616412030713980;13129.508;-30
2024-05-15T21:58:09.166;599616412038405352;13137.199;-69
2024-05-15T21:58:09.173;599616412046096724;13144.891;-92
2024-05-15T21:58:09.181;599616412053788096;13152.582;-85
2024-05-15T21:58:09.189;599616412061479468;13160.272;-116
2024-05-15T21:58:09.196;599616412069170840;13167.965;-216
2024-05-15T21:58:09.204;599616412076862212;13175.656;-280
2024-05-15T21:58:09.212;599616412084553584;13183.348;-245
2024-05-15T21:58:09.220;599616412092244956;13191.039;-192
2024-05-15T21:58:09.227;599616412099936328;13198.73;-173
2024-05-15T21:58:09.235;599616412107627700;13206.422;-154
2024-05-15T21:58:09.243;599616412115319072;13214.112;-128
2024-05-15T21:58:09.250;599616412123010444;13221.804;-114
2024-05-15T21:58:09.258;599616412130701816;13229.495;-99
2024-05-15T21:58:09.266;599616412138393188;13237.1875;-71
2024-05-15T21:58:09.273;599616412146084560;13244.879;-35
2024-05-15T21:58:09.281;599616412153775932;13252.57;-4
2024-05-15T21:58:09.289;599616412161467304;13260.262;9
2024-05-15T21:58:09.296;599616412169158676;13267.953;-2
2024-05-15T21:58:09.304;599616412176850048;13275.644;-26
2024-05-15T21:58:09.312;599616412184541420;13283.335;-42
2024-05-15T21:58:09.320;599616412192232792;13291.026;-38
2024-05-15T21:58:09.327;599616412199924164;13298.718;-11
2024-05-15T21:58:09.335;599616412207615536;13306.409;11
2024-05-15T21:58:09.343;599616412215306908;13314.102;23
2024-05-15T21:58:09.350;599616412222998280;13321.793;28
2024-05-15T21:58:09.358;599616412230689652;13329.483;47
2024-05-15T21:58:09.366;599616412238381024;13337.175;88
2024-05-15T21:58:09.373;599616412246072396;13344.866;128
2024-05-15T21:58:09.381;599616412253763768;13352.558;142
2024-05-15T21:58:09.389;599616412261455140;13360.249;164
2024-05-15T21:58:09.396;599616412269146512;13367.94;209
2024-05-15T21:58:09.404;599616412276837884;13375.632;247
2024-05-15T21:58:09.412;599616412284529256;13383.323;254
2024-05-15T21:58:09.420;599616412292220628;13391.015;264
2024-05-15T21:58:09.427;599616412299912000;13398.706;302
2024-05-15T21:58:09.435;599616412307603372;13406.397;323
2024-05-15T21:58:09.443;599616412315294744;13414.089;311
2024-05-15T21:58:09.450;599616412322986116;13421.78;288
2024-05-15T21:58:09.458;599616412330677488;13429.472;235
2024-05-15T21:58:09.466;599616412338368860;13437.162;216
2024-05-15T21:58:09.473;599616412346060232;13444.854;457
2024-05-15T21:58:09.481;599616412353751604;13452.545;980
2024-05-15T21:58:09.489;599616412361442976;13460.237;1344
2024-05-15T21:58:09.496;599616412369134348;13467.929;1071
2024-05-15T21:58:09.504;599616412376825730;13475.62;404
2024-05-15T21:58:09.512;599616412384517102;13483.312;92
2024-05-15T21:58:09.520;599616412392208474;13491.002;192
2024-05-15T21:58:09.527;599616412399899846;13498.693;159
2024-05-15T21:58:09.535;599616412407591218;13506.385;-11
2024-05-15T21:58:09.543;599616412415282590;13514.076;-9
2024-05-15T21:58:09.550;599616412422973962;13521.768;38
2024-05-15T21:58:09.558;599616412430665334;13529.46;-26
2024-05-15T21:58:09.566;599616412438356706;13537.151;-57
2024-05-15T21:58:09.573;599616412446048078;13544.842;-9
2024-05-15T21:58:09.581;599616412453739450;13552.533;28
2024-05-15T21:58:09.589;599616412461430822;13560.225;42
2024-05-15T21:58:09.596;599616412469122194;13567.916;66
2024-05-15T21:58:09.604;599616412476813566;13575.607;107
2024-05-15T21:58:09.612;599616412484504938;13583.299;128
2024-05-15T21:58:09.619;599616412492196310;13590.99;97
2024-05-15T21:58:09.627;599616412499887682;13598.681;66
2024-05-15T21:58:09.635;599616412507579054;13606.373;71
2024-05-15T21:58:09.643;599616412515270426;13614.064;64
2024-05-15T21:58:09.650;599616412522961798;13621.756;38
2024-05-15T21:58:09.658;599616412530653170;13629.447;38
2024-05-15T21:58:09.666;599616412538344542;13637.139;45
2024-05-15T21:58:09.673;599616412546035914;13644.83;40
2024-05-15T21:58:09.681;599616412553727286;13652.5205;28
2024-05-15T21:58:09.689;599616412561418658;13660.212;-7
2024-05-15T21:58:09.696;599616412569110030;13667.903;-88
2024-05-15T21:58:09.704;599616412576801402;13675.596;-149
2024-05-15T21:58:09.712;599616412584492774;13683.287;-154
2024-05-15T21:58:09.719;599616412592184146;13690.979;-135
2024-05-15T21:58:09.727;599616412599875518;13698.67;-107
2024-05-15T21:58:09.735;599616412607566890;13706.36;-76
2024-05-15T21:58:09.743;599616412615258262;13714.052;-59
2024-05-15T21:58:09.750;599616412622949634;13721.743;-49
2024-05-15T21:58:09.758;599616412630641006;13729.435;-33
2024-05-15T21:58:09.766;599616412638332378;13737.126;-14
2024-05-15T21:58:09.773;599616412646023750;13744.817;-7
2024-05-15T21:58:09.781;599616412653715122;13752.51;2
2024-05-15T21:58:09.789;599616412661406494;13760.201;28
2024-05-15T21:58:09.796;599616412669097866;13767.892;19
2024-05-15T21:58:09.804;599616412676789238;13775.583;-30
2024-05-15T21:58:09.812;599616412684480610;13783.274;-33
2024-05-15T21:58:09.819;599616412692171982;13790.966;14
2024-05-15T21:58:09.827;599616412699863354;13798.657;42
2024-05-15T21:58:09.835;599616412707554726;13806.349;47
2024-05-15T21:58:09.843;599616412715246098;13814.04;64
2024-05-15T21:58:09.850;599616412722937470;13821.731;80
2024-05-15T21:58:09.858;599616412730628842;13829.423;83
2024-05-15T21:58:09.866;599616412738320214;13837.114;92
2024-05-15T21:58:09.873;599616412746011586;13844.806;126
2024-05-15T21:58:09.881;599616412753702958;13852.497;169
2024-05-15T21:58:09.889;599616412761394330;13860.188;180
2024-05-15T21:58:09.896;599616412769085702;13867.88;176
2024-05-15T21:58:09.904;599616412776777074;13875.57;209
2024-05-15T21:58:09.912;599616412784468446;13883.262;264
2024-05-15T21:58:09.919;599616412792159818;13890.953;271
2024-05-15T21:58:09.927;599616412799851190;13898.6455;266
2024-05-15T21:58:09.935;599616412807542562;13906.337;290
2024-05-15T21:58:09.943;599616412815233934;13914.028;304
2024-05-15T21:58:09.950;599616412822925306;13921.72;299
2024-05-15T21:58:09.958;599616412830616678;13929.41;304
2024-05-15T21:58:09.966;599616412838308050;13937.102;278
2024-05-15T21:58:09.973;599616412845999422;13944.793;185
2024-05-15T21:58:09.981;599616412853690794;13952.484;195
2024-05-15T21:58:09.989;599616412861382166;13960.176;511
2024-05-15T21:58:09.996;599616412869073538;13967.868;1052
2024-05-15T21:58:10.004;599616412876764910;13975.56;1321
2024-05-15T21:58:10.012;599616412884456282;13983.25;928
2024-05-15T21:58:10.019;599616412892147654;13990.941;285
2024-05-15T21:58:10.027;599616412899839026;13998.633;92
2024-05-15T21:58:10.035;599616412907530398;14006.324;197
2024-05-15T21:58:10.043;599616412915221770;14014.016;126
2024-05-15T21:58:10.050;599616412922913142;14021.707;19
2024-05-15T21:58:10.058;599616412930604514;14029.398;57
2024-05-15T21:58:10.066;599616412938295894;14037.09;85
2024-05-15T21:58:10.073;599616412945987266;14044.781;52
2024-05-15T21:58:10.081;599616412953678638;14052.473;57
2024-05-15T21:58:10.089;599616412961370010;14060.164;109
2024-05-15T21:58:10.096;599616412969061382;14067.855;142
2024-05-15T21:58:10.104;599616412976752754;14075.547;154
2024-05-15T21:58:10.112;599616412984444126;14083.238;171
2024-05-15T21:58:10.119;599616412992135498;14090.929;176
2024-05-15T21:58:10.127;599616412999826870;14098.62;107
2024-05-15T21:58:10.135;599616413007518242;14106.312;7
2024-05-15T21:58:10.143;599616413015209614;14114.004;-28
2024-05-15T21:58:10.150;599616413022900986;14121.695;-14
2024-05-15T21:58:10.158;599616413030592358;14129.387;-16
2024-05-15T21:58:10.166;599616413038283730;14137.078;-40
2024-05-15T21:58:10.173;599616413045975102;14144.769;-47
2024-05-15T21:58:10.181;599616413053666474;14152.46;-40
2024-05-15T21:58:10.189;599616413061357846;14160.151;-49
2024-05-15T21:58:10.196;599616413069049218;14167.843;-119
2024-05-15T21:58:10.204;599616413076740590;14175.534;-209
2024-05-15T21:58:10.212;599616413084431962;14183.227;-238
2024-05-15T21:58:10.219;599616413092123334;14190.918;-228
2024-05-15T21:58:10.227;599616413099814706;14198.609;-223
2024-05-15T21:58:10.235;599616413107506078;14206.3;-178
2024-05-15T21:58:10.242;599616413115197450;14213.991;-119
2024-05-15T21:58:10.250;599616413122888822;14221.683;-97
2024-05-15T21:58:10.258;599616413130580194;14229.374;-90
2024-05-15T21:58:10.266;599616413138271566;14237.065;-64
2024-05-15T21:58:10.273;599616413145962938;14244.757;-30
2024-05-15T21:58:10.281;599616413153654310;14252.447;-11
2024-05-15T21:58:10.289;599616413161345682;14260.14;-26
2024-05-15T21:58:10.296;599616413169037054;14267.831;-38
2024-05-15T21:58:10.304;599616413176728426;14275.522;-21
2024-05-15T21:58:10.312;599616413184419798;14283.214;-9
2024-05-15T21:58:10.319;599616413192111170;14290.905;0
2024-05-15T21:58:10.327;599616413199802542;14298.597;45
2024-05-15T21:58:10.335;599616413207493914;14306.288;88
2024-05-15T21:58:10.342;599616413215185286;14313.979;95
2024-05-15T21:58:10.350;599616413222876658;14321.67;97
2024-05-15T21:58:10.358;599616413230568030;14329.362;116
2024-05-15T21:58:10.366;599616413238259402;14337.054;126
2024-05-15T21:58:10.373;599616413245950774;14344.745;138
2024-05-15T21:58:10.381;599616413253642146;14352.437;161
2024-05-15T21:58:10.389;599616413261333518;14360.128;190
2024-05-15T21:58:10.396;599616413269024890;14367.818;202
2024-05-15T21:58:10.404;599616413276716262;14375.51;207
2024-05-15T21:58:10.412;599616413284407634;14383.201;235
2024-05-15T21:58:10.419;599616413292099006;14390.893;290
2024-05-15T21:58:10.427;599616413299790378;14398.584;311
2024-05-15T21:58:10.435;599616413307481750;14406.276;302
2024-05-15T21:58:10.442;599616413315173122;14413.968;314
2024-05-15T21:58:10.450;599616413322864494;14421.658;330
2024-05-15T21:58:10.458;599616413330555866;14429.35;328
2024-05-15T21:58:10.466;599616413338247238;14437.041;328
2024-05-15T21:58:10.473;599616413345938610;14444.732;323
2024-05-15T21:58:10.481;599616413353629982;14452.424;252
2024-05-15T21:58:10.489;599616413361321354;14460.115;169
2024-05-15T21:58:10.496;599616413369012726;14467.807;299
2024-05-15T21:58:10.504;599616413376704098;14475.498;752
2024-05-15T21:58:10.512;599616413384395470;14483.189;1216
2024-05-15T21:58:10.519;599616413392086842;14490.881;1159
2024-05-15T21:58:10.527;599616413399778214;14498.572;566
2024-05-15T21:58:10.535;599616413407469586;14506.264;95
2024-05-15T21:58:10.542;599616413415160958;14513.955;88
2024-05-15T21:58:10.550;599616413422852330;14521.646;142
2024-05-15T21:58:10.558;599616413430543702;14529.337;69
2024-05-15T21:58:10.566;599616413438235074;14537.028;76
2024-05-15T21:58:10.573;599616413445926446;14544.72;147
2024-05-15T21:58:10.581;599616413453617818;14552.412;142
2024-05-15T21:58:10.589;599616413461309190;14560.104;116
2024-05-15T21:58:10.596;599616413469000562;14567.795;147
2024-05-15T21:58:10.604;599616413476691934;14575.486;188
2024-05-15T21:58:10.612;599616413484383306;14583.177;188
2024-05-15T21:58:10.619;599616413492074678;14590.868;197
2024-05-15T21:58:10.627;599616413499766058;14598.56;214
2024-05-15T21:58:10.635;599616413507457430;14606.251;176
2024-05-15T21:58:10.642;599616413515148802;14613.942;128
2024-05-15T21:58:10.650;599616413522840174;14621.635;123
2024-05-15T21:58:10.658;599616413530531546;14629.326;111
2024-05-15T21:58:10.666;599616413538222918;14637.017;88
2024-05-15T21:58:10.673;599616413545914290;14644.708;69
2024-05-15T21:58:10.681;599616413553605662;14652.399;47
2024-05-15T21:58:10.689;599616413561297034;14660.091;52
2024-05-15T21:58:10.696;599616413568988406;14667.782;73
2024-05-15T21:58:10.704;599616413576679778;14675.474;42
2024-05-15T21:58:10.712;599616413584371150;14683.165;-45
2024-05-15T21:58:10.719;599616413592062522;14690.855;-102
2024-05-15T21:58:10.727;599616413599753894;14698.548;-133
2024-05-15T21:58:10.735;599616413607445266;14706.239;-207
2024-05-15T21:58:10.742;599616413615136638;14713.931;-235
2024-05-15T21:58:10.750;599616413622828010;14721.622;-180
2024-05-15T21:58:10.758;599616413630519382;14729.313;-166
2024-05-15T21:58:10.766;599616413638210754;14737.005;-197
2024-05-15T21:58:10.773;599616413645902126;14744.696;-192
2024-05-15T21:58:10.781;599616413653593498;14752.387;-190
2024-05-15T21:58:10.789;599616413661284870;14760.078;-238
2024-05-15T21:58:10.796;599616413668976242;14767.7705;-240
2024-05-15T21:58:10.804;599616413676667614;14775.462;-166
2024-05-15T21:58:10.812;599616413684358986;14783.153;-126
2024-05-15T21:58:10.819;599616413692050358;14790.845;-140
2024-05-15T21:58:10.827;599616413699741730;14798.536;-123
2024-05-15T21:58:10.835;599616413707433102;14806.227;-59
2024-05-15T21:58:10.842;599616413715124474;14813.918;-14
2024-05-15T21:58:10.850;599616413722815846;14821.609;-2
2024-05-15T21:58:10.858;599616413730507218;14829.301;7
2024-05-15T21:58:10.865;599616413738198590;14836.992;26
2024-05-15T21:58:10.873;599616413745889962;14844.685;45
2024-05-15T21:58:10.881;599616413753581334;14852.376;54
2024-05-15T21:58:10.889;599616413761272706;14860.066;64
2024-05-15T21:58:10.896;599616413768964078;14867.758;109
2024-05-15T21:58:10.904;599616413776655450;14875.449;149
2024-05-15T21:58:10.912;599616413784346822;14883.141;140
2024-05-15T21:58:10.919;599616413792038194;14890.832;145
2024-05-15T21:58:10.927;599616413799729566;14898.523;204
2024-05-15T21:58:10.935;599616413807420938;14906.215;238
2024-05-15T21:58:10.942;599616413815112310;14913.906;233
2024-05-15T21:58:10.950;599616413822803682;14921.598;242
2024-05-15T21:58:10.958;599616413830495054;14929.289;259
2024-05-15T21:58:10.965;599616413838186426;14936.98;259
2024-05-15T21:58:10.973;599616413845877798;14944.672;264
2024-05-15T21:58:10.981;599616413853569170;14952.363;261
2024-05-15T21:58:10.989;599616413861260542;14960.055;199
2024-05-15T21:58:10.996;599616413868951914;14967.745;145
2024-05-15T21:58:11.004;599616413876643286;14975.437;333
2024-05-15T21:58:11.012;599616413884334658;14983.128;830
2024-05-15T21:58:11.019;599616413892026030;14990.82;1225
2024-05-15T21:58:11.027;599616413899717402;14998.512;999
2024-05-15T21:58:11.035;599616413907408774;15006.203;321
2024-05-15T21:58:11.042;599616413915100146;15013.895;-33
2024-05-15T21:58:11.050;599616413922791518;15021.585;88
2024-05-15T21:58:11.058;599616413930482890;15029.276;142
2024-05-15T21:58:11.065;599616413938174262;15036.968;47
2024-05-15T21:58:11.073;599616413945865634;15044.659;71
2024-05-15T21:58:11.081;599616413953557006;15052.351;138
2024-05-15T21:58:11.089;599616413961248378;15060.043;121
2024-05-15T21:58:11.096;599616413968939750;15067.734;104
2024-05-15T21:58:11.104;599616413976631122;15075.425;135
2024-05-15T21:58:11.112;599616413984322494;15083.116;171
2024-05-15T21:58:11.119;599616413992013866;15090.808;188
2024-05-15T21:58:11.127;599616413999705238;15098.499;204
2024-05-15T21:58:11.135;599616414007396610;15106.19;226
2024-05-15T21:58:11.142;599616414015087982;15113.882;209
2024-05-15T21:58:11.150;599616414022779354;15121.573;157
2024-05-15T21:58:11.158;599616414030470726;15129.264;130
2024-05-15T21:58:11.165;599616414038162098;15136.956;126
2024-05-15T21:58:11.173;599616414045853470;15144.647;99
2024-05-15T21:58:11.181;599616414053544842;15152.339;73
2024-05-15T21:58:11.189;599616414061236222;15160.03;64
2024-05-15T21:58:11.196;599616414068927594;15167.722;69
2024-05-15T21:58:11.204;599616414076618966;15175.413;78
2024-05-15T21:58:11.212;599616414084310338;15183.104;54
2024-05-15T21:58:11.219;599616414092001710;15190.795;-23
2024-05-15T21:58:11.227;599616414099693082;15198.486;-90
2024-05-15T21:58:11.235;599616414107384454;15206.179;-130
2024-05-15T21:58:11.242;599616414115075826;15213.87;-211
2024-05-15T21:58:11.250;599616414122767198;15221.562;-266
2024-05-15T21:58:11.258;599616414130458570;15229.253;-214
2024-05-15T21:58:11.265;599616414138149942;15236.944;-157
2024-05-15T21:58:11.273;599616414145841314;15244.635;-178
2024-05-15T21:58:11.281;599616414153532686;15252.326;-207
2024-05-15T21:58:11.289;599616414161224058;15260.018;-178
2024-05-15T21:58:11.296;599616414168915430;15267.709;-133
2024-05-15T21:58:11.304;599616414176606802;15275.401;-116
2024-05-15T21:58:11.312;599616414184298174;15283.093;-85
2024-05-15T21:58:11.319;599616414191989546;15290.784;-40
2024-05-15T21:58:11.327;599616414199680918;15298.475;-30
2024-05-15T21:58:11.335;599616414207372290;15306.166;-30
2024-05-15T21:58:11.342;599616414215063662;15313.857;4
2024-05-15T21:58:11.350;599616414222755034;15321.549;47
2024-05-15T21:58:11.358;599616414230446406;15329.24;61
2024-05-15T21:58:11.365;599616414238137778;15336.932;64
2024-05-15T21:58:11.373;599616414245829150;15344.623;69
2024-05-15T21:58:11.381;599616414253520522;15352.314;88
2024-05-15T21:58:11.389;599616414261211894;15360.006;104
2024-05-15T21:58:11.396;599616414268903266;15367.697;116
2024-05-15T21:58:11.404;599616414276594638;15375.389;142
2024-05-15T21:58:11.412;599616414284286010;15383.08;176
2024-05-15T21:58:11.419;599616414291977382;15390.771;171
2024-05-15T21:58:11.427;599616414299668754;15398.463;166
2024-05-15T21:58:11.435;599616414307360126;15406.153;214
2024-05-15T21:58:11.442;599616414315051498;15413.845;259
2024-05-15T21:58:11.450;599616414322742870;15421.537;261
2024-05-15T21:58:11.458;599616414330434242;15429.229;254
2024-05-15T21:58:11.465;599616414338125614;15436.92;264
2024-05-15T21:58:11.473;599616414345816986;15444.611;280
2024-05-15T21:58:11.481;599616414353508358;15452.303;283
2024-05-15T21:58:11.488;599616414361199730;15459.993;266
2024-05-15T21:58:11.496;599616414368891102;15467.685;197
2024-05-15T21:58:11.504;599616414376582474;15475.376;102
2024-05-15T21:58:11.512;599616414384273846;15483.067;161
2024-05-15T21:58:11.519;599616414391965218;15490.759;526
2024-05-15T21:58:11.527;599616414399656590;15498.451;1004
2024-05-15T21:58:11.535;599616414407347962;15506.143;1123
2024-05-15T21:58:11.542;599616414415039334;15513.833;645
2024-05-15T21:58:11.550;599616414422730706;15521.524;40
2024-05-15T21:58:11.558;599616414430422078;15529.216;-76
2024-05-15T21:58:11.565;599616414438113450;15536.907;59
2024-05-15T21:58:11.573;599616414445804822;15544.599;7
2024-05-15T21:58:11.581;599616414453496194;15552.29;-45
2024-05-15T21:58:11.588;599616414461187566;15559.981;30
2024-05-15T21:58:11.596;599616414468878938;15567.674;54
2024-05-15T21:58:11.604;599616414476570310;15575.364;21
2024-05-15T21:58:11.612;599616414484261682;15583.056;49
2024-05-15T21:58:11.619;599616414491953054;15590.747;97
2024-05-15T21:58:11.627;599616414499644426;15598.438;107
2024-05-15T21:58:11.635;599616414507335798;15606.13;119
2024-05-15T21:58:11.642;599616414515027170;15613.821;135
2024-05-15T21:58:11.650;599616414522718542;15621.512;109
2024-05-15T21:58:11.658;599616414530409914;15629.203;57
2024-05-15T21:58:11.665;599616414538101286;15636.895;30
2024-05-15T21:58:11.673;599616414545792658;15644.587;9
2024-05-15T21:58:11.681;599616414553484030;15652.278;-2
2024-05-15T21:58:11.688;599616414561175402;15659.97;-7
2024-05-15T21:58:11.696;599616414568866774;15667.661;-23
2024-05-15T21:58:11.704;599616414576558146;15675.353;-23
2024-05-15T21:58:11.712;599616414584249518;15683.043;-7
2024-05-15T21:58:11.719;599616414591940890;15690.734;-49
2024-05-15T21:58:11.727;599616414599632262;15698.426;-142
2024-05-15T21:58:11.735;599616414607323634;15706.117;-169
2024-05-15T21:58:11.742;599616414615015006;15713.81;-147
2024-05-15T21:58:11.750;599616414622706386;15721.501;-149
2024-05-15T21:58:11.758;599616414630397758;15729.192;-142
2024-05-15T21:58:11.765;599616414638089130;15736.883;-119
2024-05-15T21:58:11.773;599616414645780502;15744.574;-135
2024-05-15T21:58:11.781;599616414653471874;15752.266;-166
2024-05-15T21:58:11.788;599616414661163246;15759.957;-166
2024-05-15T21:58:11.796;599616414668854618;15767.648;-126
2024-05-15T21:58:11.804;599616414676545990;15775.34;-90
2024-05-15T21:58:11.812;599616414684237362;15783.031;-109
2024-05-15T21:58:11.819;599616414691928734;15790.723;-135
2024-05-15T21:58:11.827;599616414699620106;15798.414;-95
2024-05-15T21:58:11.835;599616414707311478;15806.105;-57
2024-05-15T21:58:11.842;599616414715002850;15813.797;-61
2024-05-15T21:58:11.850;599616414722694222;15821.488;-35
2024-05-15T21:58:11.858;599616414730385594;15829.18;19
2024-05-15T21:58:11.865;599616414738076966;15836.871;47
2024-05-15T21:58:11.873;599616414745768338;15844.562;52
2024-05-15T21:58:11.881;599616414753459710;15852.253;59
2024-05-15T21:58:11.888;599616414761151082;15859.945;88
2024-05-15T21:58:11.896;599616414768842454;15867.637;126
2024-05-15T21:58:11.904;599616414776533826;15875.328;142
2024-05-15T21:58:11.912;599616414784225198;15883.02;159
2024-05-15T21:58:11.919;599616414791916570;15890.711;195
2024-05-15T21:58:11.927;599616414799607942;15898.401;204
2024-05-15T21:58:11.935;599616414807299314;15906.093;199
2024-05-15T21:58:11.942;599616414814990686;15913.784;245
2024-05-15T21:58:11.950;599616414822682058;15921.476;297
2024-05-15T21:58:11.958;599616414830373430;15929.167;302
2024-05-15T21:58:11.965;599616414838064802;15936.859;290
2024-05-15T21:58:11.973;599616414845756174;15944.551;295
2024-05-15T21:58:11.981;599616414853447546;15952.241;316
2024-05-15T21:58:11.988;599616414861138918;15959.933;333
2024-05-15T21:58:11.996;599616414868830290;15967.624;321
