Phone timestamp;sensor timestamp [ns];timestamp [ms];ecg [uV]
2024-05-16T23:21:28.495;599616454058666338;0.0;881
2024-05-16T23:21:28.502;599616454066357849;7.691511;544
2024-05-16T23:21:28.510;599616454074049360;15.383022;1152
2024-05-16T23:21:28.518;599616454081740871;23.074532;2613
2024-05-16T23:21:28.525;599616454089432382;30.766045;3576
2024-05-16T23:21:28.533;599616454097123893;38.457558;4137
2024-05-16T23:21:28.541;599616454104815404;46.149063;4966
2024-05-16T23:21:28.548;599616454112506915;53.840576;5715
2024-05-16T23:21:28.556;599616454120198426;61.53209;6271
2024-05-16T23:21:28.564;599616454127889937;69.2236;6912
2024-05-16T23:21:28.571;599616454135581448;76.915115;7506
2024-05-16T23:21:28.579;599616454143272959;84.60662;7948
2024-05-16T23:21:28.587;599616454150964470;92.29813;8440
2024-05-16T23:21:28.594;599616454158655981;99.98964;8977
2024-05-16T23:21:28.602;599616454166347492;107.68115;9426
2024-05-16T23:21:28.610;599616454174039003;115.372665;9799
2024-05-16T23:21:28.618;599616454181730514;123.06418;10161
2024-05-16T23:21:28.625;599616454189422025;130.75569;10538
2024-05-16T23:21:28.633;599616454197113536;138.4472;10883
2024-05-16T23:21:28.641;599616454204805047;146.1387;11170
2024-05-16T23:21:28.648;599616454212496558;153.83023;11520
2024-05-16T23:21:28.656;599616454220188069;161.52173;11926
2024-05-16T23:21:28.664;599616454227879580;169.21324;12245
2024-05-16T23:21:28.671;599616454235571091;176.90475;12466
2024-05-16T23:21:28.679;599616454243262602;184.59625;12675
2024-05-16T23:21:28.687;599616454250954113;192.28778;12943
2024-05-16T23:21:28.694;599616454258645624;199.97928;13186
2024-05-16T23:21:28.702;599616454266337135;207.6708;13338
2024-05-16T23:21:28.710;599616454274028646;215.3623;13509
2024-05-16T23:21:28.718;599616454281720157;223.05382;13765
2024-05-16T23:21:28.725;599616454289411668;230.74533;14036
2024-05-16T23:21:28.733;599616454297103179;238.43684;14172
2024-05-16T23:21:28.741;599616454304794690;246.12836;14236
2024-05-16T23:21:28.748;599616454312486201;253.81985;14390
2024-05-16T23:21:28.756;599616454320177712;261.51138;14464
2024-05-16T23:21:28.764;599616454327869223;269.20288;14478
2024-05-16T23:21:28.771;599616454335560734;276.8944;14657
2024-05-16T23:21:28.779;599616454343252245;284.5859;14837
2024-05-16T23:21:28.787;599616454350943756;292.2774;14878
2024-05-16T23:21:28.794;599616454358635267;299.96893;14885
2024-05-16T23:21:28.802;599616454366326778;307.66046;14977
2024-05-16T23:21:28.810;599616454374018289;315.35193;15303
2024-05-16T23:21:28.818;599616454381709800;323.04346;15804
2024-05-16T23:21:28.825;599616454389401311;330.735;16051
2024-05-16T23:21:28.833;599616454397092822;338.42648;15762
2024-05-16T23:21:28.841;599616454404784333;346.11798;15346
2024-05-16T23:21:28.848;599616454412475844;353.8095;15262
2024-05-16T23:21:28.856;599616454420167355;361.50104;15260
2024-05-16T23:21:28.864;599616454427858866;369.1925;15201
2024-05-16T23:21:28.871;599616454435550377;376.88403;15220
2024-05-16T23:21:28.879;599616454443241888;384.57556;15227
2024-05-16T23:21:28.887;599616454450933399;392.26706;15194
2024-05-16T23:21:28.894;599616454458624910;399.95856;15182
2024-05-16T23:21:28.902;599616454466316421;407.6501;15158
2024-05-16T23:21:28.910;599616454474007932;415.3416;15089
2024-05-16T23:21:28.918;599616454481699443;423.0331;15084
2024-05-16T23:21:28.925;599616454489390954;430.7246;15167
2024-05-16T23:21:28.933;599616454497082465;438.41614;15132
2024-05-16T23:21:28.941;599616454504773976;446.10764;14956
2024-05-16T23:21:28.948;599616454512465487;453.79913;14906
2024-05-16T23:21:28.956;599616454520156998;461.49066;14963
2024-05-16T23:21:28.964;599616454527848509;469.1822;14918
2024-05-16T23:21:28.971;599616454535540020;476.8737;14963
2024-05-16T23:21:28.979;599616454543231531;484.5652;15001
2024-05-16T23:21:28.987;599616454550923042;492.2567;14742
2024-05-16T23:21:28.994;599616454558614553;499.9482;14531
2024-05-16T23:21:29.002;599616454566306064;507.6397;14466
2024-05-16T23:21:29.010;599616454573997575;515.33124;14393
2024-05-16T23:21:29.018;599616454581689086;523.02277;14386
2024-05-16T23:21:29.025;599616454589380597;530.7143;14310
2024-05-16T23:21:29.033;599616454597072108;538.40576;14115
2024-05-16T23:21:29.041;599616454604763619;546.0973;14051
2024-05-16T23:21:29.048;599616454612455130;553.7888;14055
2024-05-16T23:21:29.056;599616454620136666;561.47034;13929
2024-05-16T23:21:29.064;599616454627828316;569.162;13837
2024-05-16T23:21:29.071;599616454635519966;576.85364;13849
2024-05-16T23:21:29.079;599616454643211616;584.5453;13751
2024-05-16T23:21:29.087;599616454650903266;592.23694;13563
2024-05-16T23:21:29.094;599616454658594916;599.9286;13464
2024-05-16T23:21:29.102;599616454666286566;607.62024;13452
2024-05-16T23:21:29.110;599616454673978216;615.3119;13426
2024-05-16T23:21:29.118;599616454681669866;623.00354;13281
2024-05-16T23:21:29.125;599616454689361516;630.6952;13074
2024-05-16T23:21:29.133;599616454697053166;638.38684;13038
2024-05-16T23:21:29.141;599616454704744816;646.0785;13169
2024-05-16T23:21:29.148;599616454712436466;653.77014;13352
2024-05-16T23:21:29.156;599616454720128116;661.46173;13502
2024-05-16T23:21:29.164;599616454727819766;669.1534;13233
2024-05-16T23:21:29.171;599616454735511416;676.84503;12554
2024-05-16T23:21:29.179;599616454743203066;684.5367;12109
2024-05-16T23:21:29.187;599616454750894716;692.22833;12057
2024-05-16T23:21:29.194;599616454758586366;699.92;12014
2024-05-16T23:21:29.202;599616454766278016;707.61163;11864
2024-05-16T23:21:29.210;599616454773969666;715.3033;11738
2024-05-16T23:21:29.217;599616454781661316;722.995;11677
2024-05-16T23:21:29.225;599616454789352966;730.68665;11584
2024-05-16T23:21:29.233;599616454797044616;738.3783;11365
2024-05-16T23:21:29.241;599616454804736266;746.06995;11178
2024-05-16T23:21:29.248;599616454812427916;753.7616;11156
2024-05-16T23:21:29.256;599616454820119566;761.45325;11128
2024-05-16T23:21:29.264;599616454827811216;769.1449;10947
2024-05-16T23:21:29.271;599616454835502866;776.83655;10771
2024-05-16T23:21:29.279;599616454843194516;784.5282;10736
2024-05-16T23:21:29.287;599616454850886166;792.21985;10712
2024-05-16T23:21:29.294;599616454858577816;799.9115;10603
2024-05-16T23:21:29.302;599616454866269466;807.60315;10450
2024-05-16T23:21:29.310;599616454873961116;815.2948;10372
2024-05-16T23:21:29.317;599616454881652766;822.98645;10346
2024-05-16T23:21:29.325;599616454889344416;830.6781;10201
2024-05-16T23:21:29.333;599616454897036066;838.36975;10039
2024-05-16T23:21:29.341;599616454904727716;846.0614;10030
2024-05-16T23:21:29.348;599616454912419366;853.75305;9980
2024-05-16T23:21:29.356;599616454920111016;861.4447;9764
2024-05-16T23:21:29.364;599616454927802666;869.1363;9614
2024-05-16T23:21:29.371;599616454935494316;876.82794;9600
2024-05-16T23:21:29.379;599616454943185966;884.5196;9545
2024-05-16T23:21:29.387;599616454950877616;892.21124;9429
2024-05-16T23:21:29.394;599616454958569266;899.9029;9315
2024-05-16T23:21:29.402;599616454966260916;907.59454;9210
2024-05-16T23:21:29.410;599616454973952566;915.2862;9129
2024-05-16T23:21:29.417;599616454981644216;922.97784;9039
2024-05-16T23:21:29.425;599616454989335866;930.6695;8951
2024-05-16T23:21:29.433;599616454997027516;938.36115;8906
2024-05-16T23:21:29.441;599616455004719166;946.0528;8813
2024-05-16T23:21:29.448;599616455012410816;953.74445;8630
2024-05-16T23:21:29.456;599616455020102466;961.43616;8526
2024-05-16T23:21:29.464;599616455027794116;969.1278;8504
2024-05-16T23:21:29.471;599616455035485766;976.81946;8478
2024-05-16T23:21:29.479;599616455043177416;984.5111;8547
2024-05-16T23:21:29.487;599616455050869066;992.20276;8721
2024-05-16T23:21:29.494;599616455058560716;999.8944;8732
2024-05-16T23:21:29.502;599616455066252366;1007.58606;8233
2024-05-16T23:21:29.510;599616455073944016;1015.2777;7537
2024-05-16T23:21:29.517;599616455081635666;1022.96936;7390
2024-05-16T23:21:29.525;599616455089327316;1030.661;7525
2024-05-16T23:21:29.533;599616455097018966;1038.3527;7340
2024-05-16T23:21:29.541;599616455104710616;1046.0443;7117
2024-05-16T23:21:29.548;599616455112402266;1053.736;7121
2024-05-16T23:21:29.556;599616455120093916;1061.4276;7098
2024-05-16T23:21:29.564;599616455127785566;1069.1193;6979
2024-05-16T23:21:29.571;599616455135477216;1076.8109;6924
2024-05-16T23:21:29.579;599616455143168866;1084.5026;6896
2024-05-16T23:21:29.587;599616455150860516;1092.1942;6798
2024-05-16T23:21:29.594;599616455158552166;1099.8859;6696
2024-05-16T23:21:29.602;599616455166243816;1107.5775;6641
2024-05-16T23:21:29.610;599616455173935466;1115.2692;6603
2024-05-16T23:21:29.617;599616455181617096;1122.9508;6560
2024-05-16T23:21:29.625;599616455189308886;1130.6426;6468
2024-05-16T23:21:29.633;599616455197000676;1138.3344;6354
2024-05-16T23:21:29.641;599616455204692466;1146.0261;6316
2024-05-16T23:21:29.648;599616455212384256;1153.7179;6256
2024-05-16T23:21:29.656;599616455220076046;1161.4097;6111
2024-05-16T23:21:29.664;599616455227767836;1169.1014;6059
2024-05-16T23:21:29.671;599616455235459626;1176.7933;6092
2024-05-16T23:21:29.679;599616455243151416;1184.4851;5993
2024-05-16T23:21:29.687;599616455250843206;1192.1769;5774
2024-05-16T23:21:29.694;599616455258534996;1199.8687;5665
2024-05-16T23:21:29.702;599616455266226786;1207.5604;5679
2024-05-16T23:21:29.710;599616455273918576;1215.2522;5653
2024-05-16T23:21:29.717;599616455281610366;1222.944;5534
2024-05-16T23:21:29.725;599616455289302156;1230.6357;5398
2024-05-16T23:21:29.733;599616455296993946;1238.3275;5353
2024-05-16T23:21:29.741;599616455304685736;1246.0194;5344
2024-05-16T23:21:29.748;599616455312377526;1253.7112;5273
2024-05-16T23:21:29.756;599616455320069316;1261.403;5223
2024-05-16T23:21:29.764;599616455327761106;1269.0947;5196
2024-05-16T23:21:29.771;599616455335452896;1276.7865;5099
2024-05-16T23:21:29.779;599616455343144686;1284.4784;5023
2024-05-16T23:21:29.787;599616455350836476;1292.1702;5025
2024-05-16T23:21:29.794;599616455358528266;1299.8619;4994
2024-05-16T23:21:29.802;599616455366220056;1307.5537;4869
2024-05-16T23:21:29.810;599616455373911846;1315.2456;4781
2024-05-16T23:21:29.817;599616455381603636;1322.9374;5037
2024-05-16T23:21:29.825;599616455389295426;1330.6292;5503
2024-05-16T23:21:29.833;599616455396987216;1338.3209;5489
2024-05-16T23:21:29.841;599616455404679006;1346.0127;4850
2024-05-16T23:21:29.848;599616455412370796;1353.7045;4320
2024-05-16T23:21:29.856;599616455420062586;1361.3962;4303
2024-05-16T23:21:29.864;599616455427754376;1369.088;4329
2024-05-16T23:21:29.871;599616455435446166;1376.7798;4179
2024-05-16T23:21:29.879;599616455443137956;1384.4717;4137
2024-05-16T23:21:29.887;599616455450829746;1392.1635;4158
2024-05-16T23:21:29.894;599616455458521536;1399.8552;4089
2024-05-16T23:21:29.902;599616455466213326;1407.547;4025
2024-05-16T23:21:29.910;599616455473905116;1415.2388;4004
2024-05-16T23:21:29.917;599616455481596906;1422.9305;3977
2024-05-16T23:21:29.925;599616455489288696;1430.6223;3942
2024-05-16T23:21:29.933;599616455496980486;1438.3141;3913
2024-05-16T23:21:29.941;599616455504672276;1446.0059;3894
2024-05-16T23:21:29.948;599616455512364066;1453.6978;3863
2024-05-16T23:21:29.956;599616455520055856;1461.3895;3783
2024-05-16T23:21:29.964;599616455527747646;1469.0813;3688
2024-05-16T23:21:29.971;599616455535439436;1476.7731;3611
2024-05-16T23:21:29.979;599616455543131226;1484.4648;3524
2024-05-16T23:21:29.987;599616455550823016;1492.1566;3388
2024-05-16T23:21:29.994;599616455558514806;1499.8484;3303
2024-05-16T23:21:30.002;599616455566206596;1507.5403;3322
2024-05-16T23:21:30.010;599616455573898386;1515.232;3326
2024-05-16T23:21:30.017;599616455581590176;1522.9238;3288
2024-05-16T23:21:30.025;599616455589281966;1530.6157;3288
2024-05-16T23:21:30.033;599616455596973756;1538.3075;3298
2024-05-16T23:21:30.040;599616455604665546;1545.9993;3250
2024-05-16T23:21:30.048;599616455612357336;1553.691;3193
2024-05-16T23:21:30.056;599616455620049126;1561.3828;3191
2024-05-16T23:21:30.064;599616455627740916;1569.0746;3193
2024-05-16T23:21:30.071;599616455635432706;1576.7664;3172
2024-05-16T23:21:30.079;599616455643124496;1584.4581;3160
2024-05-16T23:21:30.087;599616455650816286;1592.1499;3146
2024-05-16T23:21:30.094;599616455658508076;1599.8418;3108
2024-05-16T23:21:30.102;599616455666199866;1607.5336;3070
2024-05-16T23:21:30.110;599616455673891656;1615.2253;3051
2024-05-16T23:21:30.117;599616455681583446;1622.9171;3058
2024-05-16T23:21:30.125;599616455689275236;1630.6089;3055
2024-05-16T23:21:30.133;599616455696967026;1638.3007;2946
2024-05-16T23:21:30.140;599616455704658816;1645.9924;2770
2024-05-16T23:21:30.148;599616455712350606;1653.6842;2830
2024-05-16T23:21:30.156;599616455720042396;1661.376;3246
2024-05-16T23:21:30.164;599616455727734186;1669.0679;3607
2024-05-16T23:21:30.171;599616455735425976;1676.7596;3433
2024-05-16T23:21:30.179;599616455743072634;1684.4062;2832
2024-05-16T23:21:30.187;599616455750765051;1692.0986;2428
2024-05-16T23:21:30.194;599616455758457468;1699.7911;2480
2024-05-16T23:21:30.202;599616455766149885;1707.4835;2521
2024-05-16T23:21:30.210;599616455773842302;1715.1759;2373
2024-05-16T23:21:30.217;599616455781534719;1722.8684;2297
2024-05-16T23:21:30.225;599616455789227136;1730.5608;2276
2024-05-16T23:21:30.233;599616455796919553;1738.2532;2243
2024-05-16T23:21:30.240;599616455804611970;1745.9456;2271
2024-05-16T23:21:30.248;599616455812304387;1753.6381;2274
2024-05-16T23:21:30.256;599616455819996804;1761.3304;2162
2024-05-16T23:21:30.264;599616455827689221;1769.0228;2084
2024-05-16T23:21:30.271;599616455835381638;1776.7152;2114
2024-05-16T23:21:30.279;599616455843074055;1784.4077;2110
2024-05-16T23:21:30.287;599616455850766472;1792.1001;2060
2024-05-16T23:21:30.294;599616455858458889;1799.7925;2065
2024-05-16T23:21:30.302;599616455866151306;1807.485;2074
2024-05-16T23:21:30.310;599616455873843723;1815.1774;2000
2024-05-16T23:21:30.317;599616455881536140;1822.8698;1910
2024-05-16T23:21:30.325;599616455889228557;1830.5621;1905
2024-05-16T23:21:30.333;599616455896920974;1838.2546;1953
2024-05-16T23:21:30.340;599616455904613391;1845.947;1984
2024-05-16T23:21:30.348;599616455912305808;1853.6394;1988
2024-05-16T23:21:30.356;599616455919998225;1861.3318;1986
2024-05-16T23:21:30.364;599616455927690642;1869.0243;1960
2024-05-16T23:21:30.371;599616455935383059;1876.7167;1931
2024-05-16T23:21:30.379;599616455943075476;1884.409;1936
2024-05-16T23:21:30.387;599616455950767893;1892.1016;1953
2024-05-16T23:21:30.394;599616455958460310;1899.794;1958
2024-05-16T23:21:30.402;599616455966152727;1907.4863;1939
2024-05-16T23:21:30.410;599616455973845144;1915.1787;1915
2024-05-16T23:21:30.417;599616455981537561;1922.8712;1934
2024-05-16T23:21:30.425;599616455989229978;1930.5636;1955
2024-05-16T23:21:30.433;599616455996922395;1938.256;1929
2024-05-16T23:21:30.440;599616456004614812;1945.9484;1905
2024-05-16T23:21:30.448;599616456012307229;1953.6409;1920
2024-05-16T23:21:30.456;599616456019999646;1961.3333;1858
2024-05-16T23:21:30.464;599616456027692063;1969.0256;1696
2024-05-16T23:21:30.471;599616456035384480;1976.7181;1577
2024-05-16T23:21:30.479;599616456043076897;1984.4105;1542
2024-05-16T23:21:30.487;599616456050769314;1992.1029;1627
2024-05-16T23:21:30.494;599616456058461731;1999.7954;1958
2024-05-16T23:21:30.502;599616456066154148;2007.4879;2243
2024-05-16T23:21:30.510;599616456073846565;2015.1803;1965
2024-05-16T23:21:30.517;599616456081538982;2022.8727;1366
2024-05-16T23:21:30.525;599616456089231399;2030.5651;1173
2024-05-16T23:21:30.533;599616456096923816;2038.2576;1328
2024-05-16T23:21:30.540;599616456104616233;2045.95;1311
2024-05-16T23:21:30.548;599616456112308650;2053.6423;1200
2024-05-16T23:21:30.556;599616456120001067;2061.3347;1230
2024-05-16T23:21:30.564;599616456127693484;2069.027;1297
2024-05-16T23:21:30.571;599616456135385901;2076.7197;1287
2024-05-16T23:21:30.579;599616456143078318;2084.412;1268
2024-05-16T23:21:30.587;599616456150770735;2092.1045;1295
2024-05-16T23:21:30.594;599616456158463152;2099.7969;1316
2024-05-16T23:21:30.602;599616456166155569;2107.4893;1292
2024-05-16T23:21:30.610;599616456173847986;2115.1816;1276
2024-05-16T23:21:30.617;599616456181540403;2122.874;1292
2024-05-16T23:21:30.625;599616456189232820;2130.5664;1302
2024-05-16T23:21:30.633;599616456196925237;2138.259;1264
2024-05-16T23:21:30.640;599616456204617654;2145.9514;1190
2024-05-16T23:21:30.648;599616456212310071;2153.6438;1150
2024-05-16T23:21:30.656;599616456220002488;2161.3362;1190
2024-05-16T23:21:30.664;599616456227694905;2169.0286;1235
2024-05-16T23:21:30.671;599616456235387322;2176.721;1235
2024-05-16T23:21:30.679;599616456243079739;2184.4133;1268
2024-05-16T23:21:30.687;599616456250772156;2192.1057;1335
2024-05-16T23:21:30.694;599616456258464573;2199.7983;1325
2024-05-16T23:21:30.702;599616456266156990;2207.4905;1254
2024-05-16T23:21:30.710;599616456273849407;2215.183;1221
2024-05-16T23:21:30.717;599616456281541824;2222.8755;1249
2024-05-16T23:21:30.725;599616456289234241;2230.5679;1261
2024-05-16T23:21:30.733;599616456296926658;2238.2603;1242
2024-05-16T23:21:30.741;599616456304739477;2246.073;1252
2024-05-16T23:21:30.748;599616456312430222;2253.764;1285
2024-05-16T23:21:30.756;599616456320120967;2261.4546;1287
2024-05-16T23:21:30.764;599616456327811712;2269.1453;1283
2024-05-16T23:21:30.771;599616456335502457;2276.8362;1295
2024-05-16T23:21:30.779;599616456343193202;2284.5269;1287
2024-05-16T23:21:30.787;599616456350883947;2292.2175;1230
2024-05-16T23:21:30.794;599616456358574692;2299.9084;1152
2024-05-16T23:21:30.802;599616456366265437;2307.599;1102
2024-05-16T23:21:30.810;599616456373956182;2315.2898;1024
2024-05-16T23:21:30.817;599616456381646927;2322.9807;948
2024-05-16T23:21:30.825;599616456389337672;2330.6714;1169
2024-05-16T23:21:30.833;599616456397028417;2338.362;1661
2024-05-16T23:21:30.841;599616456404719162;2346.053;1834
2024-05-16T23:21:30.848;599616456412409907;2353.7437;1383
2024-05-16T23:21:30.856;599616456420100652;2361.4343;867
2024-05-16T23:21:30.864;599616456427791397;2369.125;864
2024-05-16T23:21:30.871;599616456435482142;2376.816;1009
2024-05-16T23:21:30.879;599616456443172887;2384.5066;910
2024-05-16T23:21:30.887;599616456450863632;2392.1973;843
2024-05-16T23:21:30.894;599616456458554377;2399.8882;936
2024-05-16T23:21:30.902;599616456466245122;2407.5789;971
2024-05-16T23:21:30.910;599616456473935867;2415.2695;936
2024-05-16T23:21:30.917;599616456481626612;2422.9604;919
2024-05-16T23:21:30.925;599616456489317357;2430.6511;926
2024-05-16T23:21:30.933;599616456497008102;2438.3418;974
2024-05-16T23:21:30.941;599616456504698847;2446.0325;1005
2024-05-16T23:21:30.948;599616456512389592;2453.7231;964
2024-05-16T23:21:30.956;599616456520080337;2461.4138;891
2024-05-16T23:21:30.964;599616456527771082;2469.1047;834
2024-05-16T23:21:30.971;599616456535461827;2476.7954;819
2024-05-16T23:21:30.979;599616456543152572;2484.486;843
2024-05-16T23:21:30.987;599616456550843317;2492.177;838
2024-05-16T23:21:30.994;599616456558534062;2499.8677;741
2024-05-16T23:21:31.002;599616456566224807;2507.5583;660
2024-05-16T23:21:31.010;599616456573915552;2515.2493;705
2024-05-16T23:21:31.017;599616456581606297;2522.94;784
2024-05-16T23:21:31.025;599616456589297042;2530.6306;769
2024-05-16T23:21:31.033;599616456596987787;2538.3213;739
2024-05-16T23:21:31.041;599616456604678532;2546.0122;793
2024-05-16T23:21:31.048;599616456612369277;2553.703;862
2024-05-16T23:21:31.056;599616456620060022;2561.3936;824
2024-05-16T23:21:31.064;599616456627750767;2569.0845;772
2024-05-16T23:21:31.071;599616456635441512;2576.7751;826
2024-05-16T23:21:31.079;599616456643132257;2584.4658;883
2024-05-16T23:21:31.087;599616456650823002;2592.1567;893
2024-05-16T23:21:31.094;599616456658513747;2599.8474;893
2024-05-16T23:21:31.102;599616456666204492;2607.538;874
2024-05-16T23:21:31.110;599616456673895237;2615.229;883
2024-05-16T23:21:31.117;599616456681585982;2622.9197;905
2024-05-16T23:21:31.125;599616456689276727;2630.6104;850
2024-05-16T23:21:31.133;599616456696967472;2638.3013;786
2024-05-16T23:21:31.140;599616456704658217;2645.992;769
2024-05-16T23:21:31.148;599616456712348962;2653.6826;712
2024-05-16T23:21:31.156;599616456720039707;2661.3735;653
2024-05-16T23:21:31.164;599616456727730452;2669.0642;862
2024-05-16T23:21:31.171;599616456735421197;2676.755;1316
2024-05-16T23:21:31.179;599616456743111942;2684.4458;1497
2024-05-16T23:21:31.187;599616456750802687;2692.1365;1083
2024-05-16T23:21:31.194;599616456758493432;2699.8271;558
2024-05-16T23:21:31.202;599616456766184177;2707.518;503
2024-05-16T23:21:31.210;599616456773874922;2715.2087;643
2024-05-16T23:21:31.217;599616456781565667;2722.8994;591
2024-05-16T23:21:31.225;599616456789256412;2730.5898;551
2024-05-16T23:21:31.233;599616456796947157;2738.2808;615
2024-05-16T23:21:31.240;599616456804637902;2745.9714;603
2024-05-16T23:21:31.248;599616456812328647;2753.662;570
2024-05-16T23:21:31.256;599616456820019392;2761.353;632
2024-05-16T23:21:31.264;599616456827710137;2769.0437;677
2024-05-16T23:21:31.271;599616456835400882;2776.7344;651
2024-05-16T23:21:31.279;599616456843091627;2784.4253;660
2024-05-16T23:21:31.287;599616456850782372;2792.116;677
2024-05-16T23:21:31.294;599616456858473117;2799.8066;632
2024-05-16T23:21:31.302;599616456866088624;2807.422;605
2024-05-16T23:21:31.310;599616456873780414;2815.114;636
2024-05-16T23:21:31.317;599616456881472204;2822.8057;653
2024-05-16T23:21:31.325;599616456889163994;2830.4976;634
2024-05-16T23:21:31.333;599616456896855784;2838.1895;634
2024-05-16T23:21:31.340;599616456904547574;2845.8813;670
2024-05-16T23:21:31.348;599616456912239364;2853.573;705
2024-05-16T23:21:31.356;599616456919931154;2861.265;681
2024-05-16T23:21:31.363;599616456927622944;2868.9568;589
2024-05-16T23:21:31.371;599616456935314734;2876.6484;548
2024-05-16T23:21:31.379;599616456943006524;2884.3403;579
2024-05-16T23:21:31.387;599616456950698314;2892.032;589
2024-05-16T23:21:31.394;599616456958390104;2899.7239;582
2024-05-16T23:21:31.402;599616456966081894;2907.4155;591
2024-05-16T23:21:31.410;599616456973773684;2915.1074;613
2024-05-16T23:21:31.417;599616456981465474;2922.799;636
2024-05-16T23:21:31.425;599616456989157264;2930.491;629
2024-05-16T23:21:31.433;599616456996849054;2938.1826;610
2024-05-16T23:21:31.440;599616457004540844;2945.8745;584
2024-05-16T23:21:31.448;599616457012232634;2953.5662;518
2024-05-16T23:21:31.456;599616457019924424;2961.258;484
2024-05-16T23:21:31.463;599616457027616214;2968.9497;470
2024-05-16T23:21:31.471;599616457035308004;2976.6418;396
2024-05-16T23:21:31.479;599616457042999794;2984.3335;349
2024-05-16T23:21:31.487;599616457050691584;2992.0254;323
2024-05-16T23:21:31.494;599616457058383374;2999.717;223
2024-05-16T23:21:31.502;599616457066075164;3007.409;273
2024-05-16T23:21:31.510;599616457073766954;3015.1006;665
2024-05-16T23:21:31.517;599616457081458744;3022.7925;955
2024-05-16T23:21:31.525;599616457089150534;3030.4841;672
2024-05-16T23:21:31.533;599616457096842324;3038.176;187
2024-05-16T23:21:31.540;599616457104534114;3045.8677;80
2024-05-16T23:21:31.548;599616457112225904;3053.5596;209
2024-05-16T23:21:31.556;599616457119917694;3061.2512;220
2024-05-16T23:21:31.563;599616457127609484;3068.943;192
2024-05-16T23:21:31.571;599616457135301274;3076.6348;211
2024-05-16T23:21:31.579;599616457142993064;3084.3267;201
2024-05-16T23:21:31.587;599616457150684854;3092.0183;220
2024-05-16T23:21:31.594;599616457158376644;3099.7102;280
2024-05-16T23:21:31.602;599616457166068434;3107.402;292
2024-05-16T23:21:31.610;599616457173760224;3115.0938;289
2024-05-16T23:21:31.617;599616457181452014;3122.786;285
2024-05-16T23:21:31.625;599616457189143804;3130.4775;235
2024-05-16T23:21:31.633;599616457196835594;3138.1694;218
2024-05-16T23:21:31.640;599616457204527384;3145.861;287
2024-05-16T23:21:31.648;599616457212219174;3153.553;323
2024-05-16T23:21:31.656;599616457219910964;3161.2446;294
2024-05-16T23:21:31.663;599616457227602754;3168.9365;294
2024-05-16T23:21:31.671;599616457235294544;3176.6282;330
2024-05-16T23:21:31.679;599616457242986334;3184.32;351
2024-05-16T23:21:31.687;599616457250678124;3192.0117;335
2024-05-16T23:21:31.694;599616457258369914;3199.7036;287
2024-05-16T23:21:31.702;599616457266061704;3207.3953;266
2024-05-16T23:21:31.710;599616457273753494;3215.0872;287
2024-05-16T23:21:31.717;599616457281445284;3222.7788;311
2024-05-16T23:21:31.725;599616457289137074;3230.4707;318
2024-05-16T23:21:31.733;599616457296828864;3238.1624;332
2024-05-16T23:21:31.740;599616457304520654;3245.8542;368
2024-05-16T23:21:31.748;599616457312212444;3253.546;377
2024-05-16T23:21:31.756;599616457319904234;3261.238;346
2024-05-16T23:21:31.763;599616457327596024;3268.9297;375
2024-05-16T23:21:31.771;599616457335287814;3276.6216;437
2024-05-16T23:21:31.779;599616457342979604;3284.3132;406
2024-05-16T23:21:31.787;599616457350671394;3292.0051;330
2024-05-16T23:21:31.794;599616457358363184;3299.6968;285
2024-05-16T23:21:31.802;599616457366054974;3307.3887;254
2024-05-16T23:21:31.810;599616457373746764;3315.0806;254
2024-05-16T23:21:31.817;599616457381438554;3322.7722;273
2024-05-16T23:21:31.825;599616457389130344;3330.464;278
2024-05-16T23:21:31.833;599616457396822134;3338.1558;240
2024-05-16T23:21:31.840;599616457404513924;3345.8477;235
2024-05-16T23:21:31.848;599616457412205714;3353.5393;522
2024-05-16T23:21:31.856;599616457419897504;3361.2312;1021
2024-05-16T23:21:31.863;599616457427589306;3368.9229;1121
2024-05-16T23:21:31.871;599616457435281096;3376.6147;617
2024-05-16T23:21:31.879;599616457442972886;3384.3064;173
2024-05-16T23:21:31.886;599616457450664676;3391.9985;244
2024-05-16T23:21:31.894;599616457458356466;3399.6902;335
2024-05-16T23:21:31.902;599616457466048256;3407.382;152
2024-05-16T23:21:31.910;599616457473740046;3415.0737;109
2024-05-16T23:21:31.917;599616457481431836;3422.7656;237
2024-05-16T23:21:31.925;599616457489123626;3430.4573;242
2024-05-16T23:21:31.933;599616457496815416;3438.1492;166
2024-05-16T23:21:31.940;599616457504507206;3445.8408;159
2024-05-16T23:21:31.948;599616457512198996;3453.5327;173
2024-05-16T23:21:31.956;599616457519890786;3461.2244;142
2024-05-16T23:21:31.963;599616457527582576;3468.9163;114
2024-05-16T23:21:31.971;599616457535274366;3476.608;140
2024-05-16T23:21:31.979;599616457542966156;3484.2998;190
2024-05-16T23:21:31.986;599616457550657946;3491.9915;178
2024-05-16T23:21:31.994;599616457558349736;3499.6833;87
2024-05-16T23:21:32.002;599616457566041526;3507.375;33
2024-05-16T23:21:32.010;599616457573733316;3515.067;83
2024-05-16T23:21:32.017;599616457581425106;3522.7585;137
2024-05-16T23:21:32.025;599616457589116896;3530.4504;149
2024-05-16T23:21:32.033;599616457596808686;3538.1426;171
2024-05-16T23:21:32.040;599616457604500476;3545.8342;199
2024-05-16T23:21:32.048;599616457612192266;3553.5261;235
2024-05-16T23:21:32.056;599616457619884056;3561.2178;259
2024-05-16T23:21:32.063;599616457627575846;3568.9097;259
2024-05-16T23:21:32.071;599616457635267636;3576.6013;261
2024-05-16T23:21:32.079;599616457642959426;3584.2932;275
2024-05-16T23:21:32.086;599616457650651216;3591.9849;294
2024-05-16T23:21:32.094;599616457658343006;3599.6768;325
2024-05-16T23:21:32.102;599616457666034796;3607.3684;344
2024-05-16T23:21:32.110;599616457673726586;3615.0603;304
2024-05-16T23:21:32.117;599616457681418376;3622.752;242
2024-05-16T23:21:32.125;599616457689110166;3630.4438;225
2024-05-16T23:21:32.133;599616457696801956;3638.1355;228
2024-05-16T23:21:32.140;599616457704493746;3645.8274;209
2024-05-16T23:21:32.148;599616457712185536;3653.519;206
2024-05-16T23:21:32.156;599616457719877326;3661.211;228
2024-05-16T23:21:32.163;599616457727569116;3668.9026;213
2024-05-16T23:21:32.171;599616457735260906;3676.5947;130
2024-05-16T23:21:32.179;599616457742952696;3684.2864;73
2024-05-16T23:21:32.186;599616457750644486;3691.9783;218
2024-05-16T23:21:32.194;599616457758336276;3699.67;658
2024-05-16T23:21:32.202;599616457766028066;3707.3618;1059
2024-05-16T23:21:32.210;599616457773719856;3715.0535;881
2024-05-16T23:21:32.217;599616457781411646;3722.7454;282
2024-05-16T23:21:32.225;599616457789103436;3730.437;23
2024-05-16T23:21:32.233;599616457796795226;3738.129;192
2024-05-16T23:21:32.240;599616457804487016;3745.8206;242
2024-05-16T23:21:32.248;599616457812178806;3753.5125;173
2024-05-16T23:21:32.256;599616457819870596;3761.2043;216
2024-05-16T23:21:32.263;599616457827562386;3768.896;240
2024-05-16T23:21:32.271;599616457835254176;3776.588;211
2024-05-16T23:21:32.279;599616457842945966;3784.2795;225
2024-05-16T23:21:32.286;599616457850637756;3791.9714;220
2024-05-16T23:21:32.294;599616457858329546;3799.663;171
2024-05-16T23:21:32.302;599616457866021336;3807.355;166
2024-05-16T23:21:32.310;599616457873713126;3815.0469;209
2024-05-16T23:21:32.317;599616457881404916;3822.7388;230
2024-05-16T23:21:32.325;599616457889096706;3830.4304;232
2024-05-16T23:21:32.333;599616457896788496;3838.1223;247
2024-05-16T23:21:32.340;599616457904480286;3845.814;259
2024-05-16T23:21:32.348;599616457912172076;3853.5059;247
2024-05-16T23:21:32.356;599616457919863866;3861.1975;230
2024-05-16T23:21:32.363;599616457927555656;3868.8894;268
2024-05-16T23:21:32.371;599616457935247446;3876.581;344
2024-05-16T23:21:32.379;599616457942939236;3884.273;377
2024-05-16T23:21:32.386;599616457950631026;3891.9646;365
2024-05-16T23:21:32.394;599616457958322816;3899.6565;370
2024-05-16T23:21:32.402;599616457966014606;3907.3481;392
2024-05-16T23:21:32.410;599616457973706396;3915.04;384
2024-05-16T23:21:32.417;599616457981398186;3922.7317;361
2024-05-16T23:21:32.425;599616457989105036;3930.4387;342
2024-05-16T23:21:32.433;599616457996796617;3938.1301;323
2024-05-16T23:21:32.440;599616458004488198;3945.822;297
2024-05-16T23:21:32.448;599616458012179779;3953.5134;254
2024-05-16T23:21:32.456;599616458019871360;3961.205;235
2024-05-16T23:21:32.463;599616458027562941;3968.8965;240
2024-05-16T23:21:32.471;599616458035254522;3976.5884;206
2024-05-16T23:21:32.479;599616458042946103;3984.2798;163
2024-05-16T23:21:32.486;599616458050637684;3991.9714;161
2024-05-16T23:21:32.494;599616458058329265;3999.6628;137
2024-05-16T23:21:32.502;599616458066020846;4007.3547;64
2024-05-16T23:21:32.510;599616458073712427;4015.0461;16
2024-05-16T23:21:32.517;599616458081404008;4022.7375;-2
2024-05-16T23:21:32.525;599616458089095589;4030.4292;7
2024-05-16T23:21:32.533;599616458096787170;4038.1208;244
2024-05-16T23:21:32.540;599616458104478751;4045.8125;701
2024-05-16T23:21:32.548;599616458112170332;4053.504;826
2024-05-16T23:21:32.556;599616458119861913;4061.1956;342
2024-05-16T23:21:32.563;599616458127553494;4068.887;-111
2024-05-16T23:21:32.571;599616458135245075;4076.5789;-45
2024-05-16T23:21:32.579;599616458142936656;4084.2703;87
2024-05-16T23:21:32.586;599616458150628237;4091.962;2
2024-05-16T23:21:32.594;599616458158319818;4099.6533;-7
2024-05-16T23:21:32.602;599616458166011399;4107.345;66
2024-05-16T23:21:32.610;599616458173702980;4115.0366;61
2024-05-16T23:21:32.617;599616458181394561;4122.728;42
2024-05-16T23:21:32.625;599616458189086142;4130.42;38
2024-05-16T23:21:32.633;599616458196777723;4138.1113;28
2024-05-16T23:21:32.640;599616458204469304;4145.803;73
2024-05-16T23:21:32.648;599616458212160885;4153.4946;130
2024-05-16T23:21:32.656;599616458219852466;4161.186;128
2024-05-16T23:21:32.663;599616458227544047;4168.878;92
2024-05-16T23:21:32.671;599616458235235628;4176.5693;38
2024-05-16T23:21:32.679;599616458242927209;4184.2607;-2
2024-05-16T23:21:32.686;599616458250618790;4191.952;26
2024-05-16T23:21:32.694;599616458258310371;4199.644;83
2024-05-16T23:21:32.702;599616458266001952;4207.3354;104
2024-05-16T23:21:32.710;599616458273693533;4215.0273;111
2024-05-16T23:21:32.717;599616458281385114;4222.7188;149
2024-05-16T23:21:32.725;599616458289076695;4230.41;199
2024-05-16T23:21:32.733;599616458296768276;4238.102;240
2024-05-16T23:21:32.740;599616458304459857;4245.7935;268
2024-05-16T23:21:32.748;599616458312151438;4253.485;278
2024-05-16T23:21:32.756;599616458319843019;4261.177;292
2024-05-16T23:21:32.763;599616458327534600;4268.868;297
2024-05-16T23:21:32.771;599616458335226181;4276.56;266
2024-05-16T23:21:32.779;599616458342917762;4284.2515;235
2024-05-16T23:21:32.786;599616458350609343;4291.943;223
2024-05-16T23:21:32.794;599616458358300924;4299.635;206
2024-05-16T23:21:32.802;599616458365992505;4307.326;199
2024-05-16T23:21:32.810;599616458373684086;4315.0176;187
2024-05-16T23:21:32.817;599616458381375667;4322.7095;173
2024-05-16T23:21:32.825;599616458389067248;4330.401;166
2024-05-16T23:21:32.833;599616458396758829;4338.093;166
2024-05-16T23:21:32.840;599616458404450410;4345.784;187
2024-05-16T23:21:32.848;599616458412141991;4353.4756;204
2024-05-16T23:21:32.856;599616458419833572;4361.1675;154
2024-05-16T23:21:32.863;599616458427525153;4368.8584;99
2024-05-16T23:21:32.871;599616458435216734;4376.5503;261
2024-05-16T23:21:32.879;599616458442908315;4384.242;717
2024-05-16T23:21:32.886;599616458450599896;4391.9336;1047
2024-05-16T23:21:32.894;599616458458291477;4399.625;793
2024-05-16T23:21:32.902;599616458465983058;4407.3164;256
2024-05-16T23:21:32.910;599616458473674639;4415.0083;85
2024-05-16T23:21:32.917;599616458481366220;4422.7;192
2024-05-16T23:21:32.925;599616458489057801;4430.391;163
2024-05-16T23:21:32.933;599616458496749382;4438.083;106
2024-05-16T23:21:32.940;599616458504440963;4445.775;152
2024-05-16T23:21:32.948;599616458512132544;4453.4663;130
2024-05-16T23:21:32.956;599616458519824125;4461.1577;66
2024-05-16T23:21:32.963;599616458527515706;4468.849;111
2024-05-16T23:21:32.971;599616458535207287;4476.541;166
2024-05-16T23:21:32.979;599616458542898868;4484.233;128
2024-05-16T23:21:32.986;599616458550590458;4491.924;130
2024-05-16T23:21:32.994;599616458558282039;4499.6157;140
2024-05-16T23:21:33.002;599616458565973620;4507.3076;40
2024-05-16T23:21:33.009;599616458573665201;4514.999;-38
2024-05-16T23:21:33.017;599616458581356782;4522.6904;2
2024-05-16T23:21:33.025;599616458589048363;4530.382;42
2024-05-16T23:21:33.033;599616458596739944;4538.0737;11
2024-05-16T23:21:33.040;599616458604431525;4545.765;-66
2024-05-16T23:21:33.048;599616458612123106;4553.4565;-99
2024-05-16T23:21:33.056;599616458619814687;4561.1484;-16
2024-05-16T23:21:33.063;599616458627506268;4568.84;54
2024-05-16T23:21:33.071;599616458635197849;4576.5312;49
2024-05-16T23:21:33.079;599616458642889430;4584.223;68
2024-05-16T23:21:33.086;599616458650581011;4591.9146;92
2024-05-16T23:21:33.094;599616458658272592;4599.6064;90
2024-05-16T23:21:33.102;599616458665964173;4607.298;97
2024-05-16T23:21:33.109;599616458673655754;4614.9893;71
2024-05-16T23:21:33.117;599616458681347335;4622.681;26
2024-05-16T23:21:33.125;599616458689038916;4630.3726;9
2024-05-16T23:21:33.133;599616458696730497;4638.064;-28
2024-05-16T23:21:33.140;599616458704422078;4645.756;-64
2024-05-16T23:21:33.148;599616458712113659;4653.4473;-26
2024-05-16T23:21:33.156;599616458719805240;4661.139;14
2024-05-16T23:21:33.163;599616458727496821;4668.8306;-30
2024-05-16T23:21:33.171;599616458735188402;4676.522;-87
2024-05-16T23:21:33.179;599616458742879983;4684.214;-80
2024-05-16T23:21:33.186;599616458750571564;4691.905;-57
2024-05-16T23:21:33.194;599616458758263145;4699.5967;-73
2024-05-16T23:21:33.202;599616458765954726;4707.2886;-111
2024-05-16T23:21:33.209;599616458773646307;4714.98;-7
2024-05-16T23:21:33.217;599616458781337888;4722.6714;403
2024-05-16T23:21:33.225;599616458789029469;4730.363;805
2024-05-16T23:21:33.233;599616458796721050;4738.0547;670
2024-05-16T23:21:33.240;599616458804412631;4745.7466;137
2024-05-16T23:21:33.248;599616458812104212;4753.4375;-111
2024-05-16T23:21:33.256;599616458819795793;4761.1294;26
2024-05-16T23:21:33.263;599616458827487374;4768.8213;80
2024-05-16T23:21:33.271;599616458835178955;4776.5127;-26
2024-05-16T23:21:33.279;599616458842870536;4784.204;-54
2024-05-16T23:21:33.286;599616458850562117;4791.8955;-21
2024-05-16T23:21:33.294;599616458858253698;4799.5874;9
2024-05-16T23:21:33.302;599616458865945279;4807.2793;19
2024-05-16T23:21:33.309;599616458873636860;4814.97;2
2024-05-16T23:21:33.317;599616458881328441;4822.662;14
2024-05-16T23:21:33.325;599616458889020022;4830.354;66
2024-05-16T23:21:33.333;599616458896711603;4838.0454;87
2024-05-16T23:21:33.340;599616458904403184;4845.737;83
2024-05-16T23:21:33.348;599616458912094765;4853.428;114
2024-05-16T23:21:33.356;599616458919786346;4861.12;128
2024-05-16T23:21:33.363;599616458927477927;4868.812;109
2024-05-16T23:21:33.371;599616458935169508;4876.503;116
2024-05-16T23:21:33.379;599616458942861089;4884.195;121
2024-05-16T23:21:33.386;599616458950552670;4891.886;159
2024-05-16T23:21:33.394;599616458958244251;4899.5776;244
2024-05-16T23:21:33.402;599616458965935832;4907.2695;266
2024-05-16T23:21:33.409;599616458973627413;4914.961;225
2024-05-16T23:21:33.417;599616458981318994;4922.653;211
2024-05-16T23:21:33.425;599616458989010575;4930.344;206
2024-05-16T23:21:33.433;599616458996702156;4938.0356;185
2024-05-16T23:21:33.440;599616459004393737;4945.7275;152
2024-05-16T23:21:33.448;599616459012085318;4953.419;125
2024-05-16T23:21:33.456;599616459019776899;4961.1104;114
2024-05-16T23:21:33.463;599616459027468480;4968.8022;68
2024-05-16T23:21:33.471;599616459035160061;4976.4937;16
2024-05-16T23:21:33.479;599616459042851642;4984.1855;28
2024-05-16T23:21:33.486;599616459050543223;4991.877;76
2024-05-16T23:21:33.494;599616459058234804;4999.5684;71
2024-05-16T23:21:33.502;599616459065926385;5007.2603;4
2024-05-16T23:21:33.509;599616459073617966;5014.9517;-64
2024-05-16T23:21:33.517;599616459081309547;5022.643;-118
2024-05-16T23:21:33.525;599616459089001128;5030.335;-130
2024-05-16T23:21:33.533;599616459096692709;5038.0264;-97
2024-05-16T23:21:33.540;599616459104384290;5045.718;-106
2024-05-16T23:21:33.548;599616459112090930;5053.425;-125
2024-05-16T23:21:33.556;599616459119782302;5061.1157;102
2024-05-16T23:21:33.563;599616459127473674;5068.807;615
2024-05-16T23:21:33.571;599616459135165046;5076.499;888
2024-05-16T23:21:33.579;599616459142856418;5084.1904;494
2024-05-16T23:21:33.586;599616459150547790;5091.8813;-80
2024-05-16T23:21:33.594;599616459158239162;5099.5728;-125
2024-05-16T23:21:33.602;599616459165930534;5107.264;73
2024-05-16T23:21:33.609;599616459173621906;5114.9556;-33
2024-05-16T23:21:33.617;599616459181313278;5122.647;-166
2024-05-16T23:21:33.625;599616459189004650;5130.3384;-57
2024-05-16T23:21:33.633;599616459196696022;5138.03;-4
2024-05-16T23:21:33.640;599616459204387394;5145.7207;-92
2024-05-16T23:21:33.648;599616459212078766;5153.4126;-118
2024-05-16T23:21:33.656;599616459219770138;5161.104;-92
2024-05-16T23:21:33.663;599616459227461510;5168.795;-90
2024-05-16T23:21:33.671;599616459235152882;5176.4863;-73
2024-05-16T23:21:33.679;599616459242844254;5184.1777;-35
2024-05-16T23:21:33.686;599616459250535626;5191.8696;-7
2024-05-16T23:21:33.694;599616459258226998;5199.5605;4
2024-05-16T23:21:33.702;599616459265918370;5207.252;-9
2024-05-16T23:21:33.709;599616459273609742;5214.9434;-2
2024-05-16T23:21:33.717;599616459281301114;5222.635;66
2024-05-16T23:21:33.725;599616459288992486;5230.326;111
2024-05-16T23:21:33.733;599616459296683858;5238.0176;109
2024-05-16T23:21:33.740;599616459304375230;5245.709;144
2024-05-16T23:21:33.748;599616459312066602;5253.4;204
2024-05-16T23:21:33.756;599616459319757974;5261.092;211
2024-05-16T23:21:33.763;599616459327449346;5268.783;190
2024-05-16T23:21:33.771;599616459335140718;5276.4746;180
2024-05-16T23:21:33.779;599616459342832090;5284.1655;156
2024-05-16T23:21:33.786;599616459350523462;5291.857;111
2024-05-16T23:21:33.794;599616459358214834;5299.549;76
2024-05-16T23:21:33.802;599616459365906206;5307.2397;73
2024-05-16T23:21:33.809;599616459373597578;5314.931;104
2024-05-16T23:21:33.817;599616459381288950;5322.6226;118
2024-05-16T23:21:33.825;599616459388980322;5330.3145;90
2024-05-16T23:21:33.833;599616459396671694;5338.0054;92
2024-05-16T23:21:33.840;599616459404363066;5345.697;130
2024-05-16T23:21:33.848;599616459412054438;5353.388;137
2024-05-16T23:21:33.856;599616459419745810;5361.079;140
2024-05-16T23:21:33.863;599616459427437182;5368.771;173
2024-05-16T23:21:33.871;599616459435128554;5376.4624;175
2024-05-16T23:21:33.879;599616459442819926;5384.154;133
2024-05-16T23:21:33.886;599616459450511298;5391.8447;97
2024-05-16T23:21:33.894;599616459458202670;5399.536;140
2024-05-16T23:21:33.902;599616459465894042;5407.228;415
2024-05-16T23:21:33.909;599616459473585414;5414.919;872
2024-05-16T23:21:33.917;599616459481276786;5422.6104;1021
2024-05-16T23:21:33.925;599616459488968158;5430.302;563
2024-05-16T23:21:33.932;599616459496659530;5437.993;28
2024-05-16T23:21:33.940;599616459504350902;5445.6846;42
2024-05-16T23:21:33.948;599616459512042274;5453.376;242
2024-05-16T23:21:33.956;599616459519733646;5461.0674;171
2024-05-16T23:21:33.963;599616459527425018;5468.7583;102
2024-05-16T23:21:33.971;599616459535116390;5476.45;178
2024-05-16T23:21:33.979;599616459542807762;5484.1416;211
2024-05-16T23:21:33.986;599616459550499134;5491.833;220
2024-05-16T23:21:33.994;599616459558190506;5499.524;259
2024-05-16T23:21:34.002;599616459565881878;5507.2153;266
2024-05-16T23:21:34.009;599616459573573250;5514.907;204
2024-05-16T23:21:34.017;599616459581264622;5522.5986;128
2024-05-16T23:21:34.025;599616459588955994;5530.2896;135
2024-05-16T23:21:34.032;599616459596647366;5537.981;180
2024-05-16T23:21:34.040;599616459604338738;5545.6724;197
2024-05-16T23:21:34.048;599616459612030110;5553.364;213
2024-05-16T23:21:34.056;599616459619721482;5561.055;220
2024-05-16T23:21:34.063;599616459627412854;5568.7466;206
2024-05-16T23:21:34.071;599616459635104226;5576.438;244
2024-05-16T23:21:34.079;599616459642795598;5584.129;325
2024-05-16T23:21:34.086;599616459650486970;5591.821;370
2024-05-16T23:21:34.094;599616459658178342;5599.512;363
2024-05-16T23:21:34.102;599616459665869714;5607.203;368
2024-05-16T23:21:34.109;599616459673530998;5614.8647;411
2024-05-16T23:21:34.117;599616459681222788;5622.5566;439
2024-05-16T23:21:34.125;599616459688914578;5630.2485;451
2024-05-16T23:21:34.132;599616459696606368;5637.9404;468
2024-05-16T23:21:34.140;599616459704298158;5645.632;470
2024-05-16T23:21:34.148;599616459711989948;5653.3237;434
2024-05-16T23:21:34.156;599616459719681738;5661.0156;394
2024-05-16T23:21:34.163;599616459727373528;5668.7075;406
2024-05-16T23:21:34.171;599616459735065318;5676.399;439
2024-05-16T23:21:34.179;599616459742757108;5684.091;420
2024-05-16T23:21:34.186;599616459750448898;5691.7827;354
2024-05-16T23:21:34.194;599616459758140688;5699.4746;335
2024-05-16T23:21:34.202;599616459765832478;5707.166;382
2024-05-16T23:21:34.209;599616459773524268;5714.858;384
2024-05-16T23:21:34.217;599616459781216058;5722.55;356
2024-05-16T23:21:34.225;599616459788907848;5730.2417;354
2024-05-16T23:21:34.232;599616459796599638;5737.933;337
2024-05-16T23:21:34.240;599616459804291428;5745.625;441
2024-05-16T23:21:34.248;599616459811983218;5753.317;879
2024-05-16T23:21:34.256;599616459819675008;5761.009;1318
2024-05-16T23:21:34.263;599616459827366798;5768.7;1154
2024-05-16T23:21:34.271;599616459835058588;5776.392;539
2024-05-16T23:21:34.279;599616459842750378;5784.084;240
2024-05-16T23:21:34.286;599616459850442168;5791.776;361
2024-05-16T23:21:34.294;599616459858133958;5799.4673;380
2024-05-16T23:21:34.302;599616459865825748;5807.159;280
2024-05-16T23:21:34.309;599616459873517538;5814.851;308
2024-05-16T23:21:34.317;599616459881209328;5822.543;363
2024-05-16T23:21:34.325;599616459888901118;5830.235;356
2024-05-16T23:21:34.332;599616459896592908;5837.9263;349
2024-05-16T23:21:34.340;599616459904284698;5845.618;349
2024-05-16T23:21:34.348;599616459911976488;5853.31;358
2024-05-16T23:21:34.356;599616459919668278;5861.002;394
2024-05-16T23:21:34.363;599616459927360068;5868.6934;401
2024-05-16T23:21:34.371;599616459935051858;5876.3853;396
2024-05-16T23:21:34.379;599616459942743648;5884.077;415
2024-05-16T23:21:34.386;599616459950435438;5891.7695;406
2024-05-16T23:21:34.394;599616459958127228;5899.461;361
2024-05-16T23:21:34.402;599616459965819018;5907.153;346
2024-05-16T23:21:34.409;599616459973510808;5914.8447;365
2024-05-16T23:21:34.417;599616459981202598;5922.5366;361
2024-05-16T23:21:34.425;599616459988894388;5930.228;361
2024-05-16T23:21:34.432;599616459996586178;5937.92;396
2024-05-16T23:21:34.440;599616460004277968;5945.612;408
2024-05-16T23:21:34.448;599616460011969758;5953.3037;358
2024-05-16T23:21:34.455;599616460019661548;5960.995;313
2024-05-16T23:21:34.463;599616460027353338;5968.687;292
2024-05-16T23:21:34.471;599616460035045128;5976.379;249
2024-05-16T23:21:34.479;599616460042736918;5984.071;201
2024-05-16T23:21:34.486;599616460050428708;5991.762;201
2024-05-16T23:21:34.494;599616460058120498;5999.454;244
2024-05-16T23:21:34.502;599616460065812288;6007.146;278
2024-05-16T23:21:34.509;599616460073504078;6014.838;254
2024-05-16T23:21:34.517;599616460081195868;6022.5293;168
2024-05-16T23:21:34.525;599616460088887658;6030.221;130
2024-05-16T23:21:34.532;599616460096579448;6037.913;182
2024-05-16T23:21:34.540;599616460104271238;6045.605;187
2024-05-16T23:21:34.548;599616460111963028;6053.297;147
2024-05-16T23:21:34.555;599616460119654818;6060.9883;180
2024-05-16T23:21:34.563;599616460127346608;6068.68;190
2024-05-16T23:21:34.571;599616460135038398;6076.372;109
2024-05-16T23:21:34.579;599616460142730188;6084.064;118
2024-05-16T23:21:34.586;599616460150421978;6091.7554;427
2024-05-16T23:21:34.594;599616460158113768;6099.4473;922
2024-05-16T23:21:34.602;599616460165805558;6107.139;1107
2024-05-16T23:21:34.609;599616460173497348;6114.831;670
2024-05-16T23:21:34.617;599616460181189138;6122.5225;99
2024-05-16T23:21:34.625;599616460188880928;6130.2144;40
2024-05-16T23:21:34.632;599616460196572718;6137.9062;204
2024-05-16T23:21:34.640;599616460204264508;6145.598;102
2024-05-16T23:21:34.648;599616460211956298;6153.2896;-14
2024-05-16T23:21:34.655;599616460219648088;6160.9814;33
2024-05-16T23:21:34.663;599616460227339878;6168.674;54
2024-05-16T23:21:34.671;599616460235061776;6176.3955;33
2024-05-16T23:21:34.679;599616460242753148;6184.087;64
2024-05-16T23:21:34.686;599616460250444520;6191.7783;125
2024-05-16T23:21:34.694;599616460258135892;6199.4697;156
2024-05-16T23:21:34.702;599616460265827264;6207.1606;116
2024-05-16T23:21:34.709;599616460273518636;6214.852;102
2024-05-16T23:21:34.717;599616460281210008;6222.544;154
2024-05-16T23:21:34.725;599616460288901380;6230.2354;130
2024-05-16T23:21:34.732;599616460296592752;6237.9263;78
2024-05-16T23:21:34.740;599616460304284124;6245.6177;116
2024-05-16T23:21:34.748;599616460311975496;6253.309;133
2024-05-16T23:21:34.756;599616460319666868;6261.0005;97
2024-05-16T23:21:34.763;599616460327358240;6268.692;118
2024-05-16T23:21:34.771;599616460335049612;6276.3833;168
2024-05-16T23:21:34.779;599616460342740984;6284.0747;156
2024-05-16T23:21:34.786;599616460350432356;6291.766;130
2024-05-16T23:21:34.794;599616460358123728;6299.4575;149
2024-05-16T23:21:34.802;599616460365815100;6307.149;135
2024-05-16T23:21:34.809;599616460373506472;6314.84;68
2024-05-16T23:21:34.817;599616460381197844;6322.5312;73
2024-05-16T23:21:34.825;599616460388889216;6330.223;144
2024-05-16T23:21:34.832;599616460396580588;6337.9146;163
2024-05-16T23:21:34.840;599616460404271960;6345.6055;125
2024-05-16T23:21:34.848;599616460411963332;6353.297;104
2024-05-16T23:21:34.855;599616460419654704;6360.9883;147
2024-05-16T23:21:34.863;599616460427346076;6368.68;220
2024-05-16T23:21:34.871;599616460435037448;6376.371;225
2024-05-16T23:21:34.879;599616460442728820;6384.0625;173
2024-05-16T23:21:34.886;599616460450420192;6391.754;125
2024-05-16T23:21:34.894;599616460458111564;6399.445;109
2024-05-16T23:21:34.902;599616460465802936;6407.1367;114
2024-05-16T23:21:34.909;599616460473494308;6414.828;87
2024-05-16T23:21:34.917;599616460481185680;6422.5195;61
2024-05-16T23:21:34.925;599616460488877052;6430.2104;163
2024-05-16T23:21:34.932;599616460496568424;6437.9023;491
2024-05-16T23:21:34.940;599616460504259796;6445.5938;855
2024-05-16T23:21:34.948;599616460511951168;6453.2847;824
2024-05-16T23:21:34.955;599616460519642540;6460.976;346
2024-05-16T23:21:34.963;599616460527333912;6468.6675;-4
2024-05-16T23:21:34.971;599616460535025284;6476.3594;45
2024-05-16T23:21:34.979;599616460542716656;6484.0503;116
2024-05-16T23:21:34.986;599616460550408028;6491.7417;45
2024-05-16T23:21:34.994;599616460558099400;6499.433;14
2024-05-16T23:21:35.002;599616460565790772;6507.124;64
2024-05-16T23:21:35.009;599616460573482144;6514.816;128
2024-05-16T23:21:35.017;599616460581173516;6522.5073;99
2024-05-16T23:21:35.025;599616460588864888;6530.1987;11
2024-05-16T23:21:35.032;599616460596556260;6537.8896;2
2024-05-16T23:21:35.040;599616460604247632;6545.581;49
2024-05-16T23:21:35.048;599616460611939004;6553.273;57
2024-05-16T23:21:35.055;599616460619630376;6560.964;64
2024-05-16T23:21:35.063;599616460627321748;6568.6553;95
2024-05-16T23:21:35.071;599616460635013120;6576.3467;109
2024-05-16T23:21:35.079;599616460642704492;6584.0386;109
2024-05-16T23:21:35.086;599616460650395864;6591.7295;109
2024-05-16T23:21:35.094;599616460658087236;6599.421;147
2024-05-16T23:21:35.102;599616460665778608;6607.1123;173
2024-05-16T23:21:35.109;599616460673469980;6614.803;123
2024-05-16T23:21:35.117;599616460681161352;6622.495;80
2024-05-16T23:21:35.125;599616460688852724;6630.1865;68
2024-05-16T23:21:35.132;599616460696544096;6637.878;-2
2024-05-16T23:21:35.140;599616460704235468;6645.569;-61
2024-05-16T23:21:35.148;599616460711926840;6653.2603;-23
2024-05-16T23:21:35.155;599616460719618212;6660.952;-21
2024-05-16T23:21:35.163;599616460727309584;6668.6436;-71
2024-05-16T23:21:35.171;599616460735000956;6676.3345;-68
2024-05-16T23:21:35.179;599616460742692328;6684.026;-42
2024-05-16T23:21:35.186;599616460750383700;6691.7173;-38
2024-05-16T23:21:35.194;599616460758075072;6699.4087;-26
2024-05-16T23:21:35.202;599616460765766444;6707.1;-2
2024-05-16T23:21:35.209;599616460773457816;6714.7915;26
2024-05-16T23:21:35.217;599616460781149188;6722.483;23
2024-05-16T23:21:35.225;599616460788840560;6730.1743;23
2024-05-16T23:21:35.232;599616460796501844;6737.8354;47
2024-05-16T23:21:35.240;599616460804193634;6745.5273;42
2024-05-16T23:21:35.248;599616460811885424;6753.219;35
2024-05-16T23:21:35.255;599616460819577214;6760.9106;-33
2024-05-16T23:21:35.263;599616460827269004;6768.6025;-130
2024-05-16T23:21:35.271;599616460834960794;6776.2944;102
2024-05-16T23:21:35.278;599616460842652584;6783.9863;620
2024-05-16T23:21:35.286;599616460850344374;6791.6777;753
2024-05-16T23:21:35.294;599616460858036164;6799.3696;275
2024-05-16T23:21:35.302;599616460865727954;6807.0615;-180
2024-05-16T23:21:35.309;599616460873419744;6814.7534;-166
2024-05-16T23:21:35.317;599616460881111534;6822.445;-59
2024-05-16T23:21:35.325;599616460888803324;6830.1367;-137
2024-05-16T23:21:35.332;599616460896495114;6837.8286;-144
2024-05-16T23:21:35.340;599616460904186904;6845.5205;-73
2024-05-16T23:21:35.348;599616460911878694;6853.2124;-109
2024-05-16T23:21:35.355;599616460919570484;6860.904;-135
2024-05-16T23:21:35.363;599616460927262274;6868.5957;-64
2024-05-16T23:21:35.371;599616460934954064;6876.2876;-14
2024-05-16T23:21:35.378;599616460942645854;6883.9795;-28
2024-05-16T23:21:35.386;599616460950337644;6891.6714;-64
2024-05-16T23:21:35.394;599616460958029434;6899.3633;-71
2024-05-16T23:21:35.402;599616460965721224;6907.055;-40
2024-05-16T23:21:35.409;599616460973413014;6914.747;4
2024-05-16T23:21:35.417;599616460981104804;6922.4385;21
2024-05-16T23:21:35.425;599616460988796594;6930.1304;38
2024-05-16T23:21:35.432;599616460996488384;6937.8223;68
2024-05-16T23:21:35.440;599616461004180174;6945.514;57
2024-05-16T23:21:35.448;599616461011871964;6953.2056;23
2024-05-16T23:21:35.455;599616461019563754;6960.8975;28
2024-05-16T23:21:35.463;599616461027255544;6968.5894;2
2024-05-16T23:21:35.471;599616461034947334;6976.2812;-57
2024-05-16T23:21:35.478;599616461042639124;6983.9727;-38
2024-05-16T23:21:35.486;599616461050330914;6991.6646;0
2024-05-16T23:21:35.494;599616461058022704;6999.3564;-28
2024-05-16T23:21:35.502;599616461065714494;7007.0483;-49
2024-05-16T23:21:35.509;599616461073406284;7014.7397;-38
2024-05-16T23:21:35.517;599616461081098074;7022.4316;-33
2024-05-16T23:21:35.525;599616461088789864;7030.1235;-71
2024-05-16T23:21:35.532;599616461096481654;7037.8154;-144
2024-05-16T23:21:35.540;599616461104173444;7045.507;-149
2024-05-16T23:21:35.548;599616461111865234;7053.1987;-92
2024-05-16T23:21:35.555;599616461119557024;7060.8906;-76
2024-05-16T23:21:35.563;599616461127248814;7068.5825;-87
2024-05-16T23:21:35.571;599616461134940604;7076.2744;-71
2024-05-16T23:21:35.578;599616461142632394;7083.966;-45
2024-05-16T23:21:35.586;599616461150324184;7091.6577;-35
2024-05-16T23:21:35.594;599616461158015974;7099.3496;-40
2024-05-16T23:21:35.602;599616461165707764;7107.0415;-71
2024-05-16T23:21:35.609;599616461173399554;7114.733;-33
2024-05-16T23:21:35.617;599616461181091344;7122.425;235
2024-05-16T23:21:35.625;599616461188783134;7130.1167;643
2024-05-16T23:21:35.632;599616461196474924;7137.8086;760
2024-05-16T23:21:35.640;599616461204166714;7145.5;325
2024-05-16T23:21:35.648;599616461211858504;7153.192;-180
2024-05-16T23:21:35.655;599616461219550294;7160.884;-197
2024-05-16T23:21:35.663;599616461227242084;7168.576;-21
2024-05-16T23:21:35.671;599616461234933874;7176.2676;-73
2024-05-16T23:21:35.678;599616461242625664;7183.9595;-135
2024-05-16T23:21:35.686;599616461250317454;7191.6514;-64
2024-05-16T23:21:35.694;599616461258009244;7199.3433;-19
2024-05-16T23:21:35.702;599616461265701034;7207.0347;-7
2024-05-16T23:21:35.709;599616461273392824;7214.7266;16
2024-05-16T23:21:35.717;599616461281084614;7222.4185;28
2024-05-16T23:21:35.725;599616461288776404;7230.1104;64
2024-05-16T23:21:35.732;599616461296468194;7237.802;111
2024-05-16T23:21:35.740;599616461304159984;7245.4937;97
2024-05-16T23:21:35.748;599616461311851774;7253.1855;83
2024-05-16T23:21:35.755;599616461319543564;7260.8774;123
2024-05-16T23:21:35.763;599616461327235354;7268.569;142
2024-05-16T23:21:35.771;599616461334927144;7276.2607;133
2024-05-16T23:21:35.778;599616461342618934;7283.9526;123
2024-05-16T23:21:35.786;599616461350310724;7291.6445;104
2024-05-16T23:21:35.794;599616461358032622;7299.366;102
2024-05-16T23:21:35.802;599616461365723994;7307.0576;90
2024-05-16T23:21:35.809;599616461373415366;7314.749;45
2024-05-16T23:21:35.817;599616461381106738;7322.4404;33
2024-05-16T23:21:35.825;599616461388798110;7330.132;54
2024-05-16T23:21:35.832;599616461396489482;7337.823;42
2024-05-16T23:21:35.840;599616461404180854;7345.5146;30
2024-05-16T23:21:35.848;599616461411872226;7353.2056;45
2024-05-16T23:21:35.855;599616461419563598;7360.897;11
2024-05-16T23:21:35.863;599616461427254970;7368.589;-76
2024-05-16T23:21:35.871;599616461434946342;7376.2803;-116
2024-05-16T23:21:35.878;599616461442637714;7383.971;-104
2024-05-16T23:21:35.886;599616461450329086;7391.6626;-99
2024-05-16T23:21:35.894;599616461458020458;7399.3545;-102
2024-05-16T23:21:35.902;599616461465711830;7407.0454;-99
2024-05-16T23:21:35.909;599616461473403202;7414.737;-92
2024-05-16T23:21:35.917;599616461481094574;7422.428;-73
2024-05-16T23:21:35.925;599616461488785946;7430.1196;-42
2024-05-16T23:21:35.932;599616461496477318;7437.811;-4
2024-05-16T23:21:35.940;599616461504168690;7445.5024;2
2024-05-16T23:21:35.948;599616461511860062;7453.194;-66
2024-05-16T23:21:35.955;599616461519551434;7460.885;-118
2024-05-16T23:21:35.963;599616461527242806;7468.576;104
2024-05-16T23:21:35.971;599616461534934178;7476.268;613
2024-05-16T23:21:35.978;599616461542625550;7483.9595;907
2024-05-16T23:21:35.986;599616461550316922;7491.6504;558
2024-05-16T23:21:35.994;599616461558008294;7499.342;-40
2024-05-16T23:21:36.002;599616461565699666;7507.033;-173
2024-05-16T23:21:36.009;599616461573391038;7514.725;7
2024-05-16T23:21:36.017;599616461581082410;7522.416;-2
2024-05-16T23:21:36.025;599616461588773782;7530.1074;-92
2024-05-16T23:21:36.032;599616461596465154;7537.799;-128
2024-05-16T23:21:36.040;599616461604156526;7545.49;-163
2024-05-16T23:21:36.048;599616461611847898;7553.1816;-149
2024-05-16T23:21:36.055;599616461619539270;7560.873;-80
2024-05-16T23:21:36.063;599616461627230642;7568.5645;-30
2024-05-16T23:21:36.071;599616461634922014;7576.2554;-14
2024-05-16T23:21:36.078;599616461642613386;7583.9473;-11
2024-05-16T23:21:36.086;599616461650304758;7591.6387;14
2024-05-16T23:21:36.094;599616461657996130;7599.3296;68
2024-05-16T23:21:36.102;599616461665687502;7607.021;83
2024-05-16T23:21:36.109;599616461673378874;7614.7124;64
2024-05-16T23:21:36.117;599616461681070246;7622.4043;35
2024-05-16T23:21:36.125;599616461688761618;7630.095;-30
2024-05-16T23:21:36.132;599616461696452990;7637.7866;-83
2024-05-16T23:21:36.140;599616461704144362;7645.478;-66
2024-05-16T23:21:36.148;599616461711835734;7653.169;-26
2024-05-16T23:21:36.155;599616461719527106;7660.861;-4
2024-05-16T23:21:36.163;599616461727218478;7668.5522;-4
2024-05-16T23:21:36.171;599616461734909850;7676.2437;-2
2024-05-16T23:21:36.178;599616461742601222;7683.9346;23
2024-05-16T23:21:36.186;599616461750292594;7691.6265;49
2024-05-16T23:21:36.194;599616461757983966;7699.318;45
2024-05-16T23:21:36.202;599616461765675338;7707.009;45
2024-05-16T23:21:36.209;599616461773366710;7714.7;99
2024-05-16T23:21:36.217;599616461781058082;7722.3916;128
2024-05-16T23:21:36.225;599616461788749454;7730.0835;97
2024-05-16T23:21:36.232;599616461796440826;7737.7744;121
2024-05-16T23:21:36.240;599616461804132198;7745.466;175
2024-05-16T23:21:36.248;599616461811823570;7753.157;173
2024-05-16T23:21:36.255;599616461819514942;7760.848;180
2024-05-16T23:21:36.263;599616461827206314;7768.54;225
2024-05-16T23:21:36.271;599616461834897686;7776.2314;220
2024-05-16T23:21:36.278;599616461842589058;7783.923;192
2024-05-16T23:21:36.286;599616461850280430;7791.614;199
2024-05-16T23:21:36.294;599616461857971802;7799.305;142
2024-05-16T23:21:36.301;599616461865663174;7806.997;71
2024-05-16T23:21:36.309;599616461873354546;7814.6885;278
2024-05-16T23:21:36.317;599616461881045918;7822.3794;762
2024-05-16T23:21:36.325;599616461888737290;7830.071;1055
2024-05-16T23:21:36.332;599616461896428662;7837.7627;772
2024-05-16T23:21:36.340;599616461904120034;7845.4536;197
2024-05-16T23:21:36.348;599616461911811406;7853.145;19
2024-05-16T23:21:36.355;599616461919472690;7860.806;185
2024-05-16T23:21:36.363;599616461927164480;7868.498;123
2024-05-16T23:21:36.371;599616461934856270;7876.1895;-38
2024-05-16T23:21:36.378;599616461942548060;7883.8813;23
2024-05-16T23:21:36.386;599616461950239850;7891.5737;118
2024-05-16T23:21:36.394;599616461957931640;7899.2656;104
2024-05-16T23:21:36.401;599616461965623430;7906.9575;90
2024-05-16T23:21:36.409;599616461973315220;7914.649;116
2024-05-16T23:21:36.417;599616461981007010;7922.341;144
2024-05-16T23:21:36.425;599616461988698800;7930.0327;130
2024-05-16T23:21:36.432;599616461996390590;7937.7246;73
2024-05-16T23:21:36.440;599616462004082380;7945.416;83
2024-05-16T23:21:36.448;599616462011774170;7953.108;116
2024-05-16T23:21:36.455;599616462019465960;7960.8;49
2024-05-16T23:21:36.463;599616462027157750;7968.4917;-16
2024-05-16T23:21:36.471;599616462034849540;7976.183;-23
2024-05-16T23:21:36.478;599616462042541330;7983.875;-42
2024-05-16T23:21:36.486;599616462050233120;7991.567;-54
2024-05-16T23:21:36.494;599616462057924910;7999.259;-23
2024-05-16T23:21:36.501;599616462065616700;8006.95;2
2024-05-16T23:21:36.509;599616462073308490;8014.642;16
2024-05-16T23:21:36.517;599616462081000280;8022.334;33
2024-05-16T23:21:36.525;599616462088692070;8030.026;30
2024-05-16T23:21:36.532;599616462096383860;8037.7173;-9
2024-05-16T23:21:36.540;599616462104075650;8045.409;-73
2024-05-16T23:21:36.548;599616462111767440;8053.101;-109
2024-05-16T23:21:36.555;599616462119459230;8060.793;-102
2024-05-16T23:21:36.563;599616462127151020;8068.4844;-52
2024-05-16T23:21:36.571;599616462134842810;8076.1763;19
2024-05-16T23:21:36.578;599616462142534600;8083.868;57
2024-05-16T23:21:36.586;599616462150226390;8091.56;49
2024-05-16T23:21:36.594;599616462157918180;8099.252;52
2024-05-16T23:21:36.601;599616462165609970;8106.9434;78
2024-05-16T23:21:36.609;599616462173301760;8114.6353;78
2024-05-16T23:21:36.617;599616462180993550;8122.327;64
2024-05-16T23:21:36.625;599616462188685340;8130.019;90
2024-05-16T23:21:36.632;599616462196377130;8137.7104;71
2024-05-16T23:21:36.640;599616462204068920;8145.4023;-52
2024-05-16T23:21:36.648;599616462211760710;8153.094;-85
2024-05-16T23:21:36.655;599616462219452500;8160.786;204
2024-05-16T23:21:36.663;599616462227144290;8168.4775;696
2024-05-16T23:21:36.671;599616462234836080;8176.17;948
2024-05-16T23:21:36.678;599616462242527870;8183.862;634
2024-05-16T23:21:36.686;599616462250219660;8191.5537;92
2024-05-16T23:21:36.694;599616462257911450;8199.245;-30
2024-05-16T23:21:36.701;599616462265603240;8206.9375;128
2024-05-16T23:21:36.709;599616462273295030;8214.629;111
2024-05-16T23:21:36.717;599616462280986820;8222.32;68
2024-05-16T23:21:36.725;599616462288678610;8230.013;121
2024-05-16T23:21:36.732;599616462296370400;8237.704;123
2024-05-16T23:21:36.740;599616462304062190;8245.3955;116
2024-05-16T23:21:36.748;599616462311753980;8253.088;166
2024-05-16T23:21:36.755;599616462319445770;8260.779;204
2024-05-16T23:21:36.763;599616462327137560;8268.472;228
2024-05-16T23:21:36.771;599616462334829350;8276.163;251
2024-05-16T23:21:36.778;599616462342521140;8283.8545;261
2024-05-16T23:21:36.786;599616462350212930;8291.547;249
2024-05-16T23:21:36.794;599616462357904720;8299.238;209
2024-05-16T23:21:36.801;599616462365596510;8306.931;173
2024-05-16T23:21:36.809;599616462373288300;8314.622;154
2024-05-16T23:21:36.817;599616462380980090;8322.313;99
2024-05-16T23:21:36.825;599616462388671880;8330.006;45
2024-05-16T23:21:36.832;599616462396363670;8337.697;68
2024-05-16T23:21:36.840;599616462404055460;8345.389;130
2024-05-16T23:21:36.848;599616462411747250;8353.081;159
2024-05-16T23:21:36.855;599616462419439040;8360.772;152
2024-05-16T23:21:36.863;599616462427130830;8368.465;128
2024-05-16T23:21:36.871;599616462434822620;8376.156;123
2024-05-16T23:21:36.878;599616462442514410;8383.848;135
2024-05-16T23:21:36.886;599616462450206200;8391.54;135
2024-05-16T23:21:36.894;599616462457897990;8399.231;152
2024-05-16T23:21:36.901;599616462465589780;8406.923;190
2024-05-16T23:21:36.909;599616462473281570;8414.615;211
2024-05-16T23:21:36.917;599616462480978412;8422.312;213
2024-05-16T23:21:36.925;599616462488670132;8430.004;228
2024-05-16T23:21:36.932;599616462496361852;8437.695;251
2024-05-16T23:21:36.940;599616462504053572;8445.388;266
2024-05-16T23:21:36.948;599616462511745292;8453.079;278
2024-05-16T23:21:36.955;599616462519437012;8460.7705;287
2024-05-16T23:21:36.963;599616462527128732;8468.463;263
2024-05-16T23:21:36.971;599616462534820452;8476.154;178
2024-05-16T23:21:36.978;599616462542512172;8483.846;80
2024-05-16T23:21:36.986;599616462550203892;8491.537;45
2024-05-16T23:21:36.994;599616462557895612;8499.2295;76
2024-05-16T23:21:37.001;599616462565587332;8506.921;306
2024-05-16T23:21:37.009;599616462573279052;8514.612;748
2024-05-16T23:21:37.017;599616462580970772;8522.305;952
2024-05-16T23:21:37.024;599616462588662492;8529.996;598
2024-05-16T23:21:37.032;599616462596354212;8537.688;92
2024-05-16T23:21:37.040;599616462604045932;8545.38;-26
2024-05-16T23:21:37.048;599616462611737652;8553.071;59
2024-05-16T23:21:37.055;599616462619429372;8560.763;16
2024-05-16T23:21:37.063;599616462627121092;8568.455;-19
2024-05-16T23:21:37.071;599616462634812812;8576.146;45
2024-05-16T23:21:37.078;599616462642504532;8583.838;85
2024-05-16T23:21:37.086;599616462650196252;8591.53;97
2024-05-16T23:21:37.094;599616462657887972;8599.222;111
2024-05-16T23:21:37.101;599616462665579692;8606.913;92
2024-05-16T23:21:37.109;599616462673271412;8614.6045;61
2024-05-16T23:21:37.117;599616462680963132;8622.297;76
2024-05-16T23:21:37.124;599616462688654852;8629.988;97
2024-05-16T23:21:37.132;599616462696346572;8637.681;78
2024-05-16T23:21:37.140;599616462704038292;8645.372;49
2024-05-16T23:21:37.148;599616462711730012;8653.063;21
2024-05-16T23:21:37.155;599616462719421732;8660.756;-30
2024-05-16T23:21:37.163;599616462727113452;8668.446;-49
2024-05-16T23:21:37.171;599616462734805172;8676.139;-16
2024-05-16T23:21:37.178;599616462742496892;8683.83;-7
2024-05-16T23:21:37.186;599616462750188612;8691.522;-7
2024-05-16T23:21:37.194;599616462757880332;8699.214;33
2024-05-16T23:21:37.201;599616462765572052;8706.906;83
2024-05-16T23:21:37.209;599616462773263772;8714.598;104
2024-05-16T23:21:37.217;599616462780955492;8722.29;102
2024-05-16T23:21:37.224;599616462788647212;8729.98;118
2024-05-16T23:21:37.232;599616462796338932;8737.672;140
2024-05-16T23:21:37.240;599616462804030652;8745.364;130
2024-05-16T23:21:37.248;599616462811722372;8753.056;130
2024-05-16T23:21:37.255;599616462819414092;8760.748;171
2024-05-16T23:21:37.263;599616462827105812;8768.439;206
2024-05-16T23:21:37.271;599616462834797532;8776.132;218
2024-05-16T23:21:37.278;599616462842489252;8783.823;225
2024-05-16T23:21:37.286;599616462850180972;8791.515;228
2024-05-16T23:21:37.294;599616462857872692;8799.206;232
2024-05-16T23:21:37.301;599616462865564412;8806.897;240
2024-05-16T23:21:37.309;599616462873256132;8814.59;242
2024-05-16T23:21:37.317;599616462880947852;8822.281;232
2024-05-16T23:21:37.324;599616462888639572;8829.974;199
2024-05-16T23:21:37.332;599616462896331292;8837.665;123
2024-05-16T23:21:37.340;599616462904023012;8845.357;92
2024-05-16T23:21:37.348;599616462911714732;8853.048;323
2024-05-16T23:21:37.355;599616462919406452;8860.74;746
2024-05-16T23:21:37.363;599616462927098172;8868.432;905
2024-05-16T23:21:37.371;599616462934789892;8876.123;546
2024-05-16T23:21:37.378;599616462942481612;8883.815;78
2024-05-16T23:21:37.386;599616462950173332;8891.507;9
2024-05-16T23:21:37.394;599616462957865052;8899.199;128
2024-05-16T23:21:37.401;599616462965556772;8906.891;114
2024-05-16T23:21:37.409;599616462973248492;8914.583;97
2024-05-16T23:21:37.417;599616462980940212;8922.273;137
2024-05-16T23:21:37.424;599616462988631932;8929.966;125
2024-05-16T23:21:37.432;599616462996323652;8937.657;121
2024-05-16T23:21:37.440;599616463004015372;8945.349;171
2024-05-16T23:21:37.448;599616463011707092;8953.041;192
2024-05-16T23:21:37.455;599616463019398812;8960.732;192
2024-05-16T23:21:37.463;599616463027090532;8968.425;220
2024-05-16T23:21:37.471;599616463034782252;8976.115;218
2024-05-16T23:21:37.478;599616463042494094;8983.827;156
2024-05-16T23:21:37.486;599616463050185535;8991.519;109
2024-05-16T23:21:37.494;599616463057876976;8999.211;83
2024-05-16T23:21:37.501;599616463065568417;9006.902;57
2024-05-16T23:21:37.509;599616463073259858;9014.594;30
2024-05-16T23:21:37.517;599616463080951299;9022.285;-2
2024-05-16T23:21:37.524;599616463088642740;9029.976;7
2024-05-16T23:21:37.532;599616463096334181;9037.668;76
2024-05-16T23:21:37.540;599616463104025622;9045.359;83
2024-05-16T23:21:37.548;599616463111717063;9053.051;0
2024-05-16T23:21:37.555;599616463119408504;9060.742;-40
2024-05-16T23:21:37.563;599616463127099945;9068.434;-38
2024-05-16T23:21:37.571;599616463134791386;9076.125;-90
2024-05-16T23:21:37.578;599616463142482827;9083.817;-144
2024-05-16T23:21:37.586;599616463150174268;9091.508;-106
2024-05-16T23:21:37.594;599616463157865709;9099.199;-78
2024-05-16T23:21:37.601;599616463165557150;9106.891;-142
2024-05-16T23:21:37.609;599616463173248591;9114.582;-178
2024-05-16T23:21:37.617;599616463180940032;9122.273;-118
2024-05-16T23:21:37.624;599616463188631473;9129.966;-59
2024-05-16T23:21:37.632;599616463196322914;9137.657;-52
2024-05-16T23:21:37.640;599616463204014355;9145.348;-33
2024-05-16T23:21:37.648;599616463211705796;9153.039;9
2024-05-16T23:21:37.655;599616463219397237;9160.73;-7
2024-05-16T23:21:37.663;599616463227088678;9168.422;-61
2024-05-16T23:21:37.671;599616463234780119;9176.114;-64
2024-05-16T23:21:37.678;599616463242471560;9183.806;-57
2024-05-16T23:21:37.686;599616463250163001;9191.497;-76
2024-05-16T23:21:37.694;599616463257854442;9199.1875;68
2024-05-16T23:21:37.701;599616463265545883;9206.879;510
2024-05-16T23:21:37.709;599616463273237324;9214.57;876
2024-05-16T23:21:37.717;599616463280928765;9222.263;636
2024-05-16T23:21:37.724;599616463288620206;9229.954;68
2024-05-16T23:21:37.732;599616463296311647;9237.6455;-76
2024-05-16T23:21:37.740;599616463304003088;9245.337;102
2024-05-16T23:21:37.748;599616463311694529;9253.028;64
2024-05-16T23:21:37.755;599616463319385970;9260.72;-33
2024-05-16T23:21:37.763;599616463327077411;9268.411;52
2024-05-16T23:21:37.771;599616463334768852;9276.103;118
2024-05-16T23:21:37.778;599616463342460293;9283.794;102
2024-05-16T23:21:37.786;599616463350151734;9291.485;106
2024-05-16T23:21:37.794;599616463357843175;9299.177;137
2024-05-16T23:21:37.801;599616463365534616;9306.869;156
2024-05-16T23:21:37.809;599616463373226057;9314.56;159
2024-05-16T23:21:37.817;599616463380917498;9322.251;142
2024-05-16T23:21:37.824;599616463388608939;9329.942;121
2024-05-16T23:21:37.832;599616463396300380;9337.634;104
2024-05-16T23:21:37.840;599616463403991821;9345.325;35
2024-05-16T23:21:37.848;599616463411683262;9353.018;-54
2024-05-16T23:21:37.855;599616463419374703;9360.709;-52
2024-05-16T23:21:37.863;599616463427066144;9368.399;4
2024-05-16T23:21:37.871;599616463434757585;9376.091;7
2024-05-16T23:21:37.878;599616463442449026;9383.782;0
2024-05-16T23:21:37.886;599616463450140467;9391.474;19
2024-05-16T23:21:37.894;599616463457831908;9399.166;28
2024-05-16T23:21:37.901;599616463465523349;9406.857;23
2024-05-16T23:21:37.909;599616463473214790;9414.549;35
2024-05-16T23:21:37.917;599616463480906231;9422.239;66
2024-05-16T23:21:37.924;599616463488597672;9429.931;66
2024-05-16T23:21:37.932;599616463496289113;9437.622;49
2024-05-16T23:21:37.940;599616463503980554;9445.314;61
2024-05-16T23:21:37.948;599616463511671995;9453.006;95
2024-05-16T23:21:37.955;599616463519363436;9460.697;106
2024-05-16T23:21:37.963;599616463527054877;9468.389;104
2024-05-16T23:21:37.971;599616463534746318;9476.08;114
2024-05-16T23:21:37.978;599616463542437759;9483.771;121
2024-05-16T23:21:37.986;599616463550129200;9491.463;121
2024-05-16T23:21:37.994;599616463557820641;9499.154;114
2024-05-16T23:21:38.001;599616463565512082;9506.846;97
2024-05-16T23:21:38.009;599616463573203523;9514.537;95
2024-05-16T23:21:38.017;599616463580894964;9522.229;85
2024-05-16T23:21:38.024;599616463588586405;9529.921;35
2024-05-16T23:21:38.032;599616463596277846;9537.611;-21
2024-05-16T23:21:38.040;599616463603944218;9545.277;-30
2024-05-16T23:21:38.047;599616463611636008;9552.97;154
2024-05-16T23:21:38.055;599616463619327798;9560.661;586
2024-05-16T23:21:38.063;599616463627019588;9568.354;812
2024-05-16T23:21:38.071;599616463634711378;9576.045;399
2024-05-16T23:21:38.078;599616463642403168;9583.737;-163
2024-05-16T23:21:38.086;599616463650094958;9591.429;-211
2024-05-16T23:21:38.094;599616463657786748;9599.12;-64
2024-05-16T23:21:38.101;599616463665478538;9606.8125;-137
2024-05-16T23:21:38.109;599616463673170328;9614.504;-223
2024-05-16T23:21:38.117;599616463680862118;9622.196;-230
2024-05-16T23:21:38.124;599616463688553908;9629.888;-225
2024-05-16T23:21:38.132;599616463696245698;9637.58;-182
2024-05-16T23:21:38.140;599616463703937488;9645.271;-133
2024-05-16T23:21:38.147;599616463711629278;9652.963;-118
2024-05-16T23:21:38.155;599616463719321068;9660.654;-114
2024-05-16T23:21:38.163;599616463727012858;9668.347;-135
2024-05-16T23:21:38.171;599616463734704648;9676.038;-166
2024-05-16T23:21:38.178;599616463742396438;9683.73;-178
2024-05-16T23:21:38.186;599616463750088228;9691.422;-201
2024-05-16T23:21:38.194;599616463757780018;9699.114;-223
2024-05-16T23:21:38.201;599616463765471808;9706.806;-228
2024-05-16T23:21:38.209;599616463773163598;9714.497;-220
2024-05-16T23:21:38.217;599616463780855388;9722.188;-197
2024-05-16T23:21:38.224;599616463788547178;9729.881;-161
2024-05-16T23:21:38.232;599616463796238968;9737.572;-125
2024-05-16T23:21:38.240;599616463803930758;9745.265;-95
2024-05-16T23:21:38.247;599616463811622548;9752.956;-83
2024-05-16T23:21:38.255;599616463819314338;9760.648;-92
2024-05-16T23:21:38.263;599616463827006128;9768.34;-90
2024-05-16T23:21:38.271;599616463834697918;9776.032;-54
2024-05-16T23:21:38.278;599616463842389708;9783.723;-23
2024-05-16T23:21:38.286;599616463850081498;9791.415;-30
2024-05-16T23:21:38.294;599616463857773288;9799.106;-45
2024-05-16T23:21:38.301;599616463865465078;9806.799;-40
2024-05-16T23:21:38.309;599616463873156868;9814.49;-9
2024-05-16T23:21:38.317;599616463880848658;9822.183;16
2024-05-16T23:21:38.324;599616463888540448;9829.874;14
2024-05-16T23:21:38.332;599616463896232238;9837.566;-2
2024-05-16T23:21:38.340;599616463903924028;9845.257;-54
2024-05-16T23:21:38.347;599616463911615818;9852.949;-130
2024-05-16T23:21:38.355;599616463919307608;9860.641;-156
2024-05-16T23:21:38.363;599616463926999398;9868.333;-116
2024-05-16T23:21:38.371;599616463934691188;9876.025;-92
2024-05-16T23:21:38.378;599616463942382978;9883.717;-128
2024-05-16T23:21:38.386;599616463950074768;9891.409;-182
2024-05-16T23:21:38.394;599616463957766558;9899.101;-106
2024-05-16T23:21:38.401;599616463965458348;9906.792;285
2024-05-16T23:21:38.409;599616463973150138;9914.483;796
2024-05-16T23:21:38.417;599616463980841928;9922.176;845
2024-05-16T23:21:38.424;599616463988533718;9929.867;292
2024-05-16T23:21:38.432;599616463996225508;9937.56;-180
2024-05-16T23:21:38.440;599616464003917298;9945.251;-118
2024-05-16T23:21:38.447;599616464011609088;9952.943;9
2024-05-16T23:21:38.455;599616464019300878;9960.635;-64
2024-05-16T23:21:38.463;599616464026992668;9968.326;-66
2024-05-16T23:21:38.471;599616464034684458;9976.018;-9
2024-05-16T23:21:38.478;599616464042376248;9983.71;-23
2024-05-16T23:21:38.486;599616464050068038;9991.401;-21
2024-05-16T23:21:38.494;599616464057759828;9999.094;4
2024-05-16T23:21:38.501;599616464065451618;10006.785;-19
2024-05-16T23:21:38.509;599616464073143408;10014.478;-42
2024-05-16T23:21:38.517;599616464080835198;10022.169;-35
2024-05-16T23:21:38.524;599616464088526988;10029.861;-83
2024-05-16T23:21:38.532;599616464096218778;10037.552;-159
2024-05-16T23:21:38.540;599616464103910568;10045.244;-180
2024-05-16T23:21:38.547;599616464111602358;10052.936;-228
2024-05-16T23:21:38.555;599616464119294148;10060.628;-316
2024-05-16T23:21:38.563;599616464126985938;10068.319;-323
2024-05-16T23:21:38.571;599616464134677728;10076.012;-275
2024-05-16T23:21:38.578;599616464142369518;10083.703;-294
2024-05-16T23:21:38.586;599616464150061308;10091.3955;-330
2024-05-16T23:21:38.594;599616464157753098;10099.086;-306
2024-05-16T23:21:38.601;599616464165464988;10106.799;-249
2024-05-16T23:21:38.609;599616464173156499;10114.49;-190
2024-05-16T23:21:38.617;599616464180848010;10122.182;-180
2024-05-16T23:21:38.624;599616464188539521;10129.873;-209
2024-05-16T23:21:38.632;599616464196231032;10137.565;-190
2024-05-16T23:21:38.640;599616464203922543;10145.257;-140
2024-05-16T23:21:38.647;599616464211614054;10152.947;-154
2024-05-16T23:21:38.655;599616464219305565;10160.639;-218
2024-05-16T23:21:38.663;599616464226997076;10168.33;-216
2024-05-16T23:21:38.671;599616464234688587;10176.022;-163
2024-05-16T23:21:38.678;599616464242380098;10183.714;-166
2024-05-16T23:21:38.686;599616464250071609;10191.405;-197
2024-05-16T23:21:38.694;599616464257763120;10199.097;-171
2024-05-16T23:21:38.701;599616464265454631;10206.789;-123
2024-05-16T23:21:38.709;599616464273146142;10214.4795;-128
2024-05-16T23:21:38.717;599616464280837653;10222.171;-149
2024-05-16T23:21:38.724;599616464288529164;10229.862;-130
2024-05-16T23:21:38.732;599616464296220675;10237.555;-130
2024-05-16T23:21:38.740;599616464303912186;10245.246;-166
2024-05-16T23:21:38.747;599616464311603697;10252.9375;-4
2024-05-16T23:21:38.755;599616464319295208;10260.629;482
2024-05-16T23:21:38.763;599616464326986719;10268.32;893
2024-05-16T23:21:38.771;599616464334678230;10276.012;722
2024-05-16T23:21:38.778;599616464342369741;10283.703;133
2024-05-16T23:21:38.786;599616464350061252;10291.395;-135
2024-05-16T23:21:38.794;599616464357752763;10299.087;42
2024-05-16T23:21:38.801;599616464365444274;10306.778;80
2024-05-16T23:21:38.809;599616464373135785;10314.47;-47
2024-05-16T23:21:38.817;599616464380827296;10322.16;0
2024-05-16T23:21:38.824;599616464388518807;10329.853;64
2024-05-16T23:21:38.832;599616464396210318;10337.544;0
2024-05-16T23:21:38.840;599616464403901829;10345.235;-38
2024-05-16T23:21:38.847;599616464411593340;10352.927;-21
2024-05-16T23:21:38.855;599616464419284851;10360.619;-40
2024-05-16T23:21:38.863;599616464426976362;10368.311;-90
2024-05-16T23:21:38.871;599616464434667873;10376.002;-92
2024-05-16T23:21:38.878;599616464442359384;10383.692;-47
2024-05-16T23:21:38.886;599616464450050895;10391.384;-40
2024-05-16T23:21:38.894;599616464457742406;10399.076;-83
2024-05-16T23:21:38.901;599616464465433917;10406.768;-87
2024-05-16T23:21:38.909;599616464473125428;10414.459;-64
2024-05-16T23:21:38.917;599616464480816939;10422.15;-57
2024-05-16T23:21:38.924;599616464488508450;10429.843;-30
2024-05-16T23:21:38.932;599616464496199961;10437.534;21
2024-05-16T23:21:38.940;599616464503891472;10445.225;59
2024-05-16T23:21:38.947;599616464511582983;10452.916;73
2024-05-16T23:21:38.955;599616464519274494;10460.608;83
2024-05-16T23:21:38.963;599616464526966005;10468.3;106
2024-05-16T23:21:38.970;599616464534657516;10475.991;137
2024-05-16T23:21:38.978;599616464542349027;10483.683;159
2024-05-16T23:21:38.986;599616464550040538;10491.375;156
2024-05-16T23:21:38.994;599616464557732049;10499.065;159
2024-05-16T23:21:39.001;599616464565423560;10506.757;178
2024-05-16T23:21:39.009;599616464573115071;10514.448;187
2024-05-16T23:21:39.017;599616464580806582;10522.141;197
2024-05-16T23:21:39.024;599616464588498093;10529.832;201
2024-05-16T23:21:39.032;599616464596189604;10537.523;180
2024-05-16T23:21:39.040;599616464603881115;10545.215;137
2024-05-16T23:21:39.047;599616464611572626;10552.907;71
2024-05-16T23:21:39.055;599616464619264137;10560.598;4
2024-05-16T23:21:39.063;599616464626955648;10568.289;0
2024-05-16T23:21:39.070;599616464634647159;10575.98;16
2024-05-16T23:21:39.078;599616464642338670;10583.673;-30
2024-05-16T23:21:39.086;599616464650030181;10591.364;-99
2024-05-16T23:21:39.094;599616464657721692;10599.056;-68
2024-05-16T23:21:39.101;599616464665413203;10606.747;230
2024-05-16T23:21:39.109;599616464673104714;10614.4375;727
2024-05-16T23:21:39.117;599616464680796225;10622.13;950
2024-05-16T23:21:39.124;599616464688487736;10629.821;582
2024-05-16T23:21:39.132;599616464696179247;10637.513;57
2024-05-16T23:21:39.140;599616464703870758;10645.204;-2
2024-05-16T23:21:39.147;599616464711562269;10652.896;163
2024-05-16T23:21:39.155;599616464719253780;10660.588;128
2024-05-16T23:21:39.163;599616464726935316;10668.269;87
2024-05-16T23:21:39.170;599616464734626966;10675.961;154
2024-05-16T23:21:39.178;599616464742318616;10683.652;156
2024-05-16T23:21:39.186;599616464750010266;10691.345;106
2024-05-16T23:21:39.194;599616464757701916;10699.036;90
2024-05-16T23:21:39.201;599616464765393566;10706.727;85
2024-05-16T23:21:39.209;599616464773085216;10714.419;71
2024-05-16T23:21:39.217;599616464780776866;10722.11;49
2024-05-16T23:21:39.224;599616464788468516;10729.802;28
2024-05-16T23:21:39.232;599616464796160166;10737.494;40
2024-05-16T23:21:39.240;599616464803851816;10745.186;57
2024-05-16T23:21:39.247;599616464811543466;10752.878;9
2024-05-16T23:21:39.255;599616464819235116;10760.568;-57
2024-05-16T23:21:39.263;599616464826926766;10768.26;-52
2024-05-16T23:21:39.270;599616464834618416;10775.952;-30
2024-05-16T23:21:39.278;599616464842310066;10783.644;-30
2024-05-16T23:21:39.286;599616464850001716;10791.335;9
2024-05-16T23:21:39.294;599616464857693366;10799.027;85
2024-05-16T23:21:39.301;599616464865385016;10806.719;135
2024-05-16T23:21:39.309;599616464873076666;10814.411;133
2024-05-16T23:21:39.317;599616464880768316;10822.102;92
2024-05-16T23:21:39.324;599616464888459966;10829.793;68
2024-05-16T23:21:39.332;599616464896151616;10837.485;92
2024-05-16T23:21:39.340;599616464903843266;10845.177;102
2024-05-16T23:21:39.347;599616464911534916;10852.868;109
2024-05-16T23:21:39.355;599616464919226566;10860.561;154
2024-05-16T23:21:39.363;599616464926918216;10868.252;166
2024-05-16T23:21:39.370;599616464934609866;10875.944;123
2024-05-16T23:21:39.378;599616464942301516;10883.635;121
2024-05-16T23:21:39.386;599616464949993166;10891.326;175
2024-05-16T23:21:39.394;599616464957684816;10899.019;194
2024-05-16T23:21:39.401;599616464965376466;10906.71;168
2024-05-16T23:21:39.409;599616464973068116;10914.401;156
2024-05-16T23:21:39.417;599616464980759766;10922.094;187
2024-05-16T23:21:39.424;599616464988451416;10929.785;213
2024-05-16T23:21:39.432;599616464996143066;10937.478;182
2024-05-16T23:21:39.440;599616465003834716;10945.168;140
2024-05-16T23:21:39.447;599616465011526366;10952.859;213
2024-05-16T23:21:39.455;599616465019218016;10960.552;539
2024-05-16T23:21:39.463;599616465026909666;10968.243;976
2024-05-16T23:21:39.470;599616465034601316;10975.936;1047
2024-05-16T23:21:39.478;599616465042292966;10983.627;594
2024-05-16T23:21:39.486;599616465049984616;10991.318;163
2024-05-16T23:21:39.494;599616465057676266;10999.011;182
2024-05-16T23:21:39.501;599616465065367916;11006.701;280
2024-05-16T23:21:39.509;599616465073059566;11014.393;216
2024-05-16T23:21:39.517;599616465080751216;11022.085;220
2024-05-16T23:21:39.524;599616465088442866;11029.776;261
2024-05-16T23:21:39.532;599616465096134516;11037.469;206
2024-05-16T23:21:39.540;599616465103826166;11045.16;159
2024-05-16T23:21:39.547;599616465111517816;11052.852;142
2024-05-16T23:21:39.555;599616465119209466;11060.544;45
2024-05-16T23:21:39.563;599616465126901116;11068.234;-71
2024-05-16T23:21:39.570;599616465134592766;11075.926;-104
2024-05-16T23:21:39.578;599616465142284416;11083.618;-99
2024-05-16T23:21:39.586;599616465149976066;11091.31;-109
2024-05-16T23:21:39.594;599616465157667716;11099.002;-106
2024-05-16T23:21:39.601;599616465165359366;11106.693;-90
2024-05-16T23:21:39.609;599616465173051016;11114.385;-76
2024-05-16T23:21:39.617;599616465180742666;11122.077;-59
2024-05-16T23:21:39.624;599616465188434316;11129.768;-23
2024-05-16T23:21:39.632;599616465196125966;11137.459;16
2024-05-16T23:21:39.640;599616465203817616;11145.151;40
2024-05-16T23:21:39.647;599616465211509266;11152.843;57
2024-05-16T23:21:39.655;599616465219200916;11160.535;104
2024-05-16T23:21:39.663;599616465226892566;11168.227;156
2024-05-16T23:21:39.670;599616465234584216;11175.918;175
2024-05-16T23:21:39.678;599616465242275866;11183.609;175
2024-05-16T23:21:39.686;599616465249967516;11191.301;192
2024-05-16T23:21:39.693;599616465257659166;11198.992;216
2024-05-16T23:21:39.701;599616465265350816;11206.685;211
2024-05-16T23:21:39.709;599616465273042466;11214.376;197
2024-05-16T23:21:39.717;599616465280734116;11222.068;199
2024-05-16T23:21:39.724;599616465288415746;11229.749;194
2024-05-16T23:21:39.732;599616465296107536;11237.441;178
2024-05-16T23:21:39.740;599616465303799326;11245.133;192
2024-05-16T23:21:39.747;599616465311491116;11252.825;235
2024-05-16T23:21:39.755;599616465319182906;11260.517;247
2024-05-16T23:21:39.763;599616465326874696;11268.209;244
2024-05-16T23:21:39.770;599616465334566486;11275.9;254
2024-05-16T23:21:39.778;599616465342258276;11283.592;254
2024-05-16T23:21:39.786;599616465349950066;11291.283;187
2024-05-16T23:21:39.793;599616465357641856;11298.976;66
2024-05-16T23:21:39.801;599616465365333646;11306.667;137
2024-05-16T23:21:39.809;599616465373025436;11314.359;534
2024-05-16T23:21:39.817;599616465380717226;11322.051;898
2024-05-16T23:21:39.824;599616465388409016;11329.743;779
2024-05-16T23:21:39.832;599616465396100806;11337.435;294
2024-05-16T23:21:39.840;599616465403792596;11345.126;9
2024-05-16T23:21:39.847;599616465411484386;11352.817;114
2024-05-16T23:21:39.855;599616465419176176;11360.51;187
2024-05-16T23:21:39.863;599616465426867966;11368.201;95
2024-05-16T23:21:39.870;599616465434559756;11375.894;71
2024-05-16T23:21:39.878;599616465442251546;11383.585;92
2024-05-16T23:21:39.886;599616465449943336;11391.277;61
2024-05-16T23:21:39.893;599616465457635126;11398.969;38
2024-05-16T23:21:39.901;599616465465326916;11406.66;40
2024-05-16T23:21:39.909;599616465473018706;11414.352;30
2024-05-16T23:21:39.917;599616465480710496;11422.044;19
2024-05-16T23:21:39.924;599616465488402286;11429.736;40
2024-05-16T23:21:39.932;599616465496094076;11437.428;76
2024-05-16T23:21:39.940;599616465503785866;11445.12;85
2024-05-16T23:21:39.947;599616465511477656;11452.812;87
2024-05-16T23:21:39.955;599616465519169446;11460.504;104
2024-05-16T23:21:39.963;599616465526861236;11468.194;109
2024-05-16T23:21:39.970;599616465534553026;11475.887;97
2024-05-16T23:21:39.978;599616465542244816;11483.578;116
2024-05-16T23:21:39.986;599616465549936606;11491.2705;180
2024-05-16T23:21:39.993;599616465557628396;11498.962;228
2024-05-16T23:21:40.001;599616465565320186;11506.654;230
2024-05-16T23:21:40.009;599616465573011976;11514.346;225
2024-05-16T23:21:40.017;599616465580703766;11522.038;247
2024-05-16T23:21:40.024;599616465588395556;11529.7295;280
2024-05-16T23:21:40.032;599616465596087346;11537.421;292
2024-05-16T23:21:40.040;599616465603779136;11545.112;289
2024-05-16T23:21:40.047;599616465611470926;11552.805;285
2024-05-16T23:21:40.055;599616465619162716;11560.496;199
2024-05-16T23:21:40.063;599616465626854506;11568.188;59
2024-05-16T23:21:40.070;599616465634546296;11575.88;57
2024-05-16T23:21:40.078;599616465642238086;11583.572;142
2024-05-16T23:21:40.086;599616465649929876;11591.264;149
2024-05-16T23:21:40.093;599616465657621666;11598.955;133
2024-05-16T23:21:40.101;599616465665313456;11606.646;154
2024-05-16T23:21:40.109;599616465673005246;11614.339;173
2024-05-16T23:21:40.117;599616465680697036;11622.03;180
2024-05-16T23:21:40.124;599616465688388826;11629.723;194
2024-05-16T23:21:40.132;599616465696080616;11637.414;223
2024-05-16T23:21:40.140;599616465703772406;11645.106;216
2024-05-16T23:21:40.147;599616465711464196;11652.798;149
2024-05-16T23:21:40.155;599616465719155986;11660.489;213
2024-05-16T23:21:40.163;599616465726847776;11668.181;613
2024-05-16T23:21:40.170;599616465734539566;11675.873;1064
2024-05-16T23:21:40.178;599616465742231356;11683.564;1012
2024-05-16T23:21:40.186;599616465749923146;11691.257;494
2024-05-16T23:21:40.193;599616465757614936;11698.948;173
2024-05-16T23:21:40.201;599616465765306726;11706.641;275
2024-05-16T23:21:40.209;599616465772998516;11714.333;323
2024-05-16T23:21:40.217;599616465780690306;11722.024;199
2024-05-16T23:21:40.224;599616465788382096;11729.716;180
2024-05-16T23:21:40.232;599616465796073886;11737.407;204
2024-05-16T23:21:40.240;599616465803765676;11745.1;130
2024-05-16T23:21:40.247;599616465811457466;11752.791;97
2024-05-16T23:21:40.255;599616465819149256;11760.483;142
2024-05-16T23:21:40.263;599616465826841046;11768.175;156
2024-05-16T23:21:40.270;599616465834532836;11775.867;154
2024-05-16T23:21:40.278;599616465842224626;11783.559;166
2024-05-16T23:21:40.286;599616465849946524;11791.28;156
2024-05-16T23:21:40.293;599616465857637896;11798.972;161
2024-05-16T23:21:40.301;599616465865329268;11806.663;175
2024-05-16T23:21:40.309;599616465873020640;11814.354;140
2024-05-16T23:21:40.317;599616465880712012;11822.045;125
2024-05-16T23:21:40.324;599616465888403384;11829.737;159
2024-05-16T23:21:40.332;599616465896094756;11837.429;152
2024-05-16T23:21:40.340;599616465903786128;11845.12;156
2024-05-16T23:21:40.347;599616465911477500;11852.812;220
2024-05-16T23:21:40.355;599616465919168872;11860.503;235
2024-05-16T23:21:40.363;599616465926860244;11868.193;168
2024-05-16T23:21:40.370;599616465934551616;11875.885;137
2024-05-16T23:21:40.378;599616465942242988;11883.576;175
2024-05-16T23:21:40.386;599616465949934360;11891.268;185
2024-05-16T23:21:40.393;599616465957625732;11898.96;168
2024-05-16T23:21:40.401;599616465965317104;11906.651;154
2024-05-16T23:21:40.409;599616465973008476;11914.343;135
2024-05-16T23:21:40.417;599616465980699848;11922.033;128
2024-05-16T23:21:40.424;599616465988391220;11929.725;128
2024-05-16T23:21:40.432;599616465996082592;11937.416;142
2024-05-16T23:21:40.440;599616466003773964;11945.107;185
2024-05-16T23:21:40.447;599616466011465336;11952.799;201
2024-05-16T23:21:40.455;599616466019156708;11960.49;194
2024-05-16T23:21:40.463;599616466026848080;11968.182;213
2024-05-16T23:21:40.470;599616466034539452;11975.874;218
2024-05-16T23:21:40.478;599616466042230824;11983.564;192
2024-05-16T23:21:40.486;599616466049922196;11991.256;190
2024-05-16T23:21:40.493;599616466057613568;11998.947;204
2024-05-16T23:21:40.501;599616466065304940;12006.639;173
2024-05-16T23:21:40.509;599616466072996312;12014.33;211
2024-05-16T23:21:40.517;599616466080687684;12022.021;537
2024-05-16T23:21:40.524;599616466088379056;12029.712;974
2024-05-16T23:21:40.532;599616466096070428;12037.403;983
2024-05-16T23:21:40.540;599616466103761800;12045.096;491
2024-05-16T23:21:40.547;599616466111453172;12052.787;111
2024-05-16T23:21:40.555;599616466119144544;12060.479;97
2024-05-16T23:21:40.563;599616466126835916;12068.17;38
2024-05-16T23:21:40.570;599616466134527288;12075.861;-102
2024-05-16T23:21:40.578;599616466142218660;12083.553;-104
2024-05-16T23:21:40.586;599616466149910032;12091.243;-85
2024-05-16T23:21:40.593;599616466157601404;12098.935;-104
2024-05-16T23:21:40.601;599616466165292776;12106.626;-97
2024-05-16T23:21:40.609;599616466172984148;12114.317;-87
2024-05-16T23:21:40.617;599616466180675520;12122.01;-66
2024-05-16T23:21:40.624;599616466188366892;12129.701;-35
2024-05-16T23:21:40.632;599616466196058264;12137.393;-23
2024-05-16T23:21:40.640;599616466203749636;12145.083;-9
2024-05-16T23:21:40.647;599616466211441008;12152.774;19
2024-05-16T23:21:40.655;599616466219132380;12160.466;19
2024-05-16T23:21:40.663;599616466226823752;12168.157;7
2024-05-16T23:21:40.670;599616466234515124;12175.849;33
2024-05-16T23:21:40.678;599616466242206496;12183.54;68
2024-05-16T23:21:40.686;599616466249897868;12191.232;92
2024-05-16T23:21:40.693;599616466257589240;12198.923;116
2024-05-16T23:21:40.701;599616466265280612;12206.614;140
2024-05-16T23:21:40.709;599616466272971984;12214.306;156
2024-05-16T23:21:40.716;599616466280663356;12221.997;168
2024-05-16T23:21:40.724;599616466288354728;12229.688;180
2024-05-16T23:21:40.732;599616466296046100;12237.38;194
2024-05-16T23:21:40.740;599616466303737472;12245.071;168
2024-05-16T23:21:40.747;599616466311428844;12252.762;106
2024-05-16T23:21:40.755;599616466319120216;12260.453;80
2024-05-16T23:21:40.763;599616466326811588;12268.1455;97
2024-05-16T23:21:40.770;599616466334502960;12275.837;116
2024-05-16T23:21:40.778;599616466342194332;12283.528;128
2024-05-16T23:21:40.786;599616466349885704;12291.22;123
2024-05-16T23:21:40.793;599616466357577076;12298.911;99
2024-05-16T23:21:40.801;599616466365268448;12306.602;66
2024-05-16T23:21:40.809;599616466372959820;12314.293;47
2024-05-16T23:21:40.816;599616466380651192;12321.984;47
2024-05-16T23:21:40.824;599616466388342564;12329.676;73
2024-05-16T23:21:40.832;599616466396033936;12337.368;97
2024-05-16T23:21:40.840;599616466403725308;12345.06;90
2024-05-16T23:21:40.847;599616466411386592;12352.72;68
2024-05-16T23:21:40.855;599616466419078382;12360.412;54
2024-05-16T23:21:40.863;599616466426770172;12368.104;123
2024-05-16T23:21:40.870;599616466434461962;12375.796;439
2024-05-16T23:21:40.878;599616466442153752;12383.487;869
2024-05-16T23:21:40.886;599616466449845542;12391.18;886
2024-05-16T23:21:40.893;599616466457537332;12398.87;365
2024-05-16T23:21:40.901;599616466465229122;12406.5625;-80
2024-05-16T23:21:40.909;599616466472920912;12414.254;-73
2024-05-16T23:21:40.916;599616466480612702;12421.946;-9
2024-05-16T23:21:40.924;599616466488304492;12429.639;-137
2024-05-16T23:21:40.932;599616466495996282;12437.33;-204
2024-05-16T23:21:40.940;599616466503688072;12445.022;-142
2024-05-16T23:21:40.947;599616466511379862;12452.714;-118
2024-05-16T23:21:40.955;599616466519071652;12460.405;-137
2024-05-16T23:21:40.963;599616466526763442;12468.097;-116
2024-05-16T23:21:40.970;599616466534455232;12475.789;-80
2024-05-16T23:21:40.978;599616466542147022;12483.48;-80
2024-05-16T23:21:40.986;599616466549838812;12491.173;-85
2024-05-16T23:21:40.993;599616466557530602;12498.864;-71
2024-05-16T23:21:41.001;599616466565222392;12506.557;-40
2024-05-16T23:21:41.009;599616466572914182;12514.248;2
2024-05-16T23:21:41.016;599616466580605972;12521.94;14
2024-05-16T23:21:41.024;599616466588297762;12529.631;-9
2024-05-16T23:21:41.032;599616466595989552;12537.323;4
2024-05-16T23:21:41.040;599616466603681342;12545.015;23
2024-05-16T23:21:41.047;599616466611373132;12552.707;-9
2024-05-16T23:21:41.055;599616466619064922;12560.398;-28
2024-05-16T23:21:41.063;599616466626756712;12568.091;-59
2024-05-16T23:21:41.070;599616466634448502;12575.782;-142
2024-05-16T23:21:41.078;599616466642140292;12583.475;-178
2024-05-16T23:21:41.086;599616466649832082;12591.165;-161
2024-05-16T23:21:41.093;599616466657523872;12598.857;-163
2024-05-16T23:21:41.101;599616466665215662;12606.549;-144
2024-05-16T23:21:41.109;599616466672907452;12614.241;-121
2024-05-16T23:21:41.116;599616466680599242;12621.933;-147
2024-05-16T23:21:41.124;599616466688291032;12629.625;-142
2024-05-16T23:21:41.132;599616466695982822;12637.316;-83
2024-05-16T23:21:41.140;599616466703674612;12645.009;-57
2024-05-16T23:21:41.147;599616466711366402;12652.699;-47
2024-05-16T23:21:41.155;599616466719058192;12660.392;-21
2024-05-16T23:21:41.163;599616466726749982;12668.083;-9
2024-05-16T23:21:41.170;599616466734441772;12675.775;-9
2024-05-16T23:21:41.178;599616466742133562;12683.467;9
2024-05-16T23:21:41.186;599616466749825352;12691.159;45
2024-05-16T23:21:41.193;599616466757517142;12698.851;78
2024-05-16T23:21:41.201;599616466765208932;12706.543;68
2024-05-16T23:21:41.209;599616466772900722;12714.235;11
2024-05-16T23:21:41.216;599616466780592512;12721.926;26
2024-05-16T23:21:41.224;599616466788284302;12729.618;304
2024-05-16T23:21:41.232;599616466795976092;12737.31;793
2024-05-16T23:21:41.240;599616466803667882;12745.002;1009
2024-05-16T23:21:41.247;599616466811359672;12752.693;575
2024-05-16T23:21:41.255;599616466819051462;12760.386;-38
2024-05-16T23:21:41.263;599616466826743252;12768.077;-130
2024-05-16T23:21:41.270;599616466834435042;12775.77;9
2024-05-16T23:21:41.278;599616466842126832;12783.46;-61
2024-05-16T23:21:41.286;599616466849818622;12791.152;-128
2024-05-16T23:21:41.293;599616466857510412;12798.844;-106
2024-05-16T23:21:41.301;599616466865202202;12806.536;-135
2024-05-16T23:21:41.309;599616466872893992;12814.228;-144
2024-05-16T23:21:41.316;599616466880585782;12821.92;-99
2024-05-16T23:21:41.324;599616466888277572;12829.611;-80
2024-05-16T23:21:41.332;599616466895969362;12837.304;-59
2024-05-16T23:21:41.339;599616466903661152;12844.994;-26
2024-05-16T23:21:41.347;599616466911352942;12852.687;-38
2024-05-16T23:21:41.355;599616466919044732;12860.378;-54
2024-05-16T23:21:41.363;599616466926736522;12868.07;-7
2024-05-16T23:21:41.370;599616466934428312;12875.762;35
2024-05-16T23:21:41.378;599616466942120102;12883.454;28
2024-05-16T23:21:41.386;599616466949811892;12891.1455;21
2024-05-16T23:21:41.393;599616466957503682;12898.838;45
2024-05-16T23:21:41.401;599616466965195472;12906.528;87
2024-05-16T23:21:41.409;599616466972912402;12914.246;114
2024-05-16T23:21:41.416;599616466980603843;12921.9375;116
2024-05-16T23:21:41.424;599616466988295284;12929.629;137
2024-05-16T23:21:41.432;599616466995986725;12937.32;135
2024-05-16T23:21:41.440;599616467003678166;12945.012;19
2024-05-16T23:21:41.447;599616467011369607;12952.703;-71
2024-05-16T23:21:41.455;599616467019061048;12960.395;-14
2024-05-16T23:21:41.463;599616467026752489;12968.087;16
2024-05-16T23:21:41.470;599616467034443930;12975.777;-45
2024-05-16T23:21:41.478;599616467042135371;12983.469;-45
2024-05-16T23:21:41.486;599616467049826812;12991.16;2
2024-05-16T23:21:41.493;599616467057518253;12998.852;-4
2024-05-16T23:21:41.501;599616467065209694;13006.543;-11
2024-05-16T23:21:41.509;599616467072901135;13014.235;33
2024-05-16T23:21:41.516;599616467080592576;13021.927;71
2024-05-16T23:21:41.524;599616467088284017;13029.617;73
2024-05-16T23:21:41.532;599616467095975458;13037.309;54
2024-05-16T23:21:41.540;599616467103666899;13045.0;23
2024-05-16T23:21:41.547;599616467111358340;13052.692;28
2024-05-16T23:21:41.555;599616467119049781;13060.384;54
2024-05-16T23:21:41.563;599616467126741222;13068.075;2
2024-05-16T23:21:41.570;599616467134432663;13075.767;-116
2024-05-16T23:21:41.578;599616467142124104;13083.458;7
2024-05-16T23:21:41.586;599616467149815545;13091.148;487
2024-05-16T23:21:41.593;599616467157506986;13098.841;824
2024-05-16T23:21:41.601;599616467165198427;13106.532;558
2024-05-16T23:21:41.609;599616467172889868;13114.224;-42
2024-05-16T23:21:41.616;599616467180581309;13121.915;-320
2024-05-16T23:21:41.624;599616467188272750;13129.606;-216
2024-05-16T23:21:41.632;599616467195964191;13137.298;-187
2024-05-16T23:21:41.639;599616467203655632;13144.989;-256
2024-05-16T23:21:41.647;599616467211347073;13152.681;-213
2024-05-16T23:21:41.655;599616467219038514;13160.372;-159
2024-05-16T23:21:41.663;599616467226729955;13168.063;-166
2024-05-16T23:21:41.670;599616467234421396;13175.755;-149
2024-05-16T23:21:41.678;599616467242112837;13183.446;-121
2024-05-16T23:21:41.686;599616467249804278;13191.139;-109
2024-05-16T23:21:41.693;599616467257495719;13198.829;-68
2024-05-16T23:21:41.701;599616467265187160;13206.5205;-21
2024-05-16T23:21:41.709;599616467272878601;13214.212;-19
2024-05-16T23:21:41.716;599616467280570042;13221.903;-33
2024-05-16T23:21:41.724;599616467288261483;13229.596;-16
2024-05-16T23:21:41.732;599616467295952924;13237.287;9
2024-05-16T23:21:41.739;599616467303644365;13244.979;16
2024-05-16T23:21:41.747;599616467311335806;13252.67;26
2024-05-16T23:21:41.755;599616467319027247;13260.36;76
2024-05-16T23:21:41.763;599616467326718688;13268.052;123
2024-05-16T23:21:41.770;599616467334410129;13275.744;121
2024-05-16T23:21:41.778;599616467342101570;13283.436;90
2024-05-16T23:21:41.786;599616467349793011;13291.127;47
2024-05-16T23:21:41.793;599616467357484452;13298.818;33
2024-05-16T23:21:41.801;599616467365175893;13306.51;35
2024-05-16T23:21:41.809;599616467372867334;13314.2;23
2024-05-16T23:21:41.816;599616467380558775;13321.893;40
2024-05-16T23:21:41.824;599616467388250216;13329.584;68
2024-05-16T23:21:41.832;599616467395941657;13337.275;71
2024-05-16T23:21:41.839;599616467403633098;13344.967;99
2024-05-16T23:21:41.847;599616467411324539;13352.658;142
2024-05-16T23:21:41.855;599616467419015980;13360.35;130
2024-05-16T23:21:41.863;599616467426707421;13368.041;114
2024-05-16T23:21:41.870;599616467434398862;13375.732;147
2024-05-16T23:21:41.878;599616467442090303;13383.424;185
2024-05-16T23:21:41.886;599616467449781744;13391.115;190
2024-05-16T23:21:41.893;599616467457473185;13398.807;192
2024-05-16T23:21:41.901;599616467465164626;13406.498;204
2024-05-16T23:21:41.909;599616467472856067;13414.19;201
2024-05-16T23:21:41.916;599616467480547508;13421.881;163
2024-05-16T23:21:41.924;599616467488238949;13429.572;144
2024-05-16T23:21:41.932;599616467495930390;13437.264;344
2024-05-16T23:21:41.939;599616467503621831;13444.955;793
2024-05-16T23:21:41.947;599616467511313272;13452.647;1069
2024-05-16T23:21:41.955;599616467519004713;13460.339;772
2024-05-16T23:21:41.963;599616467526696154;13468.03;168
2024-05-16T23:21:41.970;599616467534367564;13475.701;-73
2024-05-16T23:21:41.978;599616467542059284;13483.393;61
2024-05-16T23:21:41.986;599616467549751004;13491.084;47
2024-05-16T23:21:41.993;599616467557442724;13498.776;-61
2024-05-16T23:21:42.001;599616467565134444;13506.468;-23
2024-05-16T23:21:42.009;599616467572826164;13514.16;-23
2024-05-16T23:21:42.016;599616467580517884;13521.852;-111
2024-05-16T23:21:42.024;599616467588209604;13529.544;-106
2024-05-16T23:21:42.032;599616467595901324;13537.235;-92
2024-05-16T23:21:42.039;599616467603593044;13544.926;-154
2024-05-16T23:21:42.047;599616467611284764;13552.618;-156
2024-05-16T23:21:42.055;599616467618976484;13560.31;-92
2024-05-16T23:21:42.063;599616467626668204;13568.002;-71
2024-05-16T23:21:42.070;599616467634359924;13575.693;-78
2024-05-16T23:21:42.078;599616467642051644;13583.386;-118
2024-05-16T23:21:42.086;599616467649743364;13591.077;-187
2024-05-16T23:21:42.093;599616467657435084;13598.77;-194
2024-05-16T23:21:42.101;599616467665126804;13606.46;-166
2024-05-16T23:21:42.109;599616467672818524;13614.151;-125
2024-05-16T23:21:42.116;599616467680510244;13621.844;-49
2024-05-16T23:21:42.124;599616467688201964;13629.535;-16
2024-05-16T23:21:42.132;599616467695893684;13637.228;-59
2024-05-16T23:21:42.139;599616467703585404;13644.919;-61
2024-05-16T23:21:42.147;599616467711277124;13652.611;0
2024-05-16T23:21:42.155;599616467718968844;13660.303;33
2024-05-16T23:21:42.162;599616467726660564;13667.994;30
2024-05-16T23:21:42.170;599616467734352284;13675.686;40
2024-05-16T23:21:42.178;599616467742044004;13683.378;61
2024-05-16T23:21:42.186;599616467749735724;13691.069;80
2024-05-16T23:21:42.193;599616467757427444;13698.761;102
2024-05-16T23:21:42.201;599616467765119164;13706.453;123
2024-05-16T23:21:42.209;599616467772810884;13714.145;156
2024-05-16T23:21:42.216;599616467780502604;13721.837;185
2024-05-16T23:21:42.224;599616467788194324;13729.527;168
2024-05-16T23:21:42.232;599616467795886044;13737.22;163
2024-05-16T23:21:42.239;599616467803577764;13744.911;220
2024-05-16T23:21:42.247;599616467811269484;13752.604;256
2024-05-16T23:21:42.255;599616467818961204;13760.295;254
2024-05-16T23:21:42.262;599616467826652924;13767.986;256
2024-05-16T23:21:42.270;599616467834344644;13775.679;192
2024-05-16T23:21:42.278;599616467842036364;13783.37;97
2024-05-16T23:21:42.286;599616467849728084;13791.0625;244
2024-05-16T23:21:42.293;599616467857419804;13798.753;701
2024-05-16T23:21:42.301;599616467865111524;13806.445;1002
2024-05-16T23:21:42.309;599616467872803244;13814.137;681
2024-05-16T23:21:42.316;599616467880494964;13821.829;59
2024-05-16T23:21:42.324;599616467888186684;13829.5205;-118
2024-05-16T23:21:42.332;599616467895878404;13837.212;64
2024-05-16T23:21:42.339;599616467903570124;13844.904;54
2024-05-16T23:21:42.347;599616467911261844;13852.595;-26
2024-05-16T23:21:42.355;599616467918953564;13860.287;38
2024-05-16T23:21:42.362;599616467926645284;13867.979;66
2024-05-16T23:21:42.370;599616467934337004;13875.671;28
2024-05-16T23:21:42.378;599616467942028724;13883.362;54
2024-05-16T23:21:42.386;599616467949720444;13891.055;106
2024-05-16T23:21:42.393;599616467957412164;13898.746;125
2024-05-16T23:21:42.401;599616467965103884;13906.4375;128
2024-05-16T23:21:42.409;599616467972795604;13914.13;130
2024-05-16T23:21:42.416;599616467980487324;13921.82;159
2024-05-16T23:21:42.424;599616467988179044;13929.513;204
2024-05-16T23:21:42.432;599616467995870764;13937.204;204
2024-05-16T23:21:42.439;599616468003562484;13944.896;190
2024-05-16T23:21:42.447;599616468011254204;13952.588;206
2024-05-16T23:21:42.455;599616468018945924;13960.28;211
2024-05-16T23:21:42.462;599616468026637644;13967.972;211
2024-05-16T23:21:42.470;599616468034329364;13975.662;225
2024-05-16T23:21:42.478;599616468042021084;13983.3545;230
2024-05-16T23:21:42.486;599616468049712804;13991.046;235
2024-05-16T23:21:42.493;599616468057404524;13998.738;223
2024-05-16T23:21:42.501;599616468065096244;14006.43;211
2024-05-16T23:21:42.509;599616468072787964;14014.122;242
2024-05-16T23:21:42.516;599616468080479684;14021.813;254
2024-05-16T23:21:42.524;599616468088171404;14029.506;209
2024-05-16T23:21:42.532;599616468095858120;14037.191;190
2024-05-16T23:21:42.539;599616468103549910;14044.884;225
2024-05-16T23:21:42.547;599616468111241700;14052.575;242
2024-05-16T23:21:42.555;599616468118933490;14060.268;225
2024-05-16T23:21:42.562;599616468126625280;14067.959;240
2024-05-16T23:21:42.570;599616468134317070;14075.651;294
2024-05-16T23:21:42.578;599616468142008860;14083.343;318
2024-05-16T23:21:42.586;599616468149700650;14091.034;259
2024-05-16T23:21:42.593;599616468157392440;14098.726;163
2024-05-16T23:21:42.601;599616468165084230;14106.418;149
2024-05-16T23:21:42.609;599616468172776020;14114.109;144
2024-05-16T23:21:42.616;599616468180467810;14121.802;71
2024-05-16T23:21:42.624;599616468188159600;14129.493;19
2024-05-16T23:21:42.632;599616468195851390;14137.186;11
2024-05-16T23:21:42.639;599616468203543180;14144.877;168
2024-05-16T23:21:42.647;599616468211234970;14152.568;586
2024-05-16T23:21:42.655;599616468218926760;14160.26;834
2024-05-16T23:21:42.662;599616468226618550;14167.952;491
2024-05-16T23:21:42.670;599616468234310340;14175.644;-38
2024-05-16T23:21:42.678;599616468242002130;14183.336;-137
2024-05-16T23:21:42.686;599616468249693920;14191.027;-9
2024-05-16T23:21:42.693;599616468257385710;14198.72;-45
2024-05-16T23:21:42.701;599616468265077500;14206.411;-80
2024-05-16T23:21:42.709;599616468272769290;14214.104;-11
2024-05-16T23:21:42.716;599616468280461080;14221.794;21
2024-05-16T23:21:42.724;599616468288152870;14229.486;9
2024-05-16T23:21:42.732;599616468295844660;14237.178;9
2024-05-16T23:21:42.739;599616468303536450;14244.87;30
2024-05-16T23:21:42.747;599616468311228240;14252.562;85
2024-05-16T23:21:42.755;599616468318920030;14260.254;133
2024-05-16T23:21:42.762;599616468326611820;14267.946;140
2024-05-16T23:21:42.770;599616468334303610;14275.638;111
2024-05-16T23:21:42.778;599616468341995400;14283.329;97
2024-05-16T23:21:42.786;599616468349687190;14291.0205;104
2024-05-16T23:21:42.793;599616468357378980;14298.713;109
2024-05-16T23:21:42.801;599616468365070770;14306.404;123
2024-05-16T23:21:42.809;599616468372762560;14314.097;154
2024-05-16T23:21:42.816;599616468380454350;14321.788;159
2024-05-16T23:21:42.824;599616468388146140;14329.48;128
2024-05-16T23:21:42.832;599616468395837930;14337.172;137
2024-05-16T23:21:42.839;599616468403529720;14344.863;187
2024-05-16T23:21:42.847;599616468411221510;14352.555;204
2024-05-16T23:21:42.855;599616468418913300;14360.247;194
2024-05-16T23:21:42.862;599616468426605090;14367.938;204
2024-05-16T23:21:42.870;599616468434296880;14375.631;213
2024-05-16T23:21:42.878;599616468441988670;14383.322;216
2024-05-16T23:21:42.886;599616468449680460;14391.015;223
2024-05-16T23:21:42.893;599616468457372250;14398.706;249
2024-05-16T23:21:42.901;599616468465064040;14406.398;273
2024-05-16T23:21:42.909;599616468472755830;14414.089;275
2024-05-16T23:21:42.916;599616468480447620;14421.781;266
2024-05-16T23:21:42.924;599616468488139410;14429.473;285
2024-05-16T23:21:42.932;599616468495831200;14437.165;320
2024-05-16T23:21:42.939;599616468503522990;14444.856;330
2024-05-16T23:21:42.947;599616468511214780;14452.549;320
2024-05-16T23:21:42.955;599616468518906570;14460.24;342
2024-05-16T23:21:42.962;599616468526598360;14467.933;361
2024-05-16T23:21:42.970;599616468534290150;14475.623;325
2024-05-16T23:21:42.978;599616468541981940;14483.315;228
2024-05-16T23:21:42.986;599616468549673730;14491.007;175
2024-05-16T23:21:42.993;599616468557365520;14498.699;380
2024-05-16T23:21:43.001;599616468565057310;14506.391;784
2024-05-16T23:21:43.009;599616468572749100;14514.083;948
2024-05-16T23:21:43.016;599616468580440890;14521.774;579
2024-05-16T23:21:43.024;599616468588132680;14529.467;40
2024-05-16T23:21:43.032;599616468595824470;14537.157;-83
2024-05-16T23:21:43.039;599616468603516260;14544.85;49
2024-05-16T23:21:43.047;599616468611208050;14552.542;21
2024-05-16T23:21:43.055;599616468618899840;14560.233;-49
2024-05-16T23:21:43.062;599616468626591630;14567.926;-21
2024-05-16T23:21:43.070;599616468634283420;14575.617;-7
2024-05-16T23:21:43.078;599616468641975210;14583.31;-4
2024-05-16T23:21:43.086;599616468649667000;14591.001;16
2024-05-16T23:21:43.093;599616468657368882;14598.702;-28
2024-05-16T23:21:43.101;599616468665060532;14606.395;-95
2024-05-16T23:21:43.109;599616468672752182;14614.086;-64
2024-05-16T23:21:43.116;599616468680443832;14621.778;-4
2024-05-16T23:21:43.124;599616468688135482;14629.469;-9
2024-05-16T23:21:43.132;599616468695827132;14637.16;0
2024-05-16T23:21:43.139;599616468703518782;14644.853;28
2024-05-16T23:21:43.147;599616468711210432;14652.544;-26
2024-05-16T23:21:43.155;599616468718902082;14660.235;-111
2024-05-16T23:21:43.162;599616468726593732;14667.928;-106
2024-05-16T23:21:43.170;599616468734285382;14675.619;-87
2024-05-16T23:21:43.178;599616468741977032;14683.312;-104
2024-05-16T23:21:43.186;599616468749668682;14691.002;-92
2024-05-16T23:21:43.193;599616468757360332;14698.693;-59
2024-05-16T23:21:43.201;599616468765051982;14706.386;-47
2024-05-16T23:21:43.209;599616468772743632;14714.077;-35
2024-05-16T23:21:43.216;599616468780435282;14721.769;-14
2024-05-16T23:21:43.224;599616468788126932;14729.461;9
2024-05-16T23:21:43.232;599616468795818582;14737.152;21
2024-05-16T23:21:43.239;599616468803510232;14744.845;2
2024-05-16T23:21:43.247;599616468811201882;14752.535;2
2024-05-16T23:21:43.255;599616468818893532;14760.227;23
2024-05-16T23:21:43.262;599616468826585182;14767.919;-4
2024-05-16T23:21:43.270;599616468834276832;14775.61;-38
2024-05-16T23:21:43.278;599616468841968482;14783.302;-7
2024-05-16T23:21:43.285;599616468849660132;14790.994;28
2024-05-16T23:21:43.293;599616468857351782;14798.686;26
2024-05-16T23:21:43.301;599616468865043432;14806.378;33
2024-05-16T23:21:43.309;599616468872735082;14814.068;66
2024-05-16T23:21:43.316;599616468880426732;14821.76;104
2024-05-16T23:21:43.324;599616468888118382;14829.452;85
2024-05-16T23:21:43.332;599616468895810032;14837.144;-4
2024-05-16T23:21:43.339;599616468903501682;14844.836;-83
2024-05-16T23:21:43.347;599616468911193332;14852.527;0
2024-05-16T23:21:43.355;599616468918884982;14860.219;370
2024-05-16T23:21:43.362;599616468926576632;14867.911;779
2024-05-16T23:21:43.370;599616468934268282;14875.602;686
2024-05-16T23:21:43.378;599616468941959932;14883.293;106
2024-05-16T23:21:43.385;599616468949651582;14890.985;-235
2024-05-16T23:21:43.393;599616468957343232;14898.677;-114
2024-05-16T23:21:43.401;599616468965034882;14906.369;-30
2024-05-16T23:21:43.409;599616468972726532;14914.061;-102
2024-05-16T23:21:43.416;599616468980418182;14921.752;-102
2024-05-16T23:21:43.424;599616468988109832;14929.443;-78
2024-05-16T23:21:43.432;599616468995801482;14937.135;-85
2024-05-16T23:21:43.439;599616469003493132;14944.826;-57
2024-05-16T23:21:43.447;599616469011184782;14952.519;-21
2024-05-16T23:21:43.455;599616469018876432;14960.21;-7
2024-05-16T23:21:43.462;599616469026568082;14967.902;16
2024-05-16T23:21:43.470;599616469034259732;14975.594;30
2024-05-16T23:21:43.478;599616469041951382;14983.285;7
2024-05-16T23:21:43.485;599616469049643032;14990.977;0
2024-05-16T23:21:43.493;599616469057334682;14998.668;38
2024-05-16T23:21:43.501;599616469065026332;15006.359;57
2024-05-16T23:21:43.509;599616469072717982;15014.052;-2
2024-05-16T23:21:43.516;599616469080409632;15021.743;-87
2024-05-16T23:21:43.524;599616469088101282;15029.436;-106
2024-05-16T23:21:43.532;599616469095792932;15037.127;-76
2024-05-16T23:21:43.539;599616469103484582;15044.818;-59
2024-05-16T23:21:43.547;599616469111176232;15052.51;-52
2024-05-16T23:21:43.555;599616469118867882;15060.201;-23
2024-05-16T23:21:43.562;599616469126559532;15067.893;-14
2024-05-16T23:21:43.570;599616469134251182;15075.585;-21
2024-05-16T23:21:43.578;599616469141942832;15083.276;-7
2024-05-16T23:21:43.585;599616469149634482;15090.969;-7
2024-05-16T23:21:43.593;599616469157326132;15098.66;-85
2024-05-16T23:21:43.601;599616469165017782;15106.352;-171
2024-05-16T23:21:43.609;599616469172709432;15114.043;-159
2024-05-16T23:21:43.616;599616469180401082;15121.734;-102
2024-05-16T23:21:43.624;599616469188092732;15129.426;-83
2024-05-16T23:21:43.632;599616469195784382;15137.118;-73
2024-05-16T23:21:43.639;599616469203476032;15144.81;-38
2024-05-16T23:21:43.647;599616469211167682;15152.502;-16
2024-05-16T23:21:43.655;599616469218869398;15160.203;-30
2024-05-16T23:21:43.662;599616469226560909;15167.895;-30
2024-05-16T23:21:43.670;599616469234252420;15175.586;7
2024-05-16T23:21:43.678;599616469241943931;15183.278;23
2024-05-16T23:21:43.685;599616469249635442;15190.97;-33
2024-05-16T23:21:43.693;599616469257326953;15198.66;-133
2024-05-16T23:21:43.701;599616469265018464;15206.352;-190
2024-05-16T23:21:43.709;599616469272709975;15214.043;-16
2024-05-16T23:21:43.716;599616469280401486;15221.735;418
2024-05-16T23:21:43.724;599616469288092997;15229.427;722
2024-05-16T23:21:43.732;599616469295784508;15237.118;451
2024-05-16T23:21:43.739;599616469303476019;15244.81;-161
2024-05-16T23:21:43.747;599616469311167530;15252.502;-408
2024-05-16T23:21:43.755;599616469318859041;15260.192;-263
2024-05-16T23:21:43.762;599616469326550552;15267.884;-242
2024-05-16T23:21:43.770;599616469334242063;15275.575;-301
2024-05-16T23:21:43.778;599616469341933574;15283.268;-254
2024-05-16T23:21:43.785;599616469349625085;15290.959;-235
2024-05-16T23:21:43.793;599616469357316596;15298.65;-240
2024-05-16T23:21:43.801;599616469365008107;15306.342;-187
2024-05-16T23:21:43.809;599616469372699618;15314.033;-156
2024-05-16T23:21:43.816;599616469380391129;15321.725;-147
2024-05-16T23:21:43.824;599616469388082640;15329.416;-92
2024-05-16T23:21:43.832;599616469395774151;15337.107;-49
2024-05-16T23:21:43.839;599616469403465662;15344.8;-78
2024-05-16T23:21:43.847;599616469411157173;15352.491;-87
2024-05-16T23:21:43.855;599616469418848684;15360.183;-28
2024-05-16T23:21:43.862;599616469426540195;15367.874;2
2024-05-16T23:21:43.870;599616469434231706;15375.565;-49
2024-05-16T23:21:43.878;599616469441923217;15383.257;-90
2024-05-16T23:21:43.885;599616469449614728;15390.948;-59
2024-05-16T23:21:43.893;599616469457306239;15398.64;-19
2024-05-16T23:21:43.901;599616469464997750;15406.332;-7
2024-05-16T23:21:43.909;599616469472689261;15414.023;14
2024-05-16T23:21:43.916;599616469480380772;15421.715;35
2024-05-16T23:21:43.924;599616469488072283;15429.405;35
2024-05-16T23:21:43.932;599616469495763794;15437.097;26
2024-05-16T23:21:43.939;599616469503455305;15444.789;42
2024-05-16T23:21:43.947;599616469511146816;15452.48;83
2024-05-16T23:21:43.955;599616469518838327;15460.172;87
2024-05-16T23:21:43.962;599616469526529838;15467.863;68
2024-05-16T23:21:43.970;599616469534221349;15475.556;87
2024-05-16T23:21:43.978;599616469541912860;15483.247;116
2024-05-16T23:21:43.985;599616469549604371;15490.9375;123
2024-05-16T23:21:43.993;599616469557295882;15498.629;135
2024-05-16T23:21:44.001;599616469564987393;15506.321;123
2024-05-16T23:21:44.009;599616469572678904;15514.013;97
2024-05-16T23:21:44.016;599616469580370415;15521.704;99
2024-05-16T23:21:44.024;599616469588061926;15529.3955;80
2024-05-16T23:21:44.032;599616469595753437;15537.088;35
2024-05-16T23:21:44.039;599616469603444948;15544.778;33
2024-05-16T23:21:44.047;599616469611136459;15552.47;4
2024-05-16T23:21:44.055;599616469618827970;15560.161;-104
2024-05-16T23:21:44.062;599616469626519481;15567.854;-116
2024-05-16T23:21:44.070;599616469634210992;15575.545;178
2024-05-16T23:21:44.078;599616469641902503;15583.236;679
2024-05-16T23:21:44.085;599616469649594014;15590.928;917
2024-05-16T23:21:44.093;599616469657285525;15598.62;510
2024-05-16T23:21:44.101;599616469664977036;15606.311;-173
2024-05-16T23:21:44.109;599616469672668547;15614.002;-363
2024-05-16T23:21:44.116;599616469680360058;15621.693;-194
2024-05-16T23:21:44.124;599616469688051569;15629.386;-223
2024-05-16T23:21:44.132;599616469695743080;15637.077;-275
2024-05-16T23:21:44.139;599616469703434591;15644.769;-178
2024-05-16T23:21:44.147;599616469711126102;15652.46;-135
2024-05-16T23:21:44.155;599616469718817613;15660.15;-154
2024-05-16T23:21:44.162;599616469726509124;15667.843;-133
2024-05-16T23:21:44.170;599616469734200635;15675.534;-104
2024-05-16T23:21:44.178;599616469741892146;15683.226;-76
2024-05-16T23:21:44.185;599616469749583657;15690.917;-33
2024-05-16T23:21:44.193;599616469757275168;15698.609;7
2024-05-16T23:21:44.201;599616469764966679;15706.301;14
2024-05-16T23:21:44.208;599616469772658190;15713.991;0
2024-05-16T23:21:44.216;599616469780329648;15721.663;-4
2024-05-16T23:21:44.224;599616469788021438;15729.3545;-23
2024-05-16T23:21:44.232;599616469795713228;15737.047;-59
2024-05-16T23:21:44.239;599616469803405018;15744.738;-76
2024-05-16T23:21:44.247;599616469811096808;15752.431;-92
2024-05-16T23:21:44.255;599616469818788598;15760.122;-133
2024-05-16T23:21:44.262;599616469826480388;15767.814;-166
2024-05-16T23:21:44.270;599616469834172178;15775.506;-159
2024-05-16T23:21:44.278;599616469841863968;15783.197;-118
2024-05-16T23:21:44.285;599616469849555758;15790.889;-85
2024-05-16T23:21:44.293;599616469857247548;15798.581;-76
2024-05-16T23:21:44.301;599616469864939338;15806.272;-66
2024-05-16T23:21:44.308;599616469872631128;15813.965;-38
2024-05-16T23:21:44.316;599616469880322918;15821.657;0
2024-05-16T23:21:44.324;599616469888014708;15829.349;19
2024-05-16T23:21:44.332;599616469895706498;15837.041;35
2024-05-16T23:21:44.339;599616469903398288;15844.731;66
2024-05-16T23:21:44.347;599616469911090078;15852.424;68
2024-05-16T23:21:44.355;599616469918781868;15860.115;80
2024-05-16T23:21:44.362;599616469926473658;15867.808;128
2024-05-16T23:21:44.370;599616469934165448;15875.499;152
2024-05-16T23:21:44.378;599616469941857238;15883.191;128
2024-05-16T23:21:44.385;599616469949549028;15890.883;97
2024-05-16T23:21:44.393;599616469957240818;15898.575;87
2024-05-16T23:21:44.401;599616469964932608;15906.266;66
2024-05-16T23:21:44.408;599616469972624398;15913.958;-2
2024-05-16T23:21:44.416;599616469980316188;15921.649;-80
2024-05-16T23:21:44.424;599616469988007978;15929.342;-14
2024-05-16T23:21:44.432;599616469995699768;15937.033;344
2024-05-16T23:21:44.439;599616470003391558;15944.726;815
2024-05-16T23:21:44.447;599616470011083348;15952.417;926
2024-05-16T23:21:44.455;599616470018775138;15960.109;484
2024-05-16T23:21:44.462;599616470026466928;15967.801;-30
2024-05-16T23:21:44.470;599616470034158718;15975.492;-61
2024-05-16T23:21:44.478;599616470041850508;15983.184;85
