Phone timestamp;sensor timestamp [ns];timestamp [ms];ecg [uV]
2024-05-16T23:23:16.076;599616561632368014;0.0;2594
2024-05-16T23:23:16.083;599616561640059386;7.691372;3811
2024-05-16T23:23:16.091;599616561647750758;15.382744;4486
2024-05-16T23:23:16.099;599616561655442130;23.074116;5325
2024-05-16T23:23:16.106;599616561663133502;30.765488;6199
2024-05-16T23:23:16.114;599616561670824874;38.45686;6796
2024-05-16T23:23:16.122;599616561678516246;46.14823;7276
2024-05-16T23:23:16.129;599616561686207618;53.839603;7846
2024-05-16T23:23:16.137;599616561693898990;61.530975;8416
2024-05-16T23:23:16.145;599616561701590362;69.22235;8887
2024-05-16T23:23:16.152;599616561709281734;76.91372;9341
2024-05-16T23:23:16.160;599616561716973106;84.60509;9795
2024-05-16T23:23:16.168;599616561724664478;92.29646;10180
2024-05-16T23:23:16.175;599616561732355850;99.98784;10546
2024-05-16T23:23:16.183;599616561740047222;107.67921;10973
2024-05-16T23:23:16.191;599616561747738594;115.370575;11351
2024-05-16T23:23:16.199;599616561755429966;123.06195;11596
2024-05-16T23:23:16.206;599616561763121338;130.75333;11876
2024-05-16T23:23:16.214;599616561770812710;138.4447;12252
2024-05-16T23:23:16.222;599616561778504082;146.13606;12568
2024-05-16T23:23:16.229;599616561786195454;153.82744;12822
2024-05-16T23:23:16.237;599616561793886826;161.51881;13095
2024-05-16T23:23:16.245;599616561801578198;169.21017;13352
2024-05-16T23:23:16.252;599616561809269570;176.90155;13573
2024-05-16T23:23:16.260;599616561816960942;184.59293;13761
2024-05-16T23:23:16.268;599616561824652314;192.2843;13986
2024-05-16T23:23:16.275;599616561832343686;199.97568;14279
2024-05-16T23:23:16.283;599616561840035058;207.66704;14469
2024-05-16T23:23:16.291;599616561847726430;215.35841;14514
2024-05-16T23:23:16.299;599616561855417802;223.04979;14666
2024-05-16T23:23:16.306;599616561863109174;230.74115;14918
2024-05-16T23:23:16.314;599616561870800546;238.43253;15046
2024-05-16T23:23:16.322;599616561878491918;246.1239;15127
2024-05-16T23:23:16.329;599616561886183290;253.81528;15282
2024-05-16T23:23:16.337;599616561893874662;261.50665;15396
2024-05-16T23:23:16.345;599616561901566034;269.19803;15498
2024-05-16T23:23:16.352;599616561909257406;276.8894;15685
2024-05-16T23:23:16.360;599616561916948778;284.58078;15826
2024-05-16T23:23:16.368;599616561924640150;292.27213;15802
2024-05-16T23:23:16.375;599616561932331522;299.96353;15704
2024-05-16T23:23:16.383;599616561940022894;307.65488;15669
2024-05-16T23:23:16.391;599616561947714266;315.34625;15759
2024-05-16T23:23:16.399;599616561955405638;323.03763;15859
2024-05-16T23:23:16.406;599616561963097010;330.729;15835
2024-05-16T23:23:16.414;599616561970788382;338.42035;15838
2024-05-16T23:23:16.422;599616561978479754;346.11176;15940
2024-05-16T23:23:16.429;599616561986171126;353.8031;15933
2024-05-16T23:23:16.437;599616561993862498;361.4945;15809
2024-05-16T23:23:16.445;599616562001553870;369.18585;15745
2024-05-16T23:23:16.452;599616562009245242;376.87723;15857
2024-05-16T23:23:16.460;599616562016936614;384.5686;16208
2024-05-16T23:23:16.468;599616562024627986;392.25998;16636
2024-05-16T23:23:16.475;599616562032319358;399.95135;16783
2024-05-16T23:23:16.483;599616562040010730;407.64273;16444
2024-05-16T23:23:16.491;599616562047702102;415.33408;15845
2024-05-16T23:23:16.499;599616562055393474;423.02548;15548
2024-05-16T23:23:16.506;599616562063084846;430.71683;15693
2024-05-16T23:23:16.514;599616562070776218;438.4082;15771
2024-05-16T23:23:16.522;599616562078467590;446.09958;15557
2024-05-16T23:23:16.529;599616562086158962;453.79095;15415
2024-05-16T23:23:16.537;599616562093850334;461.4823;15379
2024-05-16T23:23:16.545;599616562101541706;469.1737;15270
2024-05-16T23:23:16.552;599616562109233078;476.86505;15201
2024-05-16T23:23:16.560;599616562116924450;484.55646;15125
2024-05-16T23:23:16.568;599616562124615822;492.2478;14975
2024-05-16T23:23:16.575;599616562132307194;499.93918;14932
2024-05-16T23:23:16.583;599616562139998566;507.63055;14904
2024-05-16T23:23:16.591;599616562147689938;515.3219;14766
2024-05-16T23:23:16.599;599616562155381310;523.0133;14771
2024-05-16T23:23:16.606;599616562163072682;530.70465;14861
2024-05-16T23:23:16.614;599616562170764054;538.39606;14785
2024-05-16T23:23:16.622;599616562178455426;546.0874;14573
2024-05-16T23:23:16.629;599616562186146798;553.7788;14300
2024-05-16T23:23:16.637;599616562193838178;561.47015;14184
2024-05-16T23:23:16.645;599616562201529550;569.16156;14184
2024-05-16T23:23:16.652;599616562209220922;576.8529;14041
2024-05-16T23:23:16.660;599616562216912294;584.54425;13879
2024-05-16T23:23:16.668;599616562224603666;592.23566;13839
2024-05-16T23:23:16.675;599616562232295038;599.92706;13730
2024-05-16T23:23:16.683;599616562239986410;607.61835;13561
2024-05-16T23:23:16.691;599616562247677782;615.30975;13599
2024-05-16T23:23:16.699;599616562255369154;623.00116;13637
2024-05-16T23:23:16.706;599616562263060526;630.6925;13295
2024-05-16T23:23:16.714;599616562270751898;638.38385;12957
2024-05-16T23:23:16.722;599616562278443270;646.07526;12984
2024-05-16T23:23:16.729;599616562286134642;653.76666;12986
2024-05-16T23:23:16.737;599616562293826014;661.458;12817
2024-05-16T23:23:16.745;599616562301517386;669.14935;12701
2024-05-16T23:23:16.752;599616562309208758;676.84076;12627
2024-05-16T23:23:16.760;599616562316900130;684.5321;12525
2024-05-16T23:23:16.768;599616562324591502;692.2235;12394
2024-05-16T23:23:16.775;599616562332282874;699.91486;12299
2024-05-16T23:23:16.783;599616562339974246;707.6062;12292
2024-05-16T23:23:16.791;599616562347665618;715.2976;12216
2024-05-16T23:23:16.798;599616562355356990;722.989;11993
2024-05-16T23:23:16.806;599616562363048362;730.6803;11864
2024-05-16T23:23:16.814;599616562370739734;738.3717;11867
2024-05-16T23:23:16.822;599616562378431106;746.0631;11784
2024-05-16T23:23:16.829;599616562386122478;753.7545;11634
2024-05-16T23:23:16.837;599616562393813850;761.4458;11532
2024-05-16T23:23:16.845;599616562401505222;769.1372;11451
2024-05-16T23:23:16.852;599616562409196594;776.8286;11368
2024-05-16T23:23:16.860;599616562416887966;784.51996;11249
2024-05-16T23:23:16.868;599616562424579338;792.2113;11094
2024-05-16T23:23:16.875;599616562432270710;799.9027;10976
2024-05-16T23:23:16.883;599616562439962082;807.59406;10850
2024-05-16T23:23:16.891;599616562447653454;815.28546;10671
2024-05-16T23:23:16.898;599616562455344826;822.9768;10560
2024-05-16T23:23:16.906;599616562463036198;830.66815;10517
2024-05-16T23:23:16.914;599616562470727570;838.35956;10403
2024-05-16T23:23:16.922;599616562478418942;846.05096;10268
2024-05-16T23:23:16.929;599616562486110314;853.74225;10199
2024-05-16T23:23:16.937;599616562493801686;861.43365;10106
2024-05-16T23:23:16.945;599616562501493058;869.12506;9947
2024-05-16T23:23:16.952;599616562509184430;876.8164;9780
2024-05-16T23:23:16.960;599616562516875802;884.50775;9704
2024-05-16T23:23:16.968;599616562524567174;892.19916;9826
2024-05-16T23:23:16.975;599616562532258546;899.89056;10123
2024-05-16T23:23:16.983;599616562539949918;907.5819;10358
2024-05-16T23:23:16.991;599616562547641290;915.27325;10208
2024-05-16T23:23:16.998;599616562555332662;922.96466;9602
2024-05-16T23:23:17.006;599616562563024034;930.656;9060
2024-05-16T23:23:17.014;599616562570715406;938.3474;8994
2024-05-16T23:23:17.022;599616562578406778;946.03876;9039
2024-05-16T23:23:17.029;599616562586098150;953.7301;8844
2024-05-16T23:23:17.037;599616562593789522;961.4215;8630
2024-05-16T23:23:17.045;599616562601480894;969.1129;8568
2024-05-16T23:23:17.052;599616562609172266;976.8042;8483
2024-05-16T23:23:17.060;599616562616863638;984.4956;8328
2024-05-16T23:23:17.068;599616562624555010;992.187;8191
2024-05-16T23:23:17.075;599616562632246382;999.8784;8074
2024-05-16T23:23:17.083;599616562639937754;1007.5697;8003
2024-05-16T23:23:17.091;599616562647629126;1015.2611;7974
2024-05-16T23:23:17.098;599616562655320498;1022.9525;7886
2024-05-16T23:23:17.106;599616562663011870;1030.6438;7727
2024-05-16T23:23:17.114;599616562670703242;1038.3352;7611
2024-05-16T23:23:17.122;599616562678394614;1046.0266;7589
2024-05-16T23:23:17.129;599616562686085986;1053.7179;7487
2024-05-16T23:23:17.137;599616562693777358;1061.4093;7261
2024-05-16T23:23:17.145;599616562701468730;1069.1007;7200
2024-05-16T23:23:17.152;599616562709160102;1076.7921;7228
2024-05-16T23:23:17.160;599616562716851474;1084.4834;7095
2024-05-16T23:23:17.168;599616562724542846;1092.1748;6957
2024-05-16T23:23:17.175;599616562732234218;1099.8662;6934
2024-05-16T23:23:17.183;599616562739925590;1107.5576;6862
2024-05-16T23:23:17.191;599616562747616962;1115.2489;6729
2024-05-16T23:23:17.198;599616562755308342;1122.9403;6675
2024-05-16T23:23:17.206;599616562762999714;1130.6317;6622
2024-05-16T23:23:17.214;599616562770691086;1138.3231;6477
2024-05-16T23:23:17.222;599616562778382458;1146.0144;6368
2024-05-16T23:23:17.229;599616562786073830;1153.7058;6344
2024-05-16T23:23:17.237;599616562793765202;1161.3972;6309
2024-05-16T23:23:17.245;599616562801456574;1169.0885;6235
2024-05-16T23:23:17.252;599616562809147946;1176.7799;6145
2024-05-16T23:23:17.260;599616562816839318;1184.4713;6083
2024-05-16T23:23:17.268;599616562824530690;1192.1627;6052
2024-05-16T23:23:17.275;599616562832222062;1199.8541;5914
2024-05-16T23:23:17.283;599616562839913434;1207.5455;5745
2024-05-16T23:23:17.291;599616562847604806;1215.2367;5736
2024-05-16T23:23:17.298;599616562855296178;1222.9281;5715
2024-05-16T23:23:17.306;599616562862987550;1230.6195;5572
2024-05-16T23:23:17.314;599616562870678922;1238.3109;5505
2024-05-16T23:23:17.322;599616562878370294;1246.0023;5505
2024-05-16T23:23:17.329;599616562886061666;1253.6937;5451
2024-05-16T23:23:17.337;599616562893753038;1261.385;5387
2024-05-16T23:23:17.345;599616562901444410;1269.0763;5322
2024-05-16T23:23:17.352;599616562909135782;1276.7677;5196
2024-05-16T23:23:17.360;599616562916827154;1284.4591;5087
2024-05-16T23:23:17.368;599616562924518526;1292.1505;5040
2024-05-16T23:23:17.375;599616562932209898;1299.8419;5006
2024-05-16T23:23:17.383;599616562939901270;1307.5333;4985
2024-05-16T23:23:17.391;599616562947592642;1315.2246;4902
2024-05-16T23:23:17.398;599616562955284014;1322.916;4764
2024-05-16T23:23:17.406;599616562962975386;1330.6073;4719
2024-05-16T23:23:17.414;599616562970666758;1338.2987;4724
2024-05-16T23:23:17.421;599616562978358130;1345.9901;4655
2024-05-16T23:23:17.429;599616562986049502;1353.6815;4583
2024-05-16T23:23:17.437;599616562993740874;1361.3728;4550
2024-05-16T23:23:17.445;599616563001432246;1369.0642;4491
2024-05-16T23:23:17.452;599616563009123618;1376.7556;4422
2024-05-16T23:23:17.460;599616563016814990;1384.447;4372
2024-05-16T23:23:17.468;599616563024506362;1392.1384;4320
2024-05-16T23:23:17.475;599616563032197734;1399.8297;4251
2024-05-16T23:23:17.483;599616563039889106;1407.5211;4267
2024-05-16T23:23:17.491;599616563047580478;1415.2124;4552
2024-05-16T23:23:17.498;599616563055271850;1422.9038;4997
2024-05-16T23:23:17.506;599616563062963222;1430.5952;5054
2024-05-16T23:23:17.514;599616563070654594;1438.2866;4476
2024-05-16T23:23:17.521;599616563078345966;1445.978;3890
2024-05-16T23:23:17.529;599616563086037338;1453.6694;3832
2024-05-16T23:23:17.537;599616563093728710;1461.3606;3904
2024-05-16T23:23:17.545;599616563101420082;1469.052;3759
2024-05-16T23:23:17.552;599616563109111454;1476.7434;3645
2024-05-16T23:23:17.560;599616563116802826;1484.4348;3645
2024-05-16T23:23:17.568;599616563124494198;1492.1262;3585
2024-05-16T23:23:17.575;599616563132185570;1499.8176;3450
2024-05-16T23:23:17.583;599616563139876942;1507.509;3383
2024-05-16T23:23:17.591;599616563147568314;1515.2002;3369
2024-05-16T23:23:17.598;599616563155259686;1522.8916;3279
2024-05-16T23:23:17.606;599616563162951058;1530.583;3181
2024-05-16T23:23:17.614;599616563170642430;1538.2744;3172
2024-05-16T23:23:17.621;599616563178333802;1545.9658;3172
2024-05-16T23:23:17.629;599616563186025174;1553.6572;3086
2024-05-16T23:23:17.637;599616563193716546;1561.3485;2977
2024-05-16T23:23:17.645;599616563201407918;1569.0399;2965
2024-05-16T23:23:17.652;599616563209099290;1576.7313;3010
2024-05-16T23:23:17.660;599616563216790662;1584.4226;3006
2024-05-16T23:23:17.668;599616563224482034;1592.114;2948
2024-05-16T23:23:17.675;599616563232173406;1599.8054;2915
2024-05-16T23:23:17.683;599616563239864778;1607.4967;2927
2024-05-16T23:23:17.691;599616563247556150;1615.1881;2908
2024-05-16T23:23:17.698;599616563255247522;1622.8795;2856
2024-05-16T23:23:17.706;599616563262938894;1630.5709;2832
2024-05-16T23:23:17.714;599616563270630266;1638.2623;2792
2024-05-16T23:23:17.721;599616563278321638;1645.9536;2718
2024-05-16T23:23:17.729;599616563286013010;1653.645;2680
2024-05-16T23:23:17.737;599616563293704382;1661.3363;2685
2024-05-16T23:23:17.745;599616563301395754;1669.0277;2670
2024-05-16T23:23:17.752;599616563309087126;1676.7191;2621
2024-05-16T23:23:17.760;599616563316778506;1684.4105;2571
2024-05-16T23:23:17.768;599616563324469878;1692.1019;2568
2024-05-16T23:23:17.775;599616563332161250;1699.7933;2583
2024-05-16T23:23:17.783;599616563339852622;1707.4846;2552
2024-05-16T23:23:17.791;599616563347543994;1715.1759;2533
2024-05-16T23:23:17.798;599616563355235366;1722.8673;2554
2024-05-16T23:23:17.806;599616563362926738;1730.5587;2514
2024-05-16T23:23:17.814;599616563370618110;1738.2501;2385
2024-05-16T23:23:17.821;599616563378309482;1745.9415;2321
2024-05-16T23:23:17.829;599616563386000854;1753.6329;2352
2024-05-16T23:23:17.837;599616563393692226;1761.3242;2340
2024-05-16T23:23:17.845;599616563401383598;1769.0155;2266
2024-05-16T23:23:17.852;599616563409074970;1776.7069;2219
2024-05-16T23:23:17.860;599616563416766342;1784.3983;2217
2024-05-16T23:23:17.868;599616563424457714;1792.0897;2209
2024-05-16T23:23:17.875;599616563432149086;1799.7811;2183
2024-05-16T23:23:17.883;599616563439840458;1807.4724;2167
2024-05-16T23:23:17.891;599616563447531830;1815.1638;2171
2024-05-16T23:23:17.898;599616563455223202;1822.8552;2162
2024-05-16T23:23:17.906;599616563462914574;1830.5465;2098
2024-05-16T23:23:17.914;599616563470605946;1838.2379;2038
2024-05-16T23:23:17.921;599616563478297318;1845.9293;2043
2024-05-16T23:23:17.929;599616563485988690;1853.6207;2041
2024-05-16T23:23:17.937;599616563493680062;1861.312;2005
2024-05-16T23:23:17.945;599616563501371434;1869.0034;1981
2024-05-16T23:23:17.952;599616563509062806;1876.6948;1974
2024-05-16T23:23:17.960;599616563516754178;1884.3862;1950
2024-05-16T23:23:17.968;599616563524445550;1892.0775;1924
2024-05-16T23:23:17.975;599616563532136922;1899.7689;1901
2024-05-16T23:23:17.983;599616563539828294;1907.4602;1851
2024-05-16T23:23:17.991;599616563547519666;1915.1516;1825
2024-05-16T23:23:17.998;599616563555211038;1922.843;2045
2024-05-16T23:23:18.006;599616563562902410;1930.5344;2552
2024-05-16T23:23:18.014;599616563570593782;1938.2258;2870
2024-05-16T23:23:18.021;599616563578285154;1945.9172;2535
2024-05-16T23:23:18.029;599616563585976526;1953.6084;1872
2024-05-16T23:23:18.037;599616563593667898;1961.2998;1618
2024-05-16T23:23:18.044;599616563601359270;1968.9912;1744
2024-05-16T23:23:18.052;599616563609050642;1976.6826;1727
2024-05-16T23:23:18.060;599616563616742014;1984.374;1615
2024-05-16T23:23:18.068;599616563624433386;1992.0654;1637
2024-05-16T23:23:18.075;599616563632124758;1999.7568;1630
2024-05-16T23:23:18.083;599616563639816130;2007.4481;1523
2024-05-16T23:23:18.091;599616563647507502;2015.1394;1440
2024-05-16T23:23:18.098;599616563655198874;2022.8308;1425
2024-05-16T23:23:18.106;599616563662890246;2030.5222;1423
2024-05-16T23:23:18.114;599616563670581618;2038.2136;1404
2024-05-16T23:23:18.121;599616563678272990;2045.905;1399
2024-05-16T23:23:18.129;599616563685964362;2053.5962;1392
2024-05-16T23:23:18.137;599616563693655734;2061.2876;1325
2024-05-16T23:23:18.144;599616563701347106;2068.979;1238
2024-05-16T23:23:18.152;599616563709038478;2076.6704;1240
2024-05-16T23:23:18.160;599616563716729850;2084.3618;1314
2024-05-16T23:23:18.168;599616563724421222;2092.0532;1340
2024-05-16T23:23:18.175;599616563732112594;2099.7446;1318
2024-05-16T23:23:18.183;599616563739803966;2107.4358;1321
2024-05-16T23:23:18.191;599616563747495338;2115.1272;1352
2024-05-16T23:23:18.198;599616563755186710;2122.8186;1356
2024-05-16T23:23:18.206;599616563762878082;2130.51;1325
2024-05-16T23:23:18.214;599616563770569454;2138.2014;1302
2024-05-16T23:23:18.221;599616563778260826;2145.8928;1285
2024-05-16T23:23:18.229;599616563785952198;2153.5842;1249
2024-05-16T23:23:18.237;599616563793643570;2161.2756;1223
2024-05-16T23:23:18.244;599616563801334942;2168.9668;1235
2024-05-16T23:23:18.252;599616563809026314;2176.6582;1249
2024-05-16T23:23:18.260;599616563816717686;2184.3496;1233
2024-05-16T23:23:18.268;599616563824409058;2192.041;1211
2024-05-16T23:23:18.275;599616563832100430;2199.7324;1214
2024-05-16T23:23:18.283;599616563839791802;2207.4238;1230
2024-05-16T23:23:18.291;599616563847483174;2215.1152;1235
2024-05-16T23:23:18.298;599616563855174546;2222.8066;1228
2024-05-16T23:23:18.306;599616563862865918;2230.4978;1233
2024-05-16T23:23:18.314;599616563870557290;2238.1892;1240
2024-05-16T23:23:18.321;599616563878248670;2245.8806;1233
2024-05-16T23:23:18.329;599616563885940042;2253.572;1200
2024-05-16T23:23:18.337;599616563893631414;2261.2634;1157
2024-05-16T23:23:18.344;599616563901322786;2268.9548;1145
2024-05-16T23:23:18.352;599616563909014158;2276.6462;1150
2024-05-16T23:23:18.360;599616563916705530;2284.3374;1138
2024-05-16T23:23:18.368;599616563924396902;2292.0288;1133
2024-05-16T23:23:18.375;599616563932088274;2299.7202;1119
2024-05-16T23:23:18.383;599616563939779646;2307.4116;1050
2024-05-16T23:23:18.391;599616563947471018;2315.103;993
2024-05-16T23:23:18.398;599616563955162390;2322.7944;1012
2024-05-16T23:23:18.406;599616563962853762;2330.4858;1012
2024-05-16T23:23:18.414;599616563970545134;2338.177;960
2024-05-16T23:23:18.421;599616563978236506;2345.8687;922
2024-05-16T23:23:18.429;599616563985927878;2353.5598;938
2024-05-16T23:23:18.437;599616563993619250;2361.2512;962
2024-05-16T23:23:18.444;599616564001310622;2368.9426;948
2024-05-16T23:23:18.452;599616564009001994;2376.6338;933
2024-05-16T23:23:18.460;599616564016693366;2384.3254;948
2024-05-16T23:23:18.468;599616564024384738;2392.0166;950
2024-05-16T23:23:18.475;599616564032076110;2399.7083;936
2024-05-16T23:23:18.483;599616564039767482;2407.3994;938
2024-05-16T23:23:18.491;599616564047458854;2415.091;945
2024-05-16T23:23:18.498;599616564055150226;2422.7822;891
2024-05-16T23:23:18.506;599616564062841598;2430.4734;826
2024-05-16T23:23:18.514;599616564070532970;2438.165;969
2024-05-16T23:23:18.521;599616564078224342;2445.8562;1399
2024-05-16T23:23:18.529;599616564085915714;2453.5479;1863
2024-05-16T23:23:18.537;599616564093607086;2461.239;1898
2024-05-16T23:23:18.544;599616564101298458;2468.9307;1361
2024-05-16T23:23:18.552;599616564108989830;2476.6218;824
2024-05-16T23:23:18.560;599616564116681202;2484.313;786
2024-05-16T23:23:18.568;599616564124372574;2492.0046;888
2024-05-16T23:23:18.575;599616564132063946;2499.6958;772
2024-05-16T23:23:18.583;599616564139755318;2507.3875;653
2024-05-16T23:23:18.591;599616564147446690;2515.0786;624
2024-05-16T23:23:18.598;599616564155138062;2522.77;577
2024-05-16T23:23:18.606;599616564162829434;2530.4614;553
2024-05-16T23:23:18.614;599616564170520806;2538.1526;584
2024-05-16T23:23:18.621;599616564178212178;2545.8442;594
2024-05-16T23:23:18.629;599616564185903550;2553.5354;579
2024-05-16T23:23:18.637;599616564193594922;2561.227;565
2024-05-16T23:23:18.644;599616564201286294;2568.9182;508
2024-05-16T23:23:18.652;599616564208977666;2576.6096;432
2024-05-16T23:23:18.660;599616564216669038;2584.301;446
2024-05-16T23:23:18.667;599616564224360410;2591.9924;527
2024-05-16T23:23:18.675;599616564232051782;2599.6838;558
2024-05-16T23:23:18.683;599616564239743154;2607.375;556
2024-05-16T23:23:18.691;599616564247434526;2615.0667;584
2024-05-16T23:23:18.698;599616564255125898;2622.7578;636
2024-05-16T23:23:18.706;599616564262817270;2630.4492;665
2024-05-16T23:23:18.714;599616564270508642;2638.1406;665
2024-05-16T23:23:18.721;599616564278200014;2645.832;667
2024-05-16T23:23:18.729;599616564285891386;2653.5234;655
2024-05-16T23:23:18.737;599616564293582758;2661.2146;632
2024-05-16T23:23:18.744;599616564301274130;2668.9062;622
2024-05-16T23:23:18.752;599616564308965502;2676.5974;636
2024-05-16T23:23:18.760;599616564316656874;2684.2888;653
2024-05-16T23:23:18.767;599616564324348246;2691.9802;639
2024-05-16T23:23:18.775;599616564332039618;2699.6716;613
2024-05-16T23:23:18.783;599616564339730990;2707.363;627
2024-05-16T23:23:18.791;599616564347422362;2715.0544;670
2024-05-16T23:23:18.798;599616564355113734;2722.7456;681
2024-05-16T23:23:18.806;599616564362805106;2730.437;674
2024-05-16T23:23:18.814;599616564370496478;2738.1284;698
2024-05-16T23:23:18.821;599616564378187850;2745.8198;684
2024-05-16T23:23:18.829;599616564385879222;2753.5112;603
2024-05-16T23:23:18.837;599616564393570594;2761.2026;584
2024-05-16T23:23:18.844;599616564401261966;2768.894;648
2024-05-16T23:23:18.852;599616564408953338;2776.5852;670
2024-05-16T23:23:18.860;599616564416644710;2784.2769;648
2024-05-16T23:23:18.867;599616564424336082;2791.968;648
2024-05-16T23:23:18.875;599616564432027454;2799.6594;670
2024-05-16T23:23:18.883;599616564439718834;2807.3508;679
2024-05-16T23:23:18.891;599616564447410206;2815.0422;670
2024-05-16T23:23:18.898;599616564455101578;2822.7336;677
2024-05-16T23:23:18.906;599616564462792950;2830.4248;698
2024-05-16T23:23:18.914;599616564470484322;2838.1165;670
2024-05-16T23:23:18.921;599616564478175694;2845.8076;565
2024-05-16T23:23:18.929;599616564485867066;2853.499;487
2024-05-16T23:23:18.937;599616564493558438;2861.1904;506
2024-05-16T23:23:18.944;599616564501249810;2868.8818;539
2024-05-16T23:23:18.952;599616564508941182;2876.5732;527
2024-05-16T23:23:18.960;599616564516632554;2884.2644;506
2024-05-16T23:23:18.967;599616564524323926;2891.956;525
2024-05-16T23:23:18.975;599616564532015298;2899.6472;548
2024-05-16T23:23:18.983;599616564539706670;2907.3389;541
2024-05-16T23:23:18.991;599616564547398042;2915.03;548
2024-05-16T23:23:18.998;599616564555089414;2922.7212;575
2024-05-16T23:23:19.006;599616564562780786;2930.4128;556
2024-05-16T23:23:19.014;599616564570472158;2938.104;496
2024-05-16T23:23:19.021;599616564578163530;2945.7957;482
2024-05-16T23:23:19.029;599616564585854902;2953.4868;624
2024-05-16T23:23:19.037;599616564593546274;2961.1785;1012
2024-05-16T23:23:19.044;599616564601237646;2968.8696;1466
2024-05-16T23:23:19.052;599616564608929018;2976.5608;1523
2024-05-16T23:23:19.060;599616564616620390;2984.2524;1019
2024-05-16T23:23:19.067;599616564624311762;2991.9436;491
2024-05-16T23:23:19.075;599616564632003134;2999.6353;420
2024-05-16T23:23:19.083;599616564639694506;3007.3264;499
2024-05-16T23:23:19.091;599616564647385878;3015.018;401
2024-05-16T23:23:19.098;599616564655077250;3022.7092;311
2024-05-16T23:23:19.106;599616564662768622;3030.4004;301
2024-05-16T23:23:19.114;599616564670459994;3038.092;287
2024-05-16T23:23:19.121;599616564678151366;3045.7832;294
2024-05-16T23:23:19.129;599616564685842738;3053.4749;306
2024-05-16T23:23:19.137;599616564693534110;3061.166;299
2024-05-16T23:23:19.144;599616564701225482;3068.8574;285
2024-05-16T23:23:19.152;599616564708916854;3076.5488;240
2024-05-16T23:23:19.160;599616564716608226;3084.2402;168
2024-05-16T23:23:19.167;599616564724299598;3091.9316;166
2024-05-16T23:23:19.175;599616564731990970;3099.6228;237
2024-05-16T23:23:19.183;599616564739682342;3107.3145;282
2024-05-16T23:23:19.191;599616564747373714;3115.0056;282
2024-05-16T23:23:19.198;599616564755065086;3122.697;294
2024-05-16T23:23:19.206;599616564762756458;3130.3884;342
2024-05-16T23:23:19.214;599616564770447830;3138.0798;396
2024-05-16T23:23:19.221;599616564778139202;3145.7712;425
2024-05-16T23:23:19.229;599616564785830574;3153.4626;422
2024-05-16T23:23:19.237;599616564793521946;3161.154;415
2024-05-16T23:23:19.244;599616564801213318;3168.8452;415
2024-05-16T23:23:19.252;599616564808904690;3176.5366;401
2024-05-16T23:23:19.260;599616564816596062;3184.228;389
2024-05-16T23:23:19.267;599616564824287434;3191.9194;408
2024-05-16T23:23:19.275;599616564831978806;3199.6108;422
2024-05-16T23:23:19.283;599616564839670178;3207.3022;399
2024-05-16T23:23:19.290;599616564847361550;3214.9934;380
2024-05-16T23:23:19.298;599616564855052922;3222.6848;413
2024-05-16T23:23:19.306;599616564862744294;3230.3762;453
2024-05-16T23:23:19.314;599616564870435666;3238.0676;461
2024-05-16T23:23:19.321;599616564878127038;3245.759;422
2024-05-16T23:23:19.329;599616564885818410;3253.4504;389
2024-05-16T23:23:19.337;599616564893509782;3261.1418;408
2024-05-16T23:23:19.344;599616564901201154;3268.833;437
2024-05-16T23:23:19.352;599616564908892526;3276.5247;444
2024-05-16T23:23:19.360;599616564916583898;3284.2158;465
2024-05-16T23:23:19.367;599616564924275270;3291.9072;480
2024-05-16T23:23:19.375;599616564931966642;3299.5986;461
2024-05-16T23:23:19.383;599616564939658014;3307.29;470
2024-05-16T23:23:19.390;599616564947349386;3314.9814;515
2024-05-16T23:23:19.398;599616564955040758;3322.6726;515
2024-05-16T23:23:19.406;599616564962732130;3330.3643;496
2024-05-16T23:23:19.414;599616564970423502;3338.0554;522
2024-05-16T23:23:19.421;599616564978114874;3345.7468;525
2024-05-16T23:23:19.429;599616564985806246;3353.4382;468
2024-05-16T23:23:19.437;599616564993497618;3361.1296;427
2024-05-16T23:23:19.444;599616565001188998;3368.821;441
2024-05-16T23:23:19.452;599616565008880370;3376.5122;456
2024-05-16T23:23:19.460;599616565016571742;3384.2039;441
2024-05-16T23:23:19.467;599616565024263114;3391.895;425
2024-05-16T23:23:19.475;599616565031954486;3399.5867;437
2024-05-16T23:23:19.483;599616565039645858;3407.2778;434
2024-05-16T23:23:19.490;599616565047337230;3414.9692;358
2024-05-16T23:23:19.498;599616565055028602;3422.6606;280
2024-05-16T23:23:19.506;599616565062719974;3430.3518;287
2024-05-16T23:23:19.514;599616565070411346;3438.0435;313
2024-05-16T23:23:19.521;599616565078102718;3445.7346;297
2024-05-16T23:23:19.529;599616565085794090;3453.4263;294
2024-05-16T23:23:19.537;599616565093485462;3461.1174;308
2024-05-16T23:23:19.544;599616565101176834;3468.8086;292
2024-05-16T23:23:19.552;599616565108868206;3476.5002;351
2024-05-16T23:23:19.560;599616565116559578;3484.1914;665
2024-05-16T23:23:19.567;599616565124250950;3491.883;1102
2024-05-16T23:23:19.575;599616565131942322;3499.5742;1214
2024-05-16T23:23:19.583;599616565139633694;3507.2659;767
2024-05-16T23:23:19.590;599616565147325066;3514.957;216
2024-05-16T23:23:19.598;599616565155016438;3522.6484;106
2024-05-16T23:23:19.606;599616565162707810;3530.3398;178
2024-05-16T23:23:19.614;599616565170399182;3538.031;76
2024-05-16T23:23:19.621;599616565178090554;3545.7227;19
2024-05-16T23:23:19.629;599616565185781926;3553.4138;95
2024-05-16T23:23:19.637;599616565193473298;3561.1055;104
2024-05-16T23:23:19.644;599616565201164670;3568.7966;71
2024-05-16T23:23:19.652;599616565208856042;3576.488;68
2024-05-16T23:23:19.660;599616565216547414;3584.1794;28
2024-05-16T23:23:19.667;599616565224238786;3591.8706;-40
2024-05-16T23:23:19.675;599616565231930158;3599.5623;-33
2024-05-16T23:23:19.683;599616565239621530;3607.2534;23
2024-05-16T23:23:19.690;599616565247312902;3614.9448;49
2024-05-16T23:23:19.698;599616565255004274;3622.6362;64
2024-05-16T23:23:19.706;599616565262695646;3630.3276;90
2024-05-16T23:23:19.714;599616565270387018;3638.019;135
2024-05-16T23:23:19.721;599616565278078390;3645.7104;192
2024-05-16T23:23:19.729;599616565285769762;3653.4019;230
2024-05-16T23:23:19.737;599616565293461134;3661.093;251
2024-05-16T23:23:19.744;599616565301152506;3668.7844;266
2024-05-16T23:23:19.752;599616565308843878;3676.4758;278
2024-05-16T23:23:19.760;599616565316535250;3684.1672;285
2024-05-16T23:23:19.767;599616565324226622;3691.8586;292
2024-05-16T23:23:19.775;599616565331917994;3699.55;311
2024-05-16T23:23:19.783;599616565339609366;3707.2415;311
2024-05-16T23:23:19.790;599616565347300738;3714.9326;268
2024-05-16T23:23:19.798;599616565354992110;3722.624;242
2024-05-16T23:23:19.806;599616565362683482;3730.3154;251
2024-05-16T23:23:19.814;599616565370374854;3738.0068;216
2024-05-16T23:23:19.821;599616565378066226;3745.6982;178
2024-05-16T23:23:19.829;599616565385757598;3753.3896;192
2024-05-16T23:23:19.837;599616565393448970;3761.0808;216
2024-05-16T23:23:19.844;599616565401140342;3768.7725;225
2024-05-16T23:23:19.852;599616565408831714;3776.4636;244
2024-05-16T23:23:19.860;599616565416523086;3784.155;270
2024-05-16T23:23:19.867;599616565424214458;3791.8464;301
2024-05-16T23:23:19.875;599616565431905830;3799.5378;316
2024-05-16T23:23:19.883;599616565439597202;3807.2292;308
2024-05-16T23:23:19.890;599616565447288574;3814.9204;318
2024-05-16T23:23:19.898;599616565454979946;3822.612;349
2024-05-16T23:23:19.906;599616565462671318;3830.3032;370
2024-05-16T23:23:19.913;599616565470362690;3837.9949;370
2024-05-16T23:23:19.921;599616565478054062;3845.686;370
2024-05-16T23:23:19.929;599616565485745434;3853.3774;361
2024-05-16T23:23:19.937;599616565493436806;3861.0688;327
2024-05-16T23:23:19.944;599616565501128178;3868.76;292
2024-05-16T23:23:19.952;599616565508819550;3876.4517;299
2024-05-16T23:23:19.960;599616565516510922;3884.1428;318
2024-05-16T23:23:19.967;599616565524202294;3891.8345;297
2024-05-16T23:23:19.975;599616565531893666;3899.5256;266
2024-05-16T23:23:19.983;599616565539585038;3907.2168;278
2024-05-16T23:23:19.990;599616565547276410;3914.9084;308
2024-05-16T23:23:19.998;599616565554967782;3922.5996;323
2024-05-16T23:23:20.006;599616565562659162;3930.2913;323
2024-05-16T23:23:20.013;599616565570350534;3937.9824;330
2024-05-16T23:23:20.021;599616565578041906;3945.674;325
2024-05-16T23:23:20.029;599616565585733278;3953.3652;308
2024-05-16T23:23:20.037;599616565593424650;3961.0564;323
2024-05-16T23:23:20.044;599616565601116022;3968.748;351
2024-05-16T23:23:20.052;599616565608807394;3976.4392;327
2024-05-16T23:23:20.060;599616565616498766;3984.1309;225
2024-05-16T23:23:20.067;599616565624190138;3991.822;133
2024-05-16T23:23:20.075;599616565631881510;3999.5137;237
2024-05-16T23:23:20.083;599616565639572882;4007.2048;613
2024-05-16T23:23:20.090;599616565647264254;4014.8962;1014
2024-05-16T23:23:20.098;599616565654955626;4022.5876;1024
2024-05-16T23:23:20.106;599616565662646998;4030.2788;515
2024-05-16T23:23:20.113;599616565670338370;4037.9705;-30
2024-05-16T23:23:20.121;599616565678029742;4045.6616;-133
2024-05-16T23:23:20.129;599616565685721114;4053.3533;-21
2024-05-16T23:23:20.137;599616565693412486;4061.0444;-45
2024-05-16T23:23:20.144;599616565701103858;4068.7358;-80
2024-05-16T23:23:20.152;599616565708795230;4076.4272;-64
2024-05-16T23:23:20.160;599616565716486602;4084.1184;-116
2024-05-16T23:23:20.167;599616565724177974;4091.81;-192
2024-05-16T23:23:20.175;599616565731869346;4099.5015;-192
2024-05-16T23:23:20.183;599616565739560718;4107.193;-149
2024-05-16T23:23:20.190;599616565747252090;4114.8843;-125
2024-05-16T23:23:20.198;599616565754943462;4122.575;-102
2024-05-16T23:23:20.206;599616565762634834;4130.267;-71
2024-05-16T23:23:20.213;599616565770326206;4137.958;-47
2024-05-16T23:23:20.221;599616565778017578;4145.65;-4
2024-05-16T23:23:20.229;599616565785708950;4153.341;54
2024-05-16T23:23:20.237;599616565793400322;4161.032;95
2024-05-16T23:23:20.244;599616565801091694;4168.7236;109
2024-05-16T23:23:20.252;599616565808783066;4176.415;133
2024-05-16T23:23:20.260;599616565816474438;4184.1064;180
2024-05-16T23:23:20.267;599616565824165810;4191.798;216
2024-05-16T23:23:20.275;599616565831857182;4199.4893;218
2024-05-16T23:23:20.283;599616565839548554;4207.1807;235
2024-05-16T23:23:20.290;599616565847239926;4214.8716;259
2024-05-16T23:23:20.298;599616565854931298;4222.5635;218
2024-05-16T23:23:20.306;599616565862622670;4230.2544;144
2024-05-16T23:23:20.313;599616565870314042;4237.9463;128
2024-05-16T23:23:20.321;599616565878005414;4245.637;156
2024-05-16T23:23:20.329;599616565885696786;4253.329;163
2024-05-16T23:23:20.337;599616565893388158;4261.02;144
2024-05-16T23:23:20.344;599616565901079530;4268.7114;140
2024-05-16T23:23:20.352;599616565908770902;4276.403;161
2024-05-16T23:23:20.360;599616565916462274;4284.094;175
2024-05-16T23:23:20.367;599616565924153646;4291.7856;187
2024-05-16T23:23:20.375;599616565931845018;4299.477;223
2024-05-16T23:23:20.383;599616565939536390;4307.1685;242
2024-05-16T23:23:20.390;599616565947227762;4314.8594;218
2024-05-16T23:23:20.398;599616565954919134;4322.5513;223
2024-05-16T23:23:20.406;599616565962610506;4330.2427;263
2024-05-16T23:23:20.413;599616565970301878;4337.9336;282
2024-05-16T23:23:20.421;599616565977993250;4345.625;275
2024-05-16T23:23:20.429;599616565985684622;4353.317;278
2024-05-16T23:23:20.437;599616565993375994;4361.0083;263
2024-05-16T23:23:20.444;599616566001067366;4368.699;216
2024-05-16T23:23:20.452;599616566008758738;4376.3906;182
2024-05-16T23:23:20.460;599616566016450110;4384.082;185
2024-05-16T23:23:20.467;599616566024141482;4391.774;197
2024-05-16T23:23:20.475;599616566031832854;4399.465;194
2024-05-16T23:23:20.483;599616566039524226;4407.1562;166
2024-05-16T23:23:20.490;599616566047215598;4414.8477;140
2024-05-16T23:23:20.498;599616566054906970;4422.5386;156
2024-05-16T23:23:20.506;599616566062598342;4430.2305;180
2024-05-16T23:23:20.513;599616566070289714;4437.922;173
2024-05-16T23:23:20.521;599616566077981086;4445.6133;182
2024-05-16T23:23:20.529;599616566085672458;4453.304;199
2024-05-16T23:23:20.536;599616566093363830;4460.9956;199
2024-05-16T23:23:20.544;599616566101055202;4468.6875;187
2024-05-16T23:23:20.552;599616566108746574;4476.3784;168
2024-05-16T23:23:20.560;599616566116437946;4484.07;159
2024-05-16T23:23:20.567;599616566124109310;4491.741;154
2024-05-16T23:23:20.575;599616566131800960;4499.433;116
2024-05-16T23:23:20.583;599616566139492610;4507.1245;80
2024-05-16T23:23:20.590;599616566147184260;4514.816;116
2024-05-16T23:23:20.598;599616566154875910;4522.508;318
2024-05-16T23:23:20.606;599616566162567560;4530.1997;727
2024-05-16T23:23:20.613;599616566170259210;4537.891;1047
2024-05-16T23:23:20.621;599616566177950860;4545.5825;762
2024-05-16T23:23:20.629;599616566185642510;4553.2744;21
2024-05-16T23:23:20.636;599616566193334160;4560.9663;-344
2024-05-16T23:23:20.644;599616566201025810;4568.6577;-190
2024-05-16T23:23:20.652;599616566208717460;4576.3496;-133
2024-05-16T23:23:20.660;599616566216409110;4584.041;-259
2024-05-16T23:23:20.667;599616566224100760;4591.733;-294
2024-05-16T23:23:20.675;599616566231792410;4599.4243;-311
2024-05-16T23:23:20.683;599616566239484060;4607.116;-356
2024-05-16T23:23:20.690;599616566247175710;4614.8076;-337
2024-05-16T23:23:20.698;599616566254867360;4622.4995;-289
2024-05-16T23:23:20.706;599616566262559010;4630.191;-263
2024-05-16T23:23:20.713;599616566270250660;4637.883;-244
2024-05-16T23:23:20.721;599616566277942310;4645.574;-228
2024-05-16T23:23:20.729;599616566285633960;4653.266;-194
2024-05-16T23:23:20.736;599616566293325610;4660.9575;-137
2024-05-16T23:23:20.744;599616566301017260;4668.6494;-90
2024-05-16T23:23:20.752;599616566308708910;4676.341;-80
2024-05-16T23:23:20.760;599616566316400560;4684.0327;-61
2024-05-16T23:23:20.767;599616566324092210;4691.724;-2
2024-05-16T23:23:20.775;599616566331783860;4699.416;52
2024-05-16T23:23:20.783;599616566339475510;4707.1074;68
2024-05-16T23:23:20.790;599616566347167160;4714.7993;61
2024-05-16T23:23:20.798;599616566354858810;4722.4907;28
2024-05-16T23:23:20.806;599616566362550460;4730.1826;-11
2024-05-16T23:23:20.813;599616566370242110;4737.874;-16
2024-05-16T23:23:20.821;599616566377933760;4745.566;-2
2024-05-16T23:23:20.829;599616566385625410;4753.2573;-9
2024-05-16T23:23:20.836;599616566393317060;4760.949;-19
2024-05-16T23:23:20.844;599616566401008710;4768.6406;-21
2024-05-16T23:23:20.852;599616566408700360;4776.3325;-19
2024-05-16T23:23:20.860;599616566416392010;4784.024;-7
2024-05-16T23:23:20.867;599616566424083660;4791.716;0
2024-05-16T23:23:20.875;599616566431775310;4799.407;7
2024-05-16T23:23:20.883;599616566439466960;4807.099;35
2024-05-16T23:23:20.890;599616566447158610;4814.7905;64
2024-05-16T23:23:20.898;599616566454850260;4822.4824;54
2024-05-16T23:23:20.906;599616566462541910;4830.174;42
2024-05-16T23:23:20.913;599616566470233560;4837.865;78
2024-05-16T23:23:20.921;599616566477925210;4845.557;114
2024-05-16T23:23:20.929;599616566485616860;4853.249;111
2024-05-16T23:23:20.936;599616566493308510;4860.9404;92
2024-05-16T23:23:20.944;599616566501000160;4868.632;68
2024-05-16T23:23:20.952;599616566508691810;4876.3237;47
2024-05-16T23:23:20.960;599616566516383460;4884.0156;35
2024-05-16T23:23:20.967;599616566524075110;4891.707;35
2024-05-16T23:23:20.975;599616566531766760;4899.3984;54
2024-05-16T23:23:20.983;599616566539458410;4907.0903;59
2024-05-16T23:23:20.990;599616566547150060;4914.782;26
2024-05-16T23:23:20.998;599616566554841710;4922.4736;23
2024-05-16T23:23:21.006;599616566562533360;4930.165;59
2024-05-16T23:23:21.013;599616566570225010;4937.857;64
2024-05-16T23:23:21.021;599616566577916660;4945.549;54
2024-05-16T23:23:21.029;599616566585608310;4953.24;61
2024-05-16T23:23:21.036;599616566593299960;4960.9316;42
2024-05-16T23:23:21.044;599616566600991610;4968.6235;-7
2024-05-16T23:23:21.052;599616566608683260;4976.3154;-23
2024-05-16T23:23:21.060;599616566616374910;4984.007;4
2024-05-16T23:23:21.067;599616566624066560;4991.698;23
2024-05-16T23:23:21.075;599616566631758210;4999.39;23
2024-05-16T23:23:21.083;599616566639449860;5007.082;26
2024-05-16T23:23:21.090;599616566647141510;5014.7734;33
2024-05-16T23:23:21.098;599616566654833160;5022.465;4
2024-05-16T23:23:21.106;599616566662524810;5030.1567;-66
2024-05-16T23:23:21.113;599616566670216460;5037.8486;-95
2024-05-16T23:23:21.121;599616566677908110;5045.54;76
2024-05-16T23:23:21.129;599616566685609826;5053.2417;491
2024-05-16T23:23:21.136;599616566693301337;5060.933;850
2024-05-16T23:23:21.144;599616566700992848;5068.625;672
2024-05-16T23:23:21.152;599616566708684359;5076.316;73
2024-05-16T23:23:21.160;599616566716375870;5084.008;-254
2024-05-16T23:23:21.167;599616566724067381;5091.699;-199
2024-05-16T23:23:21.175;599616566731758892;5099.391;-261
2024-05-16T23:23:21.183;599616566739450403;5107.082;-394
2024-05-16T23:23:21.190;599616566747141914;5114.774;-342
2024-05-16T23:23:21.198;599616566754833425;5122.4653;-320
2024-05-16T23:23:21.206;599616566762524936;5130.157;-396
2024-05-16T23:23:21.213;599616566770216447;5137.848;-377
2024-05-16T23:23:21.221;599616566777907958;5145.54;-325
2024-05-16T23:23:21.229;599616566785599469;5153.2314;-330
2024-05-16T23:23:21.236;599616566793290980;5160.9233;-308
2024-05-16T23:23:21.244;599616566800982491;5168.6143;-249
2024-05-16T23:23:21.252;599616566808674002;5176.306;-213
2024-05-16T23:23:21.259;599616566816365513;5183.9976;-192
2024-05-16T23:23:21.267;599616566824057024;5191.6895;-166
2024-05-16T23:23:21.275;599616566831748535;5199.3804;-123
2024-05-16T23:23:21.283;599616566839440046;5207.0723;-92
2024-05-16T23:23:21.290;599616566847131557;5214.7637;-87
2024-05-16T23:23:21.298;599616566854823068;5222.455;-59
2024-05-16T23:23:21.306;599616566862514579;5230.1465;-2
2024-05-16T23:23:21.313;599616566870206090;5237.838;11
2024-05-16T23:23:21.321;599616566877897601;5245.53;-4
2024-05-16T23:23:21.329;599616566885589112;5253.2207;14
2024-05-16T23:23:21.336;599616566893280623;5260.9126;42
2024-05-16T23:23:21.344;599616566900972134;5268.604;38
2024-05-16T23:23:21.352;599616566908663645;5276.296;16
2024-05-16T23:23:21.359;599616566916355156;5283.987;9
2024-05-16T23:23:21.367;599616566924046667;5291.6787;21
2024-05-16T23:23:21.375;599616566931738178;5299.37;30
2024-05-16T23:23:21.383;599616566939429689;5307.0615;28
2024-05-16T23:23:21.390;599616566947121200;5314.753;52
2024-05-16T23:23:21.398;599616566954812711;5322.445;80
2024-05-16T23:23:21.406;599616566962504222;5330.136;68
2024-05-16T23:23:21.413;599616566970195733;5337.8276;61
2024-05-16T23:23:21.421;599616566977887244;5345.519;99
2024-05-16T23:23:21.429;599616566985578755;5353.211;135
2024-05-16T23:23:21.436;599616566993270266;5360.9023;130
2024-05-16T23:23:21.444;599616567000961777;5368.5938;85
2024-05-16T23:23:21.452;599616567008653288;5376.285;52
2024-05-16T23:23:21.459;599616567016344799;5383.977;68
2024-05-16T23:23:21.467;599616567024036310;5391.6685;83
2024-05-16T23:23:21.475;599616567031727821;5399.36;71
2024-05-16T23:23:21.483;599616567039419332;5407.0513;76
2024-05-16T23:23:21.490;599616567047110843;5414.743;85
2024-05-16T23:23:21.498;599616567054802354;5422.434;61
2024-05-16T23:23:21.506;599616567062493865;5430.126;49
2024-05-16T23:23:21.513;599616567070185376;5437.8174;76
2024-05-16T23:23:21.521;599616567077876887;5445.5093;95
2024-05-16T23:23:21.529;599616567085568398;5453.2;78
2024-05-16T23:23:21.536;599616567093259909;5460.8916;40
2024-05-16T23:23:21.544;599616567100951420;5468.5835;26
2024-05-16T23:23:21.552;599616567108642931;5476.275;47
2024-05-16T23:23:21.559;599616567116334442;5483.9663;64
2024-05-16T23:23:21.567;599616567124025953;5491.6577;71
2024-05-16T23:23:21.575;599616567131717464;5499.3496;99
2024-05-16T23:23:21.583;599616567139408975;5507.0405;128
2024-05-16T23:23:21.590;599616567147100486;5514.7324;114
2024-05-16T23:23:21.598;599616567154791997;5522.424;85
2024-05-16T23:23:21.606;599616567162483508;5530.1157;73
2024-05-16T23:23:21.613;599616567170175019;5537.8066;54
2024-05-16T23:23:21.621;599616567177866530;5545.4985;9
2024-05-16T23:23:21.629;599616567185558041;5553.19;-61
2024-05-16T23:23:21.636;599616567193249552;5560.882;-116
2024-05-16T23:23:21.644;599616567200941063;5568.5728;-45
2024-05-16T23:23:21.652;599616567208632574;5576.2646;268
2024-05-16T23:23:21.659;599616567216324085;5583.956;743
2024-05-16T23:23:21.667;599616567224015596;5591.648;955
2024-05-16T23:23:21.675;599616567231707107;5599.339;553
2024-05-16T23:23:21.683;599616567239398618;5607.031;-92
2024-05-16T23:23:21.690;599616567247100172;5614.7324;-299
2024-05-16T23:23:21.698;599616567254791544;5622.4233;-166
2024-05-16T23:23:21.706;599616567262482916;5630.1147;-171
2024-05-16T23:23:21.713;599616567270174288;5637.806;-232
2024-05-16T23:23:21.721;599616567277865660;5645.498;-182
2024-05-16T23:23:21.729;599616567285557032;5653.189;-156
2024-05-16T23:23:21.736;599616567293248404;5660.8804;-201
2024-05-16T23:23:21.744;599616567300939776;5668.572;-235
2024-05-16T23:23:21.752;599616567308631148;5676.2627;-216
2024-05-16T23:23:21.759;599616567316322520;5683.9546;-159
2024-05-16T23:23:21.767;599616567324013892;5691.646;-133
2024-05-16T23:23:21.775;599616567331705264;5699.3374;-168
2024-05-16T23:23:21.783;599616567339396636;5707.0283;-190
2024-05-16T23:23:21.790;599616567347088008;5714.7197;-154
2024-05-16T23:23:21.798;599616567354779380;5722.4116;-106
2024-05-16T23:23:21.806;599616567362470752;5730.103;-66
2024-05-16T23:23:21.813;599616567370162124;5737.794;-21
2024-05-16T23:23:21.821;599616567377853496;5745.4854;21
2024-05-16T23:23:21.829;599616567385544868;5753.1772;47
2024-05-16T23:23:21.836;599616567393236240;5760.868;78
2024-05-16T23:23:21.844;599616567400927612;5768.5596;116
2024-05-16T23:23:21.852;599616567408618984;5776.251;142
2024-05-16T23:23:21.859;599616567416310356;5783.9424;135
2024-05-16T23:23:21.867;599616567424001728;5791.634;116
2024-05-16T23:23:21.875;599616567431693100;5799.325;118
2024-05-16T23:23:21.883;599616567439384472;5807.0166;128
2024-05-16T23:23:21.890;599616567447075844;5814.7075;130
2024-05-16T23:23:21.898;599616567454767216;5822.399;135
2024-05-16T23:23:21.906;599616567462458588;5830.091;149
2024-05-16T23:23:21.913;599616567470149960;5837.782;149
2024-05-16T23:23:21.921;599616567477841332;5845.473;144
2024-05-16T23:23:21.929;599616567485532704;5853.1646;163
2024-05-16T23:23:21.936;599616567493224076;5860.856;187
2024-05-16T23:23:21.944;599616567500915448;5868.5474;175
2024-05-16T23:23:21.952;599616567508606820;5876.239;137
2024-05-16T23:23:21.959;599616567516298192;5883.93;116
2024-05-16T23:23:21.967;599616567523989564;5891.6216;125
2024-05-16T23:23:21.975;599616567531680936;5899.313;147
2024-05-16T23:23:21.983;599616567539372308;5907.0044;156
2024-05-16T23:23:21.990;599616567547063680;5914.696;161
2024-05-16T23:23:21.998;599616567554755052;5922.3867;175
2024-05-16T23:23:22.006;599616567562446424;5930.078;173
2024-05-16T23:23:22.013;599616567570137796;5937.77;156
2024-05-16T23:23:22.021;599616567577829168;5945.4614;147
2024-05-16T23:23:22.029;599616567585520540;5953.1523;128
2024-05-16T23:23:22.036;599616567593211912;5960.8438;109
2024-05-16T23:23:22.044;599616567600903284;5968.535;109
2024-05-16T23:23:22.052;599616567608594656;5976.227;111
2024-05-16T23:23:22.059;599616567616286028;5983.918;114
2024-05-16T23:23:22.067;599616567623977400;5991.6094;116
2024-05-16T23:23:22.075;599616567631668772;5999.301;130
2024-05-16T23:23:22.082;599616567639360144;6006.992;161
2024-05-16T23:23:22.090;599616567647051516;6014.6836;187
2024-05-16T23:23:22.098;599616567654742888;6022.375;171
2024-05-16T23:23:22.106;599616567662434260;6030.0664;125
2024-05-16T23:23:22.113;599616567670125632;6037.7573;104
2024-05-16T23:23:22.121;599616567677817004;6045.449;92
2024-05-16T23:23:22.129;599616567685508376;6053.1406;54
2024-05-16T23:23:22.136;599616567693199748;6060.8315;21
2024-05-16T23:23:22.144;599616567700891120;6068.523;19
2024-05-16T23:23:22.152;599616567708582492;6076.2144;21
2024-05-16T23:23:22.159;599616567716273864;6083.9062;0
2024-05-16T23:23:22.167;599616567723965236;6091.597;-47
2024-05-16T23:23:22.175;599616567731656608;6099.2886;4
2024-05-16T23:23:22.182;599616567739347980;6106.98;282
2024-05-16T23:23:22.190;599616567747039352;6114.671;665
2024-05-16T23:23:22.198;599616567754730724;6122.363;829
2024-05-16T23:23:22.206;599616567762422096;6130.054;518
2024-05-16T23:23:22.213;599616567770113468;6137.7456;-19
2024-05-16T23:23:22.221;599616567777804840;6145.4365;-197
2024-05-16T23:23:22.229;599616567785496212;6153.1284;-73
2024-05-16T23:23:22.236;599616567793187584;6160.82;-80
2024-05-16T23:23:22.244;599616567800878956;6168.5107;-147
2024-05-16T23:23:22.252;599616567808570336;6176.202;-102
2024-05-16T23:23:22.259;599616567816261708;6183.8936;-54
2024-05-16T23:23:22.267;599616567823953080;6191.5854;-64
2024-05-16T23:23:22.275;599616567831644452;6199.2764;-95
2024-05-16T23:23:22.282;599616567839335824;6206.968;-109
2024-05-16T23:23:22.290;599616567847027196;6214.659;-83
2024-05-16T23:23:22.298;599616567854718568;6222.35;-40
2024-05-16T23:23:22.306;599616567862409940;6230.042;-28
2024-05-16T23:23:22.313;599616567870101312;6237.7334;-59
2024-05-16T23:23:22.321;599616567877792684;6245.425;-59
2024-05-16T23:23:22.329;599616567885484056;6253.1157;-2
2024-05-16T23:23:22.336;599616567893175428;6260.807;30
2024-05-16T23:23:22.344;599616567900866800;6268.499;40
2024-05-16T23:23:22.352;599616567908558172;6276.1904;95
2024-05-16T23:23:22.359;599616567916249544;6283.8813;156
2024-05-16T23:23:22.367;599616567923940916;6291.5728;168
2024-05-16T23:23:22.375;599616567931632288;6299.2646;168
2024-05-16T23:23:22.382;599616567939323660;6306.9556;192
2024-05-16T23:23:22.390;599616567947015032;6314.647;216
2024-05-16T23:23:22.398;599616567954706404;6322.3384;213
2024-05-16T23:23:22.406;599616567962397776;6330.03;194
2024-05-16T23:23:22.413;599616567970089148;6337.721;187
2024-05-16T23:23:22.421;599616567977780520;6345.4126;185
2024-05-16T23:23:22.429;599616567985471892;6353.104;178
2024-05-16T23:23:22.436;599616567993163264;6360.795;185
2024-05-16T23:23:22.444;599616568000854636;6368.4863;206
2024-05-16T23:23:22.452;599616568008546008;6376.178;194
2024-05-16T23:23:22.459;599616568016237380;6383.8696;149
2024-05-16T23:23:22.467;599616568023928752;6391.5605;123
2024-05-16T23:23:22.475;599616568031620124;6399.252;140
2024-05-16T23:23:22.482;599616568039311496;6406.9434;152
2024-05-16T23:23:22.490;599616568047002868;6414.635;135
2024-05-16T23:23:22.498;599616568054694240;6422.326;135
2024-05-16T23:23:22.506;599616568062385612;6430.0176;163
2024-05-16T23:23:22.513;599616568070076984;6437.709;149
2024-05-16T23:23:22.521;599616568077768356;6445.4004;97
2024-05-16T23:23:22.529;599616568085459728;6453.092;102
2024-05-16T23:23:22.536;599616568093151100;6460.783;149
2024-05-16T23:23:22.544;599616568100842472;6468.4746;161
2024-05-16T23:23:22.552;599616568108533844;6476.1655;142
2024-05-16T23:23:22.559;599616568116225216;6483.8574;130
2024-05-16T23:23:22.567;599616568123916588;6491.549;147
2024-05-16T23:23:22.575;599616568131607960;6499.2397;171
2024-05-16T23:23:22.582;599616568139299332;6506.931;168
2024-05-16T23:23:22.590;599616568146990704;6514.6226;168
2024-05-16T23:23:22.598;599616568154682076;6522.3145;197
2024-05-16T23:23:22.606;599616568162373448;6530.0054;201
2024-05-16T23:23:22.613;599616568170064820;6537.697;154
2024-05-16T23:23:22.621;599616568177756192;6545.388;121
2024-05-16T23:23:22.629;599616568185447564;6553.079;133
2024-05-16T23:23:22.636;599616568193138936;6560.771;109
2024-05-16T23:23:22.644;599616568200830308;6568.4624;49
2024-05-16T23:23:22.652;599616568208521680;6576.154;38
2024-05-16T23:23:22.659;599616568216213052;6583.8447;61
2024-05-16T23:23:22.667;599616568223904424;6591.5366;61
2024-05-16T23:23:22.675;599616568231595796;6599.228;57
2024-05-16T23:23:22.682;599616568239287168;6606.919;54
2024-05-16T23:23:22.690;599616568246978540;6614.6104;-47
2024-05-16T23:23:22.698;599616568254669912;6622.302;-163
2024-05-16T23:23:22.705;599616568262361284;6629.9937;28
2024-05-16T23:23:22.713;599616568270052656;6637.6846;548
2024-05-16T23:23:22.721;599616568277744028;6645.376;912
2024-05-16T23:23:22.729;599616568285435400;6653.0674;684
2024-05-16T23:23:22.736;599616568293126772;6660.7583;90
2024-05-16T23:23:22.744;599616568300818144;6668.45;-175
2024-05-16T23:23:22.752;599616568308509516;6676.1416;-33
2024-05-16T23:23:22.759;599616568316200888;6683.833;4
2024-05-16T23:23:22.767;599616568323892260;6691.524;-97
2024-05-16T23:23:22.775;599616568331583632;6699.216;-71
2024-05-16T23:23:22.782;599616568339275004;6706.907;-14
2024-05-16T23:23:22.790;599616568346966376;6714.5986;-45
2024-05-16T23:23:22.798;599616568354657748;6722.2896;-40
2024-05-16T23:23:22.805;599616568362349120;6729.981;33
2024-05-16T23:23:22.813;599616568370040500;6737.673;71
2024-05-16T23:23:22.821;599616568377731872;6745.364;78
2024-05-16T23:23:22.829;599616568385423244;6753.055;95
2024-05-16T23:23:22.836;599616568393114616;6760.7466;116
2024-05-16T23:23:22.844;599616568400805988;6768.438;118
2024-05-16T23:23:22.852;599616568408497360;6776.1294;92
2024-05-16T23:23:22.859;599616568416188732;6783.821;85
2024-05-16T23:23:22.867;599616568423880104;6791.512;147
2024-05-16T23:23:22.875;599616568431571476;6799.203;197
2024-05-16T23:23:22.882;599616568439262848;6806.8945;187
2024-05-16T23:23:22.890;599616568446954220;6814.5864;211
2024-05-16T23:23:22.898;599616568454645592;6822.278;266
2024-05-16T23:23:22.905;599616568462336964;6829.9688;275
2024-05-16T23:23:22.913;599616568470028336;6837.66;275
2024-05-16T23:23:22.921;599616568477719708;6845.352;289
2024-05-16T23:23:22.929;599616568485411080;6853.043;278
2024-05-16T23:23:22.936;599616568493102452;6860.7344;244
2024-05-16T23:23:22.944;599616568500793824;6868.426;228
2024-05-16T23:23:22.952;599616568508485196;6876.117;242
2024-05-16T23:23:22.959;599616568516176568;6883.8086;256
2024-05-16T23:23:22.967;599616568523867940;6891.5;237
2024-05-16T23:23:22.975;599616568531559312;6899.1914;180
2024-05-16T23:23:22.982;599616568539250684;6906.8823;149
2024-05-16T23:23:22.990;599616568546942056;6914.5737;175
2024-05-16T23:23:22.998;599616568554633428;6922.2656;192
2024-05-16T23:23:23.005;599616568562324800;6929.957;175
2024-05-16T23:23:23.013;599616568570016172;6937.648;147
2024-05-16T23:23:23.021;599616568577707544;6945.3394;106
2024-05-16T23:23:23.029;599616568585398916;6953.031;102
2024-05-16T23:23:23.036;599616568593090288;6960.7227;123
2024-05-16T23:23:23.044;599616568600781660;6968.4136;144
2024-05-16T23:23:23.052;599616568608473032;6976.105;166
2024-05-16T23:23:23.059;599616568616164404;6983.7964;159
2024-05-16T23:23:23.067;599616568623855776;6991.488;152
2024-05-16T23:23:23.075;599616568631547148;6999.179;173
2024-05-16T23:23:23.082;599616568639238520;7006.8706;192
2024-05-16T23:23:23.090;599616568646929892;7014.562;197
2024-05-16T23:23:23.098;599616568654621264;7022.253;211
2024-05-16T23:23:23.105;599616568662312636;7029.945;225
2024-05-16T23:23:23.113;599616568670004008;7037.636;216
2024-05-16T23:23:23.121;599616568677695380;7045.327;211
2024-05-16T23:23:23.129;599616568685386752;7053.0186;204
2024-05-16T23:23:23.136;599616568693078124;7060.71;182
2024-05-16T23:23:23.144;599616568700769496;7068.402;175
2024-05-16T23:23:23.152;599616568708460868;7076.093;154
2024-05-16T23:23:23.159;599616568716152240;7083.784;87
2024-05-16T23:23:23.167;599616568723843612;7091.4756;64
2024-05-16T23:23:23.175;599616568731534984;7099.1665;95
2024-05-16T23:23:23.182;599616568739226356;7106.8584;99
2024-05-16T23:23:23.190;599616568746917728;7114.55;73
2024-05-16T23:23:23.198;599616568754609100;7122.241;23
2024-05-16T23:23:23.205;599616568762300472;7129.932;-90
2024-05-16T23:23:23.213;599616568769991844;7137.624;-173
2024-05-16T23:23:23.221;599616568777683216;7145.3154;16
2024-05-16T23:23:23.229;599616568785374588;7153.007;501
2024-05-16T23:23:23.236;599616568793065960;7160.6978;933
2024-05-16T23:23:23.244;599616568800757332;7168.389;857
2024-05-16T23:23:23.252;599616568808448704;7176.081;247
2024-05-16T23:23:23.259;599616568816140076;7183.772;-237
2024-05-16T23:23:23.267;599616568823831448;7191.4634;-178
2024-05-16T23:23:23.275;599616568831522820;7199.155;-47
2024-05-16T23:23:23.282;599616568839214192;7206.846;-116
2024-05-16T23:23:23.290;599616568846905564;7214.5376;-123
2024-05-16T23:23:23.298;599616568854596936;7222.229;-68
2024-05-16T23:23:23.305;599616568862288308;7229.9204;-71
2024-05-16T23:23:23.313;599616568869979680;7237.6113;-52
2024-05-16T23:23:23.321;599616568877671052;7245.3027;4
2024-05-16T23:23:23.328;599616568885362424;7252.9946;28
2024-05-16T23:23:23.336;599616568893053796;7260.686;33
2024-05-16T23:23:23.344;599616568900745168;7268.377;71
2024-05-16T23:23:23.352;599616568908436540;7276.0684;106
2024-05-16T23:23:23.359;599616568916127912;7283.7603;125
2024-05-16T23:23:23.367;599616568923819284;7291.451;152
2024-05-16T23:23:23.375;599616568931510664;7299.1426;194
2024-05-16T23:23:23.382;599616568939202036;7306.834;235
2024-05-16T23:23:23.390;599616568946893408;7314.5254;249
2024-05-16T23:23:23.398;599616568954584780;7322.217;268
2024-05-16T23:23:23.405;599616568962276152;7329.908;311
2024-05-16T23:23:23.413;599616568969967524;7337.5996;342
2024-05-16T23:23:23.421;599616568977658896;7345.2905;346
2024-05-16T23:23:23.428;599616568985350268;7352.982;337
2024-05-16T23:23:23.436;599616568993041640;7360.674;327
2024-05-16T23:23:23.444;599616569000733012;7368.365;299
2024-05-16T23:23:23.452;599616569008424384;7376.056;232
2024-05-16T23:23:23.459;599616569016115756;7383.7476;192
2024-05-16T23:23:23.467;599616569023807128;7391.4395;209
2024-05-16T23:23:23.475;599616569031498500;7399.131;199
2024-05-16T23:23:23.482;599616569039189872;7406.822;128
2024-05-16T23:23:23.490;599616569046881244;7414.513;92
2024-05-16T23:23:23.498;599616569054572616;7422.2046;106
2024-05-16T23:23:23.505;599616569062263988;7429.896;78
2024-05-16T23:23:23.513;599616569069955360;7437.5874;38
2024-05-16T23:23:23.521;599616569077646732;7445.279;59
2024-05-16T23:23:23.528;599616569085338104;7452.97;76
2024-05-16T23:23:23.536;599616569093029476;7460.661;61
2024-05-16T23:23:23.544;599616569100720848;7468.353;87
2024-05-16T23:23:23.552;599616569108412220;7476.0444;140
2024-05-16T23:23:23.559;599616569116103592;7483.7354;163
2024-05-16T23:23:23.567;599616569123794964;7491.427;161
2024-05-16T23:23:23.575;599616569131486336;7499.118;156
2024-05-16T23:23:23.582;599616569139177708;7506.81;180
2024-05-16T23:23:23.590;599616569146869080;7514.501;209
2024-05-16T23:23:23.598;599616569154560452;7522.1924;211
2024-05-16T23:23:23.605;599616569162251824;7529.884;216
2024-05-16T23:23:23.613;599616569169943196;7537.575;249
2024-05-16T23:23:23.621;599616569177634568;7545.2666;259
2024-05-16T23:23:23.628;599616569185325940;7552.958;240
2024-05-16T23:23:23.636;599616569193017312;7560.6494;240
2024-05-16T23:23:23.644;599616569200708684;7568.3403;240
2024-05-16T23:23:23.652;599616569208400056;7576.032;230
2024-05-16T23:23:23.659;599616569216091428;7583.7236;209
2024-05-16T23:23:23.667;599616569223782800;7591.4146;166
2024-05-16T23:23:23.675;599616569231474172;7599.106;144
2024-05-16T23:23:23.682;599616569239165544;7606.7974;163
2024-05-16T23:23:23.690;599616569246856916;7614.4893;166
2024-05-16T23:23:23.698;599616569254548288;7622.18;152
2024-05-16T23:23:23.705;599616569262239660;7629.8716;111
2024-05-16T23:23:23.713;599616569269931032;7637.563;11
2024-05-16T23:23:23.721;599616569277622404;7645.254;-71
2024-05-16T23:23:23.728;599616569285313776;7652.946;-47
2024-05-16T23:23:23.736;599616569293005148;7660.637;123
2024-05-16T23:23:23.744;599616569300696520;7668.3286;513
2024-05-16T23:23:23.752;599616569308387892;7676.0195;931
2024-05-16T23:23:23.759;599616569316079264;7683.7114;912
2024-05-16T23:23:23.767;599616569323770636;7691.403;380
2024-05-16T23:23:23.775;599616569331462008;7699.094;-49
2024-05-16T23:23:23.782;599616569339153380;7706.785;-7
2024-05-16T23:23:23.790;599616569346844752;7714.4766;87
2024-05-16T23:23:23.798;599616569354536124;7722.1685;14
2024-05-16T23:23:23.805;599616569362227496;7729.8594;9
2024-05-16T23:23:23.813;599616569369918868;7737.551;47
2024-05-16T23:23:23.821;599616569377610240;7745.242;42
2024-05-16T23:23:23.828;599616569385301612;7752.9336;92
2024-05-16T23:23:23.836;599616569392992984;7760.625;144
2024-05-16T23:23:23.844;599616569400684356;7768.3164;133
2024-05-16T23:23:23.852;599616569408375728;7776.008;142
2024-05-16T23:23:23.859;599616569416067100;7783.6987;185
2024-05-16T23:23:23.867;599616569423758472;7791.39;197
2024-05-16T23:23:23.875;599616569431449844;7799.082;213
2024-05-16T23:23:23.882;599616569439141216;7806.7734;259
2024-05-16T23:23:23.890;599616569446832588;7814.4644;294
2024-05-16T23:23:23.898;599616569454523960;7822.156;308
2024-05-16T23:23:23.905;599616569462215332;7829.8477;323
2024-05-16T23:23:23.913;599616569469906704;7837.5386;358
2024-05-16T23:23:23.921;599616569477598076;7845.23;403
2024-05-16T23:23:23.928;599616569485289448;7852.9214;418
2024-05-16T23:23:23.936;599616569492980828;7860.613;401
2024-05-16T23:23:23.944;599616569500672200;7868.304;396
2024-05-16T23:23:23.951;599616569508363572;7875.9956;401
2024-05-16T23:23:23.959;599616569516054944;7883.687;392
2024-05-16T23:23:23.967;599616569523746316;7891.3784;392
2024-05-16T23:23:23.975;599616569531437688;7899.0693;394
2024-05-16T23:23:23.982;599616569539129060;7906.761;382
2024-05-16T23:23:23.990;599616569546820432;7914.4526;363
2024-05-16T23:23:23.998;599616569554511804;7922.1436;306
2024-05-16T23:23:24.005;599616569562203176;7929.835;230
2024-05-16T23:23:24.013;599616569569894548;7937.527;204
2024-05-16T23:23:24.021;599616569577585920;7945.2183;161
2024-05-16T23:23:24.028;599616569585277292;7952.909;80
2024-05-16T23:23:24.036;599616569592968664;7960.6006;73
2024-05-16T23:23:24.044;599616569600660036;7968.292;109
2024-05-16T23:23:24.051;599616569608351408;7975.9834;109
2024-05-16T23:23:24.059;599616569616042780;7983.675;111
2024-05-16T23:23:24.067;599616569623734152;7991.366;135
2024-05-16T23:23:24.075;599616569631425524;7999.0576;144
2024-05-16T23:23:24.082;599616569639116896;8006.7485;133
2024-05-16T23:23:24.090;599616569646808268;8014.4404;140
2024-05-16T23:23:24.098;599616569654499640;8022.132;173
2024-05-16T23:23:24.105;599616569662191012;8029.8228;187
2024-05-16T23:23:24.113;599616569669882384;8037.514;166
2024-05-16T23:23:24.121;599616569677573756;8045.2056;152
2024-05-16T23:23:24.128;599616569685265128;8052.8975;161
2024-05-16T23:23:24.136;599616569692956500;8060.5884;156
2024-05-16T23:23:24.144;599616569700647872;8068.28;149
2024-05-16T23:23:24.151;599616569708339244;8075.971;168
2024-05-16T23:23:24.159;599616569716030616;8083.663;171
2024-05-16T23:23:24.167;599616569723721988;8091.354;125
2024-05-16T23:23:24.175;599616569731413360;8099.0454;87
2024-05-16T23:23:24.182;599616569739104732;8106.737;66
2024-05-16T23:23:24.190;599616569746796104;8114.4277;28
2024-05-16T23:23:24.198;599616569754487476;8122.1196;11
2024-05-16T23:23:24.205;599616569762178848;8129.811;14
2024-05-16T23:23:24.213;599616569769870220;8137.5024;-28
2024-05-16T23:23:24.221;599616569777561592;8145.1934;-123
2024-05-16T23:23:24.228;599616569785252964;8152.885;-190
2024-05-16T23:23:24.236;599616569792944336;8160.5767;-242
2024-05-16T23:23:24.244;599616569800635708;8168.2676;-282
2024-05-16T23:23:24.251;599616569808327080;8175.959;-104
2024-05-16T23:23:24.259;599616569816018452;8183.6504;361
2024-05-16T23:23:24.267;599616569823709824;8191.342;736
2024-05-16T23:23:24.275;599616569831401196;8199.033;608
2024-05-16T23:23:24.282;599616569839092568;8206.725;68
2024-05-16T23:23:24.290;599616569846783940;8214.416;-299
2024-05-16T23:23:24.298;599616569854475312;8222.107;-244
2024-05-16T23:23:24.305;599616569862166684;8229.799;-171
2024-05-16T23:23:24.313;599616569869858056;8237.49;-230
2024-05-16T23:23:24.321;599616569877549428;8245.182;-218
2024-05-16T23:23:24.328;599616569885240800;8252.873;-163
2024-05-16T23:23:24.336;599616569892932172;8260.564;-142
2024-05-16T23:23:24.344;599616569900623544;8268.256;-111
2024-05-16T23:23:24.351;599616569908314916;8275.947;-87
2024-05-16T23:23:24.359;599616569916006288;8283.639;-83
2024-05-16T23:23:24.367;599616569923697660;8291.329;-49
2024-05-16T23:23:24.375;599616569931389032;8299.0205;-4
2024-05-16T23:23:24.382;599616569939080404;8306.713;4
2024-05-16T23:23:24.390;599616569946771776;8314.404;28
2024-05-16T23:23:24.398;599616569954463148;8322.095;80
2024-05-16T23:23:24.405;599616569962154520;8329.786;99
2024-05-16T23:23:24.413;599616569969845892;8337.478;95
2024-05-16T23:23:24.421;599616569977537264;8345.169;135
2024-05-16T23:23:24.428;599616569985228636;8352.86;197
2024-05-16T23:23:24.436;599616569992920008;8360.552;225
2024-05-16T23:23:24.444;599616570000611380;8368.243;223
2024-05-16T23:23:24.451;599616570008302752;8375.935;223
2024-05-16T23:23:24.459;599616570015994124;8383.626;247
2024-05-16T23:23:24.467;599616570023685496;8391.317;251
2024-05-16T23:23:24.475;599616570031376868;8399.009;218
2024-05-16T23:23:24.482;599616570039068240;8406.7;194
2024-05-16T23:23:24.490;599616570046759612;8414.392;171
2024-05-16T23:23:24.498;599616570054450992;8422.083;123
2024-05-16T23:23:24.505;599616570062142364;8429.774;109
2024-05-16T23:23:24.513;599616570069833736;8437.466;125
2024-05-16T23:23:24.521;599616570077525108;8445.157;106
2024-05-16T23:23:24.528;599616570085216480;8452.849;73
2024-05-16T23:23:24.536;599616570092907852;8460.54;76
2024-05-16T23:23:24.544;599616570100599224;8468.231;83
2024-05-16T23:23:24.551;599616570108290596;8475.923;71
2024-05-16T23:23:24.559;599616570115981968;8483.614;35
2024-05-16T23:23:24.567;599616570123673340;8491.306;-4
2024-05-16T23:23:24.574;599616570131364712;8498.997;19
2024-05-16T23:23:24.582;599616570139056084;8506.688;54
2024-05-16T23:23:24.590;599616570146747456;8514.379;33
2024-05-16T23:23:24.598;599616570154438828;8522.071;23
2024-05-16T23:23:24.605;599616570162130200;8529.763;71
2024-05-16T23:23:24.613;599616570169821572;8537.453;102
2024-05-16T23:23:24.621;599616570177512944;8545.145;104
2024-05-16T23:23:24.628;599616570185204316;8552.836;109
2024-05-16T23:23:24.636;599616570192895688;8560.528;116
2024-05-16T23:23:24.644;599616570200587060;8568.219;130
2024-05-16T23:23:24.651;599616570208278432;8575.91;149
2024-05-16T23:23:24.659;599616570215969804;8583.602;159
2024-05-16T23:23:24.667;599616570223661176;8591.293;180
2024-05-16T23:23:24.674;599616570231352548;8598.984;192
2024-05-16T23:23:24.682;599616570239043920;8606.676;166
2024-05-16T23:23:24.690;599616570246735292;8614.367;133
2024-05-16T23:23:24.698;599616570254426664;8622.059;118
2024-05-16T23:23:24.705;599616570262118036;8629.75;95
2024-05-16T23:23:24.713;599616570269809408;8637.441;71
2024-05-16T23:23:24.721;599616570277500780;8645.132;16
2024-05-16T23:23:24.728;599616570285192152;8652.824;-97
2024-05-16T23:23:24.736;599616570292883524;8660.516;-173
2024-05-16T23:23:24.744;599616570300574896;8668.207;-185
2024-05-16T23:23:24.751;599616570308266268;8675.898;-211
2024-05-16T23:23:24.759;599616570315957640;8683.59;-111
2024-05-16T23:23:24.767;599616570323649012;8691.281;273
2024-05-16T23:23:24.774;599616570331340384;8698.972;731
2024-05-16T23:23:24.782;599616570339031756;8706.663;838
2024-05-16T23:23:24.790;599616570346723128;8714.3545;418
2024-05-16T23:23:24.798;599616570354414500;8722.047;-106
2024-05-16T23:23:24.805;599616570362105872;8729.738;-163
2024-05-16T23:23:24.813;599616570369797244;8737.43;4
2024-05-16T23:23:24.821;599616570377488616;8745.121;-33
2024-05-16T23:23:24.828;599616570385179988;8752.8125;-80
2024-05-16T23:23:24.836;599616570392871360;8760.503;-9
2024-05-16T23:23:24.844;599616570400562732;8768.194;21
2024-05-16T23:23:24.851;599616570408254104;8775.886;30
2024-05-16T23:23:24.859;599616570415945476;8783.577;59
2024-05-16T23:23:24.867;599616570423636848;8791.269;66
2024-05-16T23:23:24.874;599616570431328220;8798.961;95
2024-05-16T23:23:24.882;599616570439019592;8806.652;144
2024-05-16T23:23:24.890;599616570446710964;8814.343;161
2024-05-16T23:23:24.898;599616570454402336;8822.034;182
2024-05-16T23:23:24.905;599616570462093708;8829.726;223
2024-05-16T23:23:24.913;599616570469785080;8837.417;244
2024-05-16T23:23:24.921;599616570477476452;8845.108;266
2024-05-16T23:23:24.928;599616570485167824;8852.8;304
2024-05-16T23:23:24.936;599616570492859196;8860.491;351
2024-05-16T23:23:24.944;599616570500550568;8868.183;392
2024-05-16T23:23:24.951;599616570508241940;8875.874;384
2024-05-16T23:23:24.959;599616570515933312;8883.565;365
2024-05-16T23:23:24.967;599616570523624684;8891.257;382
2024-05-16T23:23:24.974;599616570531316056;8898.948;382
2024-05-16T23:23:24.982;599616570539007428;8906.64;325
2024-05-16T23:23:24.990;599616570546698800;8914.331;275
2024-05-16T23:23:24.998;599616570554390172;8922.021;282
2024-05-16T23:23:25.005;599616570562081544;8929.713;275
2024-05-16T23:23:25.013;599616570569772916;8937.404;240
2024-05-16T23:23:25.021;599616570577464288;8945.097;256
2024-05-16T23:23:25.028;599616570585155660;8952.788;301
2024-05-16T23:23:25.036;599616570592847032;8960.4795;282
2024-05-16T23:23:25.044;599616570600538404;8968.171;211
2024-05-16T23:23:25.051;599616570608229776;8975.861;171
2024-05-16T23:23:25.059;599616570615921156;8983.553;194
2024-05-16T23:23:25.067;599616570623612528;8991.244;220
2024-05-16T23:23:25.074;599616570631303900;8998.936;204
2024-05-16T23:23:25.082;599616570638995272;9006.627;197
2024-05-16T23:23:25.090;599616570646686644;9014.319;213
2024-05-16T23:23:25.098;599616570654378016;9022.011;175
2024-05-16T23:23:25.105;599616570662069388;9029.701;85
2024-05-16T23:23:25.113;599616570669760760;9037.393;71
2024-05-16T23:23:25.121;599616570677452132;9045.084;128
2024-05-16T23:23:25.128;599616570685143504;9052.775;137
2024-05-16T23:23:25.136;599616570692834876;9060.467;109
2024-05-16T23:23:25.144;599616570700526248;9068.158;111
2024-05-16T23:23:25.151;599616570708217620;9075.85;130
2024-05-16T23:23:25.159;599616570715908992;9083.54;133
2024-05-16T23:23:25.167;599616570723600364;9091.232;144
2024-05-16T23:23:25.174;599616570731291736;9098.924;175
2024-05-16T23:23:25.182;599616570738983108;9106.615;194
2024-05-16T23:23:25.190;599616570746674480;9114.307;190
2024-05-16T23:23:25.197;599616570754365852;9121.998;175
2024-05-16T23:23:25.205;599616570762057224;9129.689;159
2024-05-16T23:23:25.213;599616570769748596;9137.38;144
2024-05-16T23:23:25.221;599616570777439968;9145.071;116
2024-05-16T23:23:25.228;599616570785131340;9152.763;26
2024-05-16T23:23:25.236;599616570792822712;9160.455;-66
2024-05-16T23:23:25.244;599616570800514084;9168.146;-85
2024-05-16T23:23:25.251;599616570808205456;9175.838;-111
2024-05-16T23:23:25.259;599616570815896828;9183.529;-154
2024-05-16T23:23:25.267;599616570823588200;9191.221;-11
2024-05-16T23:23:25.274;599616570831279572;9198.911;411
2024-05-16T23:23:25.282;599616570838970944;9206.603;857
2024-05-16T23:23:25.290;599616570846662316;9214.294;876
2024-05-16T23:23:25.297;599616570854353688;9221.985;346
2024-05-16T23:23:25.305;599616570862045060;9229.677;-149
2024-05-16T23:23:25.313;599616570869736432;9237.369;-111
2024-05-16T23:23:25.321;599616570877427804;9245.061;52
2024-05-16T23:23:25.328;599616570885119176;9252.751;-19
2024-05-16T23:23:25.336;599616570892810548;9260.442;-61
2024-05-16T23:23:25.344;599616570900501920;9268.134;2
2024-05-16T23:23:25.351;599616570908193292;9275.825;26
2024-05-16T23:23:25.359;599616570915884664;9283.517;42
2024-05-16T23:23:25.367;599616570923576036;9291.208;66
2024-05-16T23:23:25.374;599616570931267408;9298.899;59
2024-05-16T23:23:25.382;599616570938958780;9306.591;78
2024-05-16T23:23:25.390;599616570946650152;9314.282;137
2024-05-16T23:23:25.397;599616570954341524;9321.974;166
2024-05-16T23:23:25.405;599616570962032896;9329.665;163
2024-05-16T23:23:25.413;599616570969724268;9337.356;192
2024-05-16T23:23:25.421;599616570977415640;9345.048;232
2024-05-16T23:23:25.428;599616570985107012;9352.739;249
2024-05-16T23:23:25.436;599616570992798384;9360.43;275
2024-05-16T23:23:25.444;599616571000489756;9368.121;327
2024-05-16T23:23:25.451;599616571008181128;9375.8125;361
2024-05-16T23:23:25.459;599616571015872500;9383.505;349
2024-05-16T23:23:25.467;599616571023563872;9391.196;320
2024-05-16T23:23:25.474;599616571031255244;9398.888;280
2024-05-16T23:23:25.482;599616571038946616;9406.579;242
2024-05-16T23:23:25.490;599616571046637988;9414.27;225
2024-05-16T23:23:25.497;599616571054329360;9421.961;213
2024-05-16T23:23:25.505;599616571062020732;9429.652;197
2024-05-16T23:23:25.513;599616571069712104;9437.344;192
2024-05-16T23:23:25.521;599616571077403476;9445.035;187
2024-05-16T23:23:25.528;599616571085094848;9452.728;190
2024-05-16T23:23:25.536;599616571092786220;9460.419;213
2024-05-16T23:23:25.544;599616571100477592;9468.109;235
2024-05-16T23:23:25.551;599616571108168964;9475.801;232
2024-05-16T23:23:25.559;599616571115860336;9483.492;201
2024-05-16T23:23:25.567;599616571123551708;9491.184;173
2024-05-16T23:23:25.574;599616571131243080;9498.875;180
2024-05-16T23:23:25.582;599616571138934452;9506.566;185
2024-05-16T23:23:25.590;599616571146625824;9514.258;180
2024-05-16T23:23:25.597;599616571154317196;9521.948;199
2024-05-16T23:23:25.605;599616571162008568;9529.641;199
2024-05-16T23:23:25.613;599616571169699940;9537.332;175
2024-05-16T23:23:25.621;599616571177391320;9545.023;197
2024-05-16T23:23:25.628;599616571185082692;9552.715;235
2024-05-16T23:23:25.636;599616571192774064;9560.406;228
2024-05-16T23:23:25.644;599616571200465436;9568.098;204
2024-05-16T23:23:25.651;599616571208156808;9575.788;199
2024-05-16T23:23:25.659;599616571215848180;9583.4795;216
2024-05-16T23:23:25.667;599616571223539552;9591.171;201
2024-05-16T23:23:25.674;599616571231230924;9598.863;137
2024-05-16T23:23:25.682;599616571238922296;9606.555;125
2024-05-16T23:23:25.690;599616571246613668;9614.246;173
2024-05-16T23:23:25.697;599616571254305040;9621.9375;178
2024-05-16T23:23:25.705;599616571261996412;9629.628;161
2024-05-16T23:23:25.713;599616571269687784;9637.319;175
2024-05-16T23:23:25.721;599616571277379156;9645.011;142
2024-05-16T23:23:25.728;599616571285070528;9652.702;16
2024-05-16T23:23:25.736;599616571292761900;9660.394;-92
2024-05-16T23:23:25.744;599616571300453272;9668.086;-121
2024-05-16T23:23:25.751;599616571308144644;9675.777;-135
2024-05-16T23:23:25.759;599616571315836016;9683.469;-192
2024-05-16T23:23:25.767;599616571323527388;9691.159;-218
2024-05-16T23:23:25.774;599616571331218760;9698.851;-28
2024-05-16T23:23:25.782;599616571338910132;9706.542;430
2024-05-16T23:23:25.790;599616571346601504;9714.233;831
2024-05-16T23:23:25.797;599616571354292876;9721.925;758
2024-05-16T23:23:25.805;599616571361984248;9729.616;235
2024-05-16T23:23:25.813;599616571369675620;9737.308;-159
2024-05-16T23:23:25.820;599616571377366992;9744.999;-97
2024-05-16T23:23:25.828;599616571385058364;9752.69;-11
2024-05-16T23:23:25.836;599616571392749736;9760.382;-92
2024-05-16T23:23:25.844;599616571400441108;9768.073;-83
2024-05-16T23:23:25.851;599616571408132480;9775.765;-14
2024-05-16T23:23:25.859;599616571415823852;9783.456;-4
2024-05-16T23:23:25.867;599616571423515224;9791.147;19
2024-05-16T23:23:25.874;599616571431206596;9798.838;52
2024-05-16T23:23:25.882;599616571438897968;9806.529;49
2024-05-16T23:23:25.890;599616571446589340;9814.222;66
2024-05-16T23:23:25.897;599616571454280712;9821.913;118
2024-05-16T23:23:25.905;599616571461972084;9829.6045;154
2024-05-16T23:23:25.913;599616571469663456;9837.296;161
2024-05-16T23:23:25.920;599616571477354828;9844.987;185
2024-05-16T23:23:25.928;599616571485046200;9852.678;223
2024-05-16T23:23:25.936;599616571492737572;9860.369;247
2024-05-16T23:23:25.944;599616571500428944;9868.061;266
2024-05-16T23:23:25.951;599616571508120316;9875.752;308
2024-05-16T23:23:25.959;599616571515811688;9883.443;342
2024-05-16T23:23:25.967;599616571523503060;9891.136;308
2024-05-16T23:23:25.974;599616571531194432;9898.827;240
2024-05-16T23:23:25.982;599616571538885804;9906.518;237
2024-05-16T23:23:25.990;599616571546577176;9914.209;275
2024-05-16T23:23:25.997;599616571554268548;9921.9;275
2024-05-16T23:23:26.005;599616571561959920;9929.592;261
2024-05-16T23:23:26.013;599616571569651292;9937.283;256
2024-05-16T23:23:26.020;599616571577342664;9944.975;256
2024-05-16T23:23:26.028;599616571585034036;9952.666;254
2024-05-16T23:23:26.036;599616571592725408;9960.357;268
2024-05-16T23:23:26.044;599616571600416780;9968.049;297
2024-05-16T23:23:26.051;599616571608108152;9975.74;320
2024-05-16T23:23:26.059;599616571615799524;9983.432;311
2024-05-16T23:23:26.067;599616571623490896;9991.123;292
2024-05-16T23:23:26.074;599616571631182268;9998.814;308
2024-05-16T23:23:26.082;599616571638873640;10006.506;320
2024-05-16T23:23:26.090;599616571646565012;10014.196;273
2024-05-16T23:23:26.097;599616571654256384;10021.888;240
2024-05-16T23:23:26.105;599616571661947756;10029.579;268
2024-05-16T23:23:26.113;599616571669639128;10037.271;280
2024-05-16T23:23:26.120;599616571677330500;10044.963;256
2024-05-16T23:23:26.128;599616571685021872;10052.654;249
2024-05-16T23:23:26.136;599616571692713244;10060.346;275
2024-05-16T23:23:26.144;599616571700404616;10068.036;289
2024-05-16T23:23:26.151;599616571708095988;10075.728;266
2024-05-16T23:23:26.159;599616571715787360;10083.419;242
2024-05-16T23:23:26.167;599616571723478732;10091.11;261
2024-05-16T23:23:26.174;599616571731170104;10098.802;285
2024-05-16T23:23:26.182;599616571738861484;10106.494;275
2024-05-16T23:23:26.190;599616571746552856;10114.186;273
2024-05-16T23:23:26.197;599616571754244228;10121.877;304
2024-05-16T23:23:26.205;599616571761935600;10129.567;316
2024-05-16T23:23:26.213;599616571769626972;10137.259;275
2024-05-16T23:23:26.220;599616571777318344;10144.95;244
2024-05-16T23:23:26.228;599616571785009716;10152.642;263
2024-05-16T23:23:26.236;599616571792701088;10160.333;240
2024-05-16T23:23:26.244;599616571800392460;10168.024;125
2024-05-16T23:23:26.251;599616571808083832;10175.715;52
2024-05-16T23:23:26.259;599616571815775204;10183.407;42
2024-05-16T23:23:26.267;599616571823466576;10191.099;-71
2024-05-16T23:23:26.274;599616571831157948;10198.79;-201
2024-05-16T23:23:26.282;599616571838849320;10206.481;14
2024-05-16T23:23:26.290;599616571846540692;10214.173;522
2024-05-16T23:23:26.297;599616571854232064;10221.864;834
2024-05-16T23:23:26.305;599616571861923436;10229.556;605
2024-05-16T23:23:26.313;599616571869614808;10237.246;59
2024-05-16T23:23:26.320;599616571877306180;10244.9375;-206
2024-05-16T23:23:26.328;599616571884997552;10252.63;-99
2024-05-16T23:23:26.336;599616571892688924;10260.321;-73
2024-05-16T23:23:26.344;599616571900380296;10268.013;-144
2024-05-16T23:23:26.351;599616571908071668;10275.704;-102
2024-05-16T23:23:26.359;599616571915763040;10283.3955;-59
2024-05-16T23:23:26.367;599616571923454412;10291.086;-64
2024-05-16T23:23:26.374;599616571931145784;10298.777;-23
2024-05-16T23:23:26.382;599616571938837156;10306.469;21
2024-05-16T23:23:26.390;599616571946528528;10314.16;9
2024-05-16T23:23:26.397;599616571954219900;10321.852;16
2024-05-16T23:23:26.405;599616571961911272;10329.544;68
2024-05-16T23:23:26.413;599616571969602644;10337.235;111
2024-05-16T23:23:26.420;599616571977294016;10344.926;128
2024-05-16T23:23:26.428;599616571984985388;10352.617;144
2024-05-16T23:23:26.436;599616571992676760;10360.309;171
2024-05-16T23:23:26.444;599616572000368132;10368.0;211
2024-05-16T23:23:26.451;599616572008059504;10375.691;256
2024-05-16T23:23:26.459;599616572015750876;10383.383;256
2024-05-16T23:23:26.467;599616572023442248;10391.074;237
2024-05-16T23:23:26.474;599616572031133620;10398.766;249
2024-05-16T23:23:26.482;599616572038824992;10406.457;247
2024-05-16T23:23:26.490;599616572046516364;10414.148;223
2024-05-16T23:23:26.497;599616572054207736;10421.84;237
2024-05-16T23:23:26.505;599616572061899108;10429.531;249
2024-05-16T23:23:26.513;599616572069590480;10437.223;228
2024-05-16T23:23:26.520;599616572077281852;10444.914;225
2024-05-16T23:23:26.528;599616572084973224;10452.6045;237
2024-05-16T23:23:26.536;599616572092664596;10460.296;230
2024-05-16T23:23:26.543;599616572100355968;10467.987;225
2024-05-16T23:23:26.551;599616572108047340;10475.68;256
2024-05-16T23:23:26.559;599616572115738712;10483.371;294
2024-05-16T23:23:26.567;599616572123430084;10491.0625;289
2024-05-16T23:23:26.574;599616572131121456;10498.754;261
2024-05-16T23:23:26.582;599616572138812828;10506.444;270
2024-05-16T23:23:26.590;599616572146504200;10514.136;313
2024-05-16T23:23:26.597;599616572154195572;10521.827;325
2024-05-16T23:23:26.605;599616572161886944;10529.519;299
2024-05-16T23:23:26.613;599616572169578316;10537.21;270
2024-05-16T23:23:26.620;599616572177269688;10544.902;249
2024-05-16T23:23:26.628;599616572184961060;10552.594;235
2024-05-16T23:23:26.636;599616572192652432;10560.285;230
2024-05-16T23:23:26.643;599616572200343804;10567.976;249
2024-05-16T23:23:26.651;599616572208035176;10575.667;263
2024-05-16T23:23:26.659;599616572215726548;10583.358;249
2024-05-16T23:23:26.667;599616572223417920;10591.05;220
2024-05-16T23:23:26.674;599616572231109292;10598.741;216
2024-05-16T23:23:26.682;599616572238800664;10606.433;240
2024-05-16T23:23:26.690;599616572246492036;10614.123;249
2024-05-16T23:23:26.697;599616572254183408;10621.815;240
2024-05-16T23:23:26.705;599616572261874780;10629.507;216
2024-05-16T23:23:26.713;599616572269566152;10637.198;173
2024-05-16T23:23:26.720;599616572277257524;10644.89;149
2024-05-16T23:23:26.728;599616572284948896;10652.581;171
2024-05-16T23:23:26.736;599616572292640268;10660.272;197
2024-05-16T23:23:26.743;599616572300331648;10667.964;182
2024-05-16T23:23:26.751;599616572308023020;10675.654;109
2024-05-16T23:23:26.759;599616572315714392;10683.346;49
2024-05-16T23:23:26.767;599616572323405764;10691.038;33
2024-05-16T23:23:26.774;599616572331097136;10698.7295;-26
2024-05-16T23:23:26.782;599616572338788508;10706.421;-33
2024-05-16T23:23:26.790;599616572346479880;10714.112;251
2024-05-16T23:23:26.797;599616572354171252;10721.804;710
2024-05-16T23:23:26.805;599616572361862624;10729.494;836
2024-05-16T23:23:26.813;599616572369553996;10737.186;356
2024-05-16T23:23:26.820;599616572377245368;10744.877;-216
2024-05-16T23:23:26.828;599616572384936740;10752.568;-266
2024-05-16T23:23:26.836;599616572392628112;10760.261;-114
2024-05-16T23:23:26.843;599616572400319484;10767.952;-187
2024-05-16T23:23:26.851;599616572408010856;10775.644;-249
2024-05-16T23:23:26.859;599616572415702228;10783.334;-166
2024-05-16T23:23:26.867;599616572423393600;10791.025;-135
2024-05-16T23:23:26.874;599616572431084972;10798.717;-149
2024-05-16T23:23:26.882;599616572438776344;10806.408;-109
2024-05-16T23:23:26.890;599616572446467716;10814.1;-59
2024-05-16T23:23:26.897;599616572454159088;10821.791;-57
2024-05-16T23:23:26.905;599616572461850460;10829.482;-54
2024-05-16T23:23:26.913;599616572469541832;10837.174;-11
2024-05-16T23:23:26.920;599616572477233204;10844.865;38
2024-05-16T23:23:26.928;599616572484924576;10852.557;64
2024-05-16T23:23:26.936;599616572492615948;10860.248;73
2024-05-16T23:23:26.943;599616572500307320;10867.939;83
2024-05-16T23:23:26.951;599616572507998692;10875.631;85
2024-05-16T23:23:26.959;599616572515690064;10883.322;73
2024-05-16T23:23:26.967;599616572523381436;10891.013;92
2024-05-16T23:23:26.974;599616572531072808;10898.704;144
2024-05-16T23:23:26.982;599616572538764180;10906.396;171
2024-05-16T23:23:26.990;599616572546455552;10914.088;149
2024-05-16T23:23:26.997;599616572554146924;10921.779;135
2024-05-16T23:23:27.005;599616572561838296;10929.471;154
2024-05-16T23:23:27.013;599616572569529668;10937.162;166
2024-05-16T23:23:27.020;599616572577221040;10944.853;154
2024-05-16T23:23:27.028;599616572584912412;10952.544;149
2024-05-16T23:23:27.036;599616572592603784;10960.235;159
2024-05-16T23:23:27.043;599616572600295156;10967.927;166
2024-05-16T23:23:27.051;599616572607986528;10975.618;171
2024-05-16T23:23:27.059;599616572615677900;10983.311;185
2024-05-16T23:23:27.067;599616572623369272;10991.002;209
2024-05-16T23:23:27.074;599616572631060644;10998.692;216
2024-05-16T23:23:27.082;599616572638752016;11006.384;213
2024-05-16T23:23:27.090;599616572646443388;11014.075;225
2024-05-16T23:23:27.097;599616572654134760;11021.767;256
2024-05-16T23:23:27.105;599616572661826132;11029.458;275
2024-05-16T23:23:27.113;599616572669517504;11037.149;275
2024-05-16T23:23:27.120;599616572677208876;11044.841;282
2024-05-16T23:23:27.128;599616572684900248;11052.533;282
2024-05-16T23:23:27.136;599616572692591620;11060.224;249
2024-05-16T23:23:27.143;599616572700282992;11067.915;209
2024-05-16T23:23:27.151;599616572707974364;11075.606;209
2024-05-16T23:23:27.159;599616572715665736;11083.298;228
2024-05-16T23:23:27.166;599616572723357108;11090.989;213
2024-05-16T23:23:27.174;599616572731048480;11098.681;175
2024-05-16T23:23:27.182;599616572738739852;11106.372;175
2024-05-16T23:23:27.190;599616572746431224;11114.0625;197
2024-05-16T23:23:27.197;599616572754122596;11121.754;171
2024-05-16T23:23:27.205;599616572761813968;11129.446;140
2024-05-16T23:23:27.213;599616572769505340;11137.138;171
2024-05-16T23:23:27.220;599616572777196712;11144.829;192
2024-05-16T23:23:27.228;599616572784888084;11152.5205;163
2024-05-16T23:23:27.236;599616572792579456;11160.212;144
2024-05-16T23:23:27.243;599616572800270828;11167.902;154
2024-05-16T23:23:27.251;599616572807962200;11175.594;116
2024-05-16T23:23:27.259;599616572815653572;11183.285;21
2024-05-16T23:23:27.266;599616572823344944;11190.977;-26
2024-05-16T23:23:27.274;599616572831036316;11198.669;-26
2024-05-16T23:23:27.282;599616572838727688;11206.36;-14
2024-05-16T23:23:27.290;599616572846419060;11214.052;166
2024-05-16T23:23:27.297;599616572854110432;11221.742;577
2024-05-16T23:23:27.305;599616572861801812;11229.434;902
2024-05-16T23:23:27.313;599616572869493184;11237.125;708
2024-05-16T23:23:27.320;599616572877184556;11244.816;97
2024-05-16T23:23:27.328;599616572884875928;11252.508;-242
2024-05-16T23:23:27.336;599616572892567300;11260.199;-109
2024-05-16T23:23:27.343;599616572900258672;11267.891;-45
2024-05-16T23:23:27.351;599616572907950044;11275.582;-154
2024-05-16T23:23:27.359;599616572915641416;11283.273;-154
2024-05-16T23:23:27.366;599616572923332788;11290.965;-97
2024-05-16T23:23:27.374;599616572931024160;11298.656;-125
2024-05-16T23:23:27.382;599616572938715532;11306.348;-192
2024-05-16T23:23:27.390;599616572946406904;11314.039;-199
2024-05-16T23:23:27.397;599616572954098276;11321.73;-154
2024-05-16T23:23:27.405;599616572961789648;11329.421;-140
2024-05-16T23:23:27.413;599616572969481020;11337.112;-149
2024-05-16T23:23:27.420;599616572977172392;11344.805;-114
2024-05-16T23:23:27.428;599616572984863764;11352.496;-49
2024-05-16T23:23:27.436;599616572992555136;11360.1875;-14
2024-05-16T23:23:27.443;599616573000246508;11367.879;-23
2024-05-16T23:23:27.451;599616573007937880;11375.57;-30
2024-05-16T23:23:27.459;599616573015629252;11383.261;7
2024-05-16T23:23:27.466;599616573023320624;11390.952;52
2024-05-16T23:23:27.474;599616573031011996;11398.644;66
2024-05-16T23:23:27.482;599616573038703368;11406.335;85
2024-05-16T23:23:27.490;599616573046394740;11414.026;106
2024-05-16T23:23:27.497;599616573054086112;11421.719;97
2024-05-16T23:23:27.505;599616573061777484;11429.41;73
2024-05-16T23:23:27.513;599616573069468856;11437.101;85
2024-05-16T23:23:27.520;599616573077160228;11444.792;109
2024-05-16T23:23:27.528;599616573084851600;11452.483;102
2024-05-16T23:23:27.536;599616573092542972;11460.175;90
2024-05-16T23:23:27.543;599616573100234344;11467.866;99
2024-05-16T23:23:27.551;599616573107925716;11475.558;106
2024-05-16T23:23:27.559;599616573115617088;11483.249;116
2024-05-16T23:23:27.566;599616573123308460;11490.941;140
2024-05-16T23:23:27.574;599616573130999832;11498.632;175
2024-05-16T23:23:27.582;599616573138691204;11506.323;197
2024-05-16T23:23:27.590;599616573146382576;11514.015;182
2024-05-16T23:23:27.597;599616573154073948;11521.706;166
2024-05-16T23:23:27.605;599616573161765320;11529.397;204
2024-05-16T23:23:27.613;599616573169456692;11537.089;247
2024-05-16T23:23:27.620;599616573177148064;11544.779;247
2024-05-16T23:23:27.628;599616573184839436;11552.471;242
2024-05-16T23:23:27.636;599616573192530808;11560.162;254
2024-05-16T23:23:27.643;599616573200222180;11567.8545;259
2024-05-16T23:23:27.651;599616573207913552;11575.546;261
2024-05-16T23:23:27.659;599616573215604924;11583.237;266
2024-05-16T23:23:27.666;599616573223296296;11590.929;247
2024-05-16T23:23:27.674;599616573230987668;11598.62;201
2024-05-16T23:23:27.682;599616573238679040;11606.311;156
2024-05-16T23:23:27.690;599616573246370412;11614.002;121
2024-05-16T23:23:27.697;599616573254061784;11621.693;97
2024-05-16T23:23:27.705;599616573261753156;11629.385;106
2024-05-16T23:23:27.713;599616573269444528;11637.077;116
2024-05-16T23:23:27.720;599616573277135900;11644.769;109
2024-05-16T23:23:27.728;599616573284827272;11652.46;116
2024-05-16T23:23:27.736;599616573292518644;11660.15;128
2024-05-16T23:23:27.743;599616573300210016;11667.842;130
2024-05-16T23:23:27.751;599616573307901388;11675.533;130
2024-05-16T23:23:27.759;599616573315592760;11683.225;97
2024-05-16T23:23:27.766;599616573323284132;11690.916;-4
2024-05-16T23:23:27.774;599616573330975504;11698.607;-97
2024-05-16T23:23:27.782;599616573338666876;11706.299;-64
2024-05-16T23:23:27.789;599616573346358248;11713.99;197
2024-05-16T23:23:27.797;599616573354049620;11721.682;651
2024-05-16T23:23:27.805;599616573361740992;11729.373;941
2024-05-16T23:23:27.813;599616573369432364;11737.064;684
2024-05-16T23:23:27.820;599616573377123736;11744.756;114
2024-05-16T23:23:27.828;599616573384815108;11752.447;-123
2024-05-16T23:23:27.836;599616573392506480;11760.139;-23
2024-05-16T23:23:27.843;599616573400197852;11767.829;-35
2024-05-16T23:23:27.851;599616573407889224;11775.5205;-130
2024-05-16T23:23:27.859;599616573415580596;11783.213;-147
2024-05-16T23:23:27.866;599616573423271976;11790.904;-152
2024-05-16T23:23:27.874;599616573430963348;11798.596;-152
2024-05-16T23:23:27.882;599616573438654720;11806.287;-121
2024-05-16T23:23:27.889;599616573446346092;11813.979;-102
2024-05-16T23:23:27.897;599616573454037464;11821.669;-99
2024-05-16T23:23:27.905;599616573461728836;11829.36;-83
2024-05-16T23:23:27.913;599616573469420208;11837.052;-87
2024-05-16T23:23:27.920;599616573477111580;11844.743;-140
2024-05-16T23:23:27.928;599616573484802952;11852.435;-178
2024-05-16T23:23:27.936;599616573492494324;11860.127;-175
2024-05-16T23:23:27.943;599616573500185696;11867.818;-173
2024-05-16T23:23:27.951;599616573507877068;11875.509;-163
2024-05-16T23:23:27.959;599616573515568440;11883.2;-133
2024-05-16T23:23:27.966;599616573523259812;11890.892;-95
2024-05-16T23:23:27.974;599616573530951184;11898.583;-59
2024-05-16T23:23:27.982;599616573538642556;11906.274;-49
2024-05-16T23:23:27.989;599616573546333928;11913.966;-42
2024-05-16T23:23:27.997;599616573554025300;11921.657;-21
2024-05-16T23:23:28.005;599616573561716672;11929.349;-28
2024-05-16T23:23:28.013;599616573569408044;11937.04;-57
2024-05-16T23:23:28.020;599616573577099416;11944.731;-54
2024-05-16T23:23:28.028;599616573584790788;11952.423;-30
2024-05-16T23:23:28.036;599616573592482160;11960.114;-30
2024-05-16T23:23:28.043;599616573600173532;11967.806;-33
2024-05-16T23:23:28.051;599616573607864904;11975.497;-19
2024-05-16T23:23:28.059;599616573615556276;11983.1875;-4
2024-05-16T23:23:28.066;599616573623247648;11990.879;0
2024-05-16T23:23:28.074;599616573630939020;11998.57;11
2024-05-16T23:23:28.082;599616573638630392;12006.263;30
2024-05-16T23:23:28.089;599616573646321764;12013.954;52
2024-05-16T23:23:28.097;599616573654013136;12021.6455;59
2024-05-16T23:23:28.105;599616573661704508;12029.337;47
2024-05-16T23:23:28.113;599616573669395880;12037.028;61
2024-05-16T23:23:28.120;599616573677087252;12044.719;99
2024-05-16T23:23:28.128;599616573684778624;12052.41;104
2024-05-16T23:23:28.136;599616573692469996;12060.102;80
2024-05-16T23:23:28.143;599616573700161368;12067.793;87
2024-05-16T23:23:28.151;599616573707852740;12075.485;109
2024-05-16T23:23:28.159;599616573715544112;12083.177;97
2024-05-16T23:23:28.166;599616573723235484;12090.868;90
2024-05-16T23:23:28.174;599616573730926856;12098.559;111
2024-05-16T23:23:28.182;599616573738618228;12106.25;80
2024-05-16T23:23:28.189;599616573746309600;12113.941;-14
2024-05-16T23:23:28.197;599616573754000972;12121.633;-66
2024-05-16T23:23:28.205;599616573761692344;12129.324;-45
2024-05-16T23:23:28.213;599616573769383716;12137.016;-28
2024-05-16T23:23:28.220;599616573777075088;12144.708;-45
2024-05-16T23:23:28.228;599616573784766460;12152.398;-59
2024-05-16T23:23:28.236;599616573792457832;12160.09;-54
2024-05-16T23:23:28.243;599616573800149204;12167.781;-49
2024-05-16T23:23:28.251;599616573807840576;12175.473;-49
2024-05-16T23:23:28.259;599616573815531948;12183.164;-99
2024-05-16T23:23:28.266;599616573823223320;12190.855;-218
2024-05-16T23:23:28.274;599616573830914692;12198.547;-235
2024-05-16T23:23:28.282;599616573838606064;12206.237;45
2024-05-16T23:23:28.289;599616573846297436;12213.929;515
2024-05-16T23:23:28.297;599616573853988808;12221.621;724
2024-05-16T23:23:28.305;599616573861680180;12229.3125;351
2024-05-16T23:23:28.313;599616573869371552;12237.004;-194
2024-05-16T23:23:28.320;599616573877062924;12244.695;-285
2024-05-16T23:23:28.328;599616573884754296;12252.387;-116
2024-05-16T23:23:28.336;599616573892445668;12260.077;-147
2024-05-16T23:23:28.343;599616573900137040;12267.769;-220
2024-05-16T23:23:28.351;599616573907828412;12275.46;-185
2024-05-16T23:23:28.359;599616573915519784;12283.151;-182
2024-05-16T23:23:28.366;599616573923211156;12290.844;-235
2024-05-16T23:23:28.374;599616573930902528;12298.535;-280
2024-05-16T23:23:28.382;599616573938593900;12306.227;-297
2024-05-16T23:23:28.389;599616573946285272;12313.917;-268
2024-05-16T23:23:28.397;599616573953976644;12321.608;-261
2024-05-16T23:23:28.405;599616573961668016;12329.3;-273
2024-05-16T23:23:28.412;599616573969359388;12336.991;-237
2024-05-16T23:23:28.420;599616573977050760;12344.683;-216
2024-05-16T23:23:28.428;599616573984742140;12352.374;-249
2024-05-16T23:23:28.436;599616573992433512;12360.065;-251
2024-05-16T23:23:28.443;599616574000124884;12367.757;-204
2024-05-16T23:23:28.451;599616574007816256;12375.448;-161
2024-05-16T23:23:28.459;599616574015507628;12383.14;-147
2024-05-16T23:23:28.466;599616574023199000;12390.831;-156
2024-05-16T23:23:28.474;599616574030890372;12398.522;-154
2024-05-16T23:23:28.482;599616574038581744;12406.214;-140
2024-05-16T23:23:28.489;599616574046273116;12413.905;-201
2024-05-16T23:23:28.497;599616574053964488;12421.596;-299
2024-05-16T23:23:28.505;599616574061655860;12429.287;-316
2024-05-16T23:23:28.512;599616574069347232;12436.9795;-306
2024-05-16T23:23:28.520;599616574077038604;12444.671;-332
2024-05-16T23:23:28.528;599616574084729976;12452.362;-327
2024-05-16T23:23:28.536;599616574092421348;12460.054;-282
2024-05-16T23:23:28.543;599616574100112720;12467.745;-256
2024-05-16T23:23:28.551;599616574107804092;12475.436;-263
2024-05-16T23:23:28.559;599616574115495464;12483.127;-263
2024-05-16T23:23:28.566;599616574123186836;12490.818;-223
2024-05-16T23:23:28.574;599616574130878208;12498.51;-190
2024-05-16T23:23:28.582;599616574138569580;12506.201;-192
2024-05-16T23:23:28.589;599616574146260952;12513.894;-163
2024-05-16T23:23:28.597;599616574153952324;12521.585;-116
2024-05-16T23:23:28.605;599616574161643696;12529.276;-109
2024-05-16T23:23:28.612;599616574169335068;12536.967;-116
2024-05-16T23:23:28.620;599616574177026440;12544.658;-90
2024-05-16T23:23:28.628;599616574184717812;12552.35;-54
2024-05-16T23:23:28.636;599616574192409184;12560.041;-42
2024-05-16T23:23:28.643;599616574200100556;12567.732;-45
2024-05-16T23:23:28.651;599616574207791928;12575.424;-42
2024-05-16T23:23:28.659;599616574215483300;12583.116;-23
2024-05-16T23:23:28.666;599616574223174672;12590.807;-4
2024-05-16T23:23:28.674;599616574230866044;12598.498;-21
2024-05-16T23:23:28.682;599616574238557416;12606.189;-33
2024-05-16T23:23:28.689;599616574246248788;12613.881;-7
2024-05-16T23:23:28.697;599616574253940160;12621.572;-9
2024-05-16T23:23:28.705;599616574261631532;12629.264;-40
2024-05-16T23:23:28.712;599616574269322904;12636.955;-54
2024-05-16T23:23:28.720;599616574277014276;12644.6455;-59
2024-05-16T23:23:28.728;599616574284705648;12652.337;-64
2024-05-16T23:23:28.736;599616574292397020;12660.029;-66
2024-05-16T23:23:28.743;599616574300088392;12667.721;-78
2024-05-16T23:23:28.751;599616574307779764;12675.412;-109
2024-05-16T23:23:28.759;599616574315471136;12683.104;-144
2024-05-16T23:23:28.766;599616574323162508;12690.795;-49
2024-05-16T23:23:28.774;599616574330853880;12698.485;323
2024-05-16T23:23:28.782;599616574338545252;12706.177;724
2024-05-16T23:23:28.789;599616574346236624;12713.868;603
2024-05-16T23:23:28.797;599616574353927996;12721.56;14
2024-05-16T23:23:28.805;599616574361619368;12729.252;-308
2024-05-16T23:23:28.812;599616574369310740;12736.943;-159
2024-05-16T23:23:28.820;599616574377002112;12744.635;-85
2024-05-16T23:23:28.828;599616574384693484;12752.325;-194
2024-05-16T23:23:28.836;599616574392384856;12760.017;-185
2024-05-16T23:23:28.843;599616574400076228;12767.708;-118
2024-05-16T23:23:28.851;599616574407767600;12775.399;-121
2024-05-16T23:23:28.859;599616574415458972;12783.091;-118
2024-05-16T23:23:28.866;599616574423150344;12790.782;-92
2024-05-16T23:23:28.874;599616574430841716;12798.474;-121
2024-05-16T23:23:28.882;599616574438533088;12806.165;-168
2024-05-16T23:23:28.889;599616574446224460;12813.856;-187
2024-05-16T23:23:28.897;599616574453915832;12821.548;-199
2024-05-16T23:23:28.905;599616574461607204;12829.239;-197
2024-05-16T23:23:28.912;599616574469298576;12836.931;-187
2024-05-16T23:23:28.920;599616574476989948;12844.622;-216
2024-05-16T23:23:28.928;599616574484681320;12852.313;-256
2024-05-16T23:23:28.936;599616574492372692;12860.004;-237
2024-05-16T23:23:28.943;599616574500064064;12867.695;-185
2024-05-16T23:23:28.951;599616574507755436;12875.388;-152
2024-05-16T23:23:28.959;599616574515446808;12883.079;-130
2024-05-16T23:23:28.966;599616574523138180;12890.7705;-125
2024-05-16T23:23:28.974;599616574530829552;12898.462;-140
2024-05-16T23:23:28.982;599616574538520924;12906.153;-144
2024-05-16T23:23:28.989;599616574546212304;12913.844;-140
2024-05-16T23:23:28.997;599616574553903676;12921.535;-152
2024-05-16T23:23:29.005;599616574561595048;12929.227;-163
2024-05-16T23:23:29.012;599616574569286420;12936.918;-152
2024-05-16T23:23:29.020;599616574576977792;12944.609;-152
2024-05-16T23:23:29.028;599616574584669164;12952.302;-192
2024-05-16T23:23:29.035;599616574592360536;12959.993;-235
2024-05-16T23:23:29.043;599616574600051908;12967.685;-218
2024-05-16T23:23:29.051;599616574607743280;12975.375;-168
2024-05-16T23:23:29.059;599616574615434652;12983.066;-161
2024-05-16T23:23:29.066;599616574623126024;12990.758;-175
2024-05-16T23:23:29.074;599616574630817396;12998.449;-149
2024-05-16T23:23:29.082;599616574638508768;13006.141;-102
2024-05-16T23:23:29.089;599616574646200140;13013.832;-80
2024-05-16T23:23:29.097;599616574653891512;13021.524;-73
2024-05-16T23:23:29.105;599616574661582884;13029.215;-52
2024-05-16T23:23:29.112;599616574669274256;13036.906;-42
2024-05-16T23:23:29.120;599616574676965628;13044.598;-49
2024-05-16T23:23:29.128;599616574684657000;13052.289;-28
2024-05-16T23:23:29.135;599616574692348372;13059.98;14
2024-05-16T23:23:29.143;599616574700039744;13067.672;30
2024-05-16T23:23:29.151;599616574707731116;13075.363;33
2024-05-16T23:23:29.159;599616574715422488;13083.054;23
2024-05-16T23:23:29.166;599616574723113860;13090.745;2
2024-05-16T23:23:29.174;599616574730805232;13098.4375;-14
2024-05-16T23:23:29.182;599616574738496604;13106.129;-11
2024-05-16T23:23:29.189;599616574746187976;13113.82;16
2024-05-16T23:23:29.197;599616574753879348;13121.512;45
2024-05-16T23:23:29.205;599616574761570720;13129.203;40
2024-05-16T23:23:29.212;599616574769262092;13136.894;38
2024-05-16T23:23:29.220;599616574776953464;13144.585;47
2024-05-16T23:23:29.228;599616574784644836;13152.276;28
2024-05-16T23:23:29.235;599616574792336208;13159.968;-16
2024-05-16T23:23:29.243;599616574800027580;13167.66;-71
2024-05-16T23:23:29.251;599616574807718952;13175.352;-52
2024-05-16T23:23:29.259;599616574815410324;13183.043;230
2024-05-16T23:23:29.266;599616574823101696;13190.733;681
2024-05-16T23:23:29.274;599616574830793068;13198.425;831
2024-05-16T23:23:29.282;599616574838484440;13206.116;449
2024-05-16T23:23:29.289;599616574846175812;13213.808;-71
2024-05-16T23:23:29.297;599616574853867184;13221.499;-204
2024-05-16T23:23:29.305;599616574861558556;13229.19;-90
2024-05-16T23:23:29.312;599616574869249928;13236.882;-102
2024-05-16T23:23:29.320;599616574876941300;13244.573;-135
2024-05-16T23:23:29.328;599616574884632672;13252.265;-83
2024-05-16T23:23:29.335;599616574892324044;13259.956;-68
2024-05-16T23:23:29.343;599616574900015416;13267.647;-80
2024-05-16T23:23:29.351;599616574907706788;13275.339;-42
2024-05-16T23:23:29.359;599616574915398160;13283.03;-16
2024-05-16T23:23:29.366;599616574923089532;13290.722;-14
2024-05-16T23:23:29.374;599616574930780904;13298.412;33
2024-05-16T23:23:29.382;599616574938472276;13306.104;57
2024-05-16T23:23:29.389;599616574946163648;13313.796;2
2024-05-16T23:23:29.397;599616574953855020;13321.487;-26
2024-05-16T23:23:29.405;599616574961546392;13329.179;-19
2024-05-16T23:23:29.412;599616574969237764;13336.87;-71
2024-05-16T23:23:29.420;599616574976929136;13344.562;-128
2024-05-16T23:23:29.428;599616574984620508;13352.252;-111
2024-05-16T23:23:29.435;599616574992311880;13359.943;-85
2024-05-16T23:23:29.443;599616575000003252;13367.635;-83
2024-05-16T23:23:29.451;599616575007694624;13375.326;-78
2024-05-16T23:23:29.459;599616575015385996;13383.018;-66
2024-05-16T23:23:29.466;599616575023077368;13390.71;-42
2024-05-16T23:23:29.474;599616575030768740;13398.401;-45
2024-05-16T23:23:29.482;599616575038460112;13406.093;-97
2024-05-16T23:23:29.489;599616575046151484;13413.783;-121
2024-05-16T23:23:29.497;599616575053842856;13421.475;-78
2024-05-16T23:23:29.505;599616575061534228;13429.166;-61
2024-05-16T23:23:29.512;599616575069225600;13436.857;-73
2024-05-16T23:23:29.520;599616575076916972;13444.549;-64
2024-05-16T23:23:29.528;599616575084608344;13452.24;-42
2024-05-16T23:23:29.535;599616575092299716;13459.933;-30
2024-05-16T23:23:29.543;599616575099991088;13467.623;-23
2024-05-16T23:23:29.551;599616575107682468;13475.314;7
2024-05-16T23:23:29.559;599616575115373840;13483.006;52
2024-05-16T23:23:29.566;599616575123065212;13490.697;57
2024-05-16T23:23:29.574;599616575130756584;13498.389;33
2024-05-16T23:23:29.582;599616575138447956;13506.08;54
2024-05-16T23:23:29.589;599616575146139328;13513.771;95
2024-05-16T23:23:29.597;599616575153830700;13521.462;71
2024-05-16T23:23:29.605;599616575161522072;13529.154;0
2024-05-16T23:23:29.612;599616575169213444;13536.846;-16
2024-05-16T23:23:29.620;599616575176904816;13544.537;9
2024-05-16T23:23:29.628;599616575184596188;13552.229;11
2024-05-16T23:23:29.635;599616575192287560;13559.92;14
2024-05-16T23:23:29.643;599616575199978932;13567.611;45
2024-05-16T23:23:29.651;599616575207670304;13575.302;83
2024-05-16T23:23:29.658;599616575215361676;13582.993;73
2024-05-16T23:23:29.666;599616575223053048;13590.685;42
2024-05-16T23:23:29.674;599616575230744420;13598.376;59
2024-05-16T23:23:29.682;599616575238435792;13606.068;104
2024-05-16T23:23:29.689;599616575246127164;13613.76;106
2024-05-16T23:23:29.697;599616575253818536;13621.451;111
2024-05-16T23:23:29.705;599616575261509908;13629.142;142
2024-05-16T23:23:29.712;599616575269201280;13636.833;152
2024-05-16T23:23:29.720;599616575276892652;13644.524;142
2024-05-16T23:23:29.728;599616575284584024;13652.216;133
2024-05-16T23:23:29.735;599616575292275396;13659.907;90
2024-05-16T23:23:29.743;599616575299966768;13667.599;102
2024-05-16T23:23:29.751;599616575307658140;13675.291;377
2024-05-16T23:23:29.758;599616575315349512;13682.981;843
2024-05-16T23:23:29.766;599616575323040884;13690.673;1000
2024-05-16T23:23:29.774;599616575330732256;13698.364;522
2024-05-16T23:23:29.782;599616575338423628;13706.056;-97
2024-05-16T23:23:29.789;599616575346115000;13713.747;-175
2024-05-16T23:23:29.797;599616575353806372;13721.438;-2
2024-05-16T23:23:29.805;599616575361497744;13729.13;-68
2024-05-16T23:23:29.812;599616575369189116;13736.82;-135
2024-05-16T23:23:29.820;599616575376880488;13744.512;-47
2024-05-16T23:23:29.828;599616575384571860;13752.204;-9
2024-05-16T23:23:29.835;599616575392263232;13759.8955;-16
2024-05-16T23:23:29.843;599616575399954604;13767.587;11
2024-05-16T23:23:29.851;599616575407645976;13775.278;28
2024-05-16T23:23:29.858;599616575415337348;13782.97;33
2024-05-16T23:23:29.866;599616575423028720;13790.66;64
2024-05-16T23:23:29.874;599616575430720092;13798.352;85
2024-05-16T23:23:29.882;599616575438411464;13806.043;111
2024-05-16T23:23:29.889;599616575446102836;13813.734;152
2024-05-16T23:23:29.897;599616575453794208;13821.427;147
2024-05-16T23:23:29.905;599616575461485580;13829.118;90
2024-05-16T23:23:29.912;599616575469176952;13836.81;47
2024-05-16T23:23:29.920;599616575476868324;13844.5;42
2024-05-16T23:23:29.928;599616575484559696;13852.191;33
2024-05-16T23:23:29.935;599616575492251068;13859.883;16
2024-05-16T23:23:29.943;599616575499942440;13867.574;11
2024-05-16T23:23:29.951;599616575507633812;13875.266;9
2024-05-16T23:23:29.958;599616575515325184;13882.957;2
2024-05-16T23:23:29.966;599616575523016556;13890.648;-7
2024-05-16T23:23:29.974;599616575530707928;13898.341;0
2024-05-16T23:23:29.982;599616575538399300;13906.031;4
2024-05-16T23:23:29.989;599616575546090672;13913.723;-16
2024-05-16T23:23:29.997;599616575553782044;13921.414;-30
2024-05-16T23:23:30.005;599616575561473416;13929.105;-9
2024-05-16T23:23:30.012;599616575569164788;13936.797;28
2024-05-16T23:23:30.020;599616575576856160;13944.488;40
2024-05-16T23:23:30.028;599616575584547532;13952.18;33
2024-05-16T23:23:30.035;599616575592238904;13959.87;40
2024-05-16T23:23:30.043;599616575599930276;13967.5625;64
2024-05-16T23:23:30.051;599616575607621648;13975.254;83
2024-05-16T23:23:30.058;599616575615313020;13982.945;99
2024-05-16T23:23:30.066;599616575623004392;13990.637;123
2024-05-16T23:23:30.074;599616575630695764;13998.328;137
2024-05-16T23:23:30.082;599616575638387136;14006.02;130
2024-05-16T23:23:30.089;599616575646078508;14013.71;133
2024-05-16T23:23:30.097;599616575653769880;14021.401;166
2024-05-16T23:23:30.105;599616575661461252;14029.093;192
2024-05-16T23:23:30.112;599616575669152632;14036.784;185
2024-05-16T23:23:30.120;599616575676844004;14044.477;182
2024-05-16T23:23:30.128;599616575684535376;14052.168;194
2024-05-16T23:23:30.135;599616575692226748;14059.859;197
2024-05-16T23:23:30.143;599616575699918120;14067.55;194
2024-05-16T23:23:30.151;599616575707609492;14075.241;182
2024-05-16T23:23:30.158;599616575715300864;14082.933;166
2024-05-16T23:23:30.166;599616575722992236;14090.624;159
2024-05-16T23:23:30.174;599616575730683608;14098.315;152
2024-05-16T23:23:30.182;599616575738374980;14106.007;147
2024-05-16T23:23:30.189;599616575746066352;14113.699;171
2024-05-16T23:23:30.197;599616575753757724;14121.39;166
2024-05-16T23:23:30.205;599616575761449096;14129.081;111
2024-05-16T23:23:30.212;599616575769140468;14136.772;92
2024-05-16T23:23:30.220;599616575776831840;14144.464;106
2024-05-16T23:23:30.228;599616575784523212;14152.155;54
2024-05-16T23:23:30.235;599616575792214584;14159.847;35
2024-05-16T23:23:30.243;599616575799905956;14167.538;261
2024-05-16T23:23:30.251;599616575807597328;14175.229;701
2024-05-16T23:23:30.258;599616575815288700;14182.92;981
2024-05-16T23:23:30.266;599616575822980072;14190.612;741
2024-05-16T23:23:30.274;599616575830671444;14198.304;178
2024-05-16T23:23:30.281;599616575838362816;14205.995;-125
2024-05-16T23:23:30.289;599616575846054188;14213.687;-104
2024-05-16T23:23:30.297;599616575853745560;14221.378;-109
2024-05-16T23:23:30.305;599616575861436932;14229.068;-152
2024-05-16T23:23:30.312;599616575869128304;14236.76;-123
2024-05-16T23:23:30.320;599616575876819676;14244.451;-104
2024-05-16T23:23:30.328;599616575884511048;14252.143;-99
2024-05-16T23:23:30.335;599616575892202420;14259.835;-54
2024-05-16T23:23:30.343;599616575899893792;14267.526;-11
2024-05-16T23:23:30.351;599616575907585164;14275.218;-9
2024-05-16T23:23:30.358;599616575915276536;14282.908;-9
2024-05-16T23:23:30.366;599616575922967908;14290.6;28
2024-05-16T23:23:30.374;599616575930659280;14298.291;71
2024-05-16T23:23:30.381;599616575938350652;14305.982;85
2024-05-16T23:23:30.389;599616575946042024;14313.674;102
2024-05-16T23:23:30.397;599616575953733396;14321.365;106
2024-05-16T23:23:30.405;599616575961424768;14329.057;59
2024-05-16T23:23:30.412;599616575969116140;14336.749;19
2024-05-16T23:23:30.420;599616575976807512;14344.439;35
2024-05-16T23:23:30.428;599616575984498884;14352.131;38
2024-05-16T23:23:30.435;599616575992190256;14359.822;0
2024-05-16T23:23:30.443;599616575999881628;14367.514;-30
2024-05-16T23:23:30.451;599616576007573000;14375.205;-38
2024-05-16T23:23:30.458;599616576015264372;14382.896;-38
2024-05-16T23:23:30.466;599616576022955744;14390.587;-45
2024-05-16T23:23:30.474;599616576030647116;14398.278;-61
2024-05-16T23:23:30.481;599616576038338488;14405.971;-68
2024-05-16T23:23:30.489;599616576046029860;14413.662;-76
2024-05-16T23:23:30.497;599616576053721232;14421.354;-97
2024-05-16T23:23:30.505;599616576061412604;14429.045;-109
2024-05-16T23:23:30.512;599616576069103976;14436.736;-87
2024-05-16T23:23:30.520;599616576076795348;14444.428;-54
2024-05-16T23:23:30.528;599616576084486720;14452.118;-30
2024-05-16T23:23:30.535;599616576092178092;14459.81;-30
2024-05-16T23:23:30.543;599616576099869464;14467.501;-30
2024-05-16T23:23:30.551;599616576107560836;14475.192;-16
2024-05-16T23:23:30.558;599616576115252208;14482.885;2
2024-05-16T23:23:30.566;599616576122943580;14490.576;14
2024-05-16T23:23:30.574;599616576130634952;14498.268;40
2024-05-16T23:23:30.581;599616576138326324;14505.958;64
2024-05-16T23:23:30.589;599616576146017696;14513.649;52
2024-05-16T23:23:30.597;599616576153709068;14521.341;45
2024-05-16T23:23:30.605;599616576161400440;14529.032;76
2024-05-16T23:23:30.612;599616576169091812;14536.724;104
2024-05-16T23:23:30.620;599616576176783184;14544.415;104
2024-05-16T23:23:30.628;599616576184474556;14552.107;95
2024-05-16T23:23:30.635;599616576192165928;14559.798;90
2024-05-16T23:23:30.643;599616576199857300;14567.489;76
2024-05-16T23:23:30.651;599616576207548672;14575.181;49
2024-05-16T23:23:30.658;599616576215240044;14582.872;49
2024-05-16T23:23:30.666;599616576222931416;14590.563;85
2024-05-16T23:23:30.674;599616576230622796;14598.255;97
2024-05-16T23:23:30.681;599616576238314168;14605.946;76
2024-05-16T23:23:30.689;599616576246005540;14613.637;87
2024-05-16T23:23:30.697;599616576253696912;14621.329;128
2024-05-16T23:23:30.705;599616576261388284;14629.0205;149
2024-05-16T23:23:30.712;599616576269079656;14636.712;149
2024-05-16T23:23:30.720;599616576276771028;14644.403;125
2024-05-16T23:23:30.728;599616576284462400;14652.095;78
2024-05-16T23:23:30.735;599616576292153772;14659.786;83
2024-05-16T23:23:30.743;599616576299845144;14667.477;306
2024-05-16T23:23:30.751;599616576307536516;14675.168;741
2024-05-16T23:23:30.758;599616576315227888;14682.859;929
2024-05-16T23:23:30.766;599616576322919260;14690.551;487
2024-05-16T23:23:30.774;599616576330610632;14698.243;-97
2024-05-16T23:23:30.781;599616576338302004;14705.935;-218
2024-05-16T23:23:30.789;599616576345993376;14713.626;-163
2024-05-16T23:23:30.797;599616576353684748;14721.316;-263
2024-05-16T23:23:30.805;599616576361376120;14729.008;-280
2024-05-16T23:23:30.812;599616576369067492;14736.699;-197
2024-05-16T23:23:30.820;599616576376758864;14744.391;-199
2024-05-16T23:23:30.828;599616576384450236;14752.082;-213
2024-05-16T23:23:30.835;599616576392141608;14759.773;-166
2024-05-16T23:23:30.843;599616576399832980;14767.466;-125
2024-05-16T23:23:30.851;599616576407524352;14775.156;-92
2024-05-16T23:23:30.858;599616576415215724;14782.848;-66
2024-05-16T23:23:30.866;599616576422907096;14790.539;-76
2024-05-16T23:23:30.874;599616576430598468;14798.23;-59
2024-05-16T23:23:30.881;599616576438289840;14805.922;-7
2024-05-16T23:23:30.889;599616576445981212;14813.613;11
2024-05-16T23:23:30.897;599616576453672584;14821.305;11
2024-05-16T23:23:30.904;599616576461363956;14828.995;40
2024-05-16T23:23:30.912;599616576469055328;14836.687;45
2024-05-16T23:23:30.920;599616576476746700;14844.379;9
2024-05-16T23:23:30.928;599616576484438072;14852.07;11
2024-05-16T23:23:30.935;599616576492129444;14859.762;26
2024-05-16T23:23:30.943;599616576499820816;14867.453;-21
2024-05-16T23:23:30.951;599616576507512188;14875.145;-78
2024-05-16T23:23:30.958;599616576515203560;14882.836;-97
2024-05-16T23:23:30.966;599616576522894932;14890.526;-109
2024-05-16T23:23:30.974;599616576530586304;14898.218;-118
2024-05-16T23:23:30.981;599616576538277676;14905.909;-130
2024-05-16T23:23:30.989;599616576545969048;14913.602;-137
2024-05-16T23:23:30.997;599616576553660420;14921.293;-135
2024-05-16T23:23:31.004;599616576561351792;14928.984;-140
2024-05-16T23:23:31.012;599616576569043164;14936.676;-137
2024-05-16T23:23:31.020;599616576576734536;14944.366;-111
2024-05-16T23:23:31.028;599616576584425908;14952.058;-85
2024-05-16T23:23:31.035;599616576592117280;14959.749;-78
2024-05-16T23:23:31.043;599616576599808652;14967.44;-78
2024-05-16T23:23:31.051;599616576607500024;14975.132;-73
2024-05-16T23:23:31.058;599616576615191396;14982.823;-47
2024-05-16T23:23:31.066;599616576622882768;14990.516;-19
2024-05-16T23:23:31.074;599616576630574140;14998.206;-16
2024-05-16T23:23:31.081;599616576638265512;15005.897;-9
2024-05-16T23:23:31.089;599616576645956884;15013.589;16
2024-05-16T23:23:31.097;599616576653648256;15021.28;33
2024-05-16T23:23:31.104;599616576661339628;15028.972;35
2024-05-16T23:23:31.112;599616576669031000;15036.663;35
2024-05-16T23:23:31.120;599616576676722372;15044.3545;49
2024-05-16T23:23:31.128;599616576684413744;15052.045;78
2024-05-16T23:23:31.135;599616576692105116;15059.737;80
2024-05-16T23:23:31.143;599616576699796488;15067.429;42
2024-05-16T23:23:31.151;599616576707487860;15075.12;26
2024-05-16T23:23:31.158;599616576715179232;15082.812;57
2024-05-16T23:23:31.166;599616576722870604;15090.503;73
2024-05-16T23:23:31.174;599616576730561976;15098.194;90
2024-05-16T23:23:31.181;599616576738253348;15105.885;118
2024-05-16T23:23:31.189;599616576745944720;15113.576;109
2024-05-16T23:23:31.197;599616576753636092;15121.268;87
2024-05-16T23:23:31.204;599616576761327464;15128.959;114
2024-05-16T23:23:31.212;599616576769018836;15136.651;144
2024-05-16T23:23:31.220;599616576776710208;15144.343;102
2024-05-16T23:23:31.228;599616576784401580;15152.034;59
2024-05-16T23:23:31.235;599616576792092960;15159.725;218
2024-05-16T23:23:31.243;599616576799784332;15167.416;643
2024-05-16T23:23:31.251;599616576807475704;15175.107;1040
2024-05-16T23:23:31.258;599616576815167076;15182.799;924
2024-05-16T23:23:31.266;599616576822858448;15190.49;325
2024-05-16T23:23:31.274;599616576830549820;15198.182;-66
2024-05-16T23:23:31.281;599616576838241192;15205.874;-9
2024-05-16T23:23:31.289;599616576845932564;15213.564;-16
2024-05-16T23:23:31.297;599616576853623936;15221.256;-159
2024-05-16T23:23:31.304;599616576861315308;15228.947;-147
2024-05-16T23:23:31.312;599616576869006680;15236.639;-152
2024-05-16T23:23:31.320;599616576876698052;15244.33;-230
2024-05-16T23:23:31.328;599616576884389424;15252.021;-201
2024-05-16T23:23:31.335;599616576892080796;15259.713;-142
2024-05-16T23:23:31.343;599616576899772168;15267.403;-144
2024-05-16T23:23:31.351;599616576907463540;15275.095;-121
2024-05-16T23:23:31.358;599616576915154912;15282.787;-71
2024-05-16T23:23:31.366;599616576922846284;15290.479;-54
2024-05-16T23:23:31.374;599616576930537656;15298.17;-59
2024-05-16T23:23:31.381;599616576938229028;15305.861;-68
2024-05-16T23:23:31.389;599616576945920400;15313.553;-66
2024-05-16T23:23:31.397;599616576953611772;15321.243;-30
2024-05-16T23:23:31.404;599616576961303144;15328.935;9
2024-05-16T23:23:31.412;599616576968994516;15336.626;26
2024-05-16T23:23:31.420;599616576976685888;15344.317;30
2024-05-16T23:23:31.428;599616576984377260;15352.01;9
2024-05-16T23:23:31.435;599616576992068632;15359.701;-14
2024-05-16T23:23:31.443;599616576999760004;15367.393;-30
2024-05-16T23:23:31.451;599616577007451376;15375.084;-71
2024-05-16T23:23:31.458;599616577015142748;15382.774;-118
2024-05-16T23:23:31.466;599616577022834120;15390.466;-149
2024-05-16T23:23:31.474;599616577030525492;15398.157;-161
2024-05-16T23:23:31.481;599616577038216864;15405.849;-156
2024-05-16T23:23:31.489;599616577045908236;15413.54;-159
2024-05-16T23:23:31.497;599616577053599608;15421.231;-161
2024-05-16T23:23:31.504;599616577061290980;15428.924;-144
2024-05-16T23:23:31.512;599616577068982352;15436.614;-137
2024-05-16T23:23:31.520;599616577076673724;15444.306;-140
2024-05-16T23:23:31.527;599616577084365096;15451.997;-123
2024-05-16T23:23:31.535;599616577092056468;15459.688;-85
2024-05-16T23:23:31.543;599616577099747840;15467.38;-54
2024-05-16T23:23:31.551;599616577107439212;15475.071;-47
2024-05-16T23:23:31.558;599616577115130584;15482.763;-57
2024-05-16T23:23:31.566;599616577122821956;15490.453;-35
2024-05-16T23:23:31.574;599616577130513328;15498.1455;-4
2024-05-16T23:23:31.581;599616577138204700;15505.837;0
2024-05-16T23:23:31.589;599616577145896072;15513.528;19
2024-05-16T23:23:31.597;599616577153587444;15521.22;57
2024-05-16T23:23:31.604;599616577161278816;15528.911;57
2024-05-16T23:23:31.612;599616577168970188;15536.603;40
2024-05-16T23:23:31.620;599616577176661560;15544.293;54
2024-05-16T23:23:31.627;599616577184352932;15551.984;57
2024-05-16T23:23:31.635;599616577192044304;15559.676;23
2024-05-16T23:23:31.643;599616577199735676;15567.367;2
2024-05-16T23:23:31.651;599616577207427048;15575.06;14
2024-05-16T23:23:31.658;599616577215118420;15582.751;47
2024-05-16T23:23:31.666;599616577222809792;15590.442;87
2024-05-16T23:23:31.674;599616577230501164;15598.133;97
2024-05-16T23:23:31.681;599616577238192536;15605.824;106
2024-05-16T23:23:31.689;599616577245883908;15613.516;130
2024-05-16T23:23:31.697;599616577253575280;15621.207;133
2024-05-16T23:23:31.704;599616577261266652;15628.898;125
2024-05-16T23:23:31.712;599616577268958024;15636.59;144
2024-05-16T23:23:31.720;599616577276649396;15644.282;140
2024-05-16T23:23:31.727;599616577284340768;15651.973;95
2024-05-16T23:23:31.735;599616577292032140;15659.664;166
2024-05-16T23:23:31.743;599616577299723512;15667.355;520
2024-05-16T23:23:31.751;599616577307414884;15675.047;1002
2024-05-16T23:23:31.758;599616577315106256;15682.738;1147
2024-05-16T23:23:31.766;599616577322797628;15690.43;691
2024-05-16T23:23:31.774;599616577330489000;15698.121;116
2024-05-16T23:23:31.781;599616577338180372;15705.812;23
2024-05-16T23:23:31.789;599616577345871744;15713.503;116
2024-05-16T23:23:31.797;599616577353563124;15721.195;-11
2024-05-16T23:23:31.804;599616577361254496;15728.887;-114
2024-05-16T23:23:31.812;599616577368945868;15736.578;-52
2024-05-16T23:23:31.820;599616577376637240;15744.27;-23
2024-05-16T23:23:31.827;599616577384328612;15751.961;-47
2024-05-16T23:23:31.835;599616577392019984;15759.651;-23
2024-05-16T23:23:31.843;599616577399711356;15767.343;-7
2024-05-16T23:23:31.851;599616577407402728;15775.034;-64
2024-05-16T23:23:31.858;599616577415094100;15782.726;-111
2024-05-16T23:23:31.866;599616577422785472;15790.418;-64
2024-05-16T23:23:31.874;599616577430476844;15798.109;-33
2024-05-16T23:23:31.881;599616577438168216;15805.801;-71
2024-05-16T23:23:31.889;599616577445859588;15813.492;-52
2024-05-16T23:23:31.897;599616577453550960;15821.183;33
2024-05-16T23:23:31.904;599616577461242332;15828.874;73
2024-05-16T23:23:31.912;599616577468933704;15836.565;80
2024-05-16T23:23:31.920;599616577476625076;15844.257;99
2024-05-16T23:23:31.927;599616577484316448;15851.948;104
2024-05-16T23:23:31.935;599616577492007820;15859.64;76
2024-05-16T23:23:31.943;599616577499699192;15867.332;45
2024-05-16T23:23:31.951;599616577507390564;15875.022;11
2024-05-16T23:23:31.958;599616577515081936;15882.714;-19
2024-05-16T23:23:31.966;599616577522773308;15890.405;-35
2024-05-16T23:23:31.974;599616577530464680;15898.097;-61
2024-05-16T23:23:31.981;599616577538156052;15905.788;-71
2024-05-16T23:23:31.989;599616577545847424;15913.4795;-47
2024-05-16T23:23:31.997;599616577553538796;15921.171;-42
2024-05-16T23:23:32.004;599616577561230168;15928.861;-45
2024-05-16T23:23:32.012;599616577568921540;15936.554;-19
2024-05-16T23:23:32.020;599616577576612912;15944.245;-14
2024-05-16T23:23:32.027;599616577584304284;15951.937;-33
2024-05-16T23:23:32.035;599616577591995656;15959.628;-19
