Phone timestamp;sensor timestamp [ns];timestamp [ms];ecg [uV]
2024-05-16T23:16:59.817;599616185372589456;0.0;35
2024-05-16T23:16:59.824;599616185380281246;7.69179;420
2024-05-16T23:16:59.832;599616185387973036;15.38358;1563
2024-05-16T23:16:59.840;599616185395664826;23.07537;2944
2024-05-16T23:16:59.847;599616185403356616;30.76716;3787
2024-05-16T23:16:59.855;599616185411048406;38.458954;4422
2024-05-16T23:16:59.863;599616185418740196;46.15074;5180
2024-05-16T23:16:59.870;599616185426431986;53.84253;5821
2024-05-16T23:16:59.878;599616185434123776;61.53432;6387
2024-05-16T23:16:59.886;599616185441815566;69.22611;6988
2024-05-16T23:16:59.893;599616185449507356;76.91791;7482
2024-05-16T23:16:59.901;599616185457199146;84.60969;7896
2024-05-16T23:16:59.909;599616185464890936;92.30148;8369
2024-05-16T23:16:59.916;599616185472582726;99.99327;8842
2024-05-16T23:16:59.924;599616185480274516;107.68506;9234
2024-05-16T23:16:59.932;599616185487966306;115.37685;9595
2024-05-16T23:16:59.940;599616185495658096;123.06864;9994
2024-05-16T23:16:59.947;599616185503349886;130.76044;10374
2024-05-16T23:16:59.955;599616185511041676;138.45222;10648
2024-05-16T23:16:59.963;599616185518733466;146.14401;10926
2024-05-16T23:16:59.970;599616185526425256;153.83582;11342
2024-05-16T23:16:59.978;599616185534117046;161.52759;11719
2024-05-16T23:16:59.986;599616185541808836;169.21938;11862
2024-05-16T23:16:59.993;599616185549500626;176.91116;12005
2024-05-16T23:17:00.001;599616185557192416;184.60297;12347
2024-05-16T23:17:00.009;599616185564884206;192.29475;12672
2024-05-16T23:17:00.016;599616185572575996;199.98654;12908
2024-05-16T23:17:00.024;599616185580267786;207.67833;13105
2024-05-16T23:17:00.032;599616185587959576;215.37012;13214
2024-05-16T23:17:00.040;599616185595651366;223.0619;13385
2024-05-16T23:17:00.047;599616185603343156;230.7537;13630
2024-05-16T23:17:00.055;599616185611034946;238.4455;13699
2024-05-16T23:17:00.063;599616185618726736;246.13728;13794
2024-05-16T23:17:00.070;599616185626418526;253.82907;13984
2024-05-16T23:17:00.078;599616185634110316;261.52087;14001
2024-05-16T23:17:00.086;599616185641802106;269.21265;14039
2024-05-16T23:17:00.093;599616185649493896;276.90445;14276
2024-05-16T23:17:00.101;599616185657185686;284.59622;14419
2024-05-16T23:17:00.109;599616185664877476;292.28802;14433
2024-05-16T23:17:00.116;599616185672569266;299.9798;14514
2024-05-16T23:17:00.124;599616185680261056;307.67163;14616
2024-05-16T23:17:00.132;599616185687952846;315.3634;14657
2024-05-16T23:17:00.140;599616185695644636;323.05518;14668
2024-05-16T23:17:00.147;599616185703336426;330.74698;14690
2024-05-16T23:17:00.155;599616185711028216;338.43875;14835
2024-05-16T23:17:00.163;599616185718720006;346.13055;15096
2024-05-16T23:17:00.170;599616185726411796;353.82233;15265
2024-05-16T23:17:00.178;599616185734103586;361.51413;15555
2024-05-16T23:17:00.186;599616185741795376;369.20593;15959
2024-05-16T23:17:00.193;599616185749487166;376.8977;15712
2024-05-16T23:17:00.201;599616185757178956;384.5895;14984
2024-05-16T23:17:00.209;599616185764870746;392.28128;14642
2024-05-16T23:17:00.216;599616185772562536;399.97308;14666
2024-05-16T23:17:00.224;599616185780254326;407.66486;14611
2024-05-16T23:17:00.232;599616185787946116;415.35666;14464
2024-05-16T23:17:00.240;599616185795637906;423.04846;14457
2024-05-16T23:17:00.247;599616185803329696;430.74023;14573
2024-05-16T23:17:00.255;599616185811021486;438.43204;14538
2024-05-16T23:17:00.263;599616185818713276;446.1238;14350
2024-05-16T23:17:00.270;599616185826405066;453.8156;14326
2024-05-16T23:17:00.278;599616185834096856;461.5074;14440
2024-05-16T23:17:00.286;599616185841788646;469.1992;14466
2024-05-16T23:17:00.293;599616185849480436;476.891;14426
2024-05-16T23:17:00.301;599616185857172226;484.5828;14283
2024-05-16T23:17:00.309;599616185864864016;492.27457;14108
2024-05-16T23:17:00.316;599616185872555806;499.96634;14065
2024-05-16T23:17:00.324;599616185880247596;507.65814;14072
2024-05-16T23:17:00.332;599616185887939386;515.3499;14055
2024-05-16T23:17:00.340;599616185895631176;523.04175;14043
2024-05-16T23:17:00.347;599616185903322966;530.7335;13963
2024-05-16T23:17:00.355;599616185911014756;538.4253;13846
2024-05-16T23:17:00.363;599616185918706546;546.1171;13841
2024-05-16T23:17:00.370;599616185926398336;553.8089;13808
2024-05-16T23:17:00.378;599616185934090138;561.5007;13628
2024-05-16T23:17:00.386;599616185941781928;569.19244;13535
2024-05-16T23:17:00.393;599616185949473718;576.8843;13525
2024-05-16T23:17:00.401;599616185957165508;584.57605;13366
2024-05-16T23:17:00.409;599616185964857298;592.2678;13155
2024-05-16T23:17:00.416;599616185972549088;599.9596;13088
2024-05-16T23:17:00.424;599616185980240878;607.65137;13093
2024-05-16T23:17:00.432;599616185987932668;615.34326;13055
2024-05-16T23:17:00.440;599616185995624458;623.03503;12943
2024-05-16T23:17:00.447;599616186003316248;630.7268;12843
2024-05-16T23:17:00.455;599616186011008038;638.4186;12912
2024-05-16T23:17:00.463;599616186018699828;646.1104;12836
2024-05-16T23:17:00.470;599616186026391618;653.8022;12468
2024-05-16T23:17:00.478;599616186034083408;661.49396;12404
2024-05-16T23:17:00.486;599616186041775198;669.1857;12594
2024-05-16T23:17:00.493;599616186049466988;676.8775;12349
2024-05-16T23:17:00.501;599616186057158778;684.56934;11872
2024-05-16T23:17:00.509;599616186064850568;692.2611;11757
2024-05-16T23:17:00.516;599616186072542358;699.9529;11798
2024-05-16T23:17:00.524;599616186080234148;707.64465;11674
2024-05-16T23:17:00.532;599616186087925938;715.3365;11608
2024-05-16T23:17:00.540;599616186095617728;723.02826;11612
2024-05-16T23:17:00.547;599616186103309518;730.7201;11401
2024-05-16T23:17:00.555;599616186111001308;738.41187;11094
2024-05-16T23:17:00.563;599616186118693098;746.10364;10973
2024-05-16T23:17:00.570;599616186126384888;753.7955;10973
2024-05-16T23:17:00.578;599616186134076678;761.48724;10895
2024-05-16T23:17:00.586;599616186141768468;769.179;10733
2024-05-16T23:17:00.593;599616186149460258;776.8708;10633
2024-05-16T23:17:00.601;599616186157152048;784.56256;10622
2024-05-16T23:17:00.609;599616186164843838;792.2544;10560
2024-05-16T23:17:00.616;599616186172535628;799.94617;10393
2024-05-16T23:17:00.624;599616186180227418;807.63794;10227
2024-05-16T23:17:00.632;599616186187919208;815.3297;10191
2024-05-16T23:17:00.640;599616186195610998;823.02155;10194
2024-05-16T23:17:00.647;599616186203302788;830.7133;10056
2024-05-16T23:17:00.655;599616186210994578;838.4051;9883
2024-05-16T23:17:00.663;599616186218686368;846.0969;9930
2024-05-16T23:17:00.670;599616186226378158;853.7887;10087
2024-05-16T23:17:00.678;599616186234069948;861.4805;10218
2024-05-16T23:17:00.686;599616186241761738;869.1723;10443
2024-05-16T23:17:00.693;599616186249453528;876.8641;10410
2024-05-16T23:17:00.701;599616186257145318;884.55585;9738
2024-05-16T23:17:00.709;599616186264837108;892.2477;9041
2024-05-16T23:17:00.716;599616186272528898;899.93945;8968
2024-05-16T23:17:00.724;599616186280220688;907.6312;8996
2024-05-16T23:17:00.732;599616186287912478;915.323;8687
2024-05-16T23:17:00.740;599616186295604268;923.0148;8478
2024-05-16T23:17:00.747;599616186303296058;930.7066;8502
2024-05-16T23:17:00.755;599616186310987848;938.3984;8485
2024-05-16T23:17:00.763;599616186318679638;946.09015;8371
2024-05-16T23:17:00.770;599616186326371428;953.782;8243
2024-05-16T23:17:00.778;599616186334063218;961.4738;8222
2024-05-16T23:17:00.786;599616186341755008;969.1656;8210
2024-05-16T23:17:00.793;599616186349446798;976.85736;7989
2024-05-16T23:17:00.801;599616186357138588;984.54913;7794
2024-05-16T23:17:00.809;599616186364830378;992.2409;7801
2024-05-16T23:17:00.816;599616186372522168;999.93274;7768
2024-05-16T23:17:00.824;599616186380213958;1007.6245;7663
2024-05-16T23:17:00.832;599616186387905748;1015.3163;7635
2024-05-16T23:17:00.840;599616186395597538;1023.00806;7644
2024-05-16T23:17:00.847;599616186403289328;1030.7;7587
2024-05-16T23:17:00.855;599616186410981118;1038.3917;7485
2024-05-16T23:17:00.863;599616186418672908;1046.0835;7406
2024-05-16T23:17:00.870;599616186426364698;1053.7753;7366
2024-05-16T23:17:00.878;599616186434056488;1061.467;7314
2024-05-16T23:17:00.886;599616186441748278;1069.1588;7202
2024-05-16T23:17:00.893;599616186449440068;1076.8506;7117
2024-05-16T23:17:00.901;599616186457131858;1084.5425;7105
2024-05-16T23:17:00.909;599616186464823648;1092.2343;7033
2024-05-16T23:17:00.916;599616186472515438;1099.926;6891
2024-05-16T23:17:00.924;599616186480207228;1107.6178;6777
2024-05-16T23:17:00.932;599616186487899018;1115.3096;6734
2024-05-16T23:17:00.939;599616186495570804;1122.9813;6717
2024-05-16T23:17:00.947;599616186503262872;1130.6735;6632
2024-05-16T23:17:00.955;599616186510954940;1138.3655;6503
2024-05-16T23:17:00.963;599616186518647008;1146.0576;6461
2024-05-16T23:17:00.970;599616186526339076;1153.7496;6432
2024-05-16T23:17:00.978;599616186534031144;1161.4417;6313
2024-05-16T23:17:00.986;599616186541723212;1169.1337;6249
2024-05-16T23:17:00.993;599616186549415280;1176.8258;6285
2024-05-16T23:17:01.001;599616186557107348;1184.518;6176
2024-05-16T23:17:01.009;599616186564799416;1192.21;5919
2024-05-16T23:17:01.016;599616186572491484;1199.9021;5819
2024-05-16T23:17:01.024;599616186580183552;1207.5941;5843
2024-05-16T23:17:01.032;599616186587875620;1215.2861;5741
2024-05-16T23:17:01.039;599616186595567688;1222.9781;5551
2024-05-16T23:17:01.047;599616186603259756;1230.6703;5455
2024-05-16T23:17:01.055;599616186610951824;1238.3624;5406
2024-05-16T23:17:01.063;599616186618643892;1246.0544;5265
2024-05-16T23:17:01.070;599616186626335960;1253.7466;5151
2024-05-16T23:17:01.078;599616186634028028;1261.4386;5151
2024-05-16T23:17:01.086;599616186641720096;1269.1306;5106
2024-05-16T23:17:01.093;599616186649412164;1276.8226;4971
2024-05-16T23:17:01.101;599616186657104232;1284.5148;4911
2024-05-16T23:17:01.109;599616186664796300;1292.2068;4952
2024-05-16T23:17:01.116;599616186672488368;1299.8989;4956
2024-05-16T23:17:01.124;599616186680180436;1307.5911;4864
2024-05-16T23:17:01.132;599616186687872504;1315.2831;4785
2024-05-16T23:17:01.139;599616186695564572;1322.9751;4793
2024-05-16T23:17:01.147;599616186703256640;1330.6671;4757
2024-05-16T23:17:01.155;599616186710948708;1338.3593;4583
2024-05-16T23:17:01.163;599616186718640776;1346.0513;4488
2024-05-16T23:17:01.170;599616186726332844;1353.7434;4669
2024-05-16T23:17:01.178;599616186734024912;1361.4354;4952
2024-05-16T23:17:01.186;599616186741716980;1369.1276;5166
2024-05-16T23:17:01.193;599616186749409048;1376.8196;5204
2024-05-16T23:17:01.201;599616186757101116;1384.5116;4781
2024-05-16T23:17:01.209;599616186764793184;1392.2037;4146
2024-05-16T23:17:01.216;599616186772485252;1399.8958;3925
2024-05-16T23:17:01.224;599616186780177320;1407.5879;3968
2024-05-16T23:17:01.232;599616186787869388;1415.2799;3875
2024-05-16T23:17:01.239;599616186795561456;1422.972;3718
2024-05-16T23:17:01.247;599616186803253524;1430.6641;3614
2024-05-16T23:17:01.255;599616186810945592;1438.3561;3552
2024-05-16T23:17:01.263;599616186818637660;1446.0482;3538
2024-05-16T23:17:01.270;599616186826329728;1453.7402;3538
2024-05-16T23:17:01.278;599616186834021796;1461.4324;3509
2024-05-16T23:17:01.286;599616186841713864;1469.1244;3440
2024-05-16T23:17:01.293;599616186849405932;1476.8165;3383
2024-05-16T23:17:01.301;599616186857098000;1484.5085;3364
2024-05-16T23:17:01.309;599616186864790068;1492.2006;3343
2024-05-16T23:17:01.316;599616186872482136;1499.8927;3314
2024-05-16T23:17:01.324;599616186880174204;1507.5847;3295
2024-05-16T23:17:01.332;599616186887866272;1515.2769;3303
2024-05-16T23:17:01.339;599616186895558340;1522.9689;3307
2024-05-16T23:17:01.347;599616186903250408;1530.661;3324
2024-05-16T23:17:01.355;599616186910942476;1538.353;3350
2024-05-16T23:17:01.363;599616186918634544;1546.045;3288
2024-05-16T23:17:01.370;599616186926326612;1553.7372;3200
2024-05-16T23:17:01.378;599616186934018680;1561.4292;3219
2024-05-16T23:17:01.386;599616186941710748;1569.1213;3241
2024-05-16T23:17:01.393;599616186949402816;1576.8134;3162
2024-05-16T23:17:01.401;599616186957094884;1584.5055;3127
2024-05-16T23:17:01.409;599616186964786952;1592.1975;3136
2024-05-16T23:17:01.416;599616186972479020;1599.8895;3072
2024-05-16T23:17:01.424;599616186980171088;1607.5817;2994
2024-05-16T23:17:01.432;599616186987863156;1615.2737;2984
2024-05-16T23:17:01.439;599616186995555224;1622.9658;2996
2024-05-16T23:17:01.447;599616187003247292;1630.6578;2987
2024-05-16T23:17:01.455;599616187010939360;1638.35;2925
2024-05-16T23:17:01.463;599616187018631428;1646.042;2849
2024-05-16T23:17:01.470;599616187026323496;1653.734;2837
2024-05-16T23:17:01.478;599616187034015564;1661.426;2839
2024-05-16T23:17:01.486;599616187041707632;1669.1182;2773
2024-05-16T23:17:01.493;599616187049399700;1676.8102;2716
2024-05-16T23:17:01.501;599616187057101838;1684.5123;2708
2024-05-16T23:17:01.509;599616187064793767;1692.2043;2694
2024-05-16T23:17:01.516;599616187072485696;1699.8962;2656
2024-05-16T23:17:01.524;599616187080177625;1707.5883;2616
2024-05-16T23:17:01.532;599616187087869554;1715.2802;2559
2024-05-16T23:17:01.539;599616187095561483;1722.972;2502
2024-05-16T23:17:01.547;599616187103253412;1730.664;2464
2024-05-16T23:17:01.555;599616187110945341;1738.3558;2416
2024-05-16T23:17:01.563;599616187118637270;1746.0479;2352
2024-05-16T23:17:01.570;599616187126329199;1753.7397;2252
2024-05-16T23:17:01.578;599616187134021128;1761.4316;2145
2024-05-16T23:17:01.586;599616187141713057;1769.1235;2141
2024-05-16T23:17:01.593;599616187149404986;1776.8154;2174
2024-05-16T23:17:01.601;599616187157096915;1784.5076;2095
2024-05-16T23:17:01.609;599616187164788844;1792.1995;1979
2024-05-16T23:17:01.616;599616187172480773;1799.8914;1960
2024-05-16T23:17:01.624;599616187180172702;1807.5833;1977
2024-05-16T23:17:01.632;599616187187864631;1815.2751;1896
2024-05-16T23:17:01.639;599616187195556560;1822.967;1794
2024-05-16T23:17:01.647;599616187203248489;1830.659;1803
2024-05-16T23:17:01.655;599616187210940418;1838.351;1817
2024-05-16T23:17:01.663;599616187218632347;1846.0428;1732
2024-05-16T23:17:01.670;599616187226324276;1853.7347;1760
2024-05-16T23:17:01.678;599616187234016205;1861.4266;2105
2024-05-16T23:17:01.686;599616187241708134;1869.1188;2530
2024-05-16T23:17:01.693;599616187249400063;1876.8107;2642
2024-05-16T23:17:01.701;599616187257091992;1884.5026;2293
2024-05-16T23:17:01.709;599616187264783921;1892.1945;1739
2024-05-16T23:17:01.716;599616187272475850;1899.8864;1451
2024-05-16T23:17:01.724;599616187280167779;1907.5784;1451
2024-05-16T23:17:01.732;599616187287859708;1915.2703;1413
2024-05-16T23:17:01.739;599616187295551637;1922.9622;1337
2024-05-16T23:17:01.747;599616187303243566;1930.654;1323
2024-05-16T23:17:01.755;599616187310935495;1938.346;1318
2024-05-16T23:17:01.763;599616187318627424;1946.038;1325
2024-05-16T23:17:01.770;599616187326319353;1953.73;1283
2024-05-16T23:17:01.778;599616187334011282;1961.4219;1176
2024-05-16T23:17:01.786;599616187341703211;1969.1138;1145
2024-05-16T23:17:01.793;599616187349395140;1976.8057;1204
2024-05-16T23:17:01.801;599616187357087069;1984.4977;1271
2024-05-16T23:17:01.809;599616187364778998;1992.1896;1287
2024-05-16T23:17:01.816;599616187372470927;1999.8815;1264
2024-05-16T23:17:01.824;599616187380162856;2007.5734;1268
2024-05-16T23:17:01.832;599616187387854785;2015.2653;1302
2024-05-16T23:17:01.839;599616187395546714;2022.9573;1335
2024-05-16T23:17:01.847;599616187403238643;2030.6492;1378
2024-05-16T23:17:01.855;599616187410930572;2038.3411;1413
2024-05-16T23:17:01.863;599616187418622501;2046.0331;1399
2024-05-16T23:17:01.870;599616187426314430;2053.7249;1347
2024-05-16T23:17:01.878;599616187434006359;2061.417;1325
2024-05-16T23:17:01.886;599616187441698288;2069.109;1354
2024-05-16T23:17:01.893;599616187449390217;2076.8008;1383
2024-05-16T23:17:01.901;599616187457082146;2084.4927;1363
2024-05-16T23:17:01.909;599616187464774075;2092.1846;1328
2024-05-16T23:17:01.916;599616187472466004;2099.8767;1340
2024-05-16T23:17:01.924;599616187480157933;2107.5686;1347
2024-05-16T23:17:01.932;599616187487849862;2115.2605;1318
2024-05-16T23:17:01.939;599616187495541791;2122.9524;1302
2024-05-16T23:17:01.947;599616187503233720;2130.6443;1292
2024-05-16T23:17:01.955;599616187510925649;2138.3362;1273
2024-05-16T23:17:01.963;599616187518617578;2146.028;1261
2024-05-16T23:17:01.970;599616187526309507;2153.72;1278
2024-05-16T23:17:01.978;599616187534001436;2161.412;1316
2024-05-16T23:17:01.986;599616187541693365;2169.1038;1321
2024-05-16T23:17:01.993;599616187549385294;2176.796;1304
2024-05-16T23:17:02.001;599616187557077223;2184.4878;1304
2024-05-16T23:17:02.009;599616187564769152;2192.1797;1316
2024-05-16T23:17:02.016;599616187572461081;2199.8718;1290
2024-05-16T23:17:02.024;599616187580153010;2207.5635;1216
2024-05-16T23:17:02.032;599616187587844939;2215.2556;1183
2024-05-16T23:17:02.039;599616187595536868;2222.9473;1207
2024-05-16T23:17:02.047;599616187603228797;2230.6394;1204
2024-05-16T23:17:02.055;599616187610920726;2238.3313;1159
2024-05-16T23:17:02.063;599616187618622702;2246.0332;1131
2024-05-16T23:17:02.070;599616187626314492;2253.7249;1093
2024-05-16T23:17:02.078;599616187634006282;2261.4167;1021
2024-05-16T23:17:02.086;599616187641698072;2269.1086;1005
2024-05-16T23:17:02.093;599616187649389862;2276.8005;1057
2024-05-16T23:17:02.101;599616187657081652;2284.4922;1052
2024-05-16T23:17:02.109;599616187664773442;2292.184;943
2024-05-16T23:17:02.116;599616187672465232;2299.8757;845
2024-05-16T23:17:02.124;599616187680157022;2307.5676;874
2024-05-16T23:17:02.132;599616187687848812;2315.2593;950
2024-05-16T23:17:02.139;599616187695540602;2322.9512;917
2024-05-16T23:17:02.147;599616187703232392;2330.6428;829
2024-05-16T23:17:02.155;599616187710924182;2338.3347;805
2024-05-16T23:17:02.163;599616187718615972;2346.0266;815
2024-05-16T23:17:02.170;599616187726307762;2353.7183;891
2024-05-16T23:17:02.178;599616187733999552;2361.4102;1192
2024-05-16T23:17:02.186;599616187741691342;2369.1018;1646
2024-05-16T23:17:02.193;599616187749383132;2376.7937;1808
2024-05-16T23:17:02.201;599616187757074922;2384.4854;1380
2024-05-16T23:17:02.209;599616187764766712;2392.1772;774
2024-05-16T23:17:02.216;599616187772458502;2399.869;575
2024-05-16T23:17:02.224;599616187780150292;2407.561;660
2024-05-16T23:17:02.232;599616187787842082;2415.2527;629
2024-05-16T23:17:02.239;599616187795533872;2422.9446;513
2024-05-16T23:17:02.247;599616187803225662;2430.6362;468
2024-05-16T23:17:02.255;599616187810917452;2438.3281;437
2024-05-16T23:17:02.263;599616187818609242;2446.0198;408
2024-05-16T23:17:02.270;599616187826301032;2453.7117;418
2024-05-16T23:17:02.278;599616187833992822;2461.4033;403
2024-05-16T23:17:02.286;599616187841684612;2469.0952;351
2024-05-16T23:17:02.293;599616187849376402;2476.7869;351
2024-05-16T23:17:02.301;599616187857068192;2484.4788;422
2024-05-16T23:17:02.309;599616187864759982;2492.1704;480
2024-05-16T23:17:02.316;599616187872451772;2499.8623;499
2024-05-16T23:17:02.324;599616187880143562;2507.554;508
2024-05-16T23:17:02.332;599616187887835352;2515.2458;520
2024-05-16T23:17:02.339;599616187895527142;2522.9375;565
2024-05-16T23:17:02.347;599616187903218932;2530.6294;608
2024-05-16T23:17:02.355;599616187910910722;2538.321;613
2024-05-16T23:17:02.363;599616187918602512;2546.0132;653
2024-05-16T23:17:02.370;599616187926294302;2553.705;701
2024-05-16T23:17:02.378;599616187933986092;2561.3967;670
2024-05-16T23:17:02.386;599616187941677882;2569.0886;636
2024-05-16T23:17:02.393;599616187949369672;2576.7803;667
2024-05-16T23:17:02.401;599616187957061462;2584.4722;662
2024-05-16T23:17:02.409;599616187964753252;2592.1638;617
2024-05-16T23:17:02.416;599616187972445042;2599.8557;610
2024-05-16T23:17:02.424;599616187980136832;2607.5474;608
2024-05-16T23:17:02.432;599616187987828622;2615.2393;596
2024-05-16T23:17:02.439;599616187995520412;2622.931;596
2024-05-16T23:17:02.447;599616188003212202;2630.6228;598
2024-05-16T23:17:02.455;599616188010903992;2638.3145;629
2024-05-16T23:17:02.463;599616188018595782;2646.0063;646
2024-05-16T23:17:02.470;599616188026287572;2653.698;615
2024-05-16T23:17:02.478;599616188033979362;2661.39;596
2024-05-16T23:17:02.486;599616188041671152;2669.0815;634
2024-05-16T23:17:02.493;599616188049362942;2676.7734;681
2024-05-16T23:17:02.501;599616188057054732;2684.465;696
2024-05-16T23:17:02.509;599616188064746522;2692.1572;667
2024-05-16T23:17:02.516;599616188072438312;2699.8489;610
2024-05-16T23:17:02.524;599616188080130102;2707.5408;558
2024-05-16T23:17:02.532;599616188087821892;2715.2324;508
2024-05-16T23:17:02.539;599616188095513682;2722.9243;484
2024-05-16T23:17:02.547;599616188103205472;2730.616;537
2024-05-16T23:17:02.555;599616188110897262;2738.3079;582
2024-05-16T23:17:02.562;599616188118589052;2745.9995;551
2024-05-16T23:17:02.570;599616188126280842;2753.6914;544
2024-05-16T23:17:02.578;599616188133972632;2761.383;570
2024-05-16T23:17:02.586;599616188141664422;2769.075;525
2024-05-16T23:17:02.593;599616188149356212;2776.7666;470
2024-05-16T23:17:02.601;599616188157048002;2784.4585;489
2024-05-16T23:17:02.609;599616188164739792;2792.1504;518
2024-05-16T23:17:02.616;599616188172431582;2799.842;491
2024-05-16T23:17:02.624;599616188180123380;2807.534;468
2024-05-16T23:17:02.632;599616188187815170;2815.2256;491
2024-05-16T23:17:02.639;599616188195506960;2822.9177;537
2024-05-16T23:17:02.647;599616188203198750;2830.6094;494
2024-05-16T23:17:02.655;599616188210890540;2838.3013;361
2024-05-16T23:17:02.662;599616188218582330;2845.993;337
2024-05-16T23:17:02.670;599616188226274120;2853.6848;548
2024-05-16T23:17:02.678;599616188233965910;2861.3765;943
2024-05-16T23:17:02.686;599616188241657700;2869.0684;1344
2024-05-16T23:17:02.693;599616188249349490;2876.76;1311
2024-05-16T23:17:02.701;599616188257041280;2884.452;641
2024-05-16T23:17:02.709;599616188264733070;2892.1436;2
2024-05-16T23:17:02.716;599616188272424860;2899.8354;-49
2024-05-16T23:17:02.724;599616188280116650;2907.527;76
2024-05-16T23:17:02.732;599616188287808440;2915.219;35
2024-05-16T23:17:02.739;599616188295500230;2922.9106;9
2024-05-16T23:17:02.747;599616188303192020;2930.6025;9
2024-05-16T23:17:02.755;599616188310883810;2938.2942;-99
2024-05-16T23:17:02.762;599616188318575600;2945.986;-213
2024-05-16T23:17:02.770;599616188326267390;2953.6777;-228
2024-05-16T23:17:02.778;599616188333959180;2961.3696;-209
2024-05-16T23:17:02.786;599616188341650970;2969.0615;-211
2024-05-16T23:17:02.793;599616188349342760;2976.7534;-178
2024-05-16T23:17:02.801;599616188357034550;2984.445;-116
2024-05-16T23:17:02.809;599616188364726340;2992.137;-95
2024-05-16T23:17:02.816;599616188372418130;2999.8289;-68
2024-05-16T23:17:02.824;599616188380109920;3007.5205;0
2024-05-16T23:17:02.832;599616188387801710;3015.2124;40
2024-05-16T23:17:02.839;599616188395493500;3022.904;71
2024-05-16T23:17:02.847;599616188403185290;3030.596;140
2024-05-16T23:17:02.855;599616188410877080;3038.2876;206
2024-05-16T23:17:02.862;599616188418568870;3045.9795;235
2024-05-16T23:17:02.870;599616188426260660;3053.6711;237
2024-05-16T23:17:02.878;599616188433952450;3061.363;266
2024-05-16T23:17:02.886;599616188441644240;3069.0547;316
2024-05-16T23:17:02.893;599616188449336030;3076.7466;294
2024-05-16T23:17:02.901;599616188457027820;3084.4382;235
2024-05-16T23:17:02.909;599616188464719610;3092.1301;266
2024-05-16T23:17:02.916;599616188472411400;3099.8218;306
2024-05-16T23:17:02.924;599616188480103190;3107.514;270
2024-05-16T23:17:02.932;599616188487794980;3115.2056;251
2024-05-16T23:17:02.939;599616188495486770;3122.8975;299
2024-05-16T23:17:02.947;599616188503178560;3130.589;323
2024-05-16T23:17:02.955;599616188510870350;3138.281;318
2024-05-16T23:17:02.962;599616188518562140;3145.9727;356
2024-05-16T23:17:02.970;599616188526253930;3153.6646;403
2024-05-16T23:17:02.978;599616188533945720;3161.3562;392
2024-05-16T23:17:02.986;599616188541637510;3169.048;401
2024-05-16T23:17:02.993;599616188549329300;3176.7397;456
2024-05-16T23:17:03.001;599616188557021090;3184.4316;427
2024-05-16T23:17:03.009;599616188564712880;3192.1233;356
2024-05-16T23:17:03.016;599616188572404670;3199.8152;373
2024-05-16T23:17:03.024;599616188580096460;3207.5068;430
2024-05-16T23:17:03.032;599616188587788250;3215.1987;465
2024-05-16T23:17:03.039;599616188595480040;3222.8904;484
2024-05-16T23:17:03.047;599616188603171830;3230.5823;506
2024-05-16T23:17:03.055;599616188610863620;3238.2742;553
2024-05-16T23:17:03.062;599616188618555410;3245.966;582
2024-05-16T23:17:03.070;599616188626247200;3253.658;558
2024-05-16T23:17:03.078;599616188633938990;3261.3496;551
2024-05-16T23:17:03.086;599616188641630780;3269.0415;582
2024-05-16T23:17:03.093;599616188649322570;3276.7332;586
2024-05-16T23:17:03.101;599616188657014360;3284.425;546
2024-05-16T23:17:03.109;599616188664706150;3292.1167;513
2024-05-16T23:17:03.116;599616188672397940;3299.8086;499
2024-05-16T23:17:03.124;599616188680089730;3307.5002;499
2024-05-16T23:17:03.132;599616188687781520;3315.1921;506
2024-05-16T23:17:03.139;599616188695473310;3322.8838;503
2024-05-16T23:17:03.147;599616188703165100;3330.5757;496
2024-05-16T23:17:03.155;599616188710856890;3338.2673;472
2024-05-16T23:17:03.162;599616188718548680;3345.9592;427
2024-05-16T23:17:03.170;599616188726240470;3353.651;522
2024-05-16T23:17:03.178;599616188733932260;3361.3428;912
2024-05-16T23:17:03.186;599616188741614058;3369.0244;1392
2024-05-16T23:17:03.193;599616188749305987;3376.7166;1525
2024-05-16T23:17:03.201;599616188756997916;3384.4087;1033
2024-05-16T23:17:03.209;599616188764689845;3392.1003;316
2024-05-16T23:17:03.216;599616188772381774;3399.7925;54
2024-05-16T23:17:03.224;599616188780073703;3407.4841;102
2024-05-16T23:17:03.232;599616188787765632;3415.1763;54
2024-05-16T23:17:03.239;599616188795457561;3422.8682;38
2024-05-16T23:17:03.247;599616188803149490;3430.56;64
2024-05-16T23:17:03.255;599616188810841419;3438.252;2
2024-05-16T23:17:03.262;599616188818533348;3445.9438;-45
2024-05-16T23:17:03.270;599616188826225277;3453.6357;-21
2024-05-16T23:17:03.278;599616188833917206;3461.328;-42
2024-05-16T23:17:03.286;599616188841609135;3469.0195;-80
2024-05-16T23:17:03.293;599616188849301064;3476.7117;-40
2024-05-16T23:17:03.301;599616188856992993;3484.4036;2
2024-05-16T23:17:03.309;599616188864684922;3492.0955;-16
2024-05-16T23:17:03.316;599616188872376851;3499.7876;-2
2024-05-16T23:17:03.324;599616188880068780;3507.4792;76
2024-05-16T23:17:03.332;599616188887760709;3515.1714;125
2024-05-16T23:17:03.339;599616188895452638;3522.863;118
2024-05-16T23:17:03.347;599616188903144567;3530.5552;121
2024-05-16T23:17:03.355;599616188910836496;3538.247;168
2024-05-16T23:17:03.362;599616188918528425;3545.939;225
2024-05-16T23:17:03.370;599616188926220354;3553.6309;242
2024-05-16T23:17:03.378;599616188933912283;3561.3228;235
2024-05-16T23:17:03.386;599616188941604212;3569.015;249
2024-05-16T23:17:03.393;599616188949296141;3576.7065;251
2024-05-16T23:17:03.401;599616188956988070;3584.3987;230
2024-05-16T23:17:03.409;599616188964679999;3592.0906;225
2024-05-16T23:17:03.416;599616188972371928;3599.7825;256
2024-05-16T23:17:03.424;599616188980063857;3607.4744;275
2024-05-16T23:17:03.432;599616188987755786;3615.1663;266
2024-05-16T23:17:03.439;599616188995447715;3622.8582;266
2024-05-16T23:17:03.447;599616189003139644;3630.5503;289
2024-05-16T23:17:03.455;599616189010831573;3638.242;316
2024-05-16T23:17:03.462;599616189018523502;3645.934;337
2024-05-16T23:17:03.470;599616189026215431;3653.626;365
2024-05-16T23:17:03.478;599616189033907360;3661.3179;375
2024-05-16T23:17:03.486;599616189041599289;3669.01;358
2024-05-16T23:17:03.493;599616189049291218;3676.7017;320
2024-05-16T23:17:03.501;599616189056983147;3684.3938;299
2024-05-16T23:17:03.509;599616189064675076;3692.0854;335
2024-05-16T23:17:03.516;599616189072367005;3699.7776;375
2024-05-16T23:17:03.524;599616189080058934;3707.4695;356
2024-05-16T23:17:03.532;599616189087750863;3715.1614;330
2024-05-16T23:17:03.539;599616189095442792;3722.8533;342
2024-05-16T23:17:03.547;599616189103134721;3730.5452;363
2024-05-16T23:17:03.555;599616189110826650;3738.2373;365
2024-05-16T23:17:03.562;599616189118518579;3745.9292;377
2024-05-16T23:17:03.570;599616189126210508;3753.621;408
2024-05-16T23:17:03.578;599616189133902437;3761.313;406
2024-05-16T23:17:03.586;599616189141594366;3769.005;396
2024-05-16T23:17:03.593;599616189149286295;3776.6968;461
2024-05-16T23:17:03.601;599616189156978224;3784.389;494
2024-05-16T23:17:03.609;599616189164670153;3792.0806;403
2024-05-16T23:17:03.616;599616189172362082;3799.7727;325
2024-05-16T23:17:03.624;599616189180054011;3807.4644;342
2024-05-16T23:17:03.632;599616189187745940;3815.1565;361
2024-05-16T23:17:03.639;599616189195437869;3822.8486;354
2024-05-16T23:17:03.647;599616189203129798;3830.5403;361
2024-05-16T23:17:03.655;599616189210821727;3838.2324;354
2024-05-16T23:17:03.662;599616189218513656;3845.924;297
2024-05-16T23:17:03.670;599616189226205585;3853.6162;301
2024-05-16T23:17:03.678;599616189233897514;3861.308;586
2024-05-16T23:17:03.685;599616189241589443;3869.0;1095
2024-05-16T23:17:03.693;599616189249281372;3876.692;1366
2024-05-16T23:17:03.701;599616189256973301;3884.3838;1021
2024-05-16T23:17:03.709;599616189264665230;3892.0757;356
2024-05-16T23:17:03.716;599616189272357159;3899.7678;64
2024-05-16T23:17:03.724;599616189280049088;3907.4595;156
2024-05-16T23:17:03.732;599616189287741017;3915.1516;163
2024-05-16T23:17:03.739;599616189295432946;3922.8435;71
2024-05-16T23:17:03.747;599616189303145000;3930.5557;66
2024-05-16T23:17:03.755;599616189310836650;3938.247;90
2024-05-16T23:17:03.762;599616189318528300;3945.939;45
2024-05-16T23:17:03.770;599616189326219950;3953.6304;-14
2024-05-16T23:17:03.778;599616189333911600;3961.3223;-2
2024-05-16T23:17:03.786;599616189341603250;3969.0137;9
2024-05-16T23:17:03.793;599616189349294900;3976.7056;-35
2024-05-16T23:17:03.801;599616189356986550;3984.397;-45
2024-05-16T23:17:03.809;599616189364678200;3992.0889;-35
2024-05-16T23:17:03.816;599616189372369850;3999.7803;-80
2024-05-16T23:17:03.824;599616189380061500;4007.4722;-128
2024-05-16T23:17:03.832;599616189387753150;4015.1636;-97
2024-05-16T23:17:03.839;599616189395444800;4022.8555;-35
2024-05-16T23:17:03.847;599616189403136450;4030.5469;-30
2024-05-16T23:17:03.855;599616189410828100;4038.2388;-40
2024-05-16T23:17:03.862;599616189418519750;4045.9302;2
2024-05-16T23:17:03.870;599616189426211400;4053.622;52
2024-05-16T23:17:03.878;599616189433903050;4061.3135;52
2024-05-16T23:17:03.886;599616189441594700;4069.0054;45
2024-05-16T23:17:03.893;599616189449286350;4076.6968;64
2024-05-16T23:17:03.901;599616189456978000;4084.3887;68
2024-05-16T23:17:03.909;599616189464669650;4092.08;47
2024-05-16T23:17:03.916;599616189472361300;4099.772;47
2024-05-16T23:17:03.924;599616189480052950;4107.4634;78
2024-05-16T23:17:03.932;599616189487744600;4115.1553;106
2024-05-16T23:17:03.939;599616189495436250;4122.8467;111
2024-05-16T23:17:03.947;599616189503127900;4130.5386;109
2024-05-16T23:17:03.955;599616189510819550;4138.23;140
2024-05-16T23:17:03.962;599616189518511200;4145.922;190
2024-05-16T23:17:03.970;599616189526202850;4153.6133;201
2024-05-16T23:17:03.978;599616189533894500;4161.305;187
2024-05-16T23:17:03.985;599616189541586150;4168.9966;168
2024-05-16T23:17:03.993;599616189549277800;4176.6885;116
2024-05-16T23:17:04.001;599616189556969450;4184.38;92
2024-05-16T23:17:04.009;599616189564661100;4192.072;130
2024-05-16T23:17:04.016;599616189572352750;4199.763;168
2024-05-16T23:17:04.024;599616189580044400;4207.455;182
2024-05-16T23:17:04.032;599616189587736050;4215.1465;182
2024-05-16T23:17:04.039;599616189595427700;4222.8384;182
2024-05-16T23:17:04.047;599616189603119350;4230.53;199
2024-05-16T23:17:04.055;599616189610811000;4238.2217;218
2024-05-16T23:17:04.062;599616189618502650;4245.913;225
2024-05-16T23:17:04.070;599616189626194300;4253.605;242
2024-05-16T23:17:04.078;599616189633885950;4261.2964;275
2024-05-16T23:17:04.085;599616189641577600;4268.9883;275
2024-05-16T23:17:04.093;599616189649269250;4276.6797;261
2024-05-16T23:17:04.101;599616189656960900;4284.3716;297
2024-05-16T23:17:04.109;599616189664652550;4292.063;330
2024-05-16T23:17:04.116;599616189672344200;4299.7544;292
2024-05-16T23:17:04.124;599616189680035850;4307.4463;237
2024-05-16T23:17:04.132;599616189687727500;4315.138;230
2024-05-16T23:17:04.139;599616189695419150;4322.8296;242
2024-05-16T23:17:04.147;599616189703110800;4330.5215;230
2024-05-16T23:17:04.155;599616189710802450;4338.213;197
2024-05-16T23:17:04.162;599616189718494100;4345.905;159
2024-05-16T23:17:04.170;599616189726185750;4353.596;168
2024-05-16T23:17:04.178;599616189733877400;4361.288;351
2024-05-16T23:17:04.185;599616189741569050;4368.9795;784
2024-05-16T23:17:04.193;599616189749260700;4376.6714;1207
2024-05-16T23:17:04.201;599616189756952350;4384.363;1116
2024-05-16T23:17:04.209;599616189764644000;4392.0547;482
2024-05-16T23:17:04.216;599616189772335650;4399.746;-28
2024-05-16T23:17:04.224;599616189780027300;4407.438;-19
2024-05-16T23:17:04.232;599616189787718950;4415.1294;33
2024-05-16T23:17:04.239;599616189795410600;4422.8213;-116
2024-05-16T23:17:04.247;599616189803102250;4430.5127;-130
2024-05-16T23:17:04.255;599616189810793900;4438.2046;-2
2024-05-16T23:17:04.262;599616189818485550;4445.896;19
2024-05-16T23:17:04.270;599616189826177200;4453.588;-42
2024-05-16T23:17:04.278;599616189833868850;4461.2793;-66
2024-05-16T23:17:04.285;599616189841560500;4468.971;-52
2024-05-16T23:17:04.293;599616189849252150;4476.6626;-64
2024-05-16T23:17:04.301;599616189856943800;4484.3545;-104
2024-05-16T23:17:04.309;599616189864625430;4492.036;-111
2024-05-16T23:17:04.316;599616189872317220;4499.728;-78
2024-05-16T23:17:04.324;599616189880009010;4507.4194;-49
2024-05-16T23:17:04.332;599616189887700800;4515.1113;-21
2024-05-16T23:17:04.339;599616189895392590;4522.803;40
2024-05-16T23:17:04.347;599616189903084380;4530.495;114
2024-05-16T23:17:04.355;599616189910776170;4538.1865;140
2024-05-16T23:17:04.362;599616189918467960;4545.8784;116
2024-05-16T23:17:04.370;599616189926159750;4553.5703;121
2024-05-16T23:17:04.378;599616189933851540;4561.262;161
2024-05-16T23:17:04.385;599616189941543330;4568.9536;152
2024-05-16T23:17:04.393;599616189949235120;4576.6455;66
2024-05-16T23:17:04.401;599616189956926910;4584.3374;7
2024-05-16T23:17:04.409;599616189964618700;4592.0293;19
2024-05-16T23:17:04.416;599616189972310490;4599.721;21
2024-05-16T23:17:04.424;599616189980002280;4607.4126;-2
2024-05-16T23:17:04.432;599616189987694070;4615.1045;11
2024-05-16T23:17:04.439;599616189995385860;4622.7964;57
2024-05-16T23:17:04.447;599616190003077650;4630.4883;61
2024-05-16T23:17:04.455;599616190010769440;4638.1797;49
2024-05-16T23:17:04.462;599616190018461230;4645.8716;73
2024-05-16T23:17:04.470;599616190026153020;4653.5635;99
2024-05-16T23:17:04.478;599616190033844810;4661.2554;87
2024-05-16T23:17:04.485;599616190041536600;4668.947;64
2024-05-16T23:17:04.493;599616190049228390;4676.6387;66
2024-05-16T23:17:04.501;599616190056920180;4684.3306;76
2024-05-16T23:17:04.509;599616190064611970;4692.0225;80
2024-05-16T23:17:04.516;599616190072303760;4699.7144;97
2024-05-16T23:17:04.524;599616190079995550;4707.4062;123
2024-05-16T23:17:04.532;599616190087687340;4715.098;133
2024-05-16T23:17:04.539;599616190095379130;4722.79;125
2024-05-16T23:17:04.547;599616190103070920;4730.4814;121
2024-05-16T23:17:04.555;599616190110762710;4738.1733;142
2024-05-16T23:17:04.562;599616190118454500;4745.865;180
2024-05-16T23:17:04.570;599616190126146290;4753.557;197
2024-05-16T23:17:04.578;599616190133838080;4761.2485;204
2024-05-16T23:17:04.585;599616190141529870;4768.9404;235
2024-05-16T23:17:04.593;599616190149221660;4776.6323;261
2024-05-16T23:17:04.601;599616190156913450;4784.324;263
2024-05-16T23:17:04.609;599616190164605240;4792.016;287
2024-05-16T23:17:04.616;599616190172297030;4799.7075;318
2024-05-16T23:17:04.624;599616190179988820;4807.3994;282
2024-05-16T23:17:04.632;599616190187680610;4815.0913;213
2024-05-16T23:17:04.639;599616190195372400;4822.783;182
2024-05-16T23:17:04.647;599616190203064190;4830.4746;175
2024-05-16T23:17:04.655;599616190210755980;4838.1665;147
2024-05-16T23:17:04.662;599616190218447770;4845.8584;87
2024-05-16T23:17:04.670;599616190226139560;4853.5503;123
2024-05-16T23:17:04.678;599616190233831350;4861.2417;427
2024-05-16T23:17:04.685;599616190241523140;4868.9336;926
2024-05-16T23:17:04.693;599616190249214930;4876.6255;1211
2024-05-16T23:17:04.701;599616190256906720;4884.3174;924
2024-05-16T23:17:04.709;599616190264598510;4892.009;266
2024-05-16T23:17:04.716;599616190272290300;4899.7007;-118
2024-05-16T23:17:04.724;599616190279982090;4907.3926;-102
2024-05-16T23:17:04.732;599616190287673880;4915.0845;-106
2024-05-16T23:17:04.739;599616190295365670;4922.776;-163
2024-05-16T23:17:04.747;599616190303057460;4930.468;-109
2024-05-16T23:17:04.755;599616190310749250;4938.1597;-61
2024-05-16T23:17:04.762;599616190318441040;4945.8516;-45
2024-05-16T23:17:04.770;599616190326132830;4953.543;-7
2024-05-16T23:17:04.778;599616190333824620;4961.235;2
2024-05-16T23:17:04.785;599616190341516410;4968.927;-35
2024-05-16T23:17:04.793;599616190349208200;4976.6187;-54
2024-05-16T23:17:04.801;599616190356899990;4984.3105;-47
2024-05-16T23:17:04.809;599616190364591780;4992.0024;-76
2024-05-16T23:17:04.816;599616190372283570;4999.6943;-104
2024-05-16T23:17:04.824;599616190379975360;5007.386;-71
2024-05-16T23:17:04.832;599616190387667150;5015.078;-23
2024-05-16T23:17:04.839;599616190395358940;5022.7695;-11
2024-05-16T23:17:04.847;599616190403050730;5030.4614;4
2024-05-16T23:17:04.855;599616190410742520;5038.1533;57
2024-05-16T23:17:04.862;599616190418434310;5045.845;68
2024-05-16T23:17:04.870;599616190426096016;5053.5063;35
2024-05-16T23:17:04.878;599616190433788224;5061.1987;45
2024-05-16T23:17:04.885;599616190441480432;5068.891;95
2024-05-16T23:17:04.893;599616190449172640;5076.5835;102
2024-05-16T23:17:04.901;599616190456864848;5084.2754;78
2024-05-16T23:17:04.908;599616190464557056;5091.9673;83
2024-05-16T23:17:04.916;599616190472249264;5099.6597;83
2024-05-16T23:17:04.924;599616190479941472;5107.352;33
2024-05-16T23:17:04.932;599616190487633680;5115.0444;-38
2024-05-16T23:17:04.939;599616190495325888;5122.737;-49
2024-05-16T23:17:04.947;599616190503018096;5130.428;4
2024-05-16T23:17:04.955;599616190510710304;5138.1206;33
2024-05-16T23:17:04.962;599616190518402512;5145.813;-2
2024-05-16T23:17:04.970;599616190526094720;5153.5054;-49
2024-05-16T23:17:04.978;599616190533786928;5161.1978;-61
2024-05-16T23:17:04.985;599616190541479136;5168.8896;-35
2024-05-16T23:17:04.993;599616190549171344;5176.582;-9
2024-05-16T23:17:05.001;599616190556863552;5184.274;14
2024-05-16T23:17:05.008;599616190564555760;5191.9663;38
2024-05-16T23:17:05.016;599616190572247968;5199.6587;47
2024-05-16T23:17:05.024;599616190579940176;5207.3506;66
2024-05-16T23:17:05.032;599616190587632384;5215.043;106
2024-05-16T23:17:05.039;599616190595324592;5222.7354;144
2024-05-16T23:17:05.047;599616190603016800;5230.4272;149
2024-05-16T23:17:05.055;599616190610709008;5238.1196;137
2024-05-16T23:17:05.062;599616190618401216;5245.8115;147
2024-05-16T23:17:05.070;599616190626093424;5253.504;180
2024-05-16T23:17:05.078;599616190633785632;5261.1963;209
2024-05-16T23:17:05.085;599616190641477840;5268.8887;235
2024-05-16T23:17:05.093;599616190649170048;5276.5806;273
2024-05-16T23:17:05.101;599616190656862256;5284.2725;297
2024-05-16T23:17:05.108;599616190664554464;5291.965;282
2024-05-16T23:17:05.116;599616190672246672;5299.657;278
2024-05-16T23:17:05.124;599616190679938880;5307.3496;323
2024-05-16T23:17:05.132;599616190687631088;5315.042;339
2024-05-16T23:17:05.139;599616190695323296;5322.734;280
2024-05-16T23:17:05.147;599616190703015504;5330.426;228
2024-05-16T23:17:05.155;599616190710707712;5338.118;218
2024-05-16T23:17:05.162;599616190718399920;5345.8105;180
2024-05-16T23:17:05.170;599616190726092128;5353.503;185
2024-05-16T23:17:05.178;599616190733784336;5361.195;444
2024-05-16T23:17:05.185;599616190741476544;5368.887;938
2024-05-16T23:17:05.193;599616190749168752;5376.579;1278
2024-05-16T23:17:05.201;599616190756860960;5384.2715;1066
2024-05-16T23:17:05.208;599616190764553168;5391.964;461
2024-05-16T23:17:05.216;599616190772245376;5399.656;68
2024-05-16T23:17:05.224;599616190779937584;5407.348;54
2024-05-16T23:17:05.232;599616190787629792;5415.0405;40
2024-05-16T23:17:05.239;599616190795322000;5422.7324;-57
2024-05-16T23:17:05.247;599616190803014208;5430.425;-38
2024-05-16T23:17:05.255;599616190810706416;5438.1167;35
2024-05-16T23:17:05.262;599616190818398624;5445.809;42
2024-05-16T23:17:05.270;599616190826090832;5453.5015;57
2024-05-16T23:17:05.278;599616190833783040;5461.194;102
2024-05-16T23:17:05.285;599616190841475248;5468.886;102
2024-05-16T23:17:05.293;599616190849167456;5476.5776;61
2024-05-16T23:17:05.301;599616190856859664;5484.27;49
2024-05-16T23:17:05.308;599616190864551872;5491.9624;66
2024-05-16T23:17:05.316;599616190872244080;5499.655;40
2024-05-16T23:17:05.324;599616190879936288;5507.347;-16
2024-05-16T23:17:05.332;599616190887628496;5515.039;-26
2024-05-16T23:17:05.339;599616190895320704;5522.731;16
2024-05-16T23:17:05.347;599616190903012912;5530.4233;38
2024-05-16T23:17:05.355;599616190910705120;5538.1157;38
2024-05-16T23:17:05.362;599616190918397328;5545.808;66
2024-05-16T23:17:05.370;599616190926089536;5553.5;104
2024-05-16T23:17:05.378;599616190933781744;5561.1924;87
2024-05-16T23:17:05.385;599616190941473952;5568.885;42
2024-05-16T23:17:05.393;599616190949166160;5576.5767;61
2024-05-16T23:17:05.401;599616190956858368;5584.269;106
2024-05-16T23:17:05.408;599616190964550576;5591.961;90
2024-05-16T23:17:05.416;599616190972242784;5599.6533;57
2024-05-16T23:17:05.424;599616190979934992;5607.3457;71
2024-05-16T23:17:05.432;599616190987657312;5615.068;99
2024-05-16T23:17:05.439;599616190995349102;5622.7593;109
2024-05-16T23:17:05.447;599616191003040892;5630.451;114
2024-05-16T23:17:05.455;599616191010732682;5638.143;149
2024-05-16T23:17:05.462;599616191018424472;5645.8354;118
2024-05-16T23:17:05.470;599616191026116262;5653.527;-40
2024-05-16T23:17:05.478;599616191033808052;5661.2188;-154
2024-05-16T23:17:05.485;599616191041499842;5668.9106;-106
2024-05-16T23:17:05.493;599616191049191632;5676.6025;-35
2024-05-16T23:17:05.501;599616191056883422;5684.294;-26
2024-05-16T23:17:05.508;599616191064575212;5691.986;-28
2024-05-16T23:17:05.516;599616191072267002;5699.6777;-26
2024-05-16T23:17:05.524;599616191079958792;5707.3696;11
2024-05-16T23:17:05.532;599616191087650582;5715.061;52
2024-05-16T23:17:05.539;599616191095342372;5722.753;49
2024-05-16T23:17:05.547;599616191103034162;5730.445;73
2024-05-16T23:17:05.555;599616191110725952;5738.1367;114
2024-05-16T23:17:05.562;599616191118417742;5745.828;97
2024-05-16T23:17:05.570;599616191126109532;5753.52;102
2024-05-16T23:17:05.578;599616191133801322;5761.212;159
2024-05-16T23:17:05.585;599616191141493112;5768.904;190
2024-05-16T23:17:05.593;599616191149184902;5776.595;194
2024-05-16T23:17:05.601;599616191156876692;5784.287;213
2024-05-16T23:17:05.608;599616191164568482;5791.979;232
2024-05-16T23:17:05.616;599616191172260272;5799.671;230
2024-05-16T23:17:05.624;599616191179952062;5807.363;230
2024-05-16T23:17:05.632;599616191187643852;5815.054;259
2024-05-16T23:17:05.639;599616191195335642;5822.746;270
2024-05-16T23:17:05.647;599616191203027432;5830.438;216
2024-05-16T23:17:05.655;599616191210719222;5838.13;130
2024-05-16T23:17:05.662;599616191218411012;5845.8213;83
2024-05-16T23:17:05.670;599616191226102802;5853.513;130
2024-05-16T23:17:05.678;599616191233794592;5861.205;377
2024-05-16T23:17:05.685;599616191241486382;5868.897;855
2024-05-16T23:17:05.693;599616191249178172;5876.5884;1202
2024-05-16T23:17:05.701;599616191256869962;5884.2803;962
2024-05-16T23:17:05.708;599616191264561752;5891.972;311
2024-05-16T23:17:05.716;599616191272253542;5899.664;-76
2024-05-16T23:17:05.724;599616191279945332;5907.3555;-92
2024-05-16T23:17:05.732;599616191287637122;5915.0474;-111
2024-05-16T23:17:05.739;599616191295328912;5922.7393;-159
2024-05-16T23:17:05.747;599616191303020702;5930.4316;-130
2024-05-16T23:17:05.755;599616191310712492;5938.123;-97
2024-05-16T23:17:05.762;599616191318404282;5945.815;-66
2024-05-16T23:17:05.770;599616191326096072;5953.507;-28
2024-05-16T23:17:05.778;599616191333787862;5961.1987;-2
2024-05-16T23:17:05.785;599616191341479652;5968.89;28
2024-05-16T23:17:05.793;599616191349171442;5976.582;33
2024-05-16T23:17:05.801;599616191356863232;5984.274;7
2024-05-16T23:17:05.808;599616191364555022;5991.966;9
2024-05-16T23:17:05.816;599616191372246812;5999.6577;14
2024-05-16T23:17:05.824;599616191379938602;6007.349;-19
2024-05-16T23:17:05.832;599616191387630392;6015.041;-38
2024-05-16T23:17:05.839;599616191395322182;6022.733;-33
2024-05-16T23:17:05.847;599616191403013972;6030.425;-16
2024-05-16T23:17:05.855;599616191410705762;6038.116;19
2024-05-16T23:17:05.862;599616191418397552;6045.808;40
2024-05-16T23:17:05.870;599616191426089342;6053.5;40
2024-05-16T23:17:05.878;599616191433781132;6061.192;45
2024-05-16T23:17:05.885;599616191441472922;6068.8833;40
2024-05-16T23:17:05.893;599616191449164712;6076.575;28
2024-05-16T23:17:05.901;599616191456856502;6084.267;33
2024-05-16T23:17:05.908;599616191464548292;6091.959;54
2024-05-16T23:17:05.916;599616191472240082;6099.6504;61
2024-05-16T23:17:05.924;599616191479931872;6107.3423;38
2024-05-16T23:17:05.932;599616191487623662;6115.034;33
2024-05-16T23:17:05.939;599616191495315452;6122.726;76
2024-05-16T23:17:05.947;599616191503007242;6130.4175;109
2024-05-16T23:17:05.955;599616191510699032;6138.1094;97
2024-05-16T23:17:05.962;599616191518390822;6145.8013;71
2024-05-16T23:17:05.970;599616191526082612;6153.493;87
2024-05-16T23:17:05.978;599616191533774402;6161.1846;111
2024-05-16T23:17:05.985;599616191541466192;6168.8765;90
2024-05-16T23:17:05.993;599616191549127898;6176.5386;102
2024-05-16T23:17:06.001;599616191556820106;6184.2305;154
2024-05-16T23:17:06.008;599616191564512314;6191.923;173
2024-05-16T23:17:06.016;599616191572204522;6199.6147;154
2024-05-16T23:17:06.024;599616191579896730;6207.307;147
2024-05-16T23:17:06.031;599616191587588938;6214.9995;159
2024-05-16T23:17:06.039;599616191595281146;6222.692;123
2024-05-16T23:17:06.047;599616191602973354;6230.3843;59
2024-05-16T23:17:06.055;599616191610665562;6238.0757;80
2024-05-16T23:17:06.062;599616191618357770;6245.768;121
2024-05-16T23:17:06.070;599616191626049978;6253.4604;49
2024-05-16T23:17:06.078;599616191633742186;6261.153;-33
2024-05-16T23:17:06.085;599616191641434394;6268.845;23
2024-05-16T23:17:06.093;599616191649126602;6276.537;109
2024-05-16T23:17:06.101;599616191656818810;6284.229;102
2024-05-16T23:17:06.108;599616191664511018;6291.9214;95
2024-05-16T23:17:06.116;599616191672203226;6299.614;133
2024-05-16T23:17:06.124;599616191679895434;6307.306;149
2024-05-16T23:17:06.131;599616191687587642;6314.998;156
2024-05-16T23:17:06.139;599616191695279850;6322.6904;159
2024-05-16T23:17:06.147;599616191702972058;6330.383;111
2024-05-16T23:17:06.155;599616191710664266;6338.0747;35
2024-05-16T23:17:06.162;599616191718356474;6345.767;16
2024-05-16T23:17:06.170;599616191726048682;6353.459;187
2024-05-16T23:17:06.178;599616191733740890;6361.1514;617
2024-05-16T23:17:06.185;599616191741433098;6368.8438;1045
2024-05-16T23:17:06.193;599616191749125306;6376.536;1026
2024-05-16T23:17:06.201;599616191756817514;6384.228;475
2024-05-16T23:17:06.208;599616191764509722;6391.92;-61
2024-05-16T23:17:06.216;599616191772201930;6399.6123;-104
2024-05-16T23:17:06.224;599616191779894138;6407.3047;-7
2024-05-16T23:17:06.231;599616191787586346;6414.997;-142
2024-05-16T23:17:06.239;599616191795278554;6422.6895;-235
2024-05-16T23:17:06.247;599616191802970762;6430.381;-166
2024-05-16T23:17:06.255;599616191810662970;6438.073;-149
2024-05-16T23:17:06.262;599616191818355178;6445.7656;-154
2024-05-16T23:17:06.270;599616191826047386;6453.458;-85
2024-05-16T23:17:06.278;599616191833739594;6461.1504;-35
2024-05-16T23:17:06.285;599616191841431802;6468.8423;-11
2024-05-16T23:17:06.293;599616191849124010;6476.5347;23
2024-05-16T23:17:06.301;599616191856816218;6484.2266;2
2024-05-16T23:17:06.308;599616191864508426;6491.919;-45
2024-05-16T23:17:06.316;599616191872200634;6499.6113;-26
2024-05-16T23:17:06.324;599616191879892842;6507.303;-14
2024-05-16T23:17:06.331;599616191887585050;6514.9956;-35
2024-05-16T23:17:06.339;599616191895277258;6522.688;-26
2024-05-16T23:17:06.347;599616191902969466;6530.38;-9
2024-05-16T23:17:06.355;599616191910661674;6538.0723;-14
2024-05-16T23:17:06.362;599616191918353882;6545.764;7
2024-05-16T23:17:06.370;599616191926046090;6553.4565;33
2024-05-16T23:17:06.378;599616191933738298;6561.149;35
2024-05-16T23:17:06.385;599616191941430506;6568.8413;38
2024-05-16T23:17:06.393;599616191949122714;6576.5337;38
2024-05-16T23:17:06.401;599616191956814922;6584.225;26
2024-05-16T23:17:06.408;599616191964507130;6591.9175;21
2024-05-16T23:17:06.416;599616191972199338;6599.61;38
2024-05-16T23:17:06.424;599616191979891546;6607.3022;61
2024-05-16T23:17:06.431;599616191987583754;6614.9946;57
2024-05-16T23:17:06.439;599616191995275962;6622.6865;40
2024-05-16T23:17:06.447;599616192002968170;6630.3784;30
2024-05-16T23:17:06.455;599616192010660378;6638.071;9
2024-05-16T23:17:06.462;599616192018352586;6645.763;9
2024-05-16T23:17:06.470;599616192026044794;6653.4556;42
2024-05-16T23:17:06.478;599616192033737002;6661.1475;47
2024-05-16T23:17:06.485;599616192041429210;6668.84;35
2024-05-16T23:17:06.493;599616192049121418;6676.5317;47
2024-05-16T23:17:06.501;599616192056813626;6684.224;64
2024-05-16T23:17:06.508;599616192064505834;6691.9165;97
2024-05-16T23:17:06.516;599616192072198042;6699.6084;130
2024-05-16T23:17:06.524;599616192079890250;6707.301;125
2024-05-16T23:17:06.531;599616192087582458;6714.993;114
2024-05-16T23:17:06.539;599616192095274666;6722.6855;137
2024-05-16T23:17:06.547;599616192102966874;6730.3774;161
2024-05-16T23:17:06.555;599616192110689194;6738.0996;173
2024-05-16T23:17:06.562;599616192118380984;6745.7915;199
2024-05-16T23:17:06.570;599616192126072774;6753.4834;218
2024-05-16T23:17:06.578;599616192133764564;6761.175;163
2024-05-16T23:17:06.585;599616192141456354;6768.8667;90
2024-05-16T23:17:06.593;599616192149148144;6776.5586;102
2024-05-16T23:17:06.601;599616192156839934;6784.2505;147
2024-05-16T23:17:06.608;599616192164531724;6791.9424;152
2024-05-16T23:17:06.616;599616192172223514;6799.634;152
2024-05-16T23:17:06.624;599616192179915304;6807.3257;178
2024-05-16T23:17:06.632;599616192187607094;6815.0176;197
2024-05-16T23:17:06.639;599616192195298884;6822.7095;159
2024-05-16T23:17:06.647;599616192202990674;6830.401;68
2024-05-16T23:17:06.655;599616192210682464;6838.093;45
2024-05-16T23:17:06.662;599616192218374254;6845.7847;225
2024-05-16T23:17:06.670;599616192226066044;6853.4766;617
2024-05-16T23:17:06.678;599616192233757834;6861.168;993
2024-05-16T23:17:06.685;599616192241449624;6868.8604;960
2024-05-16T23:17:06.693;599616192249141414;6876.5522;408
2024-05-16T23:17:06.701;599616192256833204;6884.244;-87
2024-05-16T23:17:06.708;599616192264524994;6891.9355;-87
2024-05-16T23:17:06.716;599616192272216784;6899.6274;21
2024-05-16T23:17:06.724;599616192279908574;6907.3193;-40
2024-05-16T23:17:06.732;599616192287600364;6915.011;-111
2024-05-16T23:17:06.739;599616192295292154;6922.7026;-140
2024-05-16T23:17:06.747;599616192302983944;6930.3945;-133
2024-05-16T23:17:06.755;599616192310675734;6938.0864;-85
2024-05-16T23:17:06.762;599616192318367524;6945.7783;-66
2024-05-16T23:17:06.770;599616192326059314;6953.4697;-59
2024-05-16T23:17:06.778;599616192333751104;6961.1616;-7
2024-05-16T23:17:06.785;599616192341442894;6968.8535;47
2024-05-16T23:17:06.793;599616192349134684;6976.5454;59
2024-05-16T23:17:06.801;599616192356826474;6984.237;47
2024-05-16T23:17:06.808;599616192364518264;6991.9287;26
2024-05-16T23:17:06.816;599616192372210054;6999.6206;14
2024-05-16T23:17:06.824;599616192379901844;7007.3125;-7
2024-05-16T23:17:06.832;599616192387593634;7015.0044;-23
2024-05-16T23:17:06.839;599616192395285424;7022.696;7
2024-05-16T23:17:06.847;599616192402977214;7030.3877;16
2024-05-16T23:17:06.855;599616192410669004;7038.0796;-16
2024-05-16T23:17:06.862;599616192418360794;7045.7715;-16
2024-05-16T23:17:06.870;599616192426052584;7053.463;9
2024-05-16T23:17:06.878;599616192433744374;7061.155;9
2024-05-16T23:17:06.885;599616192441436164;7068.8467;14
2024-05-16T23:17:06.893;599616192449127954;7076.5386;30
2024-05-16T23:17:06.901;599616192456819744;7084.23;11
2024-05-16T23:17:06.908;599616192464511534;7091.922;-14
2024-05-16T23:17:06.916;599616192472203324;7099.614;-2
2024-05-16T23:17:06.924;599616192479895114;7107.3057;26
2024-05-16T23:17:06.931;599616192487586904;7114.997;57
2024-05-16T23:17:06.939;599616192495278694;7122.689;45
2024-05-16T23:17:06.947;599616192502970484;7130.381;-9
2024-05-16T23:17:06.955;599616192510662274;7138.0728;-2
2024-05-16T23:17:06.962;599616192518354064;7145.7646;54
2024-05-16T23:17:06.970;599616192526045854;7153.4565;61
2024-05-16T23:17:06.978;599616192533737644;7161.1484;66
2024-05-16T23:17:06.985;599616192541429434;7168.8403;97
2024-05-16T23:17:06.993;599616192549121224;7176.5317;95
2024-05-16T23:17:07.001;599616192556813014;7184.2236;85
2024-05-16T23:17:07.008;599616192564504804;7191.9155;118
2024-05-16T23:17:07.016;599616192572196594;7199.6074;154
2024-05-16T23:17:07.024;599616192579888384;7207.299;159
2024-05-16T23:17:07.031;599616192587580174;7214.9907;149
2024-05-16T23:17:07.039;599616192595271964;7222.6826;144
2024-05-16T23:17:07.047;599616192602963754;7230.3745;159
2024-05-16T23:17:07.055;599616192610655544;7238.0664;182
2024-05-16T23:17:07.062;599616192618347334;7245.758;209
2024-05-16T23:17:07.070;599616192626039124;7253.4497;247
2024-05-16T23:17:07.078;599616192633730914;7261.1416;259
2024-05-16T23:17:07.085;599616192641422704;7268.8335;237
2024-05-16T23:17:07.093;599616192649114494;7276.525;228
2024-05-16T23:17:07.101;599616192656806284;7284.217;261
2024-05-16T23:17:07.108;599616192664498074;7291.9087;308
2024-05-16T23:17:07.116;599616192672189876;7299.6006;318
2024-05-16T23:17:07.124;599616192679881666;7307.292;273
2024-05-16T23:17:07.131;599616192687573456;7314.984;213
2024-05-16T23:17:07.139;599616192695265246;7322.676;192
2024-05-16T23:17:07.147;599616192702957036;7330.3677;339
2024-05-16T23:17:07.155;599616192710648826;7338.059;736
2024-05-16T23:17:07.162;599616192718340616;7345.751;1116
2024-05-16T23:17:07.170;599616192726032406;7353.443;1009
2024-05-16T23:17:07.178;599616192733724196;7361.135;427
2024-05-16T23:17:07.185;599616192741415986;7368.826;2
2024-05-16T23:17:07.193;599616192749107776;7376.518;26
2024-05-16T23:17:07.201;599616192756799566;7384.21;92
2024-05-16T23:17:07.208;599616192764491356;7391.902;-21
2024-05-16T23:17:07.216;599616192772183146;7399.5933;-85
2024-05-16T23:17:07.224;599616192779874936;7407.285;-47
2024-05-16T23:17:07.231;599616192787566726;7414.977;-59
2024-05-16T23:17:07.239;599616192795258516;7422.6694;-123
2024-05-16T23:17:07.247;599616192802950306;7430.3613;-147
2024-05-16T23:17:07.255;599616192810642096;7438.0527;-102
2024-05-16T23:17:07.262;599616192818333886;7445.7446;-73
2024-05-16T23:17:07.270;599616192826025676;7453.4365;-137
2024-05-16T23:17:07.278;599616192833717466;7461.1284;-180
2024-05-16T23:17:07.285;599616192841409256;7468.82;-114
2024-05-16T23:17:07.293;599616192849101046;7476.5117;-45
2024-05-16T23:17:07.301;599616192856792836;7484.2036;-42
2024-05-16T23:17:07.308;599616192864484626;7491.8955;-64
2024-05-16T23:17:07.316;599616192872176416;7499.587;-66
2024-05-16T23:17:07.324;599616192879868206;7507.279;-73
2024-05-16T23:17:07.331;599616192887559996;7514.9707;-95
2024-05-16T23:17:07.339;599616192895251786;7522.6626;-85
2024-05-16T23:17:07.347;599616192902943576;7530.354;-61
2024-05-16T23:17:07.355;599616192910635366;7538.046;-76
2024-05-16T23:17:07.362;599616192918327156;7545.738;-106
2024-05-16T23:17:07.370;599616192926018946;7553.4297;-118
2024-05-16T23:17:07.378;599616192933710736;7561.121;-102
2024-05-16T23:17:07.385;599616192941402526;7568.813;-83
2024-05-16T23:17:07.393;599616192949094316;7576.505;-87
2024-05-16T23:17:07.401;599616192956786106;7584.197;-97
2024-05-16T23:17:07.408;599616192964477896;7591.888;-95
2024-05-16T23:17:07.416;599616192972169686;7599.58;-85
2024-05-16T23:17:07.424;599616192979861476;7607.272;-71
2024-05-16T23:17:07.431;599616192987553266;7614.964;-87
2024-05-16T23:17:07.439;599616192995245056;7622.6553;-121
2024-05-16T23:17:07.447;599616193002936846;7630.347;-116
2024-05-16T23:17:07.455;599616193010628636;7638.039;-104
2024-05-16T23:17:07.462;599616193018320426;7645.731;-111
2024-05-16T23:17:07.470;599616193026012216;7653.4224;-85
2024-05-16T23:17:07.478;599616193033704006;7661.1143;-49
2024-05-16T23:17:07.485;599616193041395796;7668.806;-52
2024-05-16T23:17:07.493;599616193049087586;7676.498;-40
2024-05-16T23:17:07.501;599616193056779376;7684.1895;-23
2024-05-16T23:17:07.508;599616193064471166;7691.8813;-40
2024-05-16T23:17:07.516;599616193072162956;7699.573;-35
2024-05-16T23:17:07.524;599616193079854746;7707.2656;23
2024-05-16T23:17:07.531;599616193087546536;7714.9575;57
2024-05-16T23:17:07.539;599616193095238326;7722.649;54
2024-05-16T23:17:07.547;599616193102930116;7730.341;68
2024-05-16T23:17:07.555;599616193110621906;7738.0327;97
2024-05-16T23:17:07.562;599616193118313696;7745.7246;114
2024-05-16T23:17:07.570;599616193126005486;7753.416;118
2024-05-16T23:17:07.578;599616193133697276;7761.108;140
2024-05-16T23:17:07.585;599616193141389066;7768.8;163
2024-05-16T23:17:07.593;599616193149080856;7776.4917;163
2024-05-16T23:17:07.601;599616193156772646;7784.183;154
2024-05-16T23:17:07.608;599616193164464436;7791.875;125
2024-05-16T23:17:07.616;599616193172156226;7799.567;95
2024-05-16T23:17:07.624;599616193179848016;7807.259;182
2024-05-16T23:17:07.631;599616193187539806;7814.95;494
2024-05-16T23:17:07.639;599616193195231596;7822.642;938
2024-05-16T23:17:07.647;599616193202923386;7830.334;1138
2024-05-16T23:17:07.655;599616193210615176;7838.026;758
2024-05-16T23:17:07.662;599616193218306966;7845.7173;123
2024-05-16T23:17:07.670;599616193225998756;7853.409;-83
2024-05-16T23:17:07.678;599616193233690558;7861.101;35
2024-05-16T23:17:07.685;599616193241382348;7868.793;-45
2024-05-16T23:17:07.693;599616193249074138;7876.4844;-168
2024-05-16T23:17:07.701;599616193256765928;7884.1763;-97
2024-05-16T23:17:07.708;599616193264457718;7891.868;-38
2024-05-16T23:17:07.716;599616193272149508;7899.56;-49
2024-05-16T23:17:07.724;599616193279841298;7907.252;-38
2024-05-16T23:17:07.731;599616193287533088;7914.9434;-21
2024-05-16T23:17:07.739;599616193295224878;7922.6353;-21
2024-05-16T23:17:07.747;599616193302916668;7930.327;-45
2024-05-16T23:17:07.755;599616193310608458;7938.019;-102
2024-05-16T23:17:07.762;599616193318300248;7945.7104;-104
2024-05-16T23:17:07.770;599616193325992038;7953.4023;-57
2024-05-16T23:17:07.778;599616193333683828;7961.094;-80
2024-05-16T23:17:07.785;599616193341375618;7968.786;-152
2024-05-16T23:17:07.793;599616193349067408;7976.4775;-130
2024-05-16T23:17:07.801;599616193356759198;7984.17;-80
2024-05-16T23:17:07.808;599616193364450988;7991.862;-114
2024-05-16T23:17:07.816;599616193372142778;7999.5537;-163
2024-05-16T23:17:07.824;599616193379834568;8007.245;-194
2024-05-16T23:17:07.831;599616193387526358;8014.937;-235
2024-05-16T23:17:07.839;599616193395218148;8022.629;-254
2024-05-16T23:17:07.847;599616193402909938;8030.321;-254
2024-05-16T23:17:07.855;599616193410601728;8038.012;-249
2024-05-16T23:17:07.862;599616193418293518;8045.704;-244
2024-05-16T23:17:07.870;599616193425985308;8053.396;-273
2024-05-16T23:17:07.878;599616193433677098;8061.088;-297
2024-05-16T23:17:07.885;599616193441368888;8068.7793;-251
2024-05-16T23:17:07.893;599616193449060678;8076.471;-201
2024-05-16T23:17:07.901;599616193456752468;8084.163;-201
2024-05-16T23:17:07.908;599616193464444258;8091.855;-204
2024-05-16T23:17:07.916;599616193472136048;8099.5464;-171
2024-05-16T23:17:07.924;599616193479827838;8107.2383;-163
2024-05-16T23:17:07.931;599616193487519628;8114.93;-211
2024-05-16T23:17:07.939;599616193495211418;8122.622;-199
2024-05-16T23:17:07.947;599616193502903208;8130.314;-121
2024-05-16T23:17:07.955;599616193510594998;8138.0054;-97
2024-05-16T23:17:07.962;599616193518286788;8145.6973;-116
2024-05-16T23:17:07.970;599616193525978578;8153.389;-92
2024-05-16T23:17:07.978;599616193533670368;8161.081;-59
2024-05-16T23:17:07.985;599616193541362158;8168.7725;-47
2024-05-16T23:17:07.993;599616193549053948;8176.4644;-28
2024-05-16T23:17:08.001;599616193556745738;8184.1562;2
2024-05-16T23:17:08.008;599616193564437528;8191.848;21
2024-05-16T23:17:08.016;599616193572129318;8199.54;21
2024-05-16T23:17:08.024;599616193579821108;8207.231;26
2024-05-16T23:17:08.031;599616193587512898;8214.923;71
2024-05-16T23:17:08.039;599616193595204688;8222.615;130
2024-05-16T23:17:08.047;599616193602896478;8230.307;135
2024-05-16T23:17:08.054;599616193610588268;8237.999;109
2024-05-16T23:17:08.062;599616193618280058;8245.69;137
2024-05-16T23:17:08.070;599616193625971848;8253.382;187
2024-05-16T23:17:08.078;599616193633663638;8261.074;190
2024-05-16T23:17:08.085;599616193641355428;8268.767;168
2024-05-16T23:17:08.093;599616193649047218;8276.458;144
2024-05-16T23:17:08.101;599616193656739008;8284.149;128
2024-05-16T23:17:08.108;599616193664430798;8291.842;287
2024-05-16T23:17:08.116;599616193672122588;8299.533;746
2024-05-16T23:17:08.124;599616193679814378;8307.225;1209
2024-05-16T23:17:08.131;599616193687506168;8314.917;1171
2024-05-16T23:17:08.139;599616193695197958;8322.608;589
2024-05-16T23:17:08.147;599616193702889748;8330.301;68
2024-05-16T23:17:08.154;599616193710581538;8337.992;40
2024-05-16T23:17:08.162;599616193718273328;8345.684;152
2024-05-16T23:17:08.170;599616193725965118;8353.376;73
2024-05-16T23:17:08.178;599616193733656908;8361.067;-14
2024-05-16T23:17:08.185;599616193741348698;8368.76;2
2024-05-16T23:17:08.193;599616193749040488;8376.451;21
2024-05-16T23:17:08.201;599616193756732278;8384.143;19
2024-05-16T23:17:08.208;599616193764424068;8391.835;33
2024-05-16T23:17:08.216;599616193772115858;8399.526;64
2024-05-16T23:17:08.224;599616193779807648;8407.218;97
2024-05-16T23:17:08.231;599616193787499438;8414.91;104
2024-05-16T23:17:08.239;599616193795191240;8422.602;97
2024-05-16T23:17:08.247;599616193802883030;8430.294;114
2024-05-16T23:17:08.254;599616193810574820;8437.985;80
2024-05-16T23:17:08.262;599616193818266610;8445.677;-4
2024-05-16T23:17:08.270;599616193825958400;8453.369;-2
2024-05-16T23:17:08.278;599616193833650190;8461.061;73
2024-05-16T23:17:08.285;599616193841341980;8468.752;76
2024-05-16T23:17:08.293;599616193849033770;8476.444;-7
2024-05-16T23:17:08.301;599616193856725560;8484.136;-76
2024-05-16T23:17:08.308;599616193864417350;8491.828;-90
2024-05-16T23:17:08.316;599616193872109140;8499.52;-109
2024-05-16T23:17:08.324;599616193879800930;8507.211;-163
2024-05-16T23:17:08.331;599616193887492720;8514.903;-199
2024-05-16T23:17:08.339;599616193895184510;8522.595;-201
2024-05-16T23:17:08.347;599616193902876300;8530.286;-209
2024-05-16T23:17:08.354;599616193910568090;8537.979;-209
2024-05-16T23:17:08.362;599616193918259880;8545.671;-182
2024-05-16T23:17:08.370;599616193925951670;8553.362;-173
2024-05-16T23:17:08.378;599616193933643460;8561.055;-175
2024-05-16T23:17:08.385;599616193941335250;8568.746;-159
2024-05-16T23:17:08.393;599616193949027040;8576.4375;-123
2024-05-16T23:17:08.401;599616193956718830;8584.13;-73
2024-05-16T23:17:08.408;599616193964410620;8591.82;-47
2024-05-16T23:17:08.416;599616193972102410;8599.513;-83
2024-05-16T23:17:08.424;599616193979794200;8607.204;-140
2024-05-16T23:17:08.431;599616193987485990;8614.896;-140
2024-05-16T23:17:08.439;599616193995177780;8622.588;-118
2024-05-16T23:17:08.447;599616194002869570;8630.28;-104
2024-05-16T23:17:08.454;599616194010561360;8637.972;-54
2024-05-16T23:17:08.462;599616194018253150;8645.664;-23
2024-05-16T23:17:08.470;599616194025944940;8653.355;-54
2024-05-16T23:17:08.478;599616194033636730;8661.047;-64
2024-05-16T23:17:08.485;599616194041328520;8668.738;-14
2024-05-16T23:17:08.493;599616194049020310;8676.431;40
2024-05-16T23:17:08.501;599616194056712100;8684.123;59
2024-05-16T23:17:08.508;599616194064403890;8691.814;71
2024-05-16T23:17:08.516;599616194072095680;8699.507;92
2024-05-16T23:17:08.524;599616194079787470;8707.198;109
2024-05-16T23:17:08.531;599616194087479260;8714.891;118
2024-05-16T23:17:08.539;599616194095171050;8722.581;137
2024-05-16T23:17:08.547;599616194102862840;8730.273;180
2024-05-16T23:17:08.554;599616194110554630;8737.965;213
2024-05-16T23:17:08.562;599616194118246420;8745.657;178
2024-05-16T23:17:08.570;599616194125938210;8753.349;114
2024-05-16T23:17:08.578;599616194133630000;8761.041;152
2024-05-16T23:17:08.585;599616194141321790;8768.732;392
2024-05-16T23:17:08.593;599616194149013580;8776.425;838
2024-05-16T23:17:08.601;599616194156705370;8784.115;1233
2024-05-16T23:17:08.608;599616194164397160;8791.808;1138
2024-05-16T23:17:08.616;599616194172088950;8799.499;570
2024-05-16T23:17:08.624;599616194179780740;8807.191;173
2024-05-16T23:17:08.631;599616194187472530;8814.883;240
2024-05-16T23:17:08.639;599616194195164320;8822.575;308
2024-05-16T23:17:08.647;599616194202856110;8830.267;168
2024-05-16T23:17:08.654;599616194210547900;8837.959;90
2024-05-16T23:17:08.662;599616194218239690;8845.65;116
2024-05-16T23:17:08.670;599616194225931480;8853.342;76
2024-05-16T23:17:08.678;599616194233623270;8861.033;26
2024-05-16T23:17:08.685;599616194241315060;8868.726;61
2024-05-16T23:17:08.693;599616194249006850;8876.417;99
2024-05-16T23:17:08.701;599616194256698640;8884.109;104
2024-05-16T23:17:08.708;599616194264390430;8891.801;109
2024-05-16T23:17:08.716;599616194272082220;8899.493;123
2024-05-16T23:17:08.724;599616194279774010;8907.185;166
2024-05-16T23:17:08.731;599616194287465800;8914.876;228
2024-05-16T23:17:08.739;599616194295157590;8922.567;247
2024-05-16T23:17:08.747;599616194302849380;8930.26;232
2024-05-16T23:17:08.754;599616194310541170;8937.951;209
2024-05-16T23:17:08.762;599616194318232960;8945.644;140
2024-05-16T23:17:08.770;599616194325924750;8953.335;102
2024-05-16T23:17:08.778;599616194333616540;8961.027;142
2024-05-16T23:17:08.785;599616194341308330;8968.72;168
2024-05-16T23:17:08.793;599616194349000120;8976.41;142
2024-05-16T23:17:08.801;599616194356691922;8984.103;109
2024-05-16T23:17:08.808;599616194364383712;8991.794;83
2024-05-16T23:17:08.816;599616194372075502;8999.486;57
2024-05-16T23:17:08.824;599616194379767292;9007.178;7
2024-05-16T23:17:08.831;599616194387459082;9014.87;-68
2024-05-16T23:17:08.839;599616194395150872;9022.562;-111
2024-05-16T23:17:08.847;599616194402842662;9030.254;-95
2024-05-16T23:17:08.854;599616194410534452;9037.945;-99
2024-05-16T23:17:08.862;599616194418226242;9045.637;-175
2024-05-16T23:17:08.870;599616194425918032;9053.328;-218
2024-05-16T23:17:08.878;599616194433609822;9061.0205;-161
2024-05-16T23:17:08.885;599616194441301612;9068.712;-140
2024-05-16T23:17:08.893;599616194448993402;9076.404;-178
2024-05-16T23:17:08.901;599616194456685192;9084.096;-161
2024-05-16T23:17:08.908;599616194464376982;9091.788;-130
2024-05-16T23:17:08.916;599616194472068772;9099.4795;-178
2024-05-16T23:17:08.924;599616194479760562;9107.171;-216
2024-05-16T23:17:08.931;599616194487452352;9114.862;-182
2024-05-16T23:17:08.939;599616194495144142;9122.555;-149
2024-05-16T23:17:08.947;599616194502835932;9130.246;-142
2024-05-16T23:17:08.954;599616194510527722;9137.938;-125
2024-05-16T23:17:08.962;599616194518219512;9145.63;-80
2024-05-16T23:17:08.970;599616194525911302;9153.322;-35
2024-05-16T23:17:08.978;599616194533603092;9161.014;-21
2024-05-16T23:17:08.985;599616194541294882;9168.705;-7
2024-05-16T23:17:08.993;599616194548986672;9176.396;35
2024-05-16T23:17:09.001;599616194556678462;9184.089;78
2024-05-16T23:17:09.008;599616194564370252;9191.78;104
2024-05-16T23:17:09.016;599616194572062042;9199.473;114
2024-05-16T23:17:09.024;599616194579753832;9207.164;125
2024-05-16T23:17:09.031;599616194587445622;9214.856;144
2024-05-16T23:17:09.039;599616194595137412;9222.548;142
2024-05-16T23:17:09.047;599616194602829202;9230.239;102
2024-05-16T23:17:09.054;599616194610520992;9237.932;154
2024-05-16T23:17:09.062;599616194618212782;9245.623;458
2024-05-16T23:17:09.070;599616194625904572;9253.315;931
2024-05-16T23:17:09.078;599616194633596362;9261.007;1197
2024-05-16T23:17:09.085;599616194641288152;9268.699;948
2024-05-16T23:17:09.093;599616194648979942;9276.391;389
2024-05-16T23:17:09.101;599616194656671732;9284.083;118
2024-05-16T23:17:09.108;599616194664363522;9291.774;223
2024-05-16T23:17:09.116;599616194672055312;9299.466;261
2024-05-16T23:17:09.124;599616194679747102;9307.157;182
2024-05-16T23:17:09.131;599616194687438892;9314.85;194
2024-05-16T23:17:09.139;599616194695130682;9322.541;237
2024-05-16T23:17:09.147;599616194702822472;9330.233;206
2024-05-16T23:17:09.154;599616194710514262;9337.925;149
2024-05-16T23:17:09.162;599616194718206052;9345.617;114
2024-05-16T23:17:09.170;599616194725897842;9353.309;109
2024-05-16T23:17:09.178;599616194733589632;9361.0;123
2024-05-16T23:17:09.185;599616194741281422;9368.691;137
2024-05-16T23:17:09.193;599616194748973212;9376.384;149
2024-05-16T23:17:09.201;599616194756665002;9384.075;175
2024-05-16T23:17:09.208;599616194764356792;9391.768;204
2024-05-16T23:17:09.216;599616194772048582;9399.459;213
2024-05-16T23:17:09.224;599616194779740372;9407.151;235
2024-05-16T23:17:09.231;599616194787432162;9414.843;278
2024-05-16T23:17:09.239;599616194795123952;9422.534;308
2024-05-16T23:17:09.247;599616194802815742;9430.226;304
2024-05-16T23:17:09.254;599616194810507532;9437.918;251
2024-05-16T23:17:09.262;599616194818199322;9445.609;168
2024-05-16T23:17:09.270;599616194825891112;9453.302;104
2024-05-16T23:17:09.277;599616194833582902;9460.993;90
2024-05-16T23:17:09.285;599616194841274692;9468.686;104
2024-05-16T23:17:09.293;599616194848966482;9476.377;111
2024-05-16T23:17:09.301;599616194856658272;9484.069;85
2024-05-16T23:17:09.308;599616194864350062;9491.76;30
2024-05-16T23:17:09.316;599616194872041852;9499.452;-14
2024-05-16T23:17:09.324;599616194879733642;9507.144;-35
2024-05-16T23:17:09.331;599616194887425432;9514.836;-49
2024-05-16T23:17:09.339;599616194895117222;9522.528;-73
2024-05-16T23:17:09.347;599616194902809012;9530.22;-102
2024-05-16T23:17:09.354;599616194910500802;9537.912;-102
2024-05-16T23:17:09.362;599616194918162508;9545.573;-80
2024-05-16T23:17:09.370;599616194925854716;9553.266;-85
2024-05-16T23:17:09.377;599616194933546924;9560.958;-83
2024-05-16T23:17:09.385;599616194941239132;9568.649;-47
2024-05-16T23:17:09.393;599616194948931340;9576.342;-40
2024-05-16T23:17:09.401;599616194956623548;9584.034;-78
2024-05-16T23:17:09.408;599616194964315756;9591.727;-121
2024-05-16T23:17:09.416;599616194972007964;9599.418;-118
2024-05-16T23:17:09.424;599616194979700172;9607.11;-104
2024-05-16T23:17:09.431;599616194987392380;9614.803;-166
2024-05-16T23:17:09.439;599616194995084588;9622.495;-235
2024-05-16T23:17:09.447;599616195002776796;9630.1875;-194
2024-05-16T23:17:09.454;599616195010469004;9637.88;-125
2024-05-16T23:17:09.462;599616195018161212;9645.572;-109
2024-05-16T23:17:09.470;599616195025853420;9653.265;-90
2024-05-16T23:17:09.477;599616195033545628;9660.957;-68
2024-05-16T23:17:09.485;599616195041237836;9668.647;-68
2024-05-16T23:17:09.493;599616195048930044;9676.34;-52
2024-05-16T23:17:09.501;599616195056622252;9684.032;-9
2024-05-16T23:17:09.508;599616195064314460;9691.725;11
2024-05-16T23:17:09.516;599616195072006668;9699.417;-23
2024-05-16T23:17:09.524;599616195079698876;9707.109;-54
2024-05-16T23:17:09.531;599616195087391084;9714.802;99
2024-05-16T23:17:09.539;599616195095083292;9722.494;548
2024-05-16T23:17:09.547;599616195102775500;9730.187;1031
2024-05-16T23:17:09.554;599616195110467708;9737.879;1047
2024-05-16T23:17:09.562;599616195118159916;9745.571;518
2024-05-16T23:17:09.570;599616195125852124;9753.263;21
2024-05-16T23:17:09.577;599616195133544332;9760.954;0
2024-05-16T23:17:09.585;599616195141236540;9768.646;123
2024-05-16T23:17:09.593;599616195148928748;9776.339;102
2024-05-16T23:17:09.601;599616195156620956;9784.031;104
2024-05-16T23:17:09.608;599616195164313164;9791.724;161
2024-05-16T23:17:09.616;599616195172005372;9799.416;168
2024-05-16T23:17:09.624;599616195179697580;9807.108;161
2024-05-16T23:17:09.631;599616195187389788;9814.801;192
2024-05-16T23:17:09.639;599616195195081996;9822.492;218
2024-05-16T23:17:09.647;599616195202774204;9830.185;182
2024-05-16T23:17:09.654;599616195210466412;9837.877;118
2024-05-16T23:17:09.662;599616195218158620;9845.569;99
2024-05-16T23:17:09.670;599616195225850828;9853.262;97
2024-05-16T23:17:09.677;599616195233543036;9860.953;92
2024-05-16T23:17:09.685;599616195241235244;9868.6455;125
2024-05-16T23:17:09.693;599616195248927452;9876.338;185
2024-05-16T23:17:09.701;599616195256619660;9884.03;218
2024-05-16T23:17:09.708;599616195264311868;9891.723;240
2024-05-16T23:17:09.716;599616195272004076;9899.414;247
2024-05-16T23:17:09.724;599616195279696284;9907.106;242
2024-05-16T23:17:09.731;599616195287388492;9914.799;249
2024-05-16T23:17:09.739;599616195295080700;9922.491;273
2024-05-16T23:17:09.747;599616195302772908;9930.184;289
2024-05-16T23:17:09.754;599616195310465116;9937.876;270
2024-05-16T23:17:09.762;599616195318157324;9945.568;185
2024-05-16T23:17:09.770;599616195325849532;9953.261;90
2024-05-16T23:17:09.777;599616195333541740;9960.952;80
2024-05-16T23:17:09.785;599616195341233948;9968.645;102
2024-05-16T23:17:09.793;599616195348926156;9976.336;76
2024-05-16T23:17:09.801;599616195356618364;9984.028;80
2024-05-16T23:17:09.808;599616195364310572;9991.721;104
2024-05-16T23:17:09.816;599616195372002780;9999.413;52
2024-05-16T23:17:09.824;599616195379694988;10007.105;-14
2024-05-16T23:17:09.831;599616195387387196;10014.798;-35
2024-05-16T23:17:09.839;599616195395079404;10022.49;-42
2024-05-16T23:17:09.847;599616195402771612;10030.183;-57
2024-05-16T23:17:09.854;599616195410463820;10037.875;-76
2024-05-16T23:17:09.862;599616195418156028;10045.567;-99
2024-05-16T23:17:09.870;599616195425848236;10053.259;-92
2024-05-16T23:17:09.877;599616195433540444;10060.95;-64
2024-05-16T23:17:09.885;599616195441232652;10068.643;-64
2024-05-16T23:17:09.893;599616195448924860;10076.335;-95
2024-05-16T23:17:09.901;599616195456617068;10084.027;-142
2024-05-16T23:17:09.908;599616195464309276;10091.72;-178
2024-05-16T23:17:09.916;599616195472001484;10099.412;-163
2024-05-16T23:17:09.924;599616195479723804;10107.134;-118
2024-05-16T23:17:09.931;599616195487415594;10114.826;-80
2024-05-16T23:17:09.939;599616195495107384;10122.518;-66
2024-05-16T23:17:09.947;599616195502799174;10130.21;-68
2024-05-16T23:17:09.954;599616195510490964;10137.901;-47
2024-05-16T23:17:09.962;599616195518182754;10145.594;-23
2024-05-16T23:17:09.970;599616195525874544;10153.284;-71
2024-05-16T23:17:09.977;599616195533566334;10160.977;-140
2024-05-16T23:17:09.985;599616195541258124;10168.668;-133
2024-05-16T23:17:09.993;599616195548949914;10176.36;-142
2024-05-16T23:17:10.001;599616195556641704;10184.053;-163
2024-05-16T23:17:10.008;599616195564333494;10191.744;47
2024-05-16T23:17:10.016;599616195572025284;10199.437;565
2024-05-16T23:17:10.024;599616195579717074;10207.128;1028
2024-05-16T23:17:10.031;599616195587408864;10214.82;950
2024-05-16T23:17:10.039;599616195595100654;10222.511;344
2024-05-16T23:17:10.047;599616195602792444;10230.203;-109
2024-05-16T23:17:10.054;599616195610484234;10237.895;-35
2024-05-16T23:17:10.062;599616195618176024;10245.587;99
2024-05-16T23:17:10.070;599616195625867814;10253.278;38
2024-05-16T23:17:10.077;599616195633559604;10260.971;45
2024-05-16T23:17:10.085;599616195641251394;10268.662;114
2024-05-16T23:17:10.093;599616195648943184;10276.3545;99
2024-05-16T23:17:10.101;599616195656634974;10284.045;99
2024-05-16T23:17:10.108;599616195664326764;10291.737;147
2024-05-16T23:17:10.116;599616195672018554;10299.429;168
2024-05-16T23:17:10.124;599616195679710344;10307.121;178
2024-05-16T23:17:10.131;599616195687402134;10314.8125;197
2024-05-16T23:17:10.139;599616195695093924;10322.505;190
2024-05-16T23:17:10.147;599616195702785714;10330.196;125
2024-05-16T23:17:10.154;599616195710477504;10337.889;80
2024-05-16T23:17:10.162;599616195718169294;10345.579;116
2024-05-16T23:17:10.170;599616195725861084;10353.271;152
2024-05-16T23:17:10.177;599616195733552874;10360.963;147
2024-05-16T23:17:10.185;599616195741244664;10368.655;156
2024-05-16T23:17:10.193;599616195748936454;10376.347;194
2024-05-16T23:17:10.201;599616195756628244;10384.039;220
2024-05-16T23:17:10.208;599616195764320034;10391.73;218
2024-05-16T23:17:10.216;599616195772011824;10399.423;206
2024-05-16T23:17:10.224;599616195779703614;10407.113;201
2024-05-16T23:17:10.231;599616195787395404;10414.806;204
2024-05-16T23:17:10.239;599616195795087194;10422.497;204
2024-05-16T23:17:10.247;599616195802778984;10430.189;204
2024-05-16T23:17:10.254;599616195810470774;10437.881;197
2024-05-16T23:17:10.262;599616195818162564;10445.573;133
2024-05-16T23:17:10.270;599616195825854354;10453.266;30
2024-05-16T23:17:10.277;599616195833546144;10460.957;-2
2024-05-16T23:17:10.285;599616195841237934;10468.649;42
2024-05-16T23:17:10.293;599616195848929724;10476.34;85
2024-05-16T23:17:10.301;599616195856621514;10484.032;80
2024-05-16T23:17:10.308;599616195864313304;10491.724;42
2024-05-16T23:17:10.316;599616195872005094;10499.416;0
2024-05-16T23:17:10.324;599616195879696884;10507.107;-38
2024-05-16T23:17:10.331;599616195887388674;10514.8;-80
2024-05-16T23:17:10.339;599616195895080464;10522.491;-95
2024-05-16T23:17:10.347;599616195902772254;10530.184;-78
2024-05-16T23:17:10.354;599616195910464044;10537.874;-78
2024-05-16T23:17:10.362;599616195918155834;10545.566;-99
2024-05-16T23:17:10.370;599616195925847624;10553.258;-111
2024-05-16T23:17:10.377;599616195933539414;10560.95;-97
2024-05-16T23:17:10.385;599616195941231204;10568.642;-80
2024-05-16T23:17:10.393;599616195948922994;10576.334;-106
2024-05-16T23:17:10.401;599616195956614784;10584.025;-128
2024-05-16T23:17:10.408;599616195964306574;10591.718;-90
2024-05-16T23:17:10.416;599616195971998364;10599.408;-66
2024-05-16T23:17:10.424;599616195979690154;10607.101;-73
2024-05-16T23:17:10.431;599616195987381944;10614.792;-40
2024-05-16T23:17:10.439;599616195995073734;10622.484;9
2024-05-16T23:17:10.447;599616196002765524;10630.176;11
2024-05-16T23:17:10.454;599616196010457314;10637.868;-2
2024-05-16T23:17:10.462;599616196018149104;10645.56;9
2024-05-16T23:17:10.470;599616196025840894;10653.252;0
2024-05-16T23:17:10.477;599616196033532684;10660.942;-26
2024-05-16T23:17:10.485;599616196041224486;10668.635;116
2024-05-16T23:17:10.493;599616196048916276;10676.326;539
2024-05-16T23:17:10.501;599616196056608066;10684.019;988
2024-05-16T23:17:10.508;599616196064299856;10691.71;1028
2024-05-16T23:17:10.516;599616196071991646;10699.402;558
2024-05-16T23:17:10.524;599616196079683436;10707.094;73
2024-05-16T23:17:10.531;599616196087375226;10714.786;26
2024-05-16T23:17:10.539;599616196095067016;10722.478;130
2024-05-16T23:17:10.547;599616196102758806;10730.169;59
2024-05-16T23:17:10.554;599616196110450596;10737.861;28
2024-05-16T23:17:10.562;599616196118142386;10745.553;92
2024-05-16T23:17:10.570;599616196125834176;10753.245;57
2024-05-16T23:17:10.577;599616196133525966;10760.937;-7
2024-05-16T23:17:10.585;599616196141217756;10768.629;28
2024-05-16T23:17:10.593;599616196148909546;10776.32;47
2024-05-16T23:17:10.601;599616196156601336;10784.013;33
2024-05-16T23:17:10.608;599616196164293126;10791.703;76
2024-05-16T23:17:10.616;599616196171984916;10799.3955;137
2024-05-16T23:17:10.624;599616196179676706;10807.087;173
2024-05-16T23:17:10.631;599616196187368496;10814.779;190
2024-05-16T23:17:10.639;599616196195060286;10822.471;149
2024-05-16T23:17:10.647;599616196202752076;10830.163;102
2024-05-16T23:17:10.654;599616196210443866;10837.8545;111
2024-05-16T23:17:10.662;599616196218135656;10845.547;130
2024-05-16T23:17:10.670;599616196225827446;10853.237;135
2024-05-16T23:17:10.677;599616196233519236;10860.93;149
2024-05-16T23:17:10.685;599616196241211026;10868.621;149
2024-05-16T23:17:10.693;599616196248902816;10876.313;140
2024-05-16T23:17:10.701;599616196256594606;10884.005;149
2024-05-16T23:17:10.708;599616196264286396;10891.697;163
2024-05-16T23:17:10.716;599616196271978186;10899.389;156
2024-05-16T23:17:10.724;599616196279669976;10907.081;140
2024-05-16T23:17:10.731;599616196287361766;10914.771;140
2024-05-16T23:17:10.739;599616196295053556;10922.464;149
2024-05-16T23:17:10.747;599616196302745346;10930.155;156
2024-05-16T23:17:10.754;599616196310437136;10937.848;173
2024-05-16T23:17:10.762;599616196318128926;10945.539;190
2024-05-16T23:17:10.770;599616196325820716;10953.231;149
2024-05-16T23:17:10.777;599616196333512506;10960.923;35
2024-05-16T23:17:10.785;599616196341204296;10968.615;-19
2024-05-16T23:17:10.793;599616196348896086;10976.307;40
2024-05-16T23:17:10.800;599616196356587876;10983.998;85
2024-05-16T23:17:10.808;599616196364279666;10991.689;47
2024-05-16T23:17:10.816;599616196371971456;10999.382;2
2024-05-16T23:17:10.824;599616196379663246;11007.073;-23
2024-05-16T23:17:10.831;599616196387355036;11014.766;-61
2024-05-16T23:17:10.839;599616196395046826;11022.458;-92
2024-05-16T23:17:10.847;599616196402738616;11030.149;-92
2024-05-16T23:17:10.854;599616196410430406;11037.842;-73
2024-05-16T23:17:10.862;599616196418122196;11045.532;-68
2024-05-16T23:17:10.870;599616196425813986;11053.225;-87
2024-05-16T23:17:10.877;599616196433505776;11060.916;-121
2024-05-16T23:17:10.885;599616196441197566;11068.608;-137
2024-05-16T23:17:10.893;599616196448889356;11076.3;-128
2024-05-16T23:17:10.900;599616196456581146;11083.992;-116
2024-05-16T23:17:10.908;599616196464272936;11091.684;-121
2024-05-16T23:17:10.916;599616196471964726;11099.376;-116
2024-05-16T23:17:10.924;599616196479656516;11107.066;-83
2024-05-16T23:17:10.931;599616196487348306;11114.759;-52
2024-05-16T23:17:10.939;599616196495040096;11122.45;-40
2024-05-16T23:17:10.947;599616196502731886;11130.143;-14
2024-05-16T23:17:10.954;599616196510423676;11137.834;-26
2024-05-16T23:17:10.962;599616196518115466;11145.526;-78
2024-05-16T23:17:10.970;599616196525807256;11153.218;23
2024-05-16T23:17:10.977;599616196533499046;11160.91;437
2024-05-16T23:17:10.985;599616196541190836;11168.602;938
2024-05-16T23:17:10.993;599616196548882626;11176.293;1062
2024-05-16T23:17:11.000;599616196556574416;11183.984;627
2024-05-16T23:17:11.008;599616196564266206;11191.677;92
2024-05-16T23:17:11.016;599616196571957996;11199.368;-4
2024-05-16T23:17:11.024;599616196579649786;11207.061;116
2024-05-16T23:17:11.031;599616196587341576;11214.752;90
2024-05-16T23:17:11.039;599616196595033366;11222.444;57
2024-05-16T23:17:11.047;599616196602735248;11230.1455;116
2024-05-16T23:17:11.054;599616196610426898;11237.838;135
2024-05-16T23:17:11.062;599616196618118548;11245.529;130
2024-05-16T23:17:11.070;599616196625810198;11253.221;168
2024-05-16T23:17:11.077;599616196633501848;11260.913;204
2024-05-16T23:17:11.085;599616196641193498;11268.604;218
2024-05-16T23:17:11.093;599616196648885148;11276.296;237
2024-05-16T23:17:11.100;599616196656576798;11283.987;242
2024-05-16T23:17:11.108;599616196664268448;11291.679;190
2024-05-16T23:17:11.116;599616196671960098;11299.371;123
2024-05-16T23:17:11.124;599616196679651748;11307.0625;114
2024-05-16T23:17:11.131;599616196687343398;11314.754;118
2024-05-16T23:17:11.139;599616196695035048;11322.446;80
2024-05-16T23:17:11.147;599616196702726698;11330.137;40
2024-05-16T23:17:11.154;599616196710418348;11337.829;30
2024-05-16T23:17:11.162;599616196718109998;11345.5205;45
2024-05-16T23:17:11.170;599616196725801648;11353.212;57
2024-05-16T23:17:11.177;599616196733493298;11360.904;57
2024-05-16T23:17:11.185;599616196741184948;11368.596;64
2024-05-16T23:17:11.193;599616196748876598;11376.287;61
2024-05-16T23:17:11.200;599616196756568248;11383.9795;38
2024-05-16T23:17:11.208;599616196764259898;11391.67;33
2024-05-16T23:17:11.216;599616196771951548;11399.362;64
2024-05-16T23:17:11.224;599616196779643198;11407.054;85
2024-05-16T23:17:11.231;599616196787334848;11414.745;68
2024-05-16T23:17:11.239;599616196795026498;11422.4375;64
2024-05-16T23:17:11.247;599616196802718148;11430.129;95
2024-05-16T23:17:11.254;599616196810409798;11437.82;128
2024-05-16T23:17:11.262;599616196818101448;11445.512;142
2024-05-16T23:17:11.270;599616196825793098;11453.203;152
2024-05-16T23:17:11.277;599616196833484748;11460.8955;104
2024-05-16T23:17:11.285;599616196841176398;11468.587;-11
2024-05-16T23:17:11.293;599616196848868048;11476.278;-54
2024-05-16T23:17:11.300;599616196856559698;11483.971;-2
2024-05-16T23:17:11.308;599616196864251348;11491.662;-9
2024-05-16T23:17:11.316;599616196871942998;11499.354;-64
2024-05-16T23:17:11.324;599616196879634648;11507.045;-97
2024-05-16T23:17:11.331;599616196887326298;11514.736;-144
2024-05-16T23:17:11.339;599616196895017948;11522.429;-185
2024-05-16T23:17:11.347;599616196902709598;11530.12;-180
2024-05-16T23:17:11.354;599616196910401248;11537.812;-178
2024-05-16T23:17:11.362;599616196918092898;11545.504;-159
2024-05-16T23:17:11.370;599616196925784548;11553.195;-147
2024-05-16T23:17:11.377;599616196933476198;11560.887;-216
2024-05-16T23:17:11.385;599616196941167848;11568.578;-263
2024-05-16T23:17:11.393;599616196948859498;11576.27;-211
2024-05-16T23:17:11.400;599616196956551148;11583.962;-159
2024-05-16T23:17:11.408;599616196964242798;11591.653;-159
2024-05-16T23:17:11.416;599616196971934448;11599.345;-152
2024-05-16T23:17:11.424;599616196979626098;11607.037;-130
2024-05-16T23:17:11.431;599616196987317748;11614.729;-114
2024-05-16T23:17:11.439;599616196995009398;11622.42;-116
2024-05-16T23:17:11.447;599616197002701048;11630.111;-137
2024-05-16T23:17:11.454;599616197010392698;11637.803;-118
2024-05-16T23:17:11.462;599616197018084348;11645.495;80
2024-05-16T23:17:11.470;599616197025775998;11653.187;518
2024-05-16T23:17:11.477;599616197033467648;11660.878;936
2024-05-16T23:17:11.485;599616197041159298;11668.57;898
2024-05-16T23:17:11.493;599616197048850948;11676.262;349
2024-05-16T23:17:11.500;599616197056542598;11683.953;-106
2024-05-16T23:17:11.508;599616197064234248;11691.645;-73
2024-05-16T23:17:11.516;599616197071925898;11699.336;35
2024-05-16T23:17:11.524;599616197079617548;11707.028;-35
2024-05-16T23:17:11.531;599616197087309198;11714.72;-52
2024-05-16T23:17:11.539;599616197095000848;11722.411;19
2024-05-16T23:17:11.547;599616197102692498;11730.104;64
2024-05-16T23:17:11.554;599616197110384148;11737.795;85
2024-05-16T23:17:11.562;599616197118075798;11745.487;85
2024-05-16T23:17:11.570;599616197125767448;11753.178;87
2024-05-16T23:17:11.577;599616197133459098;11760.869;133
2024-05-16T23:17:11.585;599616197141150748;11768.562;178
2024-05-16T23:17:11.593;599616197148842398;11776.253;190
2024-05-16T23:17:11.600;599616197156534048;11783.944;206
2024-05-16T23:17:11.608;599616197164205668;11791.616;237
2024-05-16T23:17:11.616;599616197171897597;11799.309;249
2024-05-16T23:17:11.624;599616197179589526;11807.001;244
2024-05-16T23:17:11.631;599616197187281455;11814.691;266
2024-05-16T23:17:11.639;599616197194973384;11822.384;280
2024-05-16T23:17:11.647;599616197202665313;11830.075;218
2024-05-16T23:17:11.654;599616197210357242;11837.768;156
2024-05-16T23:17:11.662;599616197218049171;11845.46;180
2024-05-16T23:17:11.670;599616197225741100;11853.151;206
2024-05-16T23:17:11.677;599616197233433029;11860.844;152
2024-05-16T23:17:11.685;599616197241124958;11868.536;66
2024-05-16T23:17:11.693;599616197248816887;11876.228;38
2024-05-16T23:17:11.700;599616197256508816;11883.919;35
2024-05-16T23:17:11.708;599616197264200745;11891.611;11
2024-05-16T23:17:11.716;599616197271892674;11899.303;0
2024-05-16T23:17:11.723;599616197279584603;11906.995;33
2024-05-16T23:17:11.731;599616197287276532;11914.6875;80
2024-05-16T23:17:11.739;599616197294968461;11922.379;85
2024-05-16T23:17:11.747;599616197302660390;11930.071;59
2024-05-16T23:17:11.754;599616197310352319;11937.764;85
2024-05-16T23:17:11.762;599616197318044248;11945.455;149
2024-05-16T23:17:11.770;599616197325736177;11953.146;161
2024-05-16T23:17:11.777;599616197333428106;11960.838;125
2024-05-16T23:17:11.785;599616197341120035;11968.53;64
2024-05-16T23:17:11.793;599616197348811964;11976.223;-21
2024-05-16T23:17:11.800;599616197356503893;11983.914;-87
2024-05-16T23:17:11.808;599616197364195822;11991.606;-114
2024-05-16T23:17:11.816;599616197371887751;11999.299;-130
2024-05-16T23:17:11.823;599616197379579680;12006.99;-173
2024-05-16T23:17:11.831;599616197387271609;12014.682;-235
2024-05-16T23:17:11.839;599616197394963538;12022.374;-261
2024-05-16T23:17:11.847;599616197402655467;12030.065;-247
2024-05-16T23:17:11.854;599616197410347396;12037.758;-225
2024-05-16T23:17:11.862;599616197418039325;12045.45;-218
2024-05-16T23:17:11.870;599616197425731254;12053.142;-235
2024-05-16T23:17:11.877;599616197433423183;12060.834;-240
2024-05-16T23:17:11.885;599616197441115112;12068.526;-232
2024-05-16T23:17:11.893;599616197448807041;12076.218;-232
2024-05-16T23:17:11.900;599616197456498970;12083.909;-213
2024-05-16T23:17:11.908;599616197464190899;12091.602;-161
2024-05-16T23:17:11.916;599616197471882828;12099.293;-135
2024-05-16T23:17:11.923;599616197479574757;12106.985;-144
2024-05-16T23:17:11.931;599616197487266686;12114.677;-163
2024-05-16T23:17:11.939;599616197494958615;12122.369;-194
2024-05-16T23:17:11.947;599616197502650544;12130.062;-161
2024-05-16T23:17:11.954;599616197510342473;12137.753;121
2024-05-16T23:17:11.962;599616197518034402;12145.445;660
2024-05-16T23:17:11.970;599616197525726331;12153.137;1059
2024-05-16T23:17:11.977;599616197533418260;12160.828;829
2024-05-16T23:17:11.985;599616197541110189;12168.5205;140
2024-05-16T23:17:11.993;599616197548802118;12176.213;-204
2024-05-16T23:17:12.000;599616197556494047;12183.904;-28
2024-05-16T23:17:12.008;599616197564185976;12191.597;59
2024-05-16T23:17:12.016;599616197571877905;12199.289;-54
2024-05-16T23:17:12.023;599616197579569834;12206.98;-40
2024-05-16T23:17:12.031;599616197587261763;12214.673;40
2024-05-16T23:17:12.039;599616197594953692;12222.364;57
2024-05-16T23:17:12.047;599616197602645621;12230.056;92
2024-05-16T23:17:12.054;599616197610337550;12237.748;161
2024-05-16T23:17:12.062;599616197618029479;12245.44;197
2024-05-16T23:17:12.070;599616197625721408;12253.132;185
2024-05-16T23:17:12.077;599616197633413337;12260.824;190
2024-05-16T23:17:12.085;599616197641105266;12268.516;232
2024-05-16T23:17:12.093;599616197648797195;12276.208;259
2024-05-16T23:17:12.100;599616197656489124;12283.9;275
2024-05-16T23:17:12.108;599616197664181053;12291.591;292
2024-05-16T23:17:12.116;599616197671872982;12299.283;266
2024-05-16T23:17:12.123;599616197679564911;12306.976;240
2024-05-16T23:17:12.131;599616197687256840;12314.667;240
2024-05-16T23:17:12.139;599616197694948769;12322.359;216
2024-05-16T23:17:12.147;599616197702640698;12330.052;218
2024-05-16T23:17:12.154;599616197710332627;12337.743;249
2024-05-16T23:17:12.162;599616197718024556;12345.436;225
2024-05-16T23:17:12.170;599616197725726532;12353.137;178
2024-05-16T23:17:12.177;599616197733418322;12360.829;178
2024-05-16T23:17:12.185;599616197741110112;12368.5205;185
2024-05-16T23:17:12.193;599616197748801902;12376.213;163
2024-05-16T23:17:12.200;599616197756493692;12383.903;149
2024-05-16T23:17:12.208;599616197764185482;12391.596;140
2024-05-16T23:17:12.216;599616197771877272;12399.288;92
2024-05-16T23:17:12.223;599616197779569062;12406.9795;21
2024-05-16T23:17:12.231;599616197787260852;12414.672;9
2024-05-16T23:17:12.239;599616197794952642;12422.363;57
2024-05-16T23:17:12.247;599616197802644432;12430.056;64
2024-05-16T23:17:12.254;599616197810336222;12437.747;30
2024-05-16T23:17:12.262;599616197818028012;12445.439;35
2024-05-16T23:17:12.270;599616197825719802;12453.13;83
2024-05-16T23:17:12.277;599616197833411592;12460.822;104
2024-05-16T23:17:12.285;599616197841103382;12468.514;57
2024-05-16T23:17:12.293;599616197848795172;12476.206;-49
2024-05-16T23:17:12.300;599616197856486962;12483.897;-128
2024-05-16T23:17:12.308;599616197864178752;12491.59;-163
2024-05-16T23:17:12.316;599616197871870542;12499.281;-206
2024-05-16T23:17:12.323;599616197879562332;12506.974;-223
2024-05-16T23:17:12.331;599616197887254122;12514.664;-211
2024-05-16T23:17:12.339;599616197894945912;12522.356;-232
2024-05-16T23:17:12.347;599616197902637702;12530.048;-249
2024-05-16T23:17:12.354;599616197910329492;12537.74;-244
2024-05-16T23:17:12.362;599616197918021282;12545.432;-268
2024-05-16T23:17:12.370;599616197925713072;12553.124;-280
2024-05-16T23:17:12.377;599616197933404862;12560.815;-247
2024-05-16T23:17:12.385;599616197941096652;12568.508;-223
2024-05-16T23:17:12.393;599616197948788442;12576.198;-216
2024-05-16T23:17:12.400;599616197956480232;12583.891;-201
2024-05-16T23:17:12.408;599616197964172022;12591.582;-173
2024-05-16T23:17:12.416;599616197971863812;12599.274;-135
2024-05-16T23:17:12.423;599616197979555602;12606.966;-118
2024-05-16T23:17:12.431;599616197987247392;12614.658;-166
2024-05-16T23:17:12.439;599616197994939182;12622.35;-194
2024-05-16T23:17:12.447;599616198002630972;12630.042;21
2024-05-16T23:17:12.454;599616198010322762;12637.732;532
2024-05-16T23:17:12.462;599616198018014552;12645.425;998
2024-05-16T23:17:12.470;599616198025706342;12653.116;974
2024-05-16T23:17:12.477;599616198033398132;12660.809;408
2024-05-16T23:17:12.485;599616198041089922;12668.5;-116
2024-05-16T23:17:12.493;599616198048781712;12676.192;-118
2024-05-16T23:17:12.500;599616198056473502;12683.885;33
2024-05-16T23:17:12.508;599616198064165292;12691.576;0
2024-05-16T23:17:12.516;599616198071857082;12699.269;-19
2024-05-16T23:17:12.523;599616198079548872;12706.959;28
2024-05-16T23:17:12.531;599616198087240662;12714.651;42
2024-05-16T23:17:12.539;599616198094932452;12722.343;54
2024-05-16T23:17:12.547;599616198102624242;12730.035;90
2024-05-16T23:17:12.554;599616198110316032;12737.727;121
2024-05-16T23:17:12.562;599616198118007822;12745.419;149
2024-05-16T23:17:12.570;599616198125699612;12753.11;187
2024-05-16T23:17:12.577;599616198133391402;12760.803;197
2024-05-16T23:17:12.585;599616198141083192;12768.493;187
2024-05-16T23:17:12.593;599616198148774982;12776.186;225
2024-05-16T23:17:12.600;599616198156466772;12783.877;273
2024-05-16T23:17:12.608;599616198164158562;12791.569;237
2024-05-16T23:17:12.616;599616198171850352;12799.261;161
2024-05-16T23:17:12.623;599616198179542142;12806.953;128
2024-05-16T23:17:12.631;599616198187233932;12814.645;135
2024-05-16T23:17:12.639;599616198194925722;12822.337;144
2024-05-16T23:17:12.647;599616198202617512;12830.027;147
2024-05-16T23:17:12.654;599616198210309302;12837.72;163
2024-05-16T23:17:12.662;599616198218001092;12845.411;173
2024-05-16T23:17:12.670;599616198225692882;12853.104;147
2024-05-16T23:17:12.677;599616198233384672;12860.795;130
2024-05-16T23:17:12.685;599616198241076462;12868.487;152
2024-05-16T23:17:12.693;599616198248768252;12876.179;161
2024-05-16T23:17:12.700;599616198256460042;12883.871;149
2024-05-16T23:17:12.708;599616198264151832;12891.562;154
2024-05-16T23:17:12.716;599616198271843622;12899.254;166
2024-05-16T23:17:12.723;599616198279535412;12906.945;182
2024-05-16T23:17:12.731;599616198287222246;12914.633;199
2024-05-16T23:17:12.739;599616198294914105;12922.325;220
2024-05-16T23:17:12.747;599616198302605964;12930.017;251
2024-05-16T23:17:12.754;599616198310297823;12937.709;266
2024-05-16T23:17:12.762;599616198317989682;12945.399;237
2024-05-16T23:17:12.770;599616198325681541;12953.092;213
2024-05-16T23:17:12.777;599616198333373400;12960.784;213
2024-05-16T23:17:12.785;599616198341065259;12968.476;152
2024-05-16T23:17:12.793;599616198348757118;12976.168;21
2024-05-16T23:17:12.800;599616198356448977;12983.859;-85
2024-05-16T23:17:12.808;599616198364140836;12991.552;-118
2024-05-16T23:17:12.816;599616198371832695;12999.243;-161
2024-05-16T23:17:12.823;599616198379524554;13006.935;-244
2024-05-16T23:17:12.831;599616198387216413;13014.627;-256
2024-05-16T23:17:12.839;599616198394908272;13022.318;-201
2024-05-16T23:17:12.847;599616198402600131;13030.011;-204
2024-05-16T23:17:12.854;599616198410291990;13037.702;-256
2024-05-16T23:17:12.862;599616198417983849;13045.395;-249
2024-05-16T23:17:12.870;599616198425675708;13053.087;-187
2024-05-16T23:17:12.877;599616198433367567;13060.778;-171
2024-05-16T23:17:12.885;599616198441059426;13068.471;-168
2024-05-16T23:17:12.893;599616198448751285;13076.161;-121
2024-05-16T23:17:12.900;599616198456443144;13083.854;-87
2024-05-16T23:17:12.908;599616198464135003;13091.545;-85
2024-05-16T23:17:12.916;599616198471826862;13099.237;-78
2024-05-16T23:17:12.923;599616198479518721;13106.93;-61
2024-05-16T23:17:12.931;599616198487210580;13114.621;-66
2024-05-16T23:17:12.939;599616198494902439;13122.313;-28
2024-05-16T23:17:12.947;599616198502594298;13130.005;249
2024-05-16T23:17:12.954;599616198510286157;13137.696;786
2024-05-16T23:17:12.962;599616198517978016;13145.389;1147
2024-05-16T23:17:12.970;599616198525669875;13153.08;881
2024-05-16T23:17:12.977;599616198533361734;13160.772;251
2024-05-16T23:17:12.985;599616198541053593;13168.464;-14
2024-05-16T23:17:12.993;599616198548745452;13176.156;102
2024-05-16T23:17:13.000;599616198556437311;13183.848;97
2024-05-16T23:17:13.008;599616198564129170;13191.54;28
2024-05-16T23:17:13.016;599616198571821029;13199.232;102
2024-05-16T23:17:13.023;599616198579512888;13206.923;163
2024-05-16T23:17:13.031;599616198587204747;13214.615;144
2024-05-16T23:17:13.039;599616198594896606;13222.307;144
2024-05-16T23:17:13.046;599616198602588465;13229.999;187
2024-05-16T23:17:13.054;599616198610280324;13237.69;216
2024-05-16T23:17:13.062;599616198617972183;13245.383;225
2024-05-16T23:17:13.070;599616198625664042;13253.075;254
2024-05-16T23:17:13.077;599616198633355901;13260.767;287
2024-05-16T23:17:13.085;599616198641047760;13268.458;297
2024-05-16T23:17:13.093;599616198648739619;13276.149;301
2024-05-16T23:17:13.100;599616198656431478;13283.842;280
2024-05-16T23:17:13.108;599616198664123337;13291.534;240
2024-05-16T23:17:13.116;599616198671815196;13299.226;244
2024-05-16T23:17:13.123;599616198679507055;13306.918;263
2024-05-16T23:17:13.131;599616198687198914;13314.609;249
2024-05-16T23:17:13.139;599616198694890773;13322.302;247
2024-05-16T23:17:13.146;599616198702582632;13329.993;263
2024-05-16T23:17:13.154;599616198710274491;13337.685;256
2024-05-16T23:17:13.162;599616198717966350;13345.377;259
2024-05-16T23:17:13.170;599616198725658209;13353.068;285
2024-05-16T23:17:13.177;599616198733350068;13360.761;263
2024-05-16T23:17:13.185;599616198741041927;13368.452;218
2024-05-16T23:17:13.193;599616198748733786;13376.145;240
2024-05-16T23:17:13.200;599616198756425645;13383.837;278
2024-05-16T23:17:13.208;599616198764117504;13391.528;275
2024-05-16T23:17:13.216;599616198771809363;13399.221;270
2024-05-16T23:17:13.223;599616198779501222;13406.911;285
2024-05-16T23:17:13.231;599616198787193081;13414.604;301
2024-05-16T23:17:13.239;599616198794884940;13422.295;306
2024-05-16T23:17:13.246;599616198802576799;13429.987;304
2024-05-16T23:17:13.254;599616198810268658;13437.68;306
2024-05-16T23:17:13.262;599616198817960517;13445.371;273
2024-05-16T23:17:13.270;599616198825652376;13453.063;190
2024-05-16T23:17:13.277;599616198833344235;13460.755;116
2024-05-16T23:17:13.285;599616198841036094;13468.446;57
2024-05-16T23:17:13.293;599616198848728014;13476.139;-42
2024-05-16T23:17:13.300;599616198856419873;13483.83;-137
2024-05-16T23:17:13.308;599616198864111732;13491.522;-159
2024-05-16T23:17:13.316;599616198871803591;13499.214;-156
2024-05-16T23:17:13.323;599616198879495450;13506.906;-187
2024-05-16T23:17:13.331;599616198887187309;13514.598;-261
2024-05-16T23:17:13.339;599616198894879168;13522.29;-332
2024-05-16T23:17:13.346;599616198902571027;13529.982;-349
2024-05-16T23:17:13.354;599616198910262886;13537.673;-354
2024-05-16T23:17:13.362;599616198917954745;13545.365;-346
2024-05-16T23:17:13.370;599616198925646604;13553.057;-299
2024-05-16T23:17:13.377;599616198933338463;13560.749;-256
2024-05-16T23:17:13.385;599616198941030322;13568.441;-235
2024-05-16T23:17:13.393;599616198948722181;13576.133;-209
2024-05-16T23:17:13.400;599616198956414040;13583.825;-173
2024-05-16T23:17:13.408;599616198964105899;13591.517;-147
2024-05-16T23:17:13.416;599616198971797758;13599.208;-135
2024-05-16T23:17:13.423;599616198979489617;13606.899;-140
2024-05-16T23:17:13.431;599616198987181476;13614.592;-161
2024-05-16T23:17:13.439;599616198994873335;13622.284;-90
2024-05-16T23:17:13.446;599616199002565194;13629.976;235
2024-05-16T23:17:13.454;599616199010257053;13637.668;743
2024-05-16T23:17:13.462;599616199017948912;13645.359;1038
2024-05-16T23:17:13.470;599616199025640771;13653.052;760
2024-05-16T23:17:13.477;599616199033332630;13660.744;147
2024-05-16T23:17:13.485;599616199041024489;13668.435;-118
2024-05-16T23:17:13.493;599616199048716348;13676.127;16
2024-05-16T23:17:13.500;599616199056408207;13683.818;49
2024-05-16T23:17:13.508;599616199064100066;13691.511;-35
2024-05-16T23:17:13.516;599616199071791925;13699.202;-2
2024-05-16T23:17:13.523;599616199079483784;13706.895;73
2024-05-16T23:17:13.531;599616199087175643;13714.587;87
2024-05-16T23:17:13.539;599616199094867502;13722.278;95
2024-05-16T23:17:13.546;599616199102559361;13729.97;114
2024-05-16T23:17:13.554;599616199110251220;13737.661;140
2024-05-16T23:17:13.562;599616199117943079;13745.354;175
2024-05-16T23:17:13.570;599616199125634938;13753.045;194
2024-05-16T23:17:13.577;599616199133326797;13760.737;175
2024-05-16T23:17:13.585;599616199141018656;13768.43;140
2024-05-16T23:17:13.593;599616199148710515;13776.121;80
2024-05-16T23:17:13.600;599616199156402374;13783.813;30
2024-05-16T23:17:13.608;599616199164094233;13791.504;54
2024-05-16T23:17:13.616;599616199171786092;13799.196;114
2024-05-16T23:17:13.623;599616199179477951;13806.889;137
2024-05-16T23:17:13.631;599616199187169810;13814.58;128
2024-05-16T23:17:13.639;599616199194861669;13822.272;121
2024-05-16T23:17:13.646;599616199202553528;13829.964;137
2024-05-16T23:17:13.654;599616199210245387;13837.656;159
2024-05-16T23:17:13.662;599616199217937246;13845.348;156
2024-05-16T23:17:13.670;599616199225629105;13853.04;152
2024-05-16T23:17:13.677;599616199233320964;13860.731;168
2024-05-16T23:17:13.685;599616199241012823;13868.423;154
2024-05-16T23:17:13.693;599616199248704682;13876.115;128
2024-05-16T23:17:13.700;599616199256396541;13883.807;152
2024-05-16T23:17:13.708;599616199264088400;13891.499;194
2024-05-16T23:17:13.716;599616199271780259;13899.191;211
2024-05-16T23:17:13.723;599616199279472118;13906.883;216
2024-05-16T23:17:13.731;599616199287163977;13914.575;204
2024-05-16T23:17:13.739;599616199294855836;13922.266;161
2024-05-16T23:17:13.746;599616199302547695;13929.958;116
2024-05-16T23:17:13.754;599616199310239554;13937.649;90
2024-05-16T23:17:13.762;599616199317931413;13945.342;59
2024-05-16T23:17:13.770;599616199325623272;13953.034;19
2024-05-16T23:17:13.777;599616199333315131;13960.726;-21
2024-05-16T23:17:13.785;599616199341006990;13968.418;-54
2024-05-16T23:17:13.793;599616199348698849;13976.109;-106
2024-05-16T23:17:13.800;599616199356390708;13983.802;-194
2024-05-16T23:17:13.808;599616199364082567;13991.492;-240
2024-05-16T23:17:13.816;599616199371774426;13999.185;-225
2024-05-16T23:17:13.823;599616199379466285;14006.877;-225
2024-05-16T23:17:13.831;599616199387158144;14014.568;-242
2024-05-16T23:17:13.839;599616199394850003;14022.261;-247
2024-05-16T23:17:13.846;599616199402541862;14029.952;-249
2024-05-16T23:17:13.854;599616199410218734;14037.629;-225
2024-05-16T23:17:13.862;599616199417910802;14045.321;-161
2024-05-16T23:17:13.870;599616199425602870;14053.014;-140
2024-05-16T23:17:13.877;599616199433294938;14060.706;-163
2024-05-16T23:17:13.885;599616199440987006;14068.397;-130
2024-05-16T23:17:13.893;599616199448679074;14076.089;-66
2024-05-16T23:17:13.900;599616199456371142;14083.781;-47
2024-05-16T23:17:13.908;599616199464063210;14091.474;-35
2024-05-16T23:17:13.916;599616199471755278;14099.166;-26
2024-05-16T23:17:13.923;599616199479447346;14106.857;-85
2024-05-16T23:17:13.931;599616199487139414;14114.55;-197
2024-05-16T23:17:13.939;599616199494831482;14122.242;-144
2024-05-16T23:17:13.946;599616199502523550;14129.935;259
2024-05-16T23:17:13.954;599616199510215618;14137.627;798
2024-05-16T23:17:13.962;599616199517907686;14145.318;967
2024-05-16T23:17:13.970;599616199525599754;14153.01;541
2024-05-16T23:17:13.977;599616199533291822;14160.702;-21
2024-05-16T23:17:13.985;599616199540983890;14168.395;-123
2024-05-16T23:17:13.993;599616199548675958;14176.086;35
2024-05-16T23:17:14.000;599616199556368026;14183.778;16
2024-05-16T23:17:14.008;599616199564060094;14191.471;-45
2024-05-16T23:17:14.016;599616199571752162;14199.163;16
2024-05-16T23:17:14.023;599616199579444230;14206.855;71
2024-05-16T23:17:14.031;599616199587136298;14214.547;83
2024-05-16T23:17:14.039;599616199594828366;14222.238;118
2024-05-16T23:17:14.046;599616199602520434;14229.931;142
2024-05-16T23:17:14.054;599616199610212502;14237.623;102
2024-05-16T23:17:14.062;599616199617904570;14245.315;52
2024-05-16T23:17:14.070;599616199625596638;14253.007;80
2024-05-16T23:17:14.077;599616199633288706;14260.699;130
2024-05-16T23:17:14.085;599616199640980774;14268.392;99
2024-05-16T23:17:14.093;599616199648672842;14276.084;71
2024-05-16T23:17:14.100;599616199656364910;14283.775;106
2024-05-16T23:17:14.108;599616199664056978;14291.467;111
2024-05-16T23:17:14.116;599616199671749046;14299.159;109
2024-05-16T23:17:14.123;599616199679441114;14306.852;168
2024-05-16T23:17:14.131;599616199687133182;14314.544;201
2024-05-16T23:17:14.139;599616199694825250;14322.235;175
2024-05-16T23:17:14.146;599616199702517318;14329.928;166
2024-05-16T23:17:14.154;599616199710209386;14337.62;190
2024-05-16T23:17:14.162;599616199717901454;14345.3125;197
2024-05-16T23:17:14.170;599616199725593522;14353.005;187
2024-05-16T23:17:14.177;599616199733285590;14360.696;190
2024-05-16T23:17:14.185;599616199740977658;14368.388;204
2024-05-16T23:17:14.193;599616199748669726;14376.08;204
2024-05-16T23:17:14.200;599616199756361794;14383.772;199
2024-05-16T23:17:14.208;599616199764053862;14391.464;201
2024-05-16T23:17:14.216;599616199771745930;14399.156;197
2024-05-16T23:17:14.223;599616199779437998;14406.849;175
2024-05-16T23:17:14.231;599616199787130066;14414.541;125
2024-05-16T23:17:14.239;599616199794822134;14422.233;49
2024-05-16T23:17:14.246;599616199802514202;14429.925;14
2024-05-16T23:17:14.254;599616199810206270;14437.616;35
2024-05-16T23:17:14.262;599616199817898338;14445.309;38
2024-05-16T23:17:14.270;599616199825590406;14453.001;21
2024-05-16T23:17:14.277;599616199833282474;14460.693;21
2024-05-16T23:17:14.285;599616199840974542;14468.385;9
2024-05-16T23:17:14.293;599616199848666610;14476.077;-47
2024-05-16T23:17:14.300;599616199856358678;14483.77;-135
2024-05-16T23:17:14.308;599616199864050746;14491.462;-192
2024-05-16T23:17:14.316;599616199871742814;14499.153;-187
2024-05-16T23:17:14.323;599616199879434882;14506.845;-209
2024-05-16T23:17:14.331;599616199887126950;14514.537;-294
2024-05-16T23:17:14.339;599616199894819018;14522.2295;-323
2024-05-16T23:17:14.346;599616199902511086;14529.922;-268
2024-05-16T23:17:14.354;599616199910203154;14537.613;-228
2024-05-16T23:17:14.362;599616199917895222;14545.306;-201
2024-05-16T23:17:14.369;599616199925587290;14552.998;-161
2024-05-16T23:17:14.377;599616199933279358;14560.69;-149
2024-05-16T23:17:14.385;599616199940971426;14568.383;-144
2024-05-16T23:17:14.393;599616199948663494;14576.073;-109
2024-05-16T23:17:14.400;599616199956355562;14583.766;-52
2024-05-16T23:17:14.408;599616199964047630;14591.458;-16
2024-05-16T23:17:14.416;599616199971759778;14599.17;-42
2024-05-16T23:17:14.423;599616199979451568;14606.862;-90
2024-05-16T23:17:14.431;599616199987143358;14614.554;-49
2024-05-16T23:17:14.439;599616199994835148;14622.246;218
2024-05-16T23:17:14.446;599616200002526938;14629.9375;731
2024-05-16T23:17:14.454;599616200010218728;14637.63;1140
2024-05-16T23:17:14.462;599616200017910518;14645.32;957
2024-05-16T23:17:14.470;599616200025602308;14653.013;247
2024-05-16T23:17:14.477;599616200033294098;14660.704;-206
2024-05-16T23:17:14.485;599616200040985888;14668.396;-83
2024-05-16T23:17:14.493;599616200048677678;14676.088;33
2024-05-16T23:17:14.500;599616200056369468;14683.78;-64
2024-05-16T23:17:14.508;599616200064061258;14691.472;-52
2024-05-16T23:17:14.516;599616200071753048;14699.164;28
2024-05-16T23:17:14.523;599616200079444838;14706.8545;19
2024-05-16T23:17:14.531;599616200087136628;14714.547;-14
2024-05-16T23:17:14.539;599616200094828418;14722.238;0
2024-05-16T23:17:14.546;599616200102520208;14729.931;40
2024-05-16T23:17:14.554;599616200110211998;14737.623;59
2024-05-16T23:17:14.562;599616200117903788;14745.314;52
2024-05-16T23:17:14.570;599616200125595578;14753.007;47
2024-05-16T23:17:14.577;599616200133287368;14760.698;40
2024-05-16T23:17:14.585;599616200140979158;14768.391;30
2024-05-16T23:17:14.593;599616200148670948;14776.081;54
2024-05-16T23:17:14.600;599616200156362738;14783.773;92
2024-05-16T23:17:14.608;599616200164054528;14791.465;125
2024-05-16T23:17:14.616;599616200171746318;14799.157;152
2024-05-16T23:17:14.623;599616200179438108;14806.849;171
2024-05-16T23:17:14.631;599616200187129898;14814.541;190
2024-05-16T23:17:14.639;599616200194821688;14822.232;218
2024-05-16T23:17:14.646;599616200202513478;14829.925;225
2024-05-16T23:17:14.654;599616200210205268;14837.615;211
2024-05-16T23:17:14.662;599616200217897058;14845.308;220
2024-05-16T23:17:14.669;599616200225588848;14852.999;249
2024-05-16T23:17:14.677;599616200233280638;14860.691;247
2024-05-16T23:17:14.685;599616200240972428;14868.383;216
2024-05-16T23:17:14.693;599616200248664218;14876.075;180
2024-05-16T23:17:14.700;599616200256356008;14883.767;140
2024-05-16T23:17:14.708;599616200264047798;14891.459;85
2024-05-16T23:17:14.716;599616200271739588;14899.149;35
2024-05-16T23:17:14.723;599616200279431378;14906.842;40
2024-05-16T23:17:14.731;599616200287123168;14914.533;59
2024-05-16T23:17:14.739;599616200294814958;14922.226;21
2024-05-16T23:17:14.746;599616200302506748;14929.917;-16
2024-05-16T23:17:14.754;599616200310198538;14937.609;4
2024-05-16T23:17:14.762;599616200317890328;14945.301;35
2024-05-16T23:17:14.769;599616200325582118;14952.993;35
2024-05-16T23:17:14.777;599616200333273908;14960.684;33
2024-05-16T23:17:14.785;599616200340965698;14968.376;45
2024-05-16T23:17:14.793;599616200348657488;14976.067;49
2024-05-16T23:17:14.800;599616200356349278;14983.76;38
2024-05-16T23:17:14.808;599616200364041068;14991.451;-21
2024-05-16T23:17:14.816;599616200371732858;14999.144;-114
2024-05-16T23:17:14.823;599616200379424648;15006.835;-173
2024-05-16T23:17:14.831;599616200387116438;15014.527;-192
2024-05-16T23:17:14.839;599616200394808228;15022.22;-180
2024-05-16T23:17:14.846;599616200402500018;15029.91;-137
2024-05-16T23:17:14.854;599616200410191808;15037.603;-99
2024-05-16T23:17:14.862;599616200417883598;15045.294;-76
2024-05-16T23:17:14.869;599616200425575388;15052.986;-35
2024-05-16T23:17:14.877;599616200433267178;15060.678;0
2024-05-16T23:17:14.885;599616200440958968;15068.37;9
2024-05-16T23:17:14.893;599616200448650758;15076.062;14
2024-05-16T23:17:14.900;599616200456342548;15083.754;38
2024-05-16T23:17:14.908;599616200464034338;15091.444;57
2024-05-16T23:17:14.916;599616200471726128;15099.137;26
2024-05-16T23:17:14.923;599616200479417918;15106.828;59
2024-05-16T23:17:14.931;599616200487109708;15114.5205;392
2024-05-16T23:17:14.939;599616200494801498;15122.212;931
2024-05-16T23:17:14.946;599616200502493288;15129.904;1181
2024-05-16T23:17:14.954;599616200510185078;15137.596;807
2024-05-16T23:17:14.962;599616200517876868;15145.288;192
2024-05-16T23:17:14.969;599616200525568658;15152.979;21
2024-05-16T23:17:14.977;599616200533260460;15160.671;180
2024-05-16T23:17:14.985;599616200540952250;15168.362;156
2024-05-16T23:17:14.993;599616200548644040;15176.055;73
2024-05-16T23:17:15.000;599616200556335830;15183.746;121
2024-05-16T23:17:15.008;599616200564027620;15191.438;114
2024-05-16T23:17:15.016;599616200571719410;15199.13;42
2024-05-16T23:17:15.023;599616200579411200;15206.822;47
2024-05-16T23:17:15.031;599616200587102990;15214.513;68
2024-05-16T23:17:15.039;599616200594794780;15222.205;23
2024-05-16T23:17:15.046;599616200602486570;15229.896;-28
2024-05-16T23:17:15.054;599616200610178360;15237.589;-19
2024-05-16T23:17:15.062;599616200617870150;15245.28;7
2024-05-16T23:17:15.069;599616200625561940;15252.973;-23
2024-05-16T23:17:15.077;599616200633253730;15260.664;-47
2024-05-16T23:17:15.085;599616200640945520;15268.356;4
2024-05-16T23:17:15.093;599616200648637310;15276.047;68
2024-05-16T23:17:15.100;599616200656329100;15283.739;87
2024-05-16T23:17:15.108;599616200664020890;15291.432;97
2024-05-16T23:17:15.116;599616200671712680;15299.123;118
2024-05-16T23:17:15.123;599616200679404470;15306.815;147
2024-05-16T23:17:15.131;599616200687096260;15314.507;166
2024-05-16T23:17:15.139;599616200694788050;15322.199;175
2024-05-16T23:17:15.146;599616200702479840;15329.891;192
2024-05-16T23:17:15.154;599616200710171630;15337.583;180
2024-05-16T23:17:15.162;599616200717863420;15345.273;104
2024-05-16T23:17:15.169;599616200725555210;15352.966;30
2024-05-16T23:17:15.177;599616200733247000;15360.657;11
2024-05-16T23:17:15.185;599616200740938790;15368.35;-2
2024-05-16T23:17:15.193;599616200748630580;15376.041;-52
2024-05-16T23:17:15.200;599616200756322370;15383.733;-76
2024-05-16T23:17:15.208;599616200764014160;15391.425;-64
2024-05-16T23:17:15.216;599616200771705950;15399.117;-64
2024-05-16T23:17:15.223;599616200779397740;15406.808;-68
2024-05-16T23:17:15.231;599616200787089530;15414.5;-61
2024-05-16T23:17:15.239;599616200794781320;15422.191;-35
2024-05-16T23:17:15.246;599616200802473110;15429.884;-23
2024-05-16T23:17:15.254;599616200810164900;15437.575;-47
2024-05-16T23:17:15.262;599616200817856690;15445.268;-42
2024-05-16T23:17:15.269;599616200825548480;15452.959;-7
2024-05-16T23:17:15.277;599616200833240270;15460.651;-7
2024-05-16T23:17:15.285;599616200840932060;15468.342;-11
2024-05-16T23:17:15.293;599616200848623850;15476.034;14
2024-05-16T23:17:15.300;599616200856315640;15483.726;35
2024-05-16T23:17:15.308;599616200864007430;15491.418;45
2024-05-16T23:17:15.316;599616200871699220;15499.109;16
2024-05-16T23:17:15.323;599616200879391010;15506.802;-68
2024-05-16T23:17:15.331;599616200887082800;15514.493;-71
2024-05-16T23:17:15.339;599616200894774590;15522.186;-16
2024-05-16T23:17:15.346;599616200902466380;15529.877;-33
2024-05-16T23:17:15.354;599616200910158170;15537.568;-45
2024-05-16T23:17:15.362;599616200917849960;15545.26;11
2024-05-16T23:17:15.369;599616200925541750;15552.952;49
2024-05-16T23:17:15.377;599616200933233540;15560.644;57
2024-05-16T23:17:15.385;599616200940925330;15568.336;80
2024-05-16T23:17:15.393;599616200948617120;15576.028;85
2024-05-16T23:17:15.400;599616200956308910;15583.72;23
2024-05-16T23:17:15.408;599616200964000700;15591.412;45
2024-05-16T23:17:15.416;599616200971692490;15599.103;373
2024-05-16T23:17:15.423;599616200979384280;15606.795;922
2024-05-16T23:17:15.431;599616200987076070;15614.486;1233
2024-05-16T23:17:15.439;599616200994767860;15622.179;931
2024-05-16T23:17:15.446;599616201002459650;15629.87;280
2024-05-16T23:17:15.454;599616201010151440;15637.5625;0
2024-05-16T23:17:15.462;599616201017843230;15645.254;168
2024-05-16T23:17:15.469;599616201025535020;15652.946;206
2024-05-16T23:17:15.477;599616201033226810;15660.637;66
2024-05-16T23:17:15.485;599616201040918600;15668.329;23
2024-05-16T23:17:15.493;599616201048610390;15676.0205;33
2024-05-16T23:17:15.500;599616201056302180;15683.713;28
2024-05-16T23:17:15.508;599616201063993970;15691.404;47
2024-05-16T23:17:15.516;599616201071685760;15699.097;68
2024-05-16T23:17:15.523;599616201079377550;15706.788;68
2024-05-16T23:17:15.531;599616201087069340;15714.48;68
2024-05-16T23:17:15.539;599616201094761142;15722.172;87
2024-05-16T23:17:15.546;599616201102452932;15729.863;111
2024-05-16T23:17:15.554;599616201110144722;15737.555;109
2024-05-16T23:17:15.562;599616201117836512;15745.247;80
2024-05-16T23:17:15.569;599616201125528302;15752.938;61
2024-05-16T23:17:15.577;599616201133220092;15760.631;21
2024-05-16T23:17:15.585;599616201140911882;15768.322;-49
2024-05-16T23:17:15.593;599616201148603672;15776.015;-42
2024-05-16T23:17:15.600;599616201156295462;15783.706;19
2024-05-16T23:17:15.608;599616201163987252;15791.397;30
2024-05-16T23:17:15.616;599616201171679042;15799.089;23
2024-05-16T23:17:15.623;599616201179370832;15806.781;57
2024-05-16T23:17:15.631;599616201187062622;15814.473;66
2024-05-16T23:17:15.639;599616201194754412;15822.165;11
2024-05-16T23:17:15.646;599616201202446202;15829.856;-40
2024-05-16T23:17:15.654;599616201210137992;15837.549;-57
2024-05-16T23:17:15.662;599616201217829782;15845.241;-102
2024-05-16T23:17:15.669;599616201225521572;15852.932;-163
2024-05-16T23:17:15.677;599616201233213362;15860.624;-163
2024-05-16T23:17:15.685;599616201240905152;15868.315;-130
2024-05-16T23:17:15.693;599616201248596942;15876.008;-111
2024-05-16T23:17:15.700;599616201256288732;15883.699;-95
2024-05-16T23:17:15.708;599616201263980522;15891.392;-83
2024-05-16T23:17:15.716;599616201271672312;15899.083;-87
2024-05-16T23:17:15.723;599616201279364102;15906.775;-83
2024-05-16T23:17:15.731;599616201287055892;15914.466;-71
2024-05-16T23:17:15.739;599616201294747682;15922.158;-54
2024-05-16T23:17:15.746;599616201302439472;15929.85;-14
2024-05-16T23:17:15.754;599616201310131262;15937.542;11
2024-05-16T23:17:15.762;599616201317823052;15945.233;-14
2024-05-16T23:17:15.769;599616201325514842;15952.926;-14
2024-05-16T23:17:15.777;599616201333206632;15960.617;33
2024-05-16T23:17:15.785;599616201340898422;15968.31;52
