Phone timestamp;sensor timestamp [ns];timestamp [ms];ecg [uV]
2024-05-16T23:14:43.701;599616049265209628;0.0;3958
2024-05-16T23:14:43.708;599616049272902323;7.692695;4728
2024-05-16T23:14:43.716;599616049280595018;15.38539;5389
2024-05-16T23:14:43.724;599616049288287713;23.078085;5924
2024-05-16T23:14:43.731;599616049295980408;30.77078;6525
2024-05-16T23:14:43.739;599616049303673103;38.463474;7074
2024-05-16T23:14:43.747;599616049311365798;46.15617;7466
2024-05-16T23:14:43.754;599616049319058493;53.848866;7901
2024-05-16T23:14:43.762;599616049326751188;61.54156;8640
2024-05-16T23:14:43.770;599616049334443883;69.23425;9607
2024-05-16T23:14:43.777;599616049342136578;76.92695;10377
2024-05-16T23:14:43.785;599616049349829273;84.61965;10631
2024-05-16T23:14:43.793;599616049357521968;92.31234;10548
2024-05-16T23:14:43.801;599616049365214663;100.005035;10700
2024-05-16T23:14:43.808;599616049372907358;107.69773;11137
2024-05-16T23:14:43.816;599616049380600053;115.39043;11427
2024-05-16T23:14:43.824;599616049388292748;123.08312;11624
2024-05-16T23:14:43.831;599616049395985443;130.77582;11959
2024-05-16T23:14:43.839;599616049403678138;138.4685;12366
2024-05-16T23:14:43.847;599616049411370833;146.1612;12625
2024-05-16T23:14:43.854;599616049419063528;153.8539;12765
2024-05-16T23:14:43.862;599616049426756223;161.54659;12962
2024-05-16T23:14:43.870;599616049434448918;169.2393;13143
2024-05-16T23:14:43.877;599616049442141613;176.93199;13354
2024-05-16T23:14:43.885;599616049449834308;184.62468;13658
2024-05-16T23:14:43.893;599616049457527003;192.31738;13882
2024-05-16T23:14:43.901;599616049465219698;200.01007;14077
2024-05-16T23:14:43.908;599616049472912393;207.70277;14350
2024-05-16T23:14:43.916;599616049480605088;215.39546;14519
2024-05-16T23:14:43.924;599616049488297783;223.08817;14566
2024-05-16T23:14:43.931;599616049495990478;230.78085;14678
2024-05-16T23:14:43.939;599616049503683173;238.47356;14885
2024-05-16T23:14:43.947;599616049511375868;246.16624;15080
2024-05-16T23:14:43.954;599616049519068563;253.85893;15127
2024-05-16T23:14:43.962;599616049526761258;261.55164;15101
2024-05-16T23:14:43.970;599616049534453953;269.24432;15224
2024-05-16T23:14:43.977;599616049542146648;276.937;15386
2024-05-16T23:14:43.985;599616049549839343;284.62973;15403
2024-05-16T23:14:43.993;599616049557532038;292.3224;15479
2024-05-16T23:14:44.001;599616049565224733;300.0151;15650
2024-05-16T23:14:44.008;599616049572917428;307.7078;15657
2024-05-16T23:14:44.016;599616049580610123;315.40048;15564
2024-05-16T23:14:44.024;599616049588302818;323.09317;15614
2024-05-16T23:14:44.031;599616049595995513;330.7859;15766
2024-05-16T23:14:44.039;599616049603688208;338.4786;15921
2024-05-16T23:14:44.047;599616049611380903;346.17126;15952
2024-05-16T23:14:44.054;599616049619073598;353.86398;15795
2024-05-16T23:14:44.062;599616049626766293;361.55667;15723
2024-05-16T23:14:44.070;599616049634458988;369.24936;15762
2024-05-16T23:14:44.077;599616049642151683;376.94205;15704
2024-05-16T23:14:44.085;599616049649844378;384.63477;15807
2024-05-16T23:14:44.093;599616049657537073;392.32745;15949
2024-05-16T23:14:44.101;599616049665229768;400.02014;15655
2024-05-16T23:14:44.108;599616049672922463;407.71283;15346
2024-05-16T23:14:44.116;599616049680615158;415.40555;15422
2024-05-16T23:14:44.124;599616049688307853;423.09824;15498
2024-05-16T23:14:44.131;599616049696000548;430.79092;15415
2024-05-16T23:14:44.139;599616049703693243;438.4836;15301
2024-05-16T23:14:44.147;599616049711385938;446.17633;15163
2024-05-16T23:14:44.154;599616049719078633;453.869;15070
2024-05-16T23:14:44.162;599616049726771328;461.5617;15151
2024-05-16T23:14:44.170;599616049734464023;469.2544;15507
2024-05-16T23:14:44.177;599616049742156718;476.9471;16004
2024-05-16T23:14:44.185;599616049749849413;484.63977;16002
2024-05-16T23:14:44.193;599616049757542108;492.3325;15234
2024-05-16T23:14:44.201;599616049765234803;500.02518;14642
2024-05-16T23:14:44.208;599616049772927498;507.71786;14742
2024-05-16T23:14:44.216;599616049780620193;515.4106;14773
2024-05-16T23:14:44.224;599616049788312888;523.1033;14542
2024-05-16T23:14:44.231;599616049796005583;530.79596;14390
2024-05-16T23:14:44.239;599616049803698278;538.48865;14226
2024-05-16T23:14:44.247;599616049811390973;546.1814;14065
2024-05-16T23:14:44.254;599616049819083668;553.874;13944
2024-05-16T23:14:44.262;599616049826791480;561.58185;13825
2024-05-16T23:14:44.270;599616049834483966;569.27435;13811
2024-05-16T23:14:44.277;599616049842176452;576.96686;13763
2024-05-16T23:14:44.285;599616049849868938;584.6593;13537
2024-05-16T23:14:44.293;599616049857561424;592.3518;13395
2024-05-16T23:14:44.301;599616049865253910;600.0443;13533
2024-05-16T23:14:44.308;599616049872946396;607.73676;13578
2024-05-16T23:14:44.316;599616049880638882;615.42926;13247
2024-05-16T23:14:44.324;599616049888331368;623.1217;12934
2024-05-16T23:14:44.331;599616049896023854;630.8142;12903
2024-05-16T23:14:44.339;599616049903716340;638.5067;12801
2024-05-16T23:14:44.347;599616049911408826;646.19916;12473
2024-05-16T23:14:44.354;599616049919101312;653.8917;12294
2024-05-16T23:14:44.362;599616049926793798;661.58417;12404
2024-05-16T23:14:44.370;599616049934486284;669.2767;12304
2024-05-16T23:14:44.377;599616049942178770;676.9692;11852
2024-05-16T23:14:44.385;599616049949871256;684.6616;11648
2024-05-16T23:14:44.393;599616049957563742;692.3541;11719
2024-05-16T23:14:44.401;599616049965256228;700.0466;11601
2024-05-16T23:14:44.408;599616049972948714;707.7391;11411
2024-05-16T23:14:44.416;599616049980641200;715.4316;11358
2024-05-16T23:14:44.424;599616049988333686;723.124;11287
2024-05-16T23:14:44.431;599616049996026172;730.8165;11163
2024-05-16T23:14:44.439;599616050003718658;738.50903;11028
2024-05-16T23:14:44.447;599616050011411144;746.20154;10852
2024-05-16T23:14:44.454;599616050019103630;753.89404;10767
2024-05-16T23:14:44.462;599616050026796116;761.5865;10676
2024-05-16T23:14:44.470;599616050034488602;769.279;10436
2024-05-16T23:14:44.477;599616050042181088;776.97144;10282
2024-05-16T23:14:44.485;599616050049873574;784.66394;10260
2024-05-16T23:14:44.493;599616050057566060;792.35645;10120
2024-05-16T23:14:44.501;599616050065258546;800.0489;9937
2024-05-16T23:14:44.508;599616050072951032;807.7414;9873
2024-05-16T23:14:44.516;599616050080643518;815.4339;9776
2024-05-16T23:14:44.524;599616050088336004;823.1264;9583
2024-05-16T23:14:44.531;599616050096028490;830.8189;9438
2024-05-16T23:14:44.539;599616050103720976;838.51135;9379
2024-05-16T23:14:44.547;599616050111413462;846.20386;9269
2024-05-16T23:14:44.554;599616050119105948;853.8963;9027
2024-05-16T23:14:44.562;599616050126798434;861.5888;8956
2024-05-16T23:14:44.570;599616050134490920;869.28125;9350
2024-05-16T23:14:44.577;599616050142183406;876.97375;9880
2024-05-16T23:14:44.585;599616050149875892;884.66626;9828
2024-05-16T23:14:44.593;599616050157568378;892.3587;9044
2024-05-16T23:14:44.601;599616050165260864;900.0513;8300
2024-05-16T23:14:44.608;599616050172953350;907.7438;8143
2024-05-16T23:14:44.616;599616050180645836;915.4362;8110
2024-05-16T23:14:44.624;599616050188338322;923.1287;7834
2024-05-16T23:14:44.631;599616050196030808;930.82117;7649
2024-05-16T23:14:44.639;599616050203723294;938.5137;7618
2024-05-16T23:14:44.647;599616050211415780;946.2061;7478
2024-05-16T23:14:44.654;599616050219108266;953.8986;7311
2024-05-16T23:14:44.662;599616050226800752;961.5911;7264
2024-05-16T23:14:44.670;599616050234493238;969.28357;7195
2024-05-16T23:14:44.677;599616050242185724;976.97614;7071
2024-05-16T23:14:44.685;599616050249878210;984.6686;7021
2024-05-16T23:14:44.693;599616050257570696;992.3611;6983
2024-05-16T23:14:44.701;599616050265263182;1000.0536;6836
2024-05-16T23:14:44.708;599616050272955668;1007.74603;6698
2024-05-16T23:14:44.716;599616050280648154;1015.43854;6653
2024-05-16T23:14:44.724;599616050288340640;1023.131;6608
2024-05-16T23:14:44.731;599616050296033126;1030.8235;6506
2024-05-16T23:14:44.739;599616050303725612;1038.516;6373
2024-05-16T23:14:44.747;599616050311418098;1046.2085;6249
2024-05-16T23:14:44.754;599616050319110584;1053.9009;6154
2024-05-16T23:14:44.762;599616050326803070;1061.5935;6045
2024-05-16T23:14:44.770;599616050334495556;1069.286;5933
2024-05-16T23:14:44.777;599616050342188042;1076.9784;5886
2024-05-16T23:14:44.785;599616050349880528;1084.6709;5819
2024-05-16T23:14:44.793;599616050357573014;1092.3634;5672
2024-05-16T23:14:44.801;599616050365265500;1100.0558;5589
2024-05-16T23:14:44.808;599616050372957986;1107.7483;5608
2024-05-16T23:14:44.816;599616050380650472;1115.4409;5482
2024-05-16T23:14:44.824;599616050388332946;1123.1233;5230
2024-05-16T23:14:44.831;599616050396025572;1130.816;5071
2024-05-16T23:14:44.839;599616050403718198;1138.5085;4928
2024-05-16T23:14:44.847;599616050411410824;1146.2012;4771
2024-05-16T23:14:44.854;599616050419103450;1153.8938;4709
2024-05-16T23:14:44.862;599616050426796076;1161.5864;4690
2024-05-16T23:14:44.870;599616050434488702;1169.279;4678
2024-05-16T23:14:44.877;599616050442181328;1176.9717;4588
2024-05-16T23:14:44.885;599616050449873954;1184.6643;4372
2024-05-16T23:14:44.893;599616050457566580;1192.3569;4267
2024-05-16T23:14:44.901;599616050465259206;1200.0496;4308
2024-05-16T23:14:44.908;599616050472951832;1207.7422;4270
2024-05-16T23:14:44.916;599616050480644458;1215.4349;4177
2024-05-16T23:14:44.924;599616050488337084;1223.1274;4141
2024-05-16T23:14:44.931;599616050496029710;1230.8201;4111
2024-05-16T23:14:44.939;599616050503722336;1238.5128;4042
2024-05-16T23:14:44.947;599616050511414962;1246.2053;3928
2024-05-16T23:14:44.954;599616050519107588;1253.898;3823
2024-05-16T23:14:44.962;599616050526800214;1261.5906;3932
2024-05-16T23:14:44.970;599616050534492840;1269.2832;4341
2024-05-16T23:14:44.977;599616050542185466;1276.9758;4793
2024-05-16T23:14:44.985;599616050549878092;1284.6685;4854
2024-05-16T23:14:44.993;599616050557570718;1292.3611;4270
2024-05-16T23:14:45.001;599616050565263344;1300.0537;3538
2024-05-16T23:14:45.008;599616050572955970;1307.7463;3369
2024-05-16T23:14:45.016;599616050580648596;1315.439;3429
2024-05-16T23:14:45.024;599616050588341222;1323.1316;3253
2024-05-16T23:14:45.031;599616050596033848;1330.8242;3134
2024-05-16T23:14:45.039;599616050603726474;1338.5168;3162
2024-05-16T23:14:45.047;599616050611419100;1346.2096;3150
2024-05-16T23:14:45.054;599616050619111726;1353.9021;3112
2024-05-16T23:14:45.062;599616050626804352;1361.5947;3070
2024-05-16T23:14:45.070;599616050634496978;1369.2874;3020
2024-05-16T23:14:45.077;599616050642189604;1376.98;2982
2024-05-16T23:14:45.085;599616050649882230;1384.6726;2915
2024-05-16T23:14:45.093;599616050657574856;1392.3652;2865
2024-05-16T23:14:45.101;599616050665267482;1400.0579;2875
2024-05-16T23:14:45.108;599616050672960108;1407.7505;2875
2024-05-16T23:14:45.116;599616050680652734;1415.4431;2834
2024-05-16T23:14:45.124;599616050688345360;1423.1357;2792
2024-05-16T23:14:45.131;599616050696037986;1430.8284;2780
2024-05-16T23:14:45.139;599616050703730612;1438.521;2789
2024-05-16T23:14:45.147;599616050711423238;1446.2136;2766
2024-05-16T23:14:45.154;599616050719115864;1453.9061;2692
2024-05-16T23:14:45.162;599616050726808490;1461.5989;2642
2024-05-16T23:14:45.170;599616050734501116;1469.2915;2647
2024-05-16T23:14:45.177;599616050742193742;1476.984;2642
2024-05-16T23:14:45.185;599616050749886368;1484.6768;2616
2024-05-16T23:14:45.193;599616050757578994;1492.3694;2611
2024-05-16T23:14:45.201;599616050765271620;1500.062;2590
2024-05-16T23:14:45.208;599616050772964246;1507.7546;2540
2024-05-16T23:14:45.216;599616050780656872;1515.4473;2516
2024-05-16T23:14:45.224;599616050788349498;1523.1399;2490
2024-05-16T23:14:45.231;599616050796042124;1530.8325;2421
2024-05-16T23:14:45.239;599616050803734750;1538.5251;2347
2024-05-16T23:14:45.247;599616050811427376;1546.2178;2281
2024-05-16T23:14:45.254;599616050819120002;1553.9104;2226
2024-05-16T23:14:45.262;599616050826812628;1561.6029;2228
2024-05-16T23:14:45.270;599616050834505254;1569.2957;2226
2024-05-16T23:14:45.277;599616050842197880;1576.9883;2188
2024-05-16T23:14:45.285;599616050849890506;1584.6808;2188
2024-05-16T23:14:45.293;599616050857583132;1592.3735;2181
2024-05-16T23:14:45.301;599616050865275758;1600.0662;2124
2024-05-16T23:14:45.308;599616050872968384;1607.7587;2098
2024-05-16T23:14:45.316;599616050880661010;1615.4514;2107
2024-05-16T23:14:45.324;599616050888353636;1623.144;2012
2024-05-16T23:14:45.331;599616050896046262;1630.8365;1848
2024-05-16T23:14:45.339;599616050903738888;1638.5293;1796
2024-05-16T23:14:45.347;599616050911431514;1646.2218;1767
2024-05-16T23:14:45.354;599616050919124140;1653.9146;1668
2024-05-16T23:14:45.362;599616050926816766;1661.6072;1732
2024-05-16T23:14:45.370;599616050934509392;1669.2997;2171
2024-05-16T23:14:45.377;599616050942202018;1676.9924;2732
2024-05-16T23:14:45.385;599616050949899704;1684.6901;2834
2024-05-16T23:14:45.393;599616050957592260;1692.3826;2271
2024-05-16T23:14:45.401;599616050965284816;1700.0752;1625
2024-05-16T23:14:45.408;599616050972977372;1707.7678;1475
2024-05-16T23:14:45.416;599616050980669928;1715.4603;1532
2024-05-16T23:14:45.424;599616050988362484;1723.153;1437
2024-05-16T23:14:45.431;599616050996055040;1730.8455;1371
2024-05-16T23:14:45.439;599616051003747596;1738.538;1392
2024-05-16T23:14:45.447;599616051011440152;1746.2305;1337
2024-05-16T23:14:45.454;599616051019132708;1753.9231;1238
2024-05-16T23:14:45.462;599616051026825264;1761.6156;1235
2024-05-16T23:14:45.470;599616051034517820;1769.3081;1278
2024-05-16T23:14:45.478;599616051042210376;1777.0007;1268
2024-05-16T23:14:45.485;599616051049902932;1784.6932;1254
2024-05-16T23:14:45.493;599616051057595488;1792.3859;1297
2024-05-16T23:14:45.501;599616051065288044;1800.0785;1349
2024-05-16T23:14:45.508;599616051072980600;1807.771;1356
2024-05-16T23:14:45.516;599616051080673156;1815.4635;1344
2024-05-16T23:14:45.524;599616051088365712;1823.1561;1347
2024-05-16T23:14:45.531;599616051096058268;1830.8486;1347
2024-05-16T23:14:45.539;599616051103750824;1838.5411;1333
2024-05-16T23:14:45.547;599616051111443380;1846.2338;1335
2024-05-16T23:14:45.554;599616051119135936;1853.9263;1359
2024-05-16T23:14:45.562;599616051126828492;1861.6188;1361
2024-05-16T23:14:45.570;599616051134521048;1869.3114;1309
2024-05-16T23:14:45.578;599616051142213604;1877.004;1257
2024-05-16T23:14:45.585;599616051149906160;1884.6965;1276
2024-05-16T23:14:45.593;599616051157598716;1892.3892;1309
2024-05-16T23:14:45.601;599616051165291272;1900.0817;1292
2024-05-16T23:14:45.608;599616051172983828;1907.7742;1280
2024-05-16T23:14:45.616;599616051180676384;1915.4668;1278
2024-05-16T23:14:45.624;599616051188368940;1923.1593;1209
2024-05-16T23:14:45.631;599616051196061496;1930.8518;1126
2024-05-16T23:14:45.639;599616051203754052;1938.5444;1116
2024-05-16T23:14:45.647;599616051211446608;1946.2369;1135
2024-05-16T23:14:45.654;599616051219139164;1953.9294;1112
2024-05-16T23:14:45.662;599616051226831720;1961.6222;1069
2024-05-16T23:14:45.670;599616051234524276;1969.3147;1062
2024-05-16T23:14:45.678;599616051242216832;1977.0072;1081
2024-05-16T23:14:45.685;599616051249909388;1984.6998;1090
2024-05-16T23:14:45.693;599616051257601944;1992.3923;1090
2024-05-16T23:14:45.701;599616051265294500;2000.0848;1093
2024-05-16T23:14:45.708;599616051272987056;2007.7775;1088
2024-05-16T23:14:45.716;599616051280679612;2015.47;1062
2024-05-16T23:14:45.724;599616051288372168;2023.1625;1047
2024-05-16T23:14:45.731;599616051296064724;2030.855;1074
2024-05-16T23:14:45.739;599616051303757280;2038.5477;1095
2024-05-16T23:14:45.747;599616051311449836;2046.2402;1040
2024-05-16T23:14:45.754;599616051319142392;2053.9329;917
2024-05-16T23:14:45.762;599616051326834948;2061.6252;917
2024-05-16T23:14:45.770;599616051334527504;2069.3179;1240
2024-05-16T23:14:45.778;599616051342220060;2077.0105;1734
2024-05-16T23:14:45.785;599616051349912616;2084.703;1955
2024-05-16T23:14:45.793;599616051357605172;2092.3955;1611
2024-05-16T23:14:45.801;599616051365297728;2100.0881;969
2024-05-16T23:14:45.808;599616051372990284;2107.7805;639
2024-05-16T23:14:45.816;599616051380682840;2115.4731;653
2024-05-16T23:14:45.824;599616051388375396;2123.1658;537
2024-05-16T23:14:45.831;599616051396067952;2130.8584;335
2024-05-16T23:14:45.839;599616051403760508;2138.551;308
2024-05-16T23:14:45.847;599616051411453064;2146.2434;337
2024-05-16T23:14:45.854;599616051419145620;2153.9358;339
2024-05-16T23:14:45.862;599616051426838176;2161.6287;375
2024-05-16T23:14:45.870;599616051434530732;2169.3213;413
2024-05-16T23:14:45.878;599616051442223288;2177.0137;449
2024-05-16T23:14:45.885;599616051449915844;2184.7063;501
2024-05-16T23:14:45.893;599616051457608400;2192.399;513
2024-05-16T23:14:45.901;599616051465300956;2200.0913;520
2024-05-16T23:14:45.908;599616051472993512;2207.784;577
2024-05-16T23:14:45.916;599616051480686068;2215.4766;613
2024-05-16T23:14:45.924;599616051488378624;2223.169;617
2024-05-16T23:14:45.931;599616051496071180;2230.8616;639
2024-05-16T23:14:45.939;599616051503763736;2238.5542;641
2024-05-16T23:14:45.947;599616051511446326;2246.2366;627
2024-05-16T23:14:45.954;599616051519139021;2253.9294;627
2024-05-16T23:14:45.962;599616051526831716;2261.622;622
2024-05-16T23:14:45.970;599616051534524411;2269.3147;636
2024-05-16T23:14:45.978;599616051542217106;2277.0073;660
2024-05-16T23:14:45.985;599616051549909801;2284.7002;596
2024-05-16T23:14:45.993;599616051557602496;2292.393;472
2024-05-16T23:14:46.001;599616051565295191;2300.0854;456
2024-05-16T23:14:46.008;599616051572987886;2307.7783;513
2024-05-16T23:14:46.016;599616051580680581;2315.471;487
2024-05-16T23:14:46.024;599616051588373276;2323.1636;411
2024-05-16T23:14:46.031;599616051596065971;2330.8564;389
2024-05-16T23:14:46.039;599616051603758666;2338.549;401
2024-05-16T23:14:46.047;599616051611451361;2346.2417;382
2024-05-16T23:14:46.054;599616051619144056;2353.9343;349
2024-05-16T23:14:46.062;599616051626836751;2361.6272;318
2024-05-16T23:14:46.070;599616051634529446;2369.3198;289
2024-05-16T23:14:46.078;599616051642222141;2377.0125;268
2024-05-16T23:14:46.085;599616051649914836;2384.7053;273
2024-05-16T23:14:46.093;599616051657607531;2392.3977;318
2024-05-16T23:14:46.101;599616051665300226;2400.0906;363
2024-05-16T23:14:46.108;599616051672992921;2407.7832;361
2024-05-16T23:14:46.116;599616051680685616;2415.476;346
2024-05-16T23:14:46.124;599616051688378311;2423.1687;370
2024-05-16T23:14:46.131;599616051696071006;2430.8613;394
2024-05-16T23:14:46.139;599616051703763701;2438.5542;399
2024-05-16T23:14:46.147;599616051711456396;2446.2466;396
2024-05-16T23:14:46.154;599616051719149091;2453.9395;354
2024-05-16T23:14:46.162;599616051726841786;2461.6323;301
2024-05-16T23:14:46.170;599616051734534481;2469.3247;430
2024-05-16T23:14:46.178;599616051742227176;2477.0176;855
2024-05-16T23:14:46.185;599616051749919871;2484.7102;1276
2024-05-16T23:14:46.193;599616051757612566;2492.4028;1185
2024-05-16T23:14:46.201;599616051765305261;2500.0957;572
2024-05-16T23:14:46.208;599616051772997956;2507.7883;92
2024-05-16T23:14:46.216;599616051780690651;2515.4812;114
2024-05-16T23:14:46.224;599616051788383346;2523.1736;197
2024-05-16T23:14:46.231;599616051796076041;2530.8665;99
2024-05-16T23:14:46.239;599616051803768736;2538.5593;87
2024-05-16T23:14:46.247;599616051811461431;2546.2517;163
2024-05-16T23:14:46.254;599616051819154126;2553.9446;161
2024-05-16T23:14:46.262;599616051826846821;2561.6372;130
2024-05-16T23:14:46.270;599616051834539516;2569.3298;168
2024-05-16T23:14:46.278;599616051842232211;2577.0225;220
2024-05-16T23:14:46.285;599616051849924906;2584.7153;247
2024-05-16T23:14:46.293;599616051857617601;2592.408;278
2024-05-16T23:14:46.301;599616051865310296;2600.1006;308
2024-05-16T23:14:46.308;599616051873002991;2607.7935;282
2024-05-16T23:14:46.316;599616051880695686;2615.4858;232
2024-05-16T23:14:46.324;599616051888388381;2623.1787;240
2024-05-16T23:14:46.331;599616051896081076;2630.8716;209
2024-05-16T23:14:46.339;599616051903773771;2638.5642;99
2024-05-16T23:14:46.347;599616051911466466;2646.2568;57
2024-05-16T23:14:46.354;599616051919159161;2653.9495;78
2024-05-16T23:14:46.362;599616051926851856;2661.6423;83
2024-05-16T23:14:46.370;599616051934544551;2669.335;92
2024-05-16T23:14:46.378;599616051942237246;2677.0276;111
2024-05-16T23:14:46.385;599616051949929941;2684.7205;144
2024-05-16T23:14:46.393;599616051957622636;2692.4128;194
2024-05-16T23:14:46.401;599616051965315331;2700.1057;211
2024-05-16T23:14:46.408;599616051973008026;2707.7983;185
2024-05-16T23:14:46.416;599616051980700721;2715.491;154
2024-05-16T23:14:46.424;599616051988393416;2723.1838;149
2024-05-16T23:14:46.431;599616051996086111;2730.8765;156
2024-05-16T23:14:46.439;599616052003778806;2738.5693;140
2024-05-16T23:14:46.447;599616052011471501;2746.2617;121
2024-05-16T23:14:46.454;599616052019164196;2753.9546;130
2024-05-16T23:14:46.462;599616052026856891;2761.6475;128
2024-05-16T23:14:46.470;599616052034549586;2769.3398;114
2024-05-16T23:14:46.478;599616052042242281;2777.0327;140
2024-05-16T23:14:46.485;599616052049934976;2784.7253;182
2024-05-16T23:14:46.493;599616052057627671;2792.418;175
2024-05-16T23:14:46.501;599616052065320366;2800.1108;147
2024-05-16T23:14:46.508;599616052073043226;2807.8335;161
2024-05-16T23:14:46.516;599616052080735503;2815.526;209
2024-05-16T23:14:46.524;599616052088427780;2823.2183;220
2024-05-16T23:14:46.531;599616052096120057;2830.9104;204
2024-05-16T23:14:46.539;599616052103812334;2838.6028;230
2024-05-16T23:14:46.547;599616052111504611;2846.295;244
2024-05-16T23:14:46.554;599616052119196888;2853.9873;118
2024-05-16T23:14:46.562;599616052126889165;2861.6797;-61
2024-05-16T23:14:46.570;599616052134581442;2869.3718;7
2024-05-16T23:14:46.578;599616052142273719;2877.0642;411
2024-05-16T23:14:46.585;599616052149965996;2884.7566;886
2024-05-16T23:14:46.593;599616052157658273;2892.4487;1000
2024-05-16T23:14:46.601;599616052165350550;2900.1409;496
2024-05-16T23:14:46.608;599616052173042827;2907.833;-159
2024-05-16T23:14:46.616;599616052180735104;2915.5254;-282
2024-05-16T23:14:46.624;599616052188427381;2923.2178;-114
2024-05-16T23:14:46.631;599616052196119658;2930.91;-154
2024-05-16T23:14:46.639;599616052203811935;2938.6023;-223
2024-05-16T23:14:46.647;599616052211504212;2946.2944;-147
2024-05-16T23:14:46.654;599616052219196489;2953.9868;-87
2024-05-16T23:14:46.662;599616052226888766;2961.6792;-76
2024-05-16T23:14:46.670;599616052234581043;2969.3713;-54
2024-05-16T23:14:46.678;599616052242273320;2977.0637;-47
2024-05-16T23:14:46.685;599616052249965597;2984.7559;-26
2024-05-16T23:14:46.693;599616052257657874;2992.4482;52
2024-05-16T23:14:46.701;599616052265350151;3000.1406;128
2024-05-16T23:14:46.708;599616052273042428;3007.8328;154
2024-05-16T23:14:46.716;599616052280734705;3015.5251;175
2024-05-16T23:14:46.724;599616052288426982;3023.2175;220
2024-05-16T23:14:46.731;599616052296119259;3030.9097;256
2024-05-16T23:14:46.739;599616052303811536;3038.602;251
2024-05-16T23:14:46.747;599616052311503813;3046.2942;249
2024-05-16T23:14:46.754;599616052319196090;3053.9866;275
2024-05-16T23:14:46.762;599616052326888367;3061.679;270
2024-05-16T23:14:46.770;599616052334580644;3069.371;220
2024-05-16T23:14:46.778;599616052342272921;3077.0632;204
2024-05-16T23:14:46.785;599616052349965198;3084.7554;254
2024-05-16T23:14:46.793;599616052357657475;3092.4478;292
2024-05-16T23:14:46.801;599616052365349752;3100.1401;256
2024-05-16T23:14:46.808;599616052373042029;3107.8323;204
2024-05-16T23:14:46.816;599616052380734306;3115.5247;171
2024-05-16T23:14:46.824;599616052388426583;3123.2168;125
2024-05-16T23:14:46.831;599616052396118860;3130.9092;66
2024-05-16T23:14:46.839;599616052403811137;3138.6016;-19
2024-05-16T23:14:46.847;599616052411503414;3146.2937;-104
2024-05-16T23:14:46.854;599616052419195691;3153.986;-121
2024-05-16T23:14:46.862;599616052426887968;3161.6782;-125
2024-05-16T23:14:46.870;599616052434580245;3169.3706;-125
2024-05-16T23:14:46.878;599616052442272522;3177.063;-68
2024-05-16T23:14:46.885;599616052449964799;3184.7551;-38
2024-05-16T23:14:46.893;599616052457657076;3192.4475;-40
2024-05-16T23:14:46.901;599616052465349353;3200.14;7
2024-05-16T23:14:46.908;599616052473041630;3207.832;47
2024-05-16T23:14:46.916;599616052480733907;3215.5244;33
2024-05-16T23:14:46.924;599616052488426184;3223.2166;45
2024-05-16T23:14:46.931;599616052496118461;3230.909;109
2024-05-16T23:14:46.939;599616052503810738;3238.6013;159
2024-05-16T23:14:46.947;599616052511503015;3246.2935;149
2024-05-16T23:14:46.954;599616052519195292;3253.9858;104
2024-05-16T23:14:46.962;599616052526887569;3261.6777;54
2024-05-16T23:14:46.970;599616052534579846;3269.37;54
2024-05-16T23:14:46.978;599616052542272123;3277.0625;270
2024-05-16T23:14:46.985;599616052549964400;3284.7546;769
2024-05-16T23:14:46.993;599616052557656677;3292.447;1190
2024-05-16T23:14:47.001;599616052565348954;3300.1392;976
2024-05-16T23:14:47.008;599616052573041231;3307.8315;216
2024-05-16T23:14:47.016;599616052580733508;3315.524;-235
2024-05-16T23:14:47.024;599616052588425785;3323.216;-97
2024-05-16T23:14:47.031;599616052596118062;3330.9084;11
2024-05-16T23:14:47.039;599616052603810339;3338.6006;-114
2024-05-16T23:14:47.047;599616052611502616;3346.293;-185
2024-05-16T23:14:47.054;599616052619194893;3353.9854;-173
2024-05-16T23:14:47.062;599616052626887170;3361.6775;-163
2024-05-16T23:14:47.070;599616052634549418;3369.3398;-152
2024-05-16T23:14:47.078;599616052642242113;3377.0325;-123
2024-05-16T23:14:47.085;599616052649934808;3384.7253;-92
2024-05-16T23:14:47.093;599616052657627503;3392.4177;-114
2024-05-16T23:14:47.101;599616052665320198;3400.1106;-178
2024-05-16T23:14:47.108;599616052673012893;3407.8035;-173
2024-05-16T23:14:47.116;599616052680705588;3415.4958;-87
2024-05-16T23:14:47.124;599616052688398283;3423.1887;-38
2024-05-16T23:14:47.131;599616052696090978;3430.8813;-42
2024-05-16T23:14:47.139;599616052703783673;3438.574;-49
2024-05-16T23:14:47.147;599616052711476368;3446.2666;-28
2024-05-16T23:14:47.154;599616052719169063;3453.9595;0
2024-05-16T23:14:47.162;599616052726861758;3461.6523;21
2024-05-16T23:14:47.170;599616052734554453;3469.3447;47
2024-05-16T23:14:47.178;599616052742247148;3477.0376;80
2024-05-16T23:14:47.185;599616052749939843;3484.7302;87
2024-05-16T23:14:47.193;599616052757632538;3492.4229;85
2024-05-16T23:14:47.201;599616052765325233;3500.1157;118
2024-05-16T23:14:47.208;599616052773017928;3507.8083;166
2024-05-16T23:14:47.216;599616052780710623;3515.501;171
2024-05-16T23:14:47.224;599616052788403318;3523.1936;128
2024-05-16T23:14:47.231;599616052796096013;3530.8865;106
2024-05-16T23:14:47.239;599616052803788708;3538.579;116
2024-05-16T23:14:47.247;599616052811481403;3546.2717;111
2024-05-16T23:14:47.254;599616052819174098;3553.9646;104
2024-05-16T23:14:47.262;599616052826866793;3561.657;123
2024-05-16T23:14:47.270;599616052834559488;3569.3499;133
2024-05-16T23:14:47.278;599616052842252183;3577.0425;130
2024-05-16T23:14:47.285;599616052849944878;3584.7354;128
2024-05-16T23:14:47.293;599616052857637573;3592.428;83
2024-05-16T23:14:47.301;599616052865330268;3600.1206;33
2024-05-16T23:14:47.308;599616052873022963;3607.8135;54
2024-05-16T23:14:47.316;599616052880715658;3615.5059;97
2024-05-16T23:14:47.324;599616052888408353;3623.1987;111
2024-05-16T23:14:47.331;599616052896101048;3630.8916;114
2024-05-16T23:14:47.339;599616052903793743;3638.584;59
2024-05-16T23:14:47.347;599616052911486438;3646.2769;-4
2024-05-16T23:14:47.354;599616052919179133;3653.9695;40
2024-05-16T23:14:47.362;599616052926871828;3661.662;59
2024-05-16T23:14:47.370;599616052934564523;3669.355;-78
2024-05-16T23:14:47.378;599616052942257218;3677.0476;-83
2024-05-16T23:14:47.385;599616052949949913;3684.7402;325
2024-05-16T23:14:47.393;599616052957642608;3692.4329;905
2024-05-16T23:14:47.401;599616052965335303;3700.1257;1107
2024-05-16T23:14:47.408;599616052973027998;3707.8186;670
2024-05-16T23:14:47.416;599616052980720693;3715.511;-2
2024-05-16T23:14:47.424;599616052988413388;3723.2039;-261
2024-05-16T23:14:47.431;599616052996106083;3730.8965;-168
2024-05-16T23:14:47.439;599616053003798778;3738.589;-161
2024-05-16T23:14:47.447;599616053011491473;3746.2817;-180
2024-05-16T23:14:47.454;599616053019184168;3753.9746;-123
2024-05-16T23:14:47.462;599616053026876863;3761.6672;-109
2024-05-16T23:14:47.470;599616053034569558;3769.3599;-109
2024-05-16T23:14:47.478;599616053042262253;3777.0527;-64
2024-05-16T23:14:47.485;599616053049954948;3784.745;-23
2024-05-16T23:14:47.493;599616053057647643;3792.438;7
2024-05-16T23:14:47.501;599616053065340338;3800.1309;35
2024-05-16T23:14:47.508;599616053073033033;3807.8232;64
2024-05-16T23:14:47.516;599616053080725728;3815.516;99
2024-05-16T23:14:47.524;599616053088418423;3823.2087;121
2024-05-16T23:14:47.531;599616053096111118;3830.9016;118
2024-05-16T23:14:47.539;599616053103803813;3838.5942;102
2024-05-16T23:14:47.547;599616053111496508;3846.2869;59
2024-05-16T23:14:47.554;599616053119189203;3853.9797;40
2024-05-16T23:14:47.562;599616053126881898;3861.672;68
2024-05-16T23:14:47.570;599616053134574593;3869.365;95
2024-05-16T23:14:47.578;599616053142267288;3877.0576;114
2024-05-16T23:14:47.585;599616053149959983;3884.7502;149
2024-05-16T23:14:47.593;599616053157652678;3892.443;180
2024-05-16T23:14:47.601;599616053165345373;3900.1357;187
2024-05-16T23:14:47.608;599616053173038068;3907.8284;197
2024-05-16T23:14:47.616;599616053180730763;3915.521;216
2024-05-16T23:14:47.624;599616053188423458;3923.2139;218
2024-05-16T23:14:47.631;599616053196131270;3930.9216;185
2024-05-16T23:14:47.639;599616053203823756;3938.614;149
2024-05-16T23:14:47.647;599616053211516242;3946.3066;144
2024-05-16T23:14:47.654;599616053219208728;3953.999;163
2024-05-16T23:14:47.662;599616053226901214;3961.6917;171
2024-05-16T23:14:47.670;599616053234593700;3969.3843;149
2024-05-16T23:14:47.678;599616053242286186;3977.0764;161
2024-05-16T23:14:47.685;599616053249978672;3984.769;201
2024-05-16T23:14:47.693;599616053257671158;3992.4617;156
2024-05-16T23:14:47.701;599616053265363644;4000.154;52
2024-05-16T23:14:47.708;599616053273056130;4007.8464;54
2024-05-16T23:14:47.716;599616053280748616;4015.539;121
2024-05-16T23:14:47.724;599616053288441102;4023.2314;92
2024-05-16T23:14:47.731;599616053296133588;4030.924;-2
2024-05-16T23:14:47.739;599616053303826074;4038.6162;-23
2024-05-16T23:14:47.747;599616053311518560;4046.3088;16
2024-05-16T23:14:47.755;599616053319211046;4054.0015;49
2024-05-16T23:14:47.762;599616053326903532;4061.6938;61
2024-05-16T23:14:47.770;599616053334596018;4069.3865;45
2024-05-16T23:14:47.778;599616053342288504;4077.0789;-19
2024-05-16T23:14:47.785;599616053349980990;4084.7712;-11
2024-05-16T23:14:47.793;599616053357673476;4092.4639;313
2024-05-16T23:14:47.801;599616053365365962;4100.1562;836
2024-05-16T23:14:47.808;599616053373058448;4107.8486;986
2024-05-16T23:14:47.816;599616053380750934;4115.541;489
2024-05-16T23:14:47.824;599616053388443420;4123.234;-142
2024-05-16T23:14:47.831;599616053396135906;4130.9263;-280
2024-05-16T23:14:47.839;599616053403828392;4138.6187;-192
2024-05-16T23:14:47.847;599616053411520878;4146.311;-344
2024-05-16T23:14:47.855;599616053419213364;4154.004;-453
2024-05-16T23:14:47.862;599616053426905850;4161.6963;-339
2024-05-16T23:14:47.870;599616053434598336;4169.3887;-278
2024-05-16T23:14:47.878;599616053442290822;4177.081;-299
2024-05-16T23:14:47.885;599616053449983308;4184.7734;-254
2024-05-16T23:14:47.893;599616053457675794;4192.4663;-173
2024-05-16T23:14:47.901;599616053465368280;4200.1587;-125
2024-05-16T23:14:47.908;599616053473060766;4207.851;-80
2024-05-16T23:14:47.916;599616053480753252;4215.5435;-28
2024-05-16T23:14:47.924;599616053488445738;4223.2363;4
2024-05-16T23:14:47.931;599616053496138224;4230.9287;40
2024-05-16T23:14:47.939;599616053503830710;4238.621;90
2024-05-16T23:14:47.947;599616053511523196;4246.3135;130
2024-05-16T23:14:47.955;599616053519215682;4254.006;149
2024-05-16T23:14:47.962;599616053526908168;4261.6987;156
2024-05-16T23:14:47.970;599616053534600654;4269.391;149
2024-05-16T23:14:47.978;599616053542293140;4277.0835;159
2024-05-16T23:14:47.985;599616053549985626;4284.776;194
2024-05-16T23:14:47.993;599616053557678112;4292.4683;216
2024-05-16T23:14:48.001;599616053565370598;4300.161;213
2024-05-16T23:14:48.008;599616053573063084;4307.8535;225
2024-05-16T23:14:48.016;599616053580755570;4315.546;244
2024-05-16T23:14:48.024;599616053588448056;4323.2383;211
2024-05-16T23:14:48.031;599616053596140542;4330.9307;118
2024-05-16T23:14:48.039;599616053603833028;4338.6235;57
2024-05-16T23:14:48.047;599616053611525514;4346.316;78
2024-05-16T23:14:48.055;599616053619218000;4354.009;78
2024-05-16T23:14:48.062;599616053626910486;4361.7007;26
2024-05-16T23:14:48.070;599616053634602972;4369.393;9
2024-05-16T23:14:48.078;599616053642295458;4377.086;30
2024-05-16T23:14:48.085;599616053649987944;4384.7783;33
2024-05-16T23:14:48.093;599616053657680430;4392.471;38
2024-05-16T23:14:48.101;599616053665372916;4400.163;59
2024-05-16T23:14:48.108;599616053673065402;4407.8555;49
2024-05-16T23:14:48.116;599616053680757888;4415.5483;23
2024-05-16T23:14:48.124;599616053688450374;4423.2407;47
2024-05-16T23:14:48.131;599616053696142860;4430.933;90
2024-05-16T23:14:48.139;599616053703835346;4438.626;92
2024-05-16T23:14:48.147;599616053711527832;4446.318;68
2024-05-16T23:14:48.155;599616053719220318;4454.0107;66
2024-05-16T23:14:48.162;599616053726912804;4461.703;85
2024-05-16T23:14:48.170;599616053734605290;4469.3955;92
2024-05-16T23:14:48.178;599616053742297776;4477.0884;30
2024-05-16T23:14:48.185;599616053749990262;4484.781;-104
2024-05-16T23:14:48.193;599616053757672736;4492.463;-92
2024-05-16T23:14:48.201;599616053765365362;4500.156;268
2024-05-16T23:14:48.208;599616053773057988;4507.848;731
2024-05-16T23:14:48.216;599616053780750614;4515.541;841
2024-05-16T23:14:48.224;599616053788443240;4523.234;427
2024-05-16T23:14:48.231;599616053796135866;4530.9263;-159
2024-05-16T23:14:48.239;599616053803828492;4538.6187;-354
2024-05-16T23:14:48.247;599616053811521118;4546.3115;-251
2024-05-16T23:14:48.255;599616053819213744;4554.004;-247
2024-05-16T23:14:48.262;599616053826906370;4561.697;-318
2024-05-16T23:14:48.270;599616053834598996;4569.3896;-401
2024-05-16T23:14:48.278;599616053842291622;4577.082;-499
2024-05-16T23:14:48.285;599616053849984248;4584.7744;-539
2024-05-16T23:14:48.293;599616053857676874;4592.4673;-525
2024-05-16T23:14:48.301;599616053865369500;4600.1597;-496
2024-05-16T23:14:48.308;599616053873062126;4607.8525;-432
2024-05-16T23:14:48.316;599616053880754752;4615.5454;-344
2024-05-16T23:14:48.324;599616053888447378;4623.238;-278
2024-05-16T23:14:48.331;599616053896140004;4630.9307;-249
2024-05-16T23:14:48.339;599616053903832630;4638.623;-259
2024-05-16T23:14:48.347;599616053911525256;4646.3154;-304
2024-05-16T23:14:48.355;599616053919217882;4654.0083;-354
2024-05-16T23:14:48.362;599616053926910508;4661.701;-342
2024-05-16T23:14:48.370;599616053934603134;4669.3936;-285
2024-05-16T23:14:48.378;599616053942295760;4677.0864;-254
2024-05-16T23:14:48.385;599616053949988386;4684.779;-268
2024-05-16T23:14:48.393;599616053957681012;4692.471;-292
2024-05-16T23:14:48.401;599616053965373638;4700.164;-270
2024-05-16T23:14:48.408;599616053973066264;4707.8564;-213
2024-05-16T23:14:48.416;599616053980758890;4715.5493;-201
2024-05-16T23:14:48.424;599616053988451516;4723.242;-244
2024-05-16T23:14:48.431;599616053996144142;4730.934;-251
2024-05-16T23:14:48.439;599616054003836768;4738.627;-228
2024-05-16T23:14:48.447;599616054011529394;4746.32;-247
2024-05-16T23:14:48.455;599616054019222020;4754.012;-261
2024-05-16T23:14:48.462;599616054026914646;4761.705;-223
2024-05-16T23:14:48.470;599616054034607272;4769.398;-206
2024-05-16T23:14:48.478;599616054042299898;4777.09;-259
2024-05-16T23:14:48.485;599616054049992524;4784.7827;-280
2024-05-16T23:14:48.493;599616054057685150;4792.4756;-223
2024-05-16T23:14:48.501;599616054065377776;4800.168;-171
2024-05-16T23:14:48.508;599616054073070402;4807.861;-163
2024-05-16T23:14:48.516;599616054080763028;4815.5537;-163
2024-05-16T23:14:48.524;599616054088455654;4823.2456;-180
2024-05-16T23:14:48.531;599616054096148280;4830.9385;-220
2024-05-16T23:14:48.539;599616054103840906;4838.6313;-235
2024-05-16T23:14:48.547;599616054111533532;4846.3237;-190
2024-05-16T23:14:48.555;599616054119226158;4854.0166;-135
2024-05-16T23:14:48.562;599616054126918784;4861.7095;-111
2024-05-16T23:14:48.570;599616054134611410;4869.4014;-111
2024-05-16T23:14:48.578;599616054142304036;4877.094;-114
2024-05-16T23:14:48.585;599616054149996662;4884.787;-152
2024-05-16T23:14:48.593;599616054157689288;4892.4795;-270
2024-05-16T23:14:48.601;599616054165381914;4900.1724;-308
2024-05-16T23:14:48.608;599616054173074540;4907.865;0
2024-05-16T23:14:48.616;599616054180767166;4915.5576;577
2024-05-16T23:14:48.624;599616054188459792;4923.25;879
2024-05-16T23:14:48.631;599616054196152418;4930.943;475
2024-05-16T23:14:48.639;599616054203845044;4938.6353;-232
2024-05-16T23:14:48.647;599616054211537670;4946.328;-446
2024-05-16T23:14:48.655;599616054219230296;4954.021;-273
2024-05-16T23:14:48.662;599616054226922922;4961.7134;-297
2024-05-16T23:14:48.670;599616054234615548;4969.406;-375
2024-05-16T23:14:48.678;599616054242308174;4977.0986;-282
2024-05-16T23:14:48.685;599616054250000800;4984.791;-230
2024-05-16T23:14:48.693;599616054257693426;4992.484;-244
2024-05-16T23:14:48.701;599616054265386052;5000.177;-187
2024-05-16T23:14:48.708;599616054273078678;5007.869;-140
2024-05-16T23:14:48.716;599616054280771304;5015.5615;-163
2024-05-16T23:14:48.724;599616054288463930;5023.2544;-152
2024-05-16T23:14:48.731;599616054296156556;5030.947;-54
2024-05-16T23:14:48.739;599616054303849182;5038.6396;38
2024-05-16T23:14:48.747;599616054311541808;5046.3325;52
2024-05-16T23:14:48.755;599616054319239494;5054.03;54
2024-05-16T23:14:48.762;599616054326932050;5061.7227;85
2024-05-16T23:14:48.770;599616054334624606;5069.415;66
2024-05-16T23:14:48.778;599616054342317162;5077.108;-16
2024-05-16T23:14:48.785;599616054350009718;5084.8;-33
2024-05-16T23:14:48.793;599616054357702274;5092.4927;-4
2024-05-16T23:14:48.801;599616054365394830;5100.185;-52
2024-05-16T23:14:48.808;599616054373087386;5107.878;-156
2024-05-16T23:14:48.816;599616054380779942;5115.5703;-194
2024-05-16T23:14:48.824;599616054388472498;5123.263;-180
2024-05-16T23:14:48.831;599616054396165054;5130.955;-220
2024-05-16T23:14:48.839;599616054403857610;5138.648;-311
2024-05-16T23:14:48.847;599616054411550166;5146.3403;-406
2024-05-16T23:14:48.855;599616054419242722;5154.033;-461
2024-05-16T23:14:48.862;599616054426935278;5161.7256;-420
2024-05-16T23:14:48.870;599616054434627834;5169.4185;-365
2024-05-16T23:14:48.878;599616054442320390;5177.1104;-361
2024-05-16T23:14:48.885;599616054450012946;5184.803;-356
2024-05-16T23:14:48.893;599616054457705502;5192.496;-337
2024-05-16T23:14:48.901;599616054465398058;5200.1885;-311
2024-05-16T23:14:48.908;599616054473090614;5207.8813;-261
2024-05-16T23:14:48.916;599616054480783170;5215.5737;-209
2024-05-16T23:14:48.924;599616054488475726;5223.266;-173
2024-05-16T23:14:48.931;599616054496168282;5230.9585;-135
2024-05-16T23:14:48.939;599616054503860838;5238.6514;-104
2024-05-16T23:14:48.947;599616054511553394;5246.3438;-83
2024-05-16T23:14:48.955;599616054519245950;5254.0366;-52
2024-05-16T23:14:48.962;599616054526938506;5261.729;-21
2024-05-16T23:14:48.970;599616054534631062;5269.4214;23
2024-05-16T23:14:48.978;599616054542323618;5277.114;59
2024-05-16T23:14:48.985;599616054550016174;5284.8066;19
2024-05-16T23:14:48.993;599616054557708730;5292.499;-73
2024-05-16T23:14:49.001;599616054565401286;5300.192;-168
2024-05-16T23:14:49.008;599616054573093842;5307.884;-190
2024-05-16T23:14:49.016;599616054580786398;5315.5767;73
2024-05-16T23:14:49.024;599616054588478954;5323.269;617
2024-05-16T23:14:49.031;599616054596171510;5330.962;950
2024-05-16T23:14:49.039;599616054603864066;5338.6543;629
2024-05-16T23:14:49.047;599616054611556622;5346.347;-76
2024-05-16T23:14:49.055;599616054619249178;5354.039;-373
2024-05-16T23:14:49.062;599616054626941734;5361.732;-175
2024-05-16T23:14:49.070;599616054634634290;5369.425;-123
2024-05-16T23:14:49.078;599616054642326846;5377.117;-242
2024-05-16T23:14:49.085;599616054650019402;5384.81;-192
2024-05-16T23:14:49.093;599616054657711958;5392.5024;-80
2024-05-16T23:14:49.101;599616054665404514;5400.1953;-71
2024-05-16T23:14:49.108;599616054673097070;5407.887;-76
2024-05-16T23:14:49.116;599616054680789626;5415.58;-21
2024-05-16T23:14:49.124;599616054688482182;5423.2725;35
2024-05-16T23:14:49.131;599616054696174738;5430.9653;54
2024-05-16T23:14:49.139;599616054703867294;5438.6577;80
2024-05-16T23:14:49.147;599616054711559850;5446.35;147
2024-05-16T23:14:49.155;599616054719252406;5454.0425;230
2024-05-16T23:14:49.162;599616054726944962;5461.7354;254
2024-05-16T23:14:49.170;599616054734637518;5469.4277;211
2024-05-16T23:14:49.178;599616054742330074;5477.1206;216
2024-05-16T23:14:49.185;599616054750022630;5484.813;282
2024-05-16T23:14:49.193;599616054757715186;5492.5054;299
2024-05-16T23:14:49.201;599616054765407742;5500.1978;270
2024-05-16T23:14:49.208;599616054773100298;5507.8906;256
2024-05-16T23:14:49.216;599616054780792854;5515.583;256
2024-05-16T23:14:49.224;599616054788485410;5523.276;232
2024-05-16T23:14:49.231;599616054796177966;5530.9688;199
2024-05-16T23:14:49.239;599616054803870522;5538.6606;209
2024-05-16T23:14:49.247;599616054811563078;5546.3535;237
2024-05-16T23:14:49.255;599616054819255634;5554.046;225
2024-05-16T23:14:49.262;599616054826948190;5561.739;163
2024-05-16T23:14:49.270;599616054834640746;5569.431;130
2024-05-16T23:14:49.278;599616054842333302;5577.124;182
2024-05-16T23:14:49.285;599616054850025858;5584.816;218
2024-05-16T23:14:49.293;599616054857718414;5592.509;178
2024-05-16T23:14:49.301;599616054865410970;5600.201;161
2024-05-16T23:14:49.308;599616054873103526;5607.894;187
2024-05-16T23:14:49.316;599616054880786116;5615.5767;192
2024-05-16T23:14:49.324;599616054888478811;5623.2695;194
2024-05-16T23:14:49.331;599616054896171506;5630.9614;225
2024-05-16T23:14:49.339;599616054903864201;5638.6543;273
2024-05-16T23:14:49.347;599616054911556896;5646.347;304
2024-05-16T23:14:49.355;599616054919249591;5654.04;228
2024-05-16T23:14:49.362;599616054926942286;5661.733;111
2024-05-16T23:14:49.370;599616054934634981;5669.4253;106
2024-05-16T23:14:49.378;599616054942327676;5677.118;61
2024-05-16T23:14:49.385;599616054950020371;5684.8105;-97
2024-05-16T23:14:49.393;599616054957713066;5692.5034;-159
2024-05-16T23:14:49.401;599616054965405761;5700.1963;-185
2024-05-16T23:14:49.408;599616054973098456;5707.8887;-354
2024-05-16T23:14:49.416;599616054980791151;5715.5815;-439
2024-05-16T23:14:49.424;599616054988483846;5723.2744;-152
2024-05-16T23:14:49.431;599616054996176541;5730.967;399
2024-05-16T23:14:49.439;599616055003869236;5738.6597;800
2024-05-16T23:14:49.447;599616055011561931;5746.352;653
2024-05-16T23:14:49.455;599616055019254626;5754.045;47
2024-05-16T23:14:49.462;599616055026947321;5761.738;-342
2024-05-16T23:14:49.470;599616055034640016;5769.4307;-263
2024-05-16T23:14:49.478;599616055042332711;5777.1235;-180
2024-05-16T23:14:49.485;599616055050025406;5784.8154;-225
2024-05-16T23:14:49.493;599616055057718101;5792.5083;-194
2024-05-16T23:14:49.501;599616055065410796;5800.201;-178
2024-05-16T23:14:49.508;599616055073103491;5807.894;-235
2024-05-16T23:14:49.516;599616055080796186;5815.5864;-228
2024-05-16T23:14:49.524;599616055088488881;5823.2793;-159
2024-05-16T23:14:49.531;599616055096181576;5830.9717;-135
2024-05-16T23:14:49.539;599616055103874271;5838.6646;-114
2024-05-16T23:14:49.547;599616055111566966;5846.3574;-54
2024-05-16T23:14:49.555;599616055119259661;5854.05;-14
2024-05-16T23:14:49.562;599616055126952356;5861.7427;19
2024-05-16T23:14:49.570;599616055134645051;5869.4355;80
2024-05-16T23:14:49.578;599616055142337746;5877.1284;118
2024-05-16T23:14:49.585;599616055150030441;5884.821;111
2024-05-16T23:14:49.593;599616055157723136;5892.513;95
2024-05-16T23:14:49.601;599616055165415831;5900.206;123
2024-05-16T23:14:49.608;599616055173108526;5907.899;163
2024-05-16T23:14:49.616;599616055180801221;5915.592;168
2024-05-16T23:14:49.624;599616055188493916;5923.2847;147
2024-05-16T23:14:49.631;599616055196186611;5930.9766;118
2024-05-16T23:14:49.639;599616055203879306;5938.6694;99
2024-05-16T23:14:49.647;599616055211572001;5946.3623;85
2024-05-16T23:14:49.655;599616055219264696;5954.055;97
2024-05-16T23:14:49.662;599616055226957391;5961.748;147
2024-05-16T23:14:49.670;599616055234650086;5969.4404;173
2024-05-16T23:14:49.678;599616055242342781;5977.133;135
2024-05-16T23:14:49.685;599616055250035476;5984.8257;104
2024-05-16T23:14:49.693;599616055257728171;5992.5186;149
2024-05-16T23:14:49.701;599616055265420866;6000.2114;197
2024-05-16T23:14:49.708;599616055273113561;6007.904;199
2024-05-16T23:14:49.716;599616055280806256;6015.5967;187
2024-05-16T23:14:49.724;599616055288498951;6023.2896;187
2024-05-16T23:14:49.731;599616055296191646;6030.982;182
2024-05-16T23:14:49.739;599616055303884341;6038.675;175
2024-05-16T23:14:49.747;599616055311577036;6046.367;175
2024-05-16T23:14:49.755;599616055319269731;6054.06;168
2024-05-16T23:14:49.762;599616055326962426;6061.753;135
2024-05-16T23:14:49.770;599616055334655121;6069.446;97
2024-05-16T23:14:49.778;599616055342347816;6077.1387;95
2024-05-16T23:14:49.785;599616055350040511;6084.8306;87
2024-05-16T23:14:49.793;599616055357733206;6092.5234;42
2024-05-16T23:14:49.801;599616055365425901;6100.2163;4
2024-05-16T23:14:49.808;599616055373118596;6107.909;-42
2024-05-16T23:14:49.816;599616055380811291;6115.6016;-154
2024-05-16T23:14:49.824;599616055388503986;6123.2944;-261
2024-05-16T23:14:49.831;599616055396196681;6130.987;-199
2024-05-16T23:14:49.839;599616055403889376;6138.6797;161
2024-05-16T23:14:49.847;599616055411582071;6146.3726;679
2024-05-16T23:14:49.855;599616055419274766;6154.065;874
2024-05-16T23:14:49.862;599616055426967461;6161.758;432
2024-05-16T23:14:49.870;599616055434660156;6169.4507;-201
2024-05-16T23:14:49.878;599616055442383016;6177.1733;-349
2024-05-16T23:14:49.885;599616055450075293;6184.8657;-211
2024-05-16T23:14:49.893;599616055457767570;6192.558;-235
2024-05-16T23:14:49.901;599616055465459847;6200.2505;-270
2024-05-16T23:14:49.908;599616055473152124;6207.943;-220
2024-05-16T23:14:49.916;599616055480844401;6215.635;-254
2024-05-16T23:14:49.924;599616055488536678;6223.327;-308
2024-05-16T23:14:49.932;599616055496228955;6231.0195;-247
2024-05-16T23:14:49.939;599616055503921232;6238.712;-178
2024-05-16T23:14:49.947;599616055511613509;6246.4043;-232
2024-05-16T23:14:49.955;599616055519305786;6254.096;-294
2024-05-16T23:14:49.962;599616055526998063;6261.7886;-228
2024-05-16T23:14:49.970;599616055534690340;6269.481;-154
2024-05-16T23:14:49.978;599616055542382617;6277.173;-194
2024-05-16T23:14:49.985;599616055550074894;6284.865;-235
2024-05-16T23:14:49.993;599616055557767171;6292.557;-206
2024-05-16T23:14:50.001;599616055565459448;6300.2495;-261
2024-05-16T23:14:50.008;599616055573151725;6307.942;-406
2024-05-16T23:14:50.016;599616055580844002;6315.6343;-453
2024-05-16T23:14:50.024;599616055588536279;6323.3267;-415
2024-05-16T23:14:50.032;599616055596228556;6331.0186;-456
2024-05-16T23:14:50.039;599616055603920833;6338.711;-515
2024-05-16T23:14:50.047;599616055611613110;6346.4033;-499
2024-05-16T23:14:50.055;599616055619305387;6354.0957;-453
2024-05-16T23:14:50.062;599616055626997664;6361.788;-427
2024-05-16T23:14:50.070;599616055634689941;6369.48;-413
2024-05-16T23:14:50.078;599616055642382218;6377.1724;-382
2024-05-16T23:14:50.085;599616055650074495;6384.8647;-337
2024-05-16T23:14:50.093;599616055657766772;6392.557;-318
2024-05-16T23:14:50.101;599616055665459049;6400.2495;-318
2024-05-16T23:14:50.108;599616055673151326;6407.9414;-285
2024-05-16T23:14:50.116;599616055680843603;6415.634;-242
2024-05-16T23:14:50.124;599616055688535880;6423.326;-232
2024-05-16T23:14:50.132;599616055696228157;6431.0186;-244
2024-05-16T23:14:50.139;599616055703920434;6438.711;-225
2024-05-16T23:14:50.147;599616055711612711;6446.403;-166
2024-05-16T23:14:50.155;599616055719304988;6454.095;-137
2024-05-16T23:14:50.162;599616055726997265;6461.7876;-140
2024-05-16T23:14:50.170;599616055734689542;6469.48;-76
2024-05-16T23:14:50.178;599616055742381819;6477.1724;0
2024-05-16T23:14:50.185;599616055750074096;6484.8647;-30
2024-05-16T23:14:50.193;599616055757766373;6492.5566;-102
2024-05-16T23:14:50.201;599616055765458650;6500.249;-102
2024-05-16T23:14:50.208;599616055773150927;6507.9414;-102
2024-05-16T23:14:50.216;599616055780843204;6515.634;-163
2024-05-16T23:14:50.224;599616055788535481;6523.326;-230
2024-05-16T23:14:50.232;599616055796227758;6531.018;-280
2024-05-16T23:14:50.239;599616055803920035;6538.7104;-323
2024-05-16T23:14:50.247;599616055811612312;6546.403;-204
2024-05-16T23:14:50.255;599616055819304589;6554.095;218
2024-05-16T23:14:50.262;599616055826996866;6561.7876;712
2024-05-16T23:14:50.270;599616055834689143;6569.4795;708
2024-05-16T23:14:50.278;599616055842381420;6577.172;111
2024-05-16T23:14:50.285;599616055850073697;6584.8643;-365
2024-05-16T23:14:50.293;599616055857765974;6592.5566;-285
2024-05-16T23:14:50.301;599616055865458251;6600.249;-135
2024-05-16T23:14:50.308;599616055873150528;6607.941;-209
2024-05-16T23:14:50.316;599616055880842805;6615.6333;-213
2024-05-16T23:14:50.324;599616055888535082;6623.3257;-123
2024-05-16T23:14:50.332;599616055896227359;6631.018;-114
2024-05-16T23:14:50.339;599616055903919636;6638.71;-116
2024-05-16T23:14:50.347;599616055911611913;6646.402;-59
2024-05-16T23:14:50.355;599616055919304190;6654.094;-9
2024-05-16T23:14:50.362;599616055926996467;6661.7866;-54
2024-05-16T23:14:50.370;599616055934688744;6669.479;-156
2024-05-16T23:14:50.378;599616055942381021;6677.1714;-135
2024-05-16T23:14:50.385;599616055950073298;6684.8633;-35
2024-05-16T23:14:50.393;599616055957765575;6692.5557;7
2024-05-16T23:14:50.401;599616055965457852;6700.248;45
2024-05-16T23:14:50.408;599616055973150129;6707.9404;95
2024-05-16T23:14:50.416;599616055980842406;6715.633;87
2024-05-16T23:14:50.424;599616055988534683;6723.3247;40
2024-05-16T23:14:50.432;599616055996226960;6731.017;0
2024-05-16T23:14:50.439;599616056003899216;6738.6895;-21
2024-05-16T23:14:50.447;599616056011591772;6746.3823;-16
2024-05-16T23:14:50.455;599616056019284328;6754.0747;-30
2024-05-16T23:14:50.462;599616056026976884;6761.7676;-76
2024-05-16T23:14:50.470;599616056034669440;6769.4595;-78
2024-05-16T23:14:50.478;599616056042361996;6777.1523;-30
2024-05-16T23:14:50.485;599616056050054552;6784.8447;-21
2024-05-16T23:14:50.493;599616056057747108;6792.5376;-57
2024-05-16T23:14:50.501;599616056065439664;6800.23;-80
2024-05-16T23:14:50.508;599616056073132220;6807.923;-104
2024-05-16T23:14:50.516;599616056080824776;6815.6147;-230
2024-05-16T23:14:50.524;599616056088517332;6823.3076;-382
2024-05-16T23:14:50.532;599616056096209888;6831.0;-365
2024-05-16T23:14:50.539;599616056103902444;6838.693;-285
2024-05-16T23:14:50.547;599616056111595000;6846.3853;-299
2024-05-16T23:14:50.555;599616056119287556;6854.078;-313
2024-05-16T23:14:50.562;599616056126980112;6861.77;-268
2024-05-16T23:14:50.570;599616056134672668;6869.463;-232
2024-05-16T23:14:50.578;599616056142365224;6877.156;-218
2024-05-16T23:14:50.585;599616056150057780;6884.848;-228
2024-05-16T23:14:50.593;599616056157750336;6892.541;-275
2024-05-16T23:14:50.601;599616056165442892;6900.2334;-301
2024-05-16T23:14:50.608;599616056173135448;6907.926;-325
2024-05-16T23:14:50.616;599616056180828004;6915.618;-358
2024-05-16T23:14:50.624;599616056188520560;6923.311;-325
2024-05-16T23:14:50.632;599616056196213116;6931.0034;-287
2024-05-16T23:14:50.639;599616056203905672;6938.6963;-358
2024-05-16T23:14:50.647;599616056211598228;6946.3887;-456
2024-05-16T23:14:50.655;599616056219290784;6954.081;-361
2024-05-16T23:14:50.662;599616056226983340;6961.7734;59
2024-05-16T23:14:50.670;599616056234675896;6969.4663;632
2024-05-16T23:14:50.678;599616056242368452;6977.1587;853
2024-05-16T23:14:50.685;599616056250061008;6984.8516;375
2024-05-16T23:14:50.693;599616056257753564;6992.544;-304
2024-05-16T23:14:50.701;599616056265446120;7000.2363;-415
2024-05-16T23:14:50.708;599616056273138676;7007.9287;-204
2024-05-16T23:14:50.716;599616056280831232;7015.6216;-209
2024-05-16T23:14:50.724;599616056288523788;7023.314;-247
2024-05-16T23:14:50.732;599616056296216344;7031.007;-194
2024-05-16T23:14:50.739;599616056303908900;7038.6997;-235
2024-05-16T23:14:50.747;599616056311601456;7046.3916;-297
2024-05-16T23:14:50.755;599616056319294012;7054.0845;-249
2024-05-16T23:14:50.762;599616056326986568;7061.777;-182
2024-05-16T23:14:50.770;599616056334679124;7069.4697;-125
2024-05-16T23:14:50.778;599616056342371680;7077.162;-47
2024-05-16T23:14:50.785;599616056350064236;7084.855;-9
2024-05-16T23:14:50.793;599616056357756792;7092.547;4
2024-05-16T23:14:50.801;599616056365449348;7100.2397;76
2024-05-16T23:14:50.808;599616056373141904;7107.932;154
2024-05-16T23:14:50.816;599616056380834460;7115.625;156
2024-05-16T23:14:50.824;599616056388527016;7123.3174;123
2024-05-16T23:14:50.832;599616056396219572;7131.0103;95
2024-05-16T23:14:50.839;599616056403912128;7138.702;71
2024-05-16T23:14:50.847;599616056411604684;7146.395;49
2024-05-16T23:14:50.855;599616056419297240;7154.0874;38
2024-05-16T23:14:50.862;599616056426989796;7161.7803;28
2024-05-16T23:14:50.870;599616056434682352;7169.4727;-47
2024-05-16T23:14:50.878;599616056442374908;7177.1655;-175
2024-05-16T23:14:50.885;599616056450067464;7184.8574;-192
2024-05-16T23:14:50.893;599616056457760020;7192.5503;-118
2024-05-16T23:14:50.901;599616056465452576;7200.243;-95
2024-05-16T23:14:50.908;599616056473145132;7207.9355;-99
2024-05-16T23:14:50.916;599616056480837688;7215.6284;-64
2024-05-16T23:14:50.924;599616056488530244;7223.321;-28
2024-05-16T23:14:50.932;599616056496222800;7231.013;0
2024-05-16T23:14:50.939;599616056503915356;7238.7056;28
2024-05-16T23:14:50.947;599616056511607912;7246.3984;49
2024-05-16T23:14:50.955;599616056519300468;7254.091;80
2024-05-16T23:14:50.962;599616056526993024;7261.7837;104
2024-05-16T23:14:50.970;599616056534685580;7269.476;92
2024-05-16T23:14:50.978;599616056542378136;7277.1685;97
2024-05-16T23:14:50.985;599616056550070692;7284.861;83
2024-05-16T23:14:50.993;599616056557763248;7292.5537;2
2024-05-16T23:14:51.001;599616056565480904;7300.271;-59
2024-05-16T23:14:51.008;599616056573173112;7307.9634;-83
2024-05-16T23:14:51.016;599616056580865320;7315.656;-125
2024-05-16T23:14:51.024;599616056588557528;7323.348;-154
2024-05-16T23:14:51.032;599616056596249736;7331.04;-147
2024-05-16T23:14:51.039;599616056603941944;7338.7324;-128
2024-05-16T23:14:51.047;599616056611634152;7346.4243;-114
2024-05-16T23:14:51.055;599616056619326360;7354.1167;-171
2024-05-16T23:14:51.062;599616056627018568;7361.809;-211
2024-05-16T23:14:51.070;599616056634710776;7369.501;54
2024-05-16T23:14:51.078;599616056642402984;7377.1934;639
2024-05-16T23:14:51.085;599616056650095192;7384.8857;1031
2024-05-16T23:14:51.093;599616056657787400;7392.5776;777
2024-05-16T23:14:51.101;599616056665479608;7400.27;125
2024-05-16T23:14:51.108;599616056673171816;7407.962;-235
2024-05-16T23:14:51.116;599616056680864024;7415.6543;-159
2024-05-16T23:14:51.124;599616056688556232;7423.3467;-97
2024-05-16T23:14:51.132;599616056696248440;7431.039;-135
2024-05-16T23:14:51.139;599616056703940648;7438.7314;-85
2024-05-16T23:14:51.147;599616056711632856;7446.423;-38
2024-05-16T23:14:51.155;599616056719325064;7454.115;-57
2024-05-16T23:14:51.162;599616056727017272;7461.8076;-40
2024-05-16T23:14:51.170;599616056734709480;7469.5;11
2024-05-16T23:14:51.178;599616056742401688;7477.1924;45
2024-05-16T23:14:51.185;599616056750093896;7484.8843;83
2024-05-16T23:14:51.193;599616056757786104;7492.576;142
2024-05-16T23:14:51.201;599616056765478312;7500.2686;182
2024-05-16T23:14:51.208;599616056773170520;7507.961;199
2024-05-16T23:14:51.216;599616056780862728;7515.6533;235
2024-05-16T23:14:51.224;599616056788554936;7523.345;259
2024-05-16T23:14:51.232;599616056796247144;7531.0376;192
2024-05-16T23:14:51.239;599616056803939352;7538.7295;68
2024-05-16T23:14:51.247;599616056811631560;7546.422;21
2024-05-16T23:14:51.255;599616056819323768;7554.1143;52
2024-05-16T23:14:51.262;599616056827015976;7561.806;66
2024-05-16T23:14:51.270;599616056834708184;7569.4985;52
2024-05-16T23:14:51.278;599616056842400392;7577.191;49
2024-05-16T23:14:51.285;599616056850092600;7584.8833;71
2024-05-16T23:14:51.293;599616056857784808;7592.575;80
2024-05-16T23:14:51.301;599616056865477016;7600.267;64
2024-05-16T23:14:51.308;599616056873169224;7607.9595;57
2024-05-16T23:14:51.316;599616056880861432;7615.652;85
2024-05-16T23:14:51.324;599616056888553640;7623.344;114
2024-05-16T23:14:51.332;599616056896245848;7631.0366;99
2024-05-16T23:14:51.339;599616056903938056;7638.728;68
2024-05-16T23:14:51.347;599616056911630264;7646.4204;78
2024-05-16T23:14:51.355;599616056919322472;7654.113;104
2024-05-16T23:14:51.362;599616056927014680;7661.805;106
2024-05-16T23:14:51.370;599616056934706888;7669.4976;52
2024-05-16T23:14:51.378;599616056942399096;7677.1895;-61
2024-05-16T23:14:51.385;599616056950091304;7684.882;-161
2024-05-16T23:14:51.393;599616056957783512;7692.5737;-204
2024-05-16T23:14:51.401;599616056965475720;7700.266;-201
2024-05-16T23:14:51.408;599616056973167928;7707.9585;-220
2024-05-16T23:14:51.416;599616056980860136;7715.6504;-285
2024-05-16T23:14:51.424;599616056988552344;7723.343;-316
2024-05-16T23:14:51.432;599616056996244552;7731.035;-306
2024-05-16T23:14:51.439;599616057003936760;7738.727;-292
2024-05-16T23:14:51.447;599616057011628968;7746.4194;-280
2024-05-16T23:14:51.455;599616057019321176;7754.1113;-292
2024-05-16T23:14:51.462;599616057027013384;7761.8037;-363
2024-05-16T23:14:51.470;599616057034705592;7769.496;-444
2024-05-16T23:14:51.478;599616057042397800;7777.1885;-377
2024-05-16T23:14:51.485;599616057050090008;7784.8804;7
2024-05-16T23:14:51.493;599616057057782216;7792.5723;537
2024-05-16T23:14:51.501;599616057065474424;7800.2646;648
2024-05-16T23:14:51.508;599616057073166632;7807.957;142
2024-05-16T23:14:51.516;599616057080858840;7815.6494;-380
2024-05-16T23:14:51.524;599616057088551048;7823.342;-415
2024-05-16T23:14:51.532;599616057096243256;7831.0337;-308
2024-05-16T23:14:51.539;599616057103935464;7838.7256;-368
2024-05-16T23:14:51.547;599616057111627672;7846.418;-361
2024-05-16T23:14:51.555;599616057119319880;7854.1104;-247
2024-05-16T23:14:51.562;599616057126982008;7861.7725;-213
2024-05-16T23:14:51.570;599616057134674634;7869.4653;-232
2024-05-16T23:14:51.578;599616057142367260;7877.1577;-182
2024-05-16T23:14:51.585;599616057150059886;7884.85;-102
2024-05-16T23:14:51.593;599616057157752512;7892.543;-66
2024-05-16T23:14:51.601;599616057165445138;7900.2354;-35
2024-05-16T23:14:51.608;599616057173137764;7907.928;9
2024-05-16T23:14:51.616;599616057180830390;7915.621;33
2024-05-16T23:14:51.624;599616057188523016;7923.313;7
2024-05-16T23:14:51.632;599616057196215642;7931.006;-78
2024-05-16T23:14:51.639;599616057203908268;7938.6987;-147
2024-05-16T23:14:51.647;599616057211600894;7946.391;-133
2024-05-16T23:14:51.655;599616057219293520;7954.084;-125
2024-05-16T23:14:51.662;599616057226986146;7961.777;-178
2024-05-16T23:14:51.670;599616057234678772;7969.4688;-182
2024-05-16T23:14:51.678;599616057242371398;7977.1616;-128
2024-05-16T23:14:51.685;599616057250064024;7984.8545;-116
2024-05-16T23:14:51.693;599616057257756650;7992.547;-135
2024-05-16T23:14:51.701;599616057265449276;8000.2397;-116
2024-05-16T23:14:51.708;599616057273141902;8007.9326;-97
2024-05-16T23:14:51.716;599616057280834528;8015.6245;-95
2024-05-16T23:14:51.724;599616057288527154;8023.3174;-97
2024-05-16T23:14:51.732;599616057296219780;8031.0103;-125
2024-05-16T23:14:51.739;599616057303912406;8038.7026;-133
2024-05-16T23:14:51.747;599616057311605032;8046.3955;-118
2024-05-16T23:14:51.755;599616057319297658;8054.0884;-128
2024-05-16T23:14:51.762;599616057326990284;8061.7803;-121
2024-05-16T23:14:51.770;599616057334682910;8069.473;-83
2024-05-16T23:14:51.778;599616057342375536;8077.166;-73
2024-05-16T23:14:51.785;599616057350068162;8084.8584;-66
2024-05-16T23:14:51.793;599616057357760788;8092.5513;-68
2024-05-16T23:14:51.801;599616057365453414;8100.244;-114
2024-05-16T23:14:51.808;599616057373146040;8107.936;-149
2024-05-16T23:14:51.816;599616057380838666;8115.629;-161
2024-05-16T23:14:51.824;599616057388531292;8123.322;-178
2024-05-16T23:14:51.832;599616057396223918;8131.014;-182
2024-05-16T23:14:51.839;599616057403916544;8138.707;-194
2024-05-16T23:14:51.847;599616057411609170;8146.4;-204
2024-05-16T23:14:51.855;599616057419301796;8154.092;-190
2024-05-16T23:14:51.862;599616057426994422;8161.7847;-213
2024-05-16T23:14:51.870;599616057434687048;8169.4775;-311
2024-05-16T23:14:51.878;599616057442379674;8177.17;-475
2024-05-16T23:14:51.885;599616057450072300;8184.863;-527
2024-05-16T23:14:51.893;599616057457764926;8192.556;-213
2024-05-16T23:14:51.901;599616057465457552;8200.248;325
2024-05-16T23:14:51.908;599616057473150178;8207.94;629
2024-05-16T23:14:51.916;599616057480842804;8215.634;394
2024-05-16T23:14:51.924;599616057488535430;8223.326;-149
2024-05-16T23:14:51.932;599616057496228056;8231.019;-406
2024-05-16T23:14:51.939;599616057503920682;8238.711;-297
2024-05-16T23:14:51.947;599616057511613308;8246.403;-256
2024-05-16T23:14:51.955;599616057519305934;8254.097;-325
2024-05-16T23:14:51.962;599616057526998560;8261.789;-287
2024-05-16T23:14:51.970;599616057534691186;8269.481;-254
2024-05-16T23:14:51.978;599616057542383812;8277.174;-301
2024-05-16T23:14:51.985;599616057550076438;8284.866;-313
2024-05-16T23:14:51.993;599616057557769064;8292.56;-273
2024-05-16T23:14:52.001;599616057565461690;8300.252;-218
2024-05-16T23:14:52.008;599616057573154316;8307.944;-156
2024-05-16T23:14:52.016;599616057580846942;8315.638;-97
2024-05-16T23:14:52.024;599616057588539568;8323.33;-38
2024-05-16T23:14:52.032;599616057596232194;8331.022;7
2024-05-16T23:14:52.039;599616057603924820;8338.715;2
2024-05-16T23:14:52.047;599616057611617446;8346.408;-16
2024-05-16T23:14:52.055;599616057619310072;8354.101;-9
2024-05-16T23:14:52.062;599616057627002698;8361.793;9
2024-05-16T23:14:52.070;599616057634695324;8369.485;0
2024-05-16T23:14:52.078;599616057642387950;8377.178;-38
2024-05-16T23:14:52.085;599616057650080576;8384.871;-54
2024-05-16T23:14:52.093;599616057657773202;8392.563;-47
2024-05-16T23:14:52.101;599616057665465828;8400.256;-42
2024-05-16T23:14:52.108;599616057673158454;8407.949;-38
2024-05-16T23:14:52.116;599616057680851080;8415.642;-19
2024-05-16T23:14:52.124;599616057688543726;8423.334;2
2024-05-16T23:14:52.132;599616057696236352;8431.026;16
2024-05-16T23:14:52.139;599616057703928978;8438.72;28
2024-05-16T23:14:52.147;599616057711621604;8446.412;66
2024-05-16T23:14:52.155;599616057719314230;8454.1045;118
2024-05-16T23:14:52.162;599616057727006856;8461.798;121
2024-05-16T23:14:52.170;599616057734699482;8469.489;80
2024-05-16T23:14:52.178;599616057742392108;8477.183;80
2024-05-16T23:14:52.185;599616057750084734;8484.875;125
2024-05-16T23:14:52.193;599616057757777360;8492.567;102
2024-05-16T23:14:52.201;599616057765469986;8500.261;-4
2024-05-16T23:14:52.208;599616057773162612;8507.953;-87
2024-05-16T23:14:52.216;599616057780855238;8515.6455;-152
2024-05-16T23:14:52.224;599616057788547864;8523.338;-249
2024-05-16T23:14:52.232;599616057796240490;8531.031;-292
2024-05-16T23:14:52.239;599616057803933116;8538.724;-254
2024-05-16T23:14:52.247;599616057811625742;8546.416;-213
2024-05-16T23:14:52.255;599616057819318368;8554.109;-206
2024-05-16T23:14:52.262;599616057827010994;8561.801;-213
2024-05-16T23:14:52.270;599616057834703620;8569.494;-187
2024-05-16T23:14:52.278;599616057842396246;8577.187;-156
2024-05-16T23:14:52.285;599616057850088872;8584.879;-206
2024-05-16T23:14:52.293;599616057857781498;8592.571;-254
2024-05-16T23:14:52.301;599616057865474124;8600.265;-49
2024-05-16T23:14:52.308;599616057873166750;8607.957;451
2024-05-16T23:14:52.316;599616057880859376;8615.649;898
2024-05-16T23:14:52.324;599616057888552002;8623.343;826
2024-05-16T23:14:52.332;599616057896244628;8631.035;235
2024-05-16T23:14:52.339;599616057903937254;8638.728;-204
2024-05-16T23:14:52.347;599616057911629880;8646.421;-125
2024-05-16T23:14:52.355;599616057919322506;8654.112;-2
2024-05-16T23:14:52.362;599616057927015132;8661.805;-68
2024-05-16T23:14:52.370;599616057934707758;8669.498;-71
2024-05-16T23:14:52.378;599616057942400384;8677.19;-61
2024-05-16T23:14:52.385;599616057950093010;8684.883;-152
2024-05-16T23:14:52.393;599616057957785636;8692.576;-154
2024-05-16T23:14:52.401;599616057965478262;8700.269;-85
2024-05-16T23:14:52.408;599616057973170888;8707.961;-83
2024-05-16T23:14:52.416;599616057980863514;8715.654;-66
2024-05-16T23:14:52.424;599616057988556140;8723.347;19
2024-05-16T23:14:52.432;599616057996248766;8731.039;85
2024-05-16T23:14:52.439;599616058003941392;8738.732;95
2024-05-16T23:14:52.447;599616058011634018;8746.425;85
2024-05-16T23:14:52.455;599616058019326644;8754.116;87
2024-05-16T23:14:52.462;599616058027019270;8761.81;80
2024-05-16T23:14:52.470;599616058034711896;8769.502;45
2024-05-16T23:14:52.478;599616058042404522;8777.194;30
2024-05-16T23:14:52.485;599616058050097148;8784.888;35
2024-05-16T23:14:52.493;599616058057789774;8792.58;19
2024-05-16T23:14:52.501;599616058065482400;8800.272;-21
2024-05-16T23:14:52.508;599616058073175026;8807.966;-33
2024-05-16T23:14:52.516;599616058080867652;8815.658;7
2024-05-16T23:14:52.524;599616058088560278;8823.351;35
2024-05-16T23:14:52.532;599616058096252904;8831.044;26
2024-05-16T23:14:52.539;599616058103945530;8838.736;40
2024-05-16T23:14:52.547;599616058111638156;8846.428;83
2024-05-16T23:14:52.555;599616058119330782;8854.121;97
2024-05-16T23:14:52.562;599616058127023408;8861.813;90
2024-05-16T23:14:52.570;599616058134716034;8869.506;118
2024-05-16T23:14:52.578;599616058142408660;8877.199;149
2024-05-16T23:14:52.585;599616058150101286;8884.892;125
2024-05-16T23:14:52.593;599616058157793912;8892.584;95
2024-05-16T23:14:52.601;599616058165486538;8900.277;83
2024-05-16T23:14:52.608;599616058173179164;8907.97;57
2024-05-16T23:14:52.616;599616058180871790;8915.662;21
2024-05-16T23:14:52.624;599616058188564416;8923.355;-16
2024-05-16T23:14:52.632;599616058196257042;8931.048;-52
2024-05-16T23:14:52.639;599616058203949668;8938.739;-66
2024-05-16T23:14:52.647;599616058211642294;8946.433;-66
2024-05-16T23:14:52.655;599616058219334920;8954.125;-57
2024-05-16T23:14:52.662;599616058227027546;8961.817;-33
2024-05-16T23:14:52.670;599616058234720172;8969.511;-16
2024-05-16T23:14:52.678;599616058242412798;8977.203;-28
2024-05-16T23:14:52.685;599616058250105444;8984.8955;-42
2024-05-16T23:14:52.693;599616058257798070;8992.589;-66
2024-05-16T23:14:52.701;599616058265490696;9000.281;-104
2024-05-16T23:14:52.708;599616058273183322;9007.974;2
2024-05-16T23:14:52.716;599616058280875948;9015.667;411
2024-05-16T23:14:52.724;599616058288568574;9023.359;929
2024-05-16T23:14:52.732;599616058296261200;9031.051;1028
2024-05-16T23:14:52.739;599616058303953826;9038.744;420
2024-05-16T23:14:52.747;599616058311646452;9046.437;-266
2024-05-16T23:14:52.755;599616058319339078;9054.129;-289
2024-05-16T23:14:52.762;599616058327031704;9061.822;-85
2024-05-16T23:14:52.770;599616058334724330;9069.515;-163
2024-05-16T23:14:52.778;599616058342416956;9077.207;-204
2024-05-16T23:14:52.785;599616058350109582;9084.9;-80
2024-05-16T23:14:52.793;599616058357802208;9092.593;-21
2024-05-16T23:14:52.801;599616058365494834;9100.285;-14
2024-05-16T23:14:52.808;599616058373187460;9107.979;33
2024-05-16T23:14:52.816;599616058380880086;9115.671;83
2024-05-16T23:14:52.824;599616058388572712;9123.363;114
2024-05-16T23:14:52.832;599616058396265338;9131.056;163
2024-05-16T23:14:52.839;599616058403957964;9138.748;228
2024-05-16T23:14:52.847;599616058411650590;9146.44;263
2024-05-16T23:14:52.855;599616058419343216;9154.134;230
2024-05-16T23:14:52.862;599616058427035842;9161.826;192
2024-05-16T23:14:52.870;599616058434728468;9169.519;213
2024-05-16T23:14:52.878;599616058442421094;9177.212;206
2024-05-16T23:14:52.885;599616058450113720;9184.904;95
2024-05-16T23:14:52.893;599616058457806346;9192.597;0
2024-05-16T23:14:52.901;599616058465498972;9200.29;14
2024-05-16T23:14:52.908;599616058473191598;9207.982;28
2024-05-16T23:14:52.916;599616058480884224;9215.675;4
2024-05-16T23:14:52.924;599616058488576850;9223.368;26
2024-05-16T23:14:52.932;599616058496269476;9231.06;85
2024-05-16T23:14:52.939;599616058503962102;9238.752;133
2024-05-16T23:14:52.947;599616058511654728;9246.445;142
2024-05-16T23:14:52.955;599616058519347354;9254.138;90
2024-05-16T23:14:52.962;599616058527039980;9261.83;33
2024-05-16T23:14:52.970;599616058534732606;9269.523;54
2024-05-16T23:14:52.978;599616058542425232;9277.216;97
2024-05-16T23:14:52.985;599616058550117858;9284.908;114
2024-05-16T23:14:52.993;599616058557810484;9292.602;130
2024-05-16T23:14:53.001;599616058565503110;9300.294;123
2024-05-16T23:14:53.008;599616058573195736;9307.986;78
2024-05-16T23:14:53.016;599616058580888362;9315.68;61
2024-05-16T23:14:53.024;599616058588580988;9323.371;64
2024-05-16T23:14:53.032;599616058596273614;9331.063;35
2024-05-16T23:14:53.039;599616058603966240;9338.757;16
2024-05-16T23:14:53.047;599616058611658866;9346.449;16
2024-05-16T23:14:53.055;599616058619351492;9354.142;16
2024-05-16T23:14:53.062;599616058627044118;9361.834;30
2024-05-16T23:14:53.070;599616058634736744;9369.527;40
2024-05-16T23:14:53.078;599616058642429370;9377.22;57
2024-05-16T23:14:53.085;599616058650121996;9384.912;92
2024-05-16T23:14:53.093;599616058657814622;9392.605;87
2024-05-16T23:14:53.101;599616058665507248;9400.298;11
2024-05-16T23:14:53.108;599616058673199874;9407.99;-42
2024-05-16T23:14:53.116;599616058680892500;9415.683;90
2024-05-16T23:14:53.124;599616058688585126;9423.375;534
2024-05-16T23:14:53.132;599616058696277752;9431.067;1090
2024-05-16T23:14:53.139;599616058703970378;9438.761;1264
2024-05-16T23:14:53.147;599616058711663004;9446.453;815
2024-05-16T23:14:53.155;599616058719355630;9454.1455;216
2024-05-16T23:14:53.162;599616058727048256;9461.839;85
2024-05-16T23:14:53.170;599616058734740882;9469.531;232
2024-05-16T23:14:53.178;599616058742433508;9477.224;213
2024-05-16T23:14:53.185;599616058750126134;9484.917;156
2024-05-16T23:14:53.193;599616058757818760;9492.609;190
2024-05-16T23:14:53.201;599616058765511386;9500.302;197
2024-05-16T23:14:53.208;599616058773204012;9507.994;161
2024-05-16T23:14:53.216;599616058780896638;9515.687;168
2024-05-16T23:14:53.224;599616058788589264;9523.379;216
2024-05-16T23:14:53.232;599616058796281890;9531.072;251
2024-05-16T23:14:53.239;599616058803974516;9538.765;292
2024-05-16T23:14:53.247;599616058811667160;9546.457;330
2024-05-16T23:14:53.255;599616058819359786;9554.15;320
2024-05-16T23:14:53.262;599616058827052412;9561.843;306
2024-05-16T23:14:53.270;599616058834745038;9569.535;304
2024-05-16T23:14:53.278;599616058842437664;9577.229;218
2024-05-16T23:14:53.285;599616058850130290;9584.921;114
2024-05-16T23:14:53.293;599616058857822916;9592.613;135
2024-05-16T23:14:53.301;599616058865515542;9600.307;190
2024-05-16T23:14:53.308;599616058873208168;9607.998;168
2024-05-16T23:14:53.316;599616058880900794;9615.69;156
2024-05-16T23:14:53.324;599616058888593420;9623.384;194
2024-05-16T23:14:53.332;599616058896286046;9631.076;218
2024-05-16T23:14:53.339;599616058903978672;9638.769;225
2024-05-16T23:14:53.347;599616058911671298;9646.462;259
2024-05-16T23:14:53.355;599616058919363924;9654.154;304
2024-05-16T23:14:53.362;599616058927056550;9661.847;316
2024-05-16T23:14:53.370;599616058934749176;9669.54;294
2024-05-16T23:14:53.378;599616058942441802;9677.232;280
2024-05-16T23:14:53.385;599616058950134428;9684.925;230
2024-05-16T23:14:53.393;599616058957827054;9692.618;135
2024-05-16T23:14:53.401;599616058965519680;9700.31;116
2024-05-16T23:14:53.409;599616058973212306;9708.002;144
2024-05-16T23:14:53.416;599616058980904932;9715.695;109
2024-05-16T23:14:53.424;599616058988597558;9723.388;57
2024-05-16T23:14:53.432;599616058996290184;9731.08;35
2024-05-16T23:14:53.439;599616059003982810;9738.773;2
2024-05-16T23:14:53.447;599616059011675436;9746.466;-47
2024-05-16T23:14:53.455;599616059019368062;9754.158;-118
2024-05-16T23:14:53.462;599616059027060688;9761.852;-182
2024-05-16T23:14:53.470;599616059034753314;9769.544;-182
2024-05-16T23:14:53.478;599616059042445940;9777.236;-140
2024-05-16T23:14:53.485;599616059050138566;9784.93;-121
2024-05-16T23:14:53.493;599616059057831192;9792.621;-116
2024-05-16T23:14:53.501;599616059065523818;9800.313;-92
2024-05-16T23:14:53.509;599616059073216444;9808.007;-123
2024-05-16T23:14:53.516;599616059080909070;9815.699;-216
2024-05-16T23:14:53.524;599616059088601696;9823.392;-121
2024-05-16T23:14:53.532;599616059096294322;9831.085;346
2024-05-16T23:14:53.539;599616059103986948;9838.777;914
2024-05-16T23:14:53.547;599616059111679574;9846.47;1059
2024-05-16T23:14:53.555;599616059119372200;9854.163;605
2024-05-16T23:14:53.562;599616059127064826;9861.855;64
2024-05-16T23:14:53.570;599616059134757452;9869.548;-16
2024-05-16T23:14:53.578;599616059142450078;9877.241;111
2024-05-16T23:14:53.585;599616059150142704;9884.934;87
2024-05-16T23:14:53.593;599616059157835330;9892.625;80
2024-05-16T23:14:53.601;599616059165527956;9900.318;137
2024-05-16T23:14:53.609;599616059173220582;9908.011;133
2024-05-16T23:14:53.616;599616059180913208;9915.703;144
2024-05-16T23:14:53.624;599616059188605834;9923.396;232
2024-05-16T23:14:53.632;599616059196298460;9931.089;294
2024-05-16T23:14:53.639;599616059203991086;9938.781;306
2024-05-16T23:14:53.647;599616059211683712;9946.475;323
2024-05-16T23:14:53.655;599616059219376338;9954.167;370
2024-05-16T23:14:53.662;599616059227068964;9961.859;384
2024-05-16T23:14:53.670;599616059234761590;9969.553;349
2024-05-16T23:14:53.678;599616059242454216;9977.245;354
2024-05-16T23:14:53.685;599616059250146842;9984.937;375
2024-05-16T23:14:53.693;599616059257839468;9992.63;318
2024-05-16T23:14:53.701;599616059265532094;10000.322;230
2024-05-16T23:14:53.709;599616059273224720;10008.015;213
2024-05-16T23:14:53.716;599616059280917346;10015.708;247
2024-05-16T23:14:53.724;599616059288609972;10023.4;254
2024-05-16T23:14:53.732;599616059296302598;10031.093;244
2024-05-16T23:14:53.739;599616059303995224;10038.786;247
2024-05-16T23:14:53.747;599616059311687850;10046.479;261
2024-05-16T23:14:53.755;599616059319380476;10054.171;270
2024-05-16T23:14:53.762;599616059327073102;10061.864;273
2024-05-16T23:14:53.770;599616059334765728;10069.557;292
2024-05-16T23:14:53.778;599616059342458354;10077.248;318
2024-05-16T23:14:53.785;599616059350150980;10084.941;304
2024-05-16T23:14:53.793;599616059357843606;10092.634;282
2024-05-16T23:14:53.801;599616059365536232;10100.326;311
2024-05-16T23:14:53.809;599616059373248968;10108.039;337
2024-05-16T23:14:53.816;599616059380941315;10115.731;304
2024-05-16T23:14:53.824;599616059388633662;10123.424;244
2024-05-16T23:14:53.832;599616059396326009;10131.116;204
2024-05-16T23:14:53.839;599616059404018356;10138.809;149
2024-05-16T23:14:53.847;599616059411710703;10146.501;23
2024-05-16T23:14:53.855;599616059419403050;10154.194;-85
2024-05-16T23:14:53.862;599616059427095397;10161.886;-76
2024-05-16T23:14:53.870;599616059434787744;10169.578;-47
2024-05-16T23:14:53.878;599616059442480091;10177.2705;-90
2024-05-16T23:14:53.885;599616059450172438;10184.963;-187
2024-05-16T23:14:53.893;599616059457864785;10192.655;-244
2024-05-16T23:14:53.901;599616059465557132;10200.348;-220
2024-05-16T23:14:53.909;599616059473249479;10208.04;-223
2024-05-16T23:14:53.916;599616059480941826;10215.732;-299
2024-05-16T23:14:53.924;599616059488634173;10223.425;-339
2024-05-16T23:14:53.932;599616059496326520;10231.117;-175
2024-05-16T23:14:53.939;599616059504018867;10238.81;263
2024-05-16T23:14:53.947;599616059511711214;10246.501;712
2024-05-16T23:14:53.955;599616059519403561;10254.193;755
2024-05-16T23:14:53.962;599616059527095908;10261.886;292
2024-05-16T23:14:53.970;599616059534788255;10269.578;-199
2024-05-16T23:14:53.978;599616059542480602;10277.2705;-230
2024-05-16T23:14:53.985;599616059550172949;10284.963;-80
2024-05-16T23:14:53.993;599616059557865296;10292.656;-121
2024-05-16T23:14:54.001;599616059565557643;10300.349;-147
2024-05-16T23:14:54.009;599616059573249990;10308.041;-61
2024-05-16T23:14:54.016;599616059580942337;10315.733;-26
2024-05-16T23:14:54.024;599616059588634684;10323.425;-28
2024-05-16T23:14:54.032;599616059596327031;10331.117;26
2024-05-16T23:14:54.039;599616059604019378;10338.81;99
2024-05-16T23:14:54.047;599616059611711725;10346.502;154
2024-05-16T23:14:54.055;599616059619404072;10354.194;192
2024-05-16T23:14:54.062;599616059627096419;10361.887;209
2024-05-16T23:14:54.070;599616059634788766;10369.579;211
2024-05-16T23:14:54.078;599616059642481113;10377.271;209
2024-05-16T23:14:54.085;599616059650173460;10384.964;201
2024-05-16T23:14:54.093;599616059657865807;10392.656;209
2024-05-16T23:14:54.101;599616059665558154;10400.349;225
2024-05-16T23:14:54.109;599616059673250501;10408.04;213
2024-05-16T23:14:54.116;599616059680942848;10415.732;175
2024-05-16T23:14:54.124;599616059688635195;10423.426;159
2024-05-16T23:14:54.132;599616059696327542;10431.118;178
2024-05-16T23:14:54.139;599616059704019889;10438.811;218
2024-05-16T23:14:54.147;599616059711712236;10446.503;218
2024-05-16T23:14:54.155;599616059719404583;10454.195;187
2024-05-16T23:14:54.162;599616059727096930;10461.888;199
2024-05-16T23:14:54.170;599616059734789277;10469.58;223
2024-05-16T23:14:54.178;599616059742481624;10477.272;213
2024-05-16T23:14:54.185;599616059750173971;10484.964;180
2024-05-16T23:14:54.193;599616059757866318;10492.656;130
2024-05-16T23:14:54.201;599616059765558665;10500.349;90
2024-05-16T23:14:54.209;599616059773251012;10508.041;76
2024-05-16T23:14:54.216;599616059780943359;10515.733;78
2024-05-16T23:14:54.224;599616059788635706;10523.426;97
2024-05-16T23:14:54.232;599616059796328053;10531.118;99
2024-05-16T23:14:54.239;599616059804020400;10538.811;49
2024-05-16T23:14:54.247;599616059811712747;10546.503;-16
2024-05-16T23:14:54.255;599616059819405094;10554.196;-57
2024-05-16T23:14:54.262;599616059827097441;10561.889;-73
2024-05-16T23:14:54.270;599616059834789788;10569.58;-83
2024-05-16T23:14:54.278;599616059842482135;10577.272;-76
2024-05-16T23:14:54.285;599616059850174482;10584.965;-59
2024-05-16T23:14:54.293;599616059857866829;10592.657;-73
2024-05-16T23:14:54.301;599616059865559176;10600.35;-102
2024-05-16T23:14:54.309;599616059873251523;10608.042;-80
2024-05-16T23:14:54.316;599616059880943870;10615.734;-54
2024-05-16T23:14:54.324;599616059888636217;10623.427;-123
2024-05-16T23:14:54.332;599616059896328564;10631.119;-185
2024-05-16T23:14:54.339;599616059904020911;10638.812;2
2024-05-16T23:14:54.347;599616059911713258;10646.504;496
2024-05-16T23:14:54.355;599616059919405605;10654.195;910
2024-05-16T23:14:54.362;599616059927097952;10661.888;798
2024-05-16T23:14:54.370;599616059934780332;10669.571;278
2024-05-16T23:14:54.378;599616059942472818;10677.264;-64
2024-05-16T23:14:54.385;599616059950165304;10684.956;-14
2024-05-16T23:14:54.393;599616059957857790;10692.647;-16
2024-05-16T23:14:54.401;599616059965550276;10700.34;-178
2024-05-16T23:14:54.409;599616059973242762;10708.033;-175
2024-05-16T23:14:54.416;599616059980935248;10715.726;-78
2024-05-16T23:14:54.424;599616059988627734;10723.418;-90
2024-05-16T23:14:54.432;599616059996320220;10731.11;-137
2024-05-16T23:14:54.439;599616060004012706;10738.803;-166
2024-05-16T23:14:54.447;599616060011705192;10746.496;-216
2024-05-16T23:14:54.455;599616060019397678;10754.188;-237
2024-05-16T23:14:54.462;599616060027090164;10761.881;-168
2024-05-16T23:14:54.470;599616060034782650;10769.573;-111
2024-05-16T23:14:54.478;599616060042475136;10777.266;-152
2024-05-16T23:14:54.485;599616060050167622;10784.958;-175
2024-05-16T23:14:54.493;599616060057860108;10792.65;-118
2024-05-16T23:14:54.501;599616060065552594;10800.343;-71
2024-05-16T23:14:54.509;599616060073245080;10808.035;-73
2024-05-16T23:14:54.516;599616060080937566;10815.728;-76
2024-05-16T23:14:54.524;599616060088630052;10823.421;-71
2024-05-16T23:14:54.532;599616060096322538;10831.113;-76
2024-05-16T23:14:54.539;599616060104015024;10838.806;-73
2024-05-16T23:14:54.547;599616060111707510;10846.498;-47
2024-05-16T23:14:54.555;599616060119399996;10854.19;-9
2024-05-16T23:14:54.562;599616060127092482;10861.883;16
2024-05-16T23:14:54.570;599616060134784968;10869.575;9
2024-05-16T23:14:54.578;599616060142477454;10877.268;14
2024-05-16T23:14:54.585;599616060150169940;10884.96;57
2024-05-16T23:14:54.593;599616060157862426;10892.652;85
2024-05-16T23:14:54.601;599616060165554912;10900.345;92
2024-05-16T23:14:54.609;599616060173247398;10908.038;104
2024-05-16T23:14:54.616;599616060180939884;10915.73;106
2024-05-16T23:14:54.624;599616060188632370;10923.423;99
2024-05-16T23:14:54.632;599616060196324856;10931.115;92
2024-05-16T23:14:54.639;599616060204017342;10938.808;78
2024-05-16T23:14:54.647;599616060211709828;10946.501;54
2024-05-16T23:14:54.655;599616060219402314;10954.193;9
2024-05-16T23:14:54.662;599616060227094800;10961.885;-61
2024-05-16T23:14:54.670;599616060234787286;10969.577;-106
2024-05-16T23:14:54.678;599616060242479772;10977.27;-142
2024-05-16T23:14:54.685;599616060250172258;10984.963;-216
2024-05-16T23:14:54.693;599616060257864744;10992.655;-251
2024-05-16T23:14:54.701;599616060265557230;11000.348;-228
2024-05-16T23:14:54.709;599616060273249716;11008.04;-223
2024-05-16T23:14:54.716;599616060280942202;11015.732;-240
2024-05-16T23:14:54.724;599616060288634688;11023.426;-266
2024-05-16T23:14:54.732;599616060296327174;11031.118;-313
2024-05-16T23:14:54.739;599616060304019660;11038.811;-235
2024-05-16T23:14:54.747;599616060311712146;11046.502;123
2024-05-16T23:14:54.755;599616060319404632;11054.194;608
2024-05-16T23:14:54.762;599616060327097118;11061.888;788
2024-05-16T23:14:54.770;599616060334789604;11069.58;430
2024-05-16T23:14:54.778;599616060342482090;11077.272;-97
2024-05-16T23:14:54.785;599616060350174576;11084.965;-213
2024-05-16T23:14:54.793;599616060357867062;11092.657;-68
2024-05-16T23:14:54.801;599616060365559548;11100.35;-102
2024-05-16T23:14:54.809;599616060373252034;11108.043;-171
2024-05-16T23:14:54.816;599616060380944520;11115.735;-90
2024-05-16T23:14:54.824;599616060388637006;11123.428;-7
2024-05-16T23:14:54.832;599616060396329492;11131.119;-4
2024-05-16T23:14:54.839;599616060404021978;11138.812;2
2024-05-16T23:14:54.847;599616060411714464;11146.505;42
2024-05-16T23:14:54.855;599616060419406950;11154.197;83
2024-05-16T23:14:54.862;599616060427099436;11161.89;114
2024-05-16T23:14:54.870;599616060434791922;11169.582;144
2024-05-16T23:14:54.878;599616060442484408;11177.274;201
2024-05-16T23:14:54.885;599616060450176894;11184.968;242
2024-05-16T23:14:54.893;599616060457869380;11192.66;175
2024-05-16T23:14:54.901;599616060465561866;11200.353;45
2024-05-16T23:14:54.909;599616060473254352;11208.045;-11
2024-05-16T23:14:54.916;599616060480946838;11215.737;16
2024-05-16T23:14:54.924;599616060488639324;11223.43;-2
2024-05-16T23:14:54.932;599616060496321798;11231.112;-83
2024-05-16T23:14:54.939;599616060504014424;11238.805;-118
2024-05-16T23:14:54.947;599616060511707050;11246.498;-102
2024-05-16T23:14:54.955;599616060519399676;11254.19;-85
2024-05-16T23:14:54.962;599616060527092302;11261.883;-78
2024-05-16T23:14:54.970;599616060534784928;11269.575;-54
2024-05-16T23:14:54.978;599616060542477554;11277.268;-38
2024-05-16T23:14:54.985;599616060550170180;11284.96;-99
2024-05-16T23:14:54.993;599616060557862806;11292.653;-192
2024-05-16T23:14:55.001;599616060565555432;11300.346;-187
2024-05-16T23:14:55.009;599616060573248058;11308.038;-130
2024-05-16T23:14:55.016;599616060580940684;11315.731;-121
2024-05-16T23:14:55.024;599616060588633310;11323.424;-121
2024-05-16T23:14:55.032;599616060596325936;11331.116;-99
2024-05-16T23:14:55.039;599616060604018562;11338.81;-85
2024-05-16T23:14:55.047;599616060611711188;11346.502;-102
2024-05-16T23:14:55.055;599616060619403814;11354.194;-137
2024-05-16T23:14:55.062;599616060627096440;11361.888;-144
2024-05-16T23:14:55.070;599616060634789066;11369.579;-171
2024-05-16T23:14:55.078;599616060642481692;11377.271;-251
2024-05-16T23:14:55.085;599616060650174318;11384.965;-278
2024-05-16T23:14:55.093;599616060657866944;11392.657;-232
2024-05-16T23:14:55.101;599616060665559570;11400.35;-206
2024-05-16T23:14:55.109;599616060673252196;11408.043;-201
2024-05-16T23:14:55.116;599616060680944822;11415.735;-190
2024-05-16T23:14:55.124;599616060688637448;11423.428;-209
2024-05-16T23:14:55.132;599616060696330074;11431.121;-278
2024-05-16T23:14:55.139;599616060704022700;11438.813;-266
2024-05-16T23:14:55.147;599616060711715326;11446.506;71
2024-05-16T23:14:55.155;599616060719407952;11454.199;655
2024-05-16T23:14:55.162;599616060727100578;11461.891;948
2024-05-16T23:14:55.170;599616060734793204;11469.583;558
2024-05-16T23:14:55.178;599616060742485830;11477.276;-111
2024-05-16T23:14:55.185;599616060750178456;11484.969;-304
2024-05-16T23:14:55.193;599616060757871082;11492.661;-130
2024-05-16T23:14:55.201;599616060765563708;11500.3545;-140
2024-05-16T23:14:55.209;599616060773256334;11508.047;-201
2024-05-16T23:14:55.216;599616060780948960;11515.739;-114
2024-05-16T23:14:55.224;599616060788641586;11523.433;-61
2024-05-16T23:14:55.232;599616060796334212;11531.125;-73
2024-05-16T23:14:55.239;599616060804026838;11538.817;-19
2024-05-16T23:14:55.247;599616060811719464;11546.511;54
2024-05-16T23:14:55.255;599616060819412090;11554.202;76
2024-05-16T23:14:55.262;599616060827104716;11561.895;71
2024-05-16T23:14:55.270;599616060834797342;11569.588;116
2024-05-16T23:14:55.278;599616060842489968;11577.28;204
2024-05-16T23:14:55.285;599616060850182594;11584.973;247
2024-05-16T23:14:55.293;599616060857875220;11592.665;254
2024-05-16T23:14:55.301;599616060865567846;11600.358;251
2024-05-16T23:14:55.309;599616060873260472;11608.051;204
2024-05-16T23:14:55.316;599616060880953098;11615.743;147
2024-05-16T23:14:55.324;599616060888645724;11623.437;130
2024-05-16T23:14:55.332;599616060896338350;11631.129;137
2024-05-16T23:14:55.339;599616060904030976;11638.821;144
2024-05-16T23:14:55.347;599616060911723602;11646.515;114
2024-05-16T23:14:55.355;599616060919416228;11654.206;59
2024-05-16T23:14:55.362;599616060927108854;11661.898;68
2024-05-16T23:14:55.370;599616060934801480;11669.592;118
2024-05-16T23:14:55.378;599616060942494106;11677.284;128
2024-05-16T23:14:55.385;599616060950186732;11684.977;135
2024-05-16T23:14:55.393;599616060957879358;11692.67;130
2024-05-16T23:14:55.401;599616060965571984;11700.362;21
2024-05-16T23:14:55.409;599616060973264610;11708.055;-109
2024-05-16T23:14:55.416;599616060980957236;11715.748;-130
2024-05-16T23:14:55.424;599616060988649862;11723.44;-144
2024-05-16T23:14:55.432;599616060996342488;11731.133;-173
2024-05-16T23:14:55.439;599616061004035114;11738.826;-147
2024-05-16T23:14:55.447;599616061011727740;11746.518;-135
2024-05-16T23:14:55.455;599616061019420366;11754.21;-137
2024-05-16T23:14:55.462;599616061027112992;11761.903;-147
2024-05-16T23:14:55.470;599616061034805618;11769.596;-197
2024-05-16T23:14:55.478;599616061042498244;11777.288;-242
2024-05-16T23:14:55.485;599616061050190870;11784.981;-259
2024-05-16T23:14:55.493;599616061057888556;11792.679;-292
2024-05-16T23:14:55.501;599616061065581112;11800.371;-316
2024-05-16T23:14:55.509;599616061073273668;11808.064;-294
2024-05-16T23:14:55.516;599616061080966224;11815.757;-278
2024-05-16T23:14:55.524;599616061088658780;11823.449;-320
2024-05-16T23:14:55.532;599616061096351336;11831.142;-399
2024-05-16T23:14:55.539;599616061104043892;11838.835;-323
2024-05-16T23:14:55.547;599616061111736448;11846.527;104
2024-05-16T23:14:55.555;599616061119429004;11854.22;643
2024-05-16T23:14:55.562;599616061127121560;11861.911;741
2024-05-16T23:14:55.570;599616061134814116;11869.6045;259
2024-05-16T23:14:55.578;599616061142506672;11877.297;-306
2024-05-16T23:14:55.585;599616061150199228;11884.989;-437
2024-05-16T23:14:55.593;599616061157891784;11892.682;-301
2024-05-16T23:14:55.601;599616061165584340;11900.375;-280
2024-05-16T23:14:55.609;599616061173276896;11908.067;-292
2024-05-16T23:14:55.616;599616061180969452;11915.76;-228
2024-05-16T23:14:55.624;599616061188662008;11923.452;-185
2024-05-16T23:14:55.632;599616061196354564;11931.1455;-161
2024-05-16T23:14:55.639;599616061204047120;11938.838;-114
2024-05-16T23:14:55.647;599616061211739676;11946.53;-66
2024-05-16T23:14:55.655;599616061219432232;11954.223;-38
2024-05-16T23:14:55.662;599616061227124788;11961.915;-14
2024-05-16T23:14:55.670;599616061234817344;11969.607;-19
2024-05-16T23:14:55.678;599616061242509900;11977.3;-23
2024-05-16T23:14:55.685;599616061250202456;11984.993;11
2024-05-16T23:14:55.693;599616061257895012;11992.686;54
2024-05-16T23:14:55.701;599616061265587568;12000.378;90
2024-05-16T23:14:55.709;599616061273280124;12008.07;111
2024-05-16T23:14:55.716;599616061280972680;12015.764;78
2024-05-16T23:14:55.724;599616061288665236;12023.456;26
2024-05-16T23:14:55.732;599616061296357792;12031.148;9
2024-05-16T23:14:55.739;599616061304050348;12038.84;-9
2024-05-16T23:14:55.747;599616061311742904;12046.533;-21
2024-05-16T23:14:55.755;599616061319435460;12054.226;14
2024-05-16T23:14:55.762;599616061327128016;12061.918;35
2024-05-16T23:14:55.770;599616061334820572;12069.61;4
2024-05-16T23:14:55.778;599616061342513128;12077.304;7
2024-05-16T23:14:55.785;599616061350205684;12084.996;68
2024-05-16T23:14:55.793;599616061357898240;12092.688;104
2024-05-16T23:14:55.801;599616061365590796;12100.381;90
2024-05-16T23:14:55.809;599616061373283352;12108.074;95
2024-05-16T23:14:55.816;599616061380975908;12115.767;121
2024-05-16T23:14:55.824;599616061388668464;12123.459;123
2024-05-16T23:14:55.832;599616061396361020;12131.152;123
2024-05-16T23:14:55.839;599616061404053576;12138.844;154
2024-05-16T23:14:55.847;599616061411746132;12146.536;194
2024-05-16T23:14:55.855;599616061419438688;12154.229;199
2024-05-16T23:14:55.862;599616061427131244;12161.922;185
2024-05-16T23:14:55.870;599616061434823800;12169.614;173
2024-05-16T23:14:55.878;599616061442516356;12177.307;147
2024-05-16T23:14:55.885;599616061450208912;12184.999;97
2024-05-16T23:14:55.893;599616061457901468;12192.692;42
2024-05-16T23:14:55.901;599616061465594024;12200.385;-40
2024-05-16T23:14:55.909;599616061473286580;12208.077;-223
2024-05-16T23:14:55.916;599616061480979136;12215.77;-439
2024-05-16T23:14:55.924;599616061488671692;12223.462;-532
2024-05-16T23:14:55.932;599616061496364248;12231.154;-427
2024-05-16T23:14:55.939;599616061504056804;12238.847;-52
2024-05-16T23:14:55.947;599616061511749360;12246.539;503
2024-05-16T23:14:55.955;599616061519441916;12254.232;812
2024-05-16T23:14:55.962;599616061527134472;12261.925;534
2024-05-16T23:14:55.970;599616061534827028;12269.617;-85
2024-05-16T23:14:55.978;599616061542519584;12277.311;-394
2024-05-16T23:14:55.986;599616061550212140;12285.003;-268
2024-05-16T23:14:55.993;599616061557904696;12292.695;-190
2024-05-16T23:14:56.001;599616061565597252;12300.388;-254
2024-05-16T23:14:56.009;599616061573289808;12308.081;-240
2024-05-16T23:14:56.016;599616061580982364;12315.772;-163
2024-05-16T23:14:56.024;599616061588674920;12323.465;-116
2024-05-16T23:14:56.032;599616061596367476;12331.157;-68
2024-05-16T23:14:56.039;599616061604060032;12338.851;-9
2024-05-16T23:14:56.047;599616061611752588;12346.543;30
2024-05-16T23:14:56.055;599616061619465274;12354.256;57
2024-05-16T23:14:56.062;599616061627157551;12361.948;97
2024-05-16T23:14:56.070;599616061634849828;12369.641;152
2024-05-16T23:14:56.078;599616061642542105;12377.333;216
2024-05-16T23:14:56.086;599616061650234382;12385.025;251
2024-05-16T23:14:56.093;599616061657926659;12392.718;192
2024-05-16T23:14:56.101;599616061665618936;12400.409;83
2024-05-16T23:14:56.109;599616061673311213;12408.102;54
2024-05-16T23:14:56.116;599616061681003490;12415.794;95
2024-05-16T23:14:56.124;599616061688695767;12423.486;66
2024-05-16T23:14:56.132;599616061696388044;12431.179;-9
2024-05-16T23:14:56.139;599616061704080321;12438.871;-19
2024-05-16T23:14:56.147;599616061711772598;12446.563;4
2024-05-16T23:14:56.155;599616061719464875;12454.256;-4
2024-05-16T23:14:56.162;599616061727157152;12461.948;-21
2024-05-16T23:14:56.170;599616061734849429;12469.641;-4
2024-05-16T23:14:56.178;599616061742541706;12477.332;16
2024-05-16T23:14:56.186;599616061750233983;12485.024;14
2024-05-16T23:14:56.193;599616061757926260;12492.717;26
2024-05-16T23:14:56.201;599616061765618537;12500.409;61
2024-05-16T23:14:56.209;599616061773310814;12508.102;85
2024-05-16T23:14:56.216;599616061781003091;12515.794;97
2024-05-16T23:14:56.224;599616061788695368;12523.486;102
2024-05-16T23:14:56.232;599616061796387645;12531.179;109
2024-05-16T23:14:56.239;599616061804079922;12538.871;137
2024-05-16T23:14:56.247;599616061811772199;12546.563;168
2024-05-16T23:14:56.255;599616061819464476;12554.254;190
2024-05-16T23:14:56.262;599616061827156753;12561.946;218
2024-05-16T23:14:56.270;599616061834849030;12569.639;254
2024-05-16T23:14:56.278;599616061842541307;12577.331;235
2024-05-16T23:14:56.286;599616061850233584;12585.023;166
2024-05-16T23:14:56.293;599616061857925861;12592.716;133
2024-05-16T23:14:56.301;599616061865618138;12600.408;125
2024-05-16T23:14:56.309;599616061873310415;12608.101;30
2024-05-16T23:14:56.316;599616061881002692;12615.793;-116
2024-05-16T23:14:56.324;599616061888694969;12623.485;-90
2024-05-16T23:14:56.332;599616061896387246;12631.177;259
2024-05-16T23:14:56.339;599616061904079523;12638.869;772
2024-05-16T23:14:56.347;599616061911771800;12646.562;1036
2024-05-16T23:14:56.355;599616061919464077;12654.254;729
2024-05-16T23:14:56.362;599616061927156354;12661.946;104
2024-05-16T23:14:56.370;599616061934848631;12669.639;-185
2024-05-16T23:14:56.378;599616061942540908;12677.331;-73
2024-05-16T23:14:56.386;599616061950233185;12685.023;-4
2024-05-16T23:14:56.393;599616061957925462;12692.716;-33
2024-05-16T23:14:56.401;599616061965617739;12700.408;-38
2024-05-16T23:14:56.409;599616061973310016;12708.1;-128
2024-05-16T23:14:56.416;599616061981002293;12715.792;-266
2024-05-16T23:14:56.424;599616061988694570;12723.484;-275
2024-05-16T23:14:56.432;599616061996386847;12731.177;-218
2024-05-16T23:14:56.439;599616062004079124;12738.869;-168
2024-05-16T23:14:56.447;599616062011771401;12746.562;-80
2024-05-16T23:14:56.455;599616062019463678;12754.254;-11
2024-05-16T23:14:56.462;599616062027155955;12761.946;-11
2024-05-16T23:14:56.470;599616062034848232;12769.639;14
2024-05-16T23:14:56.478;599616062042540509;12777.331;95
2024-05-16T23:14:56.486;599616062050232786;12785.023;128
2024-05-16T23:14:56.493;599616062057925063;12792.715;97
2024-05-16T23:14:56.501;599616062065617340;12800.407;99
2024-05-16T23:14:56.509;599616062073309617;12808.1;109
2024-05-16T23:14:56.516;599616062081001894;12815.792;64
2024-05-16T23:14:56.524;599616062088694171;12823.484;45
2024-05-16T23:14:56.532;599616062096386448;12831.177;66
2024-05-16T23:14:56.539;599616062104078725;12838.869;38
2024-05-16T23:14:56.547;599616062111771002;12846.562;-33
2024-05-16T23:14:56.555;599616062119463279;12854.254;-66
2024-05-16T23:14:56.562;599616062127155556;12861.946;-38
2024-05-16T23:14:56.570;599616062134847833;12869.638;-2
2024-05-16T23:14:56.578;599616062142540110;12877.33;-14
2024-05-16T23:14:56.586;599616062150232387;12885.022;-45
2024-05-16T23:14:56.593;599616062157924664;12892.715;-45
2024-05-16T23:14:56.601;599616062165616941;12900.407;-54
2024-05-16T23:14:56.609;599616062173309218;12908.1;-102
2024-05-16T23:14:56.616;599616062180976434;12915.768;-102
2024-05-16T23:14:56.624;599616062188669060;12923.46;-42
2024-05-16T23:14:56.632;599616062196361686;12931.152;-21
2024-05-16T23:14:56.639;599616062204054312;12938.845;-47
2024-05-16T23:14:56.647;599616062211746938;12946.537;-73
2024-05-16T23:14:56.655;599616062219439564;12954.2295;-109
2024-05-16T23:14:56.662;599616062227132190;12961.923;-180
2024-05-16T23:14:56.670;599616062234824816;12969.615;-259
2024-05-16T23:14:56.678;599616062242517442;12977.308;-280
2024-05-16T23:14:56.686;599616062250210068;12985.0;-266
2024-05-16T23:14:56.693;599616062257902694;12992.693;-313
2024-05-16T23:14:56.701;599616062265595320;13000.386;-422
2024-05-16T23:14:56.709;599616062273287946;13008.078;-501
2024-05-16T23:14:56.716;599616062280980572;13015.771;-444
2024-05-16T23:14:56.724;599616062288673198;13023.464;-102
2024-05-16T23:14:56.732;599616062296365824;13031.155;403
2024-05-16T23:14:56.739;599616062304058450;13038.849;553
2024-05-16T23:14:56.747;599616062311751076;13046.541;111
2024-05-16T23:14:56.755;599616062319443702;13054.233;-430
2024-05-16T23:14:56.762;599616062327136328;13061.927;-539
2024-05-16T23:14:56.770;599616062334828954;13069.619;-392
2024-05-16T23:14:56.778;599616062342521580;13077.312;-377
2024-05-16T23:14:56.786;599616062350214206;13085.005;-430
2024-05-16T23:14:56.793;599616062357906832;13092.697;-377
2024-05-16T23:14:56.801;599616062365599458;13100.39;-297
2024-05-16T23:14:56.809;599616062373292084;13108.083;-282
2024-05-16T23:14:56.816;599616062380984710;13115.775;-282
2024-05-16T23:14:56.824;599616062388677336;13123.467;-251
2024-05-16T23:14:56.832;599616062396369962;13131.16;-225
2024-05-16T23:14:56.839;599616062404062588;13138.853;-190
2024-05-16T23:14:56.847;599616062411755214;13146.545;-147
2024-05-16T23:14:56.855;599616062419447840;13154.238;-106
2024-05-16T23:14:56.862;599616062427140466;13161.931;-35
2024-05-16T23:14:56.870;599616062434833092;13169.623;38
2024-05-16T23:14:56.878;599616062442525718;13177.316;23
2024-05-16T23:14:56.886;599616062450218344;13185.009;-28
2024-05-16T23:14:56.893;599616062457910970;13192.701;-49
2024-05-16T23:14:56.901;599616062465603596;13200.395;-80
2024-05-16T23:14:56.909;599616062473296222;13208.087;-149
2024-05-16T23:14:56.916;599616062480988848;13215.779;-249
2024-05-16T23:14:56.924;599616062488681474;13223.472;-323
2024-05-16T23:14:56.932;599616062496374100;13231.164;-292
2024-05-16T23:14:56.939;599616062504066726;13238.856;-237
2024-05-16T23:14:56.947;599616062511759352;13246.55;-256
2024-05-16T23:14:56.955;599616062519451978;13254.242;-299
2024-05-16T23:14:56.962;599616062527144604;13261.935;-294
2024-05-16T23:14:56.970;599616062534837230;13269.628;-278
2024-05-16T23:14:56.978;599616062542529856;13277.32;-275
2024-05-16T23:14:56.986;599616062550222482;13285.013;-247
2024-05-16T23:14:56.993;599616062557915108;13292.706;-223
2024-05-16T23:14:57.001;599616062565607734;13300.398;-230
2024-05-16T23:14:57.009;599616062573300360;13308.091;-206
2024-05-16T23:14:57.016;599616062580992986;13315.783;-166
2024-05-16T23:14:57.024;599616062588685612;13323.476;-166
2024-05-16T23:14:57.032;599616062596378238;13331.168;-173
2024-05-16T23:14:57.039;599616062604070864;13338.861;-114
2024-05-16T23:14:57.047;599616062611763490;13346.554;-28
2024-05-16T23:14:57.055;599616062619456116;13354.246;-16
2024-05-16T23:14:57.062;599616062627148742;13361.939;-54
2024-05-16T23:14:57.070;599616062634841368;13369.632;-42
2024-05-16T23:14:57.078;599616062642533994;13377.324;9
2024-05-16T23:14:57.086;599616062650226620;13385.018;28
2024-05-16T23:14:57.093;599616062657919246;13392.71;-11
2024-05-16T23:14:57.101;599616062665611872;13400.402;-85
2024-05-16T23:14:57.109;599616062673304498;13408.096;-42
2024-05-16T23:14:57.116;599616062680997124;13415.787;301
2024-05-16T23:14:57.124;599616062688689750;13423.4795;781
2024-05-16T23:14:57.132;599616062696382376;13431.173;857
2024-05-16T23:14:57.139;599616062704075002;13438.865;313
2024-05-16T23:14:57.147;599616062711767628;13446.558;-327
2024-05-16T23:14:57.155;599616062719460254;13454.251;-480
2024-05-16T23:14:57.162;599616062727152880;13461.943;-335
2024-05-16T23:14:57.170;599616062734845506;13469.636;-320
2024-05-16T23:14:57.178;599616062742568248;13477.358;-337
2024-05-16T23:14:57.186;599616062750260456;13485.051;-270
2024-05-16T23:14:57.193;599616062757952664;13492.743;-244
2024-05-16T23:14:57.201;599616062765644872;13500.436;-287
2024-05-16T23:14:57.209;599616062773337080;13508.128;-346
2024-05-16T23:14:57.216;599616062781029288;13515.82;-365
2024-05-16T23:14:57.224;599616062788721496;13523.513;-313
2024-05-16T23:14:57.232;599616062796413704;13531.203;-244
2024-05-16T23:14:57.239;599616062804105912;13538.8955;-192
2024-05-16T23:14:57.247;599616062811798120;13546.588;-137
2024-05-16T23:14:57.255;599616062819490328;13554.28;-95
2024-05-16T23:14:57.262;599616062827182536;13561.973;-52
2024-05-16T23:14:57.270;599616062834874744;13569.665;4
2024-05-16T23:14:57.278;599616062842566952;13577.357;30
2024-05-16T23:14:57.286;599616062850259160;13585.05;14
2024-05-16T23:14:57.293;599616062857951368;13592.742;-9
2024-05-16T23:14:57.301;599616062865643576;13600.435;-11
2024-05-16T23:14:57.309;599616062873335784;13608.126;28
2024-05-16T23:14:57.316;599616062881027992;13615.818;83
2024-05-16T23:14:57.324;599616062888720200;13623.511;85
2024-05-16T23:14:57.332;599616062896412408;13631.202;23
2024-05-16T23:14:57.339;599616062904104616;13638.895;7
2024-05-16T23:14:57.347;599616062911796824;13646.587;52
2024-05-16T23:14:57.355;599616062919489032;13654.279;64
2024-05-16T23:14:57.362;599616062927181240;13661.972;40
2024-05-16T23:14:57.370;599616062934873448;13669.664;14
2024-05-16T23:14:57.378;599616062942565656;13677.356;-23
2024-05-16T23:14:57.386;599616062950257864;13685.048;-61
2024-05-16T23:14:57.393;599616062957950072;13692.74;-76
2024-05-16T23:14:57.401;599616062965642280;13700.433;-66
2024-05-16T23:14:57.409;599616062973334488;13708.125;-61
2024-05-16T23:14:57.416;599616062981026696;13715.817;-104
2024-05-16T23:14:57.424;599616062988718904;13723.51;-166
2024-05-16T23:14:57.432;599616062996411112;13731.201;-185
2024-05-16T23:14:57.439;599616063004103320;13738.894;-171
2024-05-16T23:14:57.447;599616063011795528;13746.586;-137
2024-05-16T23:14:57.455;599616063019487736;13754.278;-99
2024-05-16T23:14:57.462;599616063027179944;13761.97;-59
2024-05-16T23:14:57.470;599616063034872152;13769.662;-30
2024-05-16T23:14:57.478;599616063042564360;13777.3545;-49
2024-05-16T23:14:57.486;599616063050256568;13785.047;-114
2024-05-16T23:14:57.493;599616063057948776;13792.739;-154
2024-05-16T23:14:57.501;599616063065640984;13800.432;-38
2024-05-16T23:14:57.509;599616063073333192;13808.124;375
2024-05-16T23:14:57.516;599616063081025400;13815.816;917
2024-05-16T23:14:57.524;599616063088717608;13823.509;1043
2024-05-16T23:14:57.532;599616063096409816;13831.2;480
2024-05-16T23:14:57.539;599616063104102024;13838.892;-216
2024-05-16T23:14:57.547;599616063111794232;13846.584;-354
2024-05-16T23:14:57.555;599616063119486440;13854.276;-175
2024-05-16T23:14:57.562;599616063127178648;13861.969;-211
2024-05-16T23:14:57.570;599616063134870856;13869.661;-311
2024-05-16T23:14:57.578;599616063142563064;13877.354;-254
2024-05-16T23:14:57.586;599616063150255272;13885.046;-185
2024-05-16T23:14:57.593;599616063157947480;13892.738;-175
2024-05-16T23:14:57.601;599616063165639688;13900.431;-152
2024-05-16T23:14:57.609;599616063173331896;13908.123;-121
2024-05-16T23:14:57.616;599616063181024104;13915.814;-97
2024-05-16T23:14:57.624;599616063188716312;13923.506;-54
2024-05-16T23:14:57.632;599616063196408520;13931.198;-16
2024-05-16T23:14:57.639;599616063204100728;13938.891;-11
2024-05-16T23:14:57.647;599616063211792936;13946.583;4
2024-05-16T23:14:57.655;599616063219485144;13954.275;19
2024-05-16T23:14:57.662;599616063227177352;13961.968;7
2024-05-16T23:14:57.670;599616063234869560;13969.66;35
2024-05-16T23:14:57.678;599616063242561768;13977.353;76
2024-05-16T23:14:57.686;599616063250253976;13985.045;64
2024-05-16T23:14:57.693;599616063257946184;13992.736;73
2024-05-16T23:14:57.701;599616063265638392;14000.429;128
2024-05-16T23:14:57.709;599616063273330600;14008.121;118
2024-05-16T23:14:57.716;599616063281022808;14015.813;64
2024-05-16T23:14:57.724;599616063288715016;14023.505;95
2024-05-16T23:14:57.732;599616063296407224;14031.197;175
2024-05-16T23:14:57.739;599616063304084400;14038.875;228
2024-05-16T23:14:57.747;599616063311776817;14046.567;213
2024-05-16T23:14:57.755;599616063319469234;14054.26;166
2024-05-16T23:14:57.762;599616063327161651;14061.952;168
2024-05-16T23:14:57.770;599616063334854068;14069.645;175
2024-05-16T23:14:57.778;599616063342546485;14077.337;116
2024-05-16T23:14:57.786;599616063350238902;14085.029;80
2024-05-16T23:14:57.793;599616063357931319;14092.723;121
2024-05-16T23:14:57.801;599616063365623736;14100.414;123
2024-05-16T23:14:57.809;599616063373316153;14108.106;23
2024-05-16T23:14:57.816;599616063381008570;14115.799;-21
2024-05-16T23:14:57.824;599616063388700987;14123.491;35
2024-05-16T23:14:57.832;599616063396393404;14131.184;57
2024-05-16T23:14:57.839;599616063404085821;14138.876;26
2024-05-16T23:14:57.847;599616063411778238;14146.568;23
2024-05-16T23:14:57.855;599616063419470655;14154.262;64
2024-05-16T23:14:57.862;599616063427163072;14161.954;106
2024-05-16T23:14:57.870;599616063434855489;14169.646;111
2024-05-16T23:14:57.878;599616063442547906;14177.338;40
2024-05-16T23:14:57.886;599616063450240323;14185.03;-71
2024-05-16T23:14:57.893;599616063457932740;14192.723;11
2024-05-16T23:14:57.901;599616063465625157;14200.415;472
2024-05-16T23:14:57.909;599616063473317574;14208.107;1031
2024-05-16T23:14:57.916;599616063481009991;14215.801;1121
2024-05-16T23:14:57.924;599616063488702408;14223.493;520
2024-05-16T23:14:57.932;599616063496394825;14231.186;-216
2024-05-16T23:14:57.939;599616063504087242;14238.878;-375
2024-05-16T23:14:57.947;599616063511779659;14246.57;-249
2024-05-16T23:14:57.955;599616063519472076;14254.263;-320
2024-05-16T23:14:57.962;599616063527164493;14261.954;-361
2024-05-16T23:14:57.970;599616063534856910;14269.646;-275
2024-05-16T23:14:57.978;599616063542549327;14277.34;-273
2024-05-16T23:14:57.986;599616063550241744;14285.032;-301
2024-05-16T23:14:57.993;599616063557934161;14292.725;-244
2024-05-16T23:14:58.001;599616063565626578;14300.417;-168
2024-05-16T23:14:58.009;599616063573318995;14308.109;-144
2024-05-16T23:14:58.016;599616063581011412;14315.802;-111
2024-05-16T23:14:58.024;599616063588703829;14323.494;-47
2024-05-16T23:14:58.032;599616063596396246;14331.187;-2
2024-05-16T23:14:58.039;599616063604088663;14338.88;45
2024-05-16T23:14:58.047;599616063611781080;14346.571;73
2024-05-16T23:14:58.055;599616063619473497;14354.264;52
2024-05-16T23:14:58.062;599616063627165914;14361.956;61
2024-05-16T23:14:58.070;599616063634858331;14369.648;102
2024-05-16T23:14:58.078;599616063642550748;14377.341;99
2024-05-16T23:14:58.086;599616063650243165;14385.033;87
2024-05-16T23:14:58.093;599616063657935582;14392.726;102
2024-05-16T23:14:58.101;599616063665627999;14400.419;118
2024-05-16T23:14:58.109;599616063673320416;14408.111;137
2024-05-16T23:14:58.116;599616063681012833;14415.804;171
2024-05-16T23:14:58.124;599616063688705250;14423.496;171
2024-05-16T23:14:58.132;599616063696397667;14431.1875;99
2024-05-16T23:14:58.139;599616063704090084;14438.88;35
2024-05-16T23:14:58.147;599616063711782501;14446.572;78
2024-05-16T23:14:58.155;599616063719474918;14454.265;163
2024-05-16T23:14:58.162;599616063727167335;14461.958;182
2024-05-16T23:14:58.170;599616063734859752;14469.65;135
2024-05-16T23:14:58.178;599616063742552169;14477.343;83
2024-05-16T23:14:58.186;599616063750244586;14485.035;71
2024-05-16T23:14:58.193;599616063757937003;14492.728;83
2024-05-16T23:14:58.201;599616063765629420;14500.42;99
2024-05-16T23:14:58.209;599616063773321837;14508.112;116
2024-05-16T23:14:58.216;599616063781014254;14515.804;116
2024-05-16T23:14:58.224;599616063788706671;14523.497;92
2024-05-16T23:14:58.232;599616063796399088;14531.189;90
2024-05-16T23:14:58.239;599616063804091505;14538.882;140
2024-05-16T23:14:58.247;599616063811783922;14546.574;201
2024-05-16T23:14:58.255;599616063819476339;14554.267;199
2024-05-16T23:14:58.262;599616063827168756;14561.959;116
2024-05-16T23:14:58.270;599616063834861173;14569.651;49
2024-05-16T23:14:58.278;599616063842553590;14577.344;80
2024-05-16T23:14:58.286;599616063850246007;14585.037;242
2024-05-16T23:14:58.293;599616063857938424;14592.7295;643
2024-05-16T23:14:58.301;599616063865630858;14600.421;1152
2024-05-16T23:14:58.309;599616063873323275;14608.113;1230
2024-05-16T23:14:58.316;599616063881015692;14615.806;686
2024-05-16T23:14:58.324;599616063888708109;14623.498;128
2024-05-16T23:14:58.332;599616063896400526;14631.19;64
2024-05-16T23:14:58.339;599616063904092943;14638.883;171
2024-05-16T23:14:58.347;599616063911785360;14646.576;85
2024-05-16T23:14:58.355;599616063919477777;14654.269;-11
2024-05-16T23:14:58.362;599616063927170194;14661.961;-28
2024-05-16T23:14:58.370;599616063934862611;14669.653;-66
2024-05-16T23:14:58.378;599616063942555028;14677.346;-121
2024-05-16T23:14:58.386;599616063950247445;14685.037;-99
2024-05-16T23:14:58.393;599616063957939862;14692.7295;-54
2024-05-16T23:14:58.401;599616063965632279;14700.422;-90
2024-05-16T23:14:58.409;599616063973324696;14708.115;-161
2024-05-16T23:14:58.416;599616063981017113;14715.808;-168
2024-05-16T23:14:58.424;599616063988709530;14723.5;-149
2024-05-16T23:14:58.432;599616063996401947;14731.192;-206
2024-05-16T23:14:58.439;599616064004094364;14738.885;-289
2024-05-16T23:14:58.447;599616064011786781;14746.577;-299
2024-05-16T23:14:58.455;599616064019479198;14754.27;-263
2024-05-16T23:14:58.462;599616064027171615;14761.963;-242
2024-05-16T23:14:58.470;599616064034864032;14769.654;-223
2024-05-16T23:14:58.478;599616064042556449;14777.347;-201
2024-05-16T23:14:58.486;599616064050248866;14785.039;-163
2024-05-16T23:14:58.493;599616064057941283;14792.731;-147
2024-05-16T23:14:58.501;599616064065633700;14800.424;-163
2024-05-16T23:14:58.509;599616064073326117;14808.116;-137
2024-05-16T23:14:58.516;599616064081018534;14815.809;-68
2024-05-16T23:14:58.524;599616064088710951;14823.502;-11
2024-05-16T23:14:58.532;599616064096403368;14831.194;19
2024-05-16T23:14:58.539;599616064104095785;14838.887;23
2024-05-16T23:14:58.547;599616064111788202;14846.579;21
2024-05-16T23:14:58.555;599616064119480619;14854.2705;47
2024-05-16T23:14:58.562;599616064127173036;14861.963;73
2024-05-16T23:14:58.570;599616064134865453;14869.655;80
2024-05-16T23:14:58.578;599616064142557870;14877.348;102
2024-05-16T23:14:58.586;599616064150250287;14885.041;102
2024-05-16T23:14:58.593;599616064157942704;14892.733;52
2024-05-16T23:14:58.601;599616064165635121;14900.426;52
2024-05-16T23:14:58.609;599616064173327538;14908.118;104
2024-05-16T23:14:58.616;599616064181019955;14915.811;95
2024-05-16T23:14:58.624;599616064188712372;14923.503;35
2024-05-16T23:14:58.632;599616064196404789;14931.195;7
2024-05-16T23:14:58.639;599616064204097206;14938.887;4
2024-05-16T23:14:58.647;599616064211789623;14946.58;7
2024-05-16T23:14:58.655;599616064219482040;14954.272;28
2024-05-16T23:14:58.662;599616064227174457;14961.965;19
2024-05-16T23:14:58.670;599616064234866874;14969.657;-49
2024-05-16T23:14:58.678;599616064242559291;14977.35;-21
2024-05-16T23:14:58.686;599616064250251708;14985.042;323
2024-05-16T23:14:58.693;599616064257944125;14992.734;864
2024-05-16T23:14:58.701;599616064265636542;15000.427;1100
2024-05-16T23:14:58.709;599616064273328959;15008.12;743
2024-05-16T23:14:58.716;599616064281021376;15015.8125;182
2024-05-16T23:14:58.724;599616064288713793;15023.504;-23
2024-05-16T23:14:58.732;599616064296406210;15031.196;59
2024-05-16T23:14:58.739;599616064304098627;15038.889;61
2024-05-16T23:14:58.747;599616064311791044;15046.581;-11
2024-05-16T23:14:58.755;599616064319483461;15054.273;-33
2024-05-16T23:14:58.762;599616064327175878;15061.966;-64
2024-05-16T23:14:58.770;599616064334868295;15069.659;-137
2024-05-16T23:14:58.778;599616064342560712;15077.352;-144
2024-05-16T23:14:58.786;599616064350253129;15085.044;-85
2024-05-16T23:14:58.793;599616064357945546;15092.736;-85
2024-05-16T23:14:58.801;599616064365637963;15100.429;-106
2024-05-16T23:14:58.809;599616064373330380;15108.12;-49
2024-05-16T23:14:58.816;599616064381022797;15115.8125;19
2024-05-16T23:14:58.824;599616064388715214;15123.505;16
2024-05-16T23:14:58.832;599616064396407631;15131.198;9
2024-05-16T23:14:58.839;599616064404100048;15138.891;47
2024-05-16T23:14:58.847;599616064411792465;15146.583;64
2024-05-16T23:14:58.855;599616064419484882;15154.275;38
2024-05-16T23:14:58.862;599616064427167310;15161.957;-23
2024-05-16T23:14:58.870;599616064434859866;15169.65;-111
2024-05-16T23:14:58.878;599616064442552422;15177.343;-128
2024-05-16T23:14:58.886;599616064450244978;15185.035;-83
2024-05-16T23:14:58.893;599616064457937534;15192.728;-99
2024-05-16T23:14:58.901;599616064465630090;15200.421;-116
2024-05-16T23:14:58.909;599616064473322646;15208.113;-80
2024-05-16T23:14:58.916;599616064481015202;15215.806;-123
2024-05-16T23:14:58.924;599616064488707758;15223.498;-249
2024-05-16T23:14:58.932;599616064496400314;15231.191;-323
2024-05-16T23:14:58.939;599616064504092870;15238.884;-356
2024-05-16T23:14:58.947;599616064511785426;15246.575;-418
2024-05-16T23:14:58.955;599616064519477982;15254.268;-487
2024-05-16T23:14:58.962;599616064527170538;15261.961;-480
2024-05-16T23:14:58.970;599616064534863094;15269.653;-401
2024-05-16T23:14:58.978;599616064542555650;15277.346;-351
2024-05-16T23:14:58.986;599616064550248206;15285.038;-356
2024-05-16T23:14:58.993;599616064557940762;15292.731;-365
2024-05-16T23:14:59.001;599616064565633318;15300.424;-339
2024-05-16T23:14:59.009;599616064573325874;15308.116;-320
2024-05-16T23:14:59.016;599616064581018430;15315.81;-327
2024-05-16T23:14:59.024;599616064588710986;15323.502;-299
2024-05-16T23:14:59.032;599616064596403542;15331.194;-249
2024-05-16T23:14:59.039;599616064604096098;15338.886;-220
2024-05-16T23:14:59.047;599616064611788654;15346.579;-211
2024-05-16T23:14:59.055;599616064619481210;15354.271;-204
2024-05-16T23:14:59.062;599616064627173766;15361.964;-220
2024-05-16T23:14:59.070;599616064634866322;15369.656;-259
2024-05-16T23:14:59.078;599616064642558878;15377.35;-128
2024-05-16T23:14:59.086;599616064650251434;15385.042;342
2024-05-16T23:14:59.093;599616064657943990;15392.734;874
2024-05-16T23:14:59.101;599616064665636546;15400.427;910
2024-05-16T23:14:59.109;599616064673329102;15408.12;339
2024-05-16T23:14:59.116;599616064681021658;15415.8125;-209
2024-05-16T23:14:59.124;599616064688714214;15423.504;-247
2024-05-16T23:14:59.132;599616064696406770;15431.196;-118
2024-05-16T23:14:59.139;599616064704099326;15438.89;-159
2024-05-16T23:14:59.147;599616064711791882;15446.582;-178
2024-05-16T23:14:59.155;599616064719484438;15454.274;-142
2024-05-16T23:14:59.162;599616064727176994;15461.968;-173
2024-05-16T23:14:59.170;599616064734869550;15469.66;-206
2024-05-16T23:14:59.178;599616064742562106;15477.353;-201
2024-05-16T23:14:59.186;599616064750254662;15485.045;-220
2024-05-16T23:14:59.193;599616064757947218;15492.738;-232
2024-05-16T23:14:59.201;599616064765639774;15500.431;-173
2024-05-16T23:14:59.209;599616064773332330;15508.123;-116
2024-05-16T23:14:59.216;599616064781024886;15515.814;-118
2024-05-16T23:14:59.224;599616064788717442;15523.508;-78
2024-05-16T23:14:59.232;599616064796409998;15531.2;-11
2024-05-16T23:14:59.239;599616064804102554;15538.893;-4
2024-05-16T23:14:59.247;599616064811795110;15546.585;-21
2024-05-16T23:14:59.255;599616064819487666;15554.278;-21
2024-05-16T23:14:59.262;599616064827180222;15561.971;-4
2024-05-16T23:14:59.270;599616064834872778;15569.663;23
2024-05-16T23:14:59.278;599616064842565334;15577.355;-11
2024-05-16T23:14:59.286;599616064850257890;15585.049;-83
2024-05-16T23:14:59.293;599616064857950446;15592.741;-59
2024-05-16T23:14:59.301;599616064865643002;15600.434;23
2024-05-16T23:14:59.309;599616064873335558;15608.125;35
2024-05-16T23:14:59.316;599616064881028114;15615.818;14
2024-05-16T23:14:59.324;599616064888720670;15623.511;40
2024-05-16T23:14:59.332;599616064896413226;15631.203;78
2024-05-16T23:14:59.339;599616064904105782;15638.896;78
2024-05-16T23:14:59.347;599616064911798338;15646.589;66
2024-05-16T23:14:59.355;599616064919490894;15654.281;71
2024-05-16T23:14:59.362;599616064927183450;15661.974;26
2024-05-16T23:14:59.370;599616064934876006;15669.667;-68
2024-05-16T23:14:59.378;599616064942568562;15677.359;-49
2024-05-16T23:14:59.386;599616064950261118;15685.052;35
2024-05-16T23:14:59.393;599616064957953674;15692.744;21
2024-05-16T23:14:59.401;599616064965646230;15700.437;-47
2024-05-16T23:14:59.409;599616064973338786;15708.129;-78
2024-05-16T23:14:59.416;599616064981031342;15715.821;-90
2024-05-16T23:14:59.424;599616064988683836;15723.474;-68
2024-05-16T23:14:59.432;599616064996376949;15731.167;-54
2024-05-16T23:14:59.439;599616065004070062;15738.86;-140
2024-05-16T23:14:59.447;599616065011763175;15746.554;-218
2024-05-16T23:14:59.455;599616065019456288;15754.247;-220
2024-05-16T23:14:59.462;599616065027149401;15761.939;-292
2024-05-16T23:14:59.470;599616065034842514;15769.633;-387
2024-05-16T23:14:59.478;599616065042535627;15777.326;-237
2024-05-16T23:14:59.486;599616065050228740;15785.02;182
2024-05-16T23:14:59.493;599616065057921853;15792.713;613
2024-05-16T23:14:59.501;599616065065614966;15800.405;729
2024-05-16T23:14:59.509;599616065073308079;15808.099;289
2024-05-16T23:14:59.516;599616065081001192;15815.792;-330
2024-05-16T23:14:59.524;599616065088694305;15823.485;-425
2024-05-16T23:14:59.532;599616065096387418;15831.179;-213
2024-05-16T23:14:59.539;599616065104080531;15838.87;-225
2024-05-16T23:14:59.547;599616065111773644;15846.563;-280
2024-05-16T23:14:59.555;599616065119466757;15854.257;-225
2024-05-16T23:14:59.562;599616065127159870;15861.95;-230
2024-05-16T23:14:59.570;599616065134852983;15869.644;-275
2024-05-16T23:14:59.578;599616065142546096;15877.336;-282
2024-05-16T23:14:59.586;599616065150239209;15885.029;-285
2024-05-16T23:14:59.593;599616065157932322;15892.723;-273
2024-05-16T23:14:59.601;599616065165625435;15900.416;-273
2024-05-16T23:14:59.609;599616065173318548;15908.109;-292
2024-05-16T23:14:59.616;599616065181011661;15915.802;-256
2024-05-16T23:14:59.624;599616065188704774;15923.495;-194
