Phone timestamp;sensor timestamp [ns];timestamp [ms];ecg [uV]
2024-05-17T13:12:36.997;599616209889133624;0.0;907
2024-05-17T13:12:37.004;599616209896825832;7.692208;2417
2024-05-17T13:12:37.012;599616209904518040;15.384416;3550
2024-05-17T13:12:37.020;599616209912210248;23.076624;4099
2024-05-17T13:12:37.027;599616209919902456;30.768831;4799
2024-05-17T13:12:37.035;599616209927594664;38.46104;5574
2024-05-17T13:12:37.043;599616209935286872;46.153248;6137
2024-05-17T13:12:37.050;599616209942979080;53.845455;6690
2024-05-17T13:12:37.058;599616209950671288;61.537663;7303
2024-05-17T13:12:37.066;599616209958363496;69.22987;7784
2024-05-17T13:12:37.073;599616209966055704;76.92208;8182
2024-05-17T13:12:37.081;599616209973747912;84.61429;8674
2024-05-17T13:12:37.089;599616209981440120;92.306496;9197
2024-05-17T13:12:37.096;599616209989132328;99.9987;9562
2024-05-17T13:12:37.104;599616209996824536;107.69091;9869
2024-05-17T13:12:37.112;599616210004516744;115.38312;10283
2024-05-17T13:12:37.120;599616210012208952;123.075325;10625
2024-05-17T13:12:37.127;599616210019901160;130.76753;10851
2024-05-17T13:12:37.135;599616210027593368;138.45975;11169
2024-05-17T13:12:37.143;599616210035285576;146.15195;11593
2024-05-17T13:12:37.150;599616210042977784;153.84416;11939
2024-05-17T13:12:37.158;599616210050669992;161.53636;12078
2024-05-17T13:12:37.166;599616210058362200;169.22858;12185
2024-05-17T13:12:37.173;599616210066054408;176.92079;12474
2024-05-17T13:12:37.181;599616210073746616;184.61299;12752
2024-05-17T13:12:37.189;599616210081438824;192.3052;12870
2024-05-17T13:12:37.196;599616210089131032;199.9974;13084
2024-05-17T13:12:37.204;599616210096823240;207.68962;13388
2024-05-17T13:12:37.212;599616210104515448;215.38182;13485
2024-05-17T13:12:37.220;599616210112207656;223.07404;13499
2024-05-17T13:12:37.227;599616210119899864;230.76624;13699
2024-05-17T13:12:37.235;599616210127592072;238.45845;13973
2024-05-17T13:12:37.243;599616210135284280;246.15065;14114
2024-05-17T13:12:37.250;599616210142976488;253.84286;14133
2024-05-17T13:12:37.258;599616210150668696;261.53506;14138
2024-05-17T13:12:37.266;599616210158360904;269.22726;14260
2024-05-17T13:12:37.273;599616210166053112;276.9195;14599
2024-05-17T13:12:37.281;599616210173745320;284.61172;15162
2024-05-17T13:12:37.289;599616210181437528;292.3039;15730
2024-05-17T13:12:37.296;599616210189129736;299.9961;15721
2024-05-17T13:12:37.304;599616210196821944;307.68832;15000
2024-05-17T13:12:37.312;599616210204514152;315.38055;14531
2024-05-17T13:12:37.320;599616210212206360;323.07272;14729
2024-05-17T13:12:37.327;599616210219898568;330.76492;14910
2024-05-17T13:12:37.335;599616210227590776;338.45715;14927
2024-05-17T13:12:37.343;599616210235282984;346.14938;14821
2024-05-17T13:12:37.350;599616210242975192;353.84158;14595
2024-05-17T13:12:37.358;599616210250667400;361.53375;14592
2024-05-17T13:12:37.366;599616210258359608;369.22598;14656
2024-05-17T13:12:37.373;599616210266051816;376.9182;14578
2024-05-17T13:12:37.381;599616210273744024;384.6104;14621
2024-05-17T13:12:37.389;599616210281436232;392.30258;14689
2024-05-17T13:12:37.396;599616210289128440;399.9948;14538
2024-05-17T13:12:37.404;599616210296820648;407.68704;14444
2024-05-17T13:12:37.412;599616210304512856;415.37924;14583
2024-05-17T13:12:37.420;599616210312205064;423.0714;14646
2024-05-17T13:12:37.427;599616210319897272;430.76364;14545
2024-05-17T13:12:37.435;599616210327589480;438.45587;14486
2024-05-17T13:12:37.443;599616210335281688;446.14807;14486
2024-05-17T13:12:37.450;599616210342973896;453.84027;14442
2024-05-17T13:12:37.458;599616210350666104;461.53247;14364
2024-05-17T13:12:37.466;599616210358358312;469.2247;14319
2024-05-17T13:12:37.473;599616210366050520;476.9169;14347
2024-05-17T13:12:37.481;599616210373742728;484.6091;14277
2024-05-17T13:12:37.489;599616210381434936;492.3013;14048
2024-05-17T13:12:37.496;599616210389127144;499.99353;13947
2024-05-17T13:12:37.504;599616210396819352;507.68573;14034
2024-05-17T13:12:37.512;599616210404511560;515.3779;14090
2024-05-17T13:12:37.520;599616210412203768;523.0701;13933
2024-05-17T13:12:37.527;599616210419895976;530.7624;13610
2024-05-17T13:12:37.535;599616210427588184;538.4545;13447
2024-05-17T13:12:37.543;599616210435280392;546.1467;13414
2024-05-17T13:12:37.550;599616210442972600;553.839;13275
2024-05-17T13:12:37.558;599616210450694920;561.5613;13202
2024-05-17T13:12:37.566;599616210458386710;569.25305;13280
2024-05-17T13:12:37.573;599616210466078500;576.9449;13259
2024-05-17T13:12:37.581;599616210473770290;584.63666;13117
2024-05-17T13:12:37.589;599616210481462080;592.3284;13009
2024-05-17T13:12:37.597;599616210489153870;600.0202;12851
2024-05-17T13:12:37.604;599616210496845660;607.71204;12642
2024-05-17T13:12:37.612;599616210504537450;615.4039;12583
2024-05-17T13:12:37.620;599616210512229240;623.09564;12649
2024-05-17T13:12:37.627;599616210519921030;630.7874;12611
2024-05-17T13:12:37.635;599616210527612820;638.4792;12361
2024-05-17T13:12:37.643;599616210535304610;646.171;12064
2024-05-17T13:12:37.650;599616210542996400;653.8628;12010
2024-05-17T13:12:37.658;599616210550688190;661.55457;12111
2024-05-17T13:12:37.666;599616210558379980;669.24634;11994
2024-05-17T13:12:37.673;599616210566071770;676.9382;11702
2024-05-17T13:12:37.681;599616210573763560;684.62994;11600
2024-05-17T13:12:37.689;599616210581455350;692.3217;11570
2024-05-17T13:12:37.697;599616210589147140;700.0135;11407
2024-05-17T13:12:37.704;599616210596838930;707.70526;11320
2024-05-17T13:12:37.712;599616210604530720;715.3971;11322
2024-05-17T13:12:37.720;599616210612222510;723.08887;11188
2024-05-17T13:12:37.727;599616210619914300;730.7807;10983
2024-05-17T13:12:37.735;599616210627606090;738.4725;10905
2024-05-17T13:12:37.743;599616210635297880;746.16425;10903
2024-05-17T13:12:37.750;599616210642989670;753.8561;10820
2024-05-17T13:12:37.758;599616210650681460;761.54785;10620
2024-05-17T13:12:37.766;599616210658373250;769.2396;10462
2024-05-17T13:12:37.773;599616210666065040;776.9314;10613
2024-05-17T13:12:37.781;599616210673756830;784.6232;11103
2024-05-17T13:12:37.789;599616210681448620;792.315;11471
2024-05-17T13:12:37.797;599616210689140410;800.0068;11244
2024-05-17T13:12:37.804;599616210696832200;807.69855;10491
2024-05-17T13:12:37.812;599616210704523990;815.3903;9836
2024-05-17T13:12:37.820;599616210712215780;823.08215;9770
2024-05-17T13:12:37.827;599616210719907570;830.7739;9890
2024-05-17T13:12:37.835;599616210727599360;838.4657;9685
2024-05-17T13:12:37.843;599616210735291150;846.15753;9421
2024-05-17T13:12:37.850;599616210742982940;853.84937;9317
2024-05-17T13:12:37.858;599616210750674730;861.54114;9162
2024-05-17T13:12:37.866;599616210758366520;869.2329;9009
2024-05-17T13:12:37.873;599616210766058310;876.9247;8931
2024-05-17T13:12:37.881;599616210773750100;884.61646;8844
2024-05-17T13:12:37.889;599616210781441890;892.3083;8780
2024-05-17T13:12:37.897;599616210789133680;900.00006;8705
2024-05-17T13:12:37.904;599616210796825470;907.69183;8561
2024-05-17T13:12:37.912;599616210804517260;915.3836;8467
2024-05-17T13:12:37.920;599616210812209050;923.07544;8469
2024-05-17T13:12:37.927;599616210819900840;930.7672;8434
2024-05-17T13:12:37.935;599616210827592630;938.459;8323
2024-05-17T13:12:37.943;599616210835284420;946.15076;8224
2024-05-17T13:12:37.950;599616210842976210;953.8426;8168
2024-05-17T13:12:37.958;599616210850668000;961.5344;8106
2024-05-17T13:12:37.966;599616210858359790;969.2262;7986
2024-05-17T13:12:37.973;599616210866051580;976.91797;7887
2024-05-17T13:12:37.981;599616210873743370;984.60974;7885
2024-05-17T13:12:37.989;599616210881435160;992.3016;7807
2024-05-17T13:12:37.996;599616210889126950;999.99335;7595
2024-05-17T13:12:38.004;599616210896818740;1007.6851;7489
2024-05-17T13:12:38.012;599616210904510530;1015.3769;7503
2024-05-17T13:12:38.020;599616210912202320;1023.06866;7449
2024-05-17T13:12:38.027;599616210919894110;1030.7605;7279
2024-05-17T13:12:38.035;599616210927585900;1038.4523;7058
2024-05-17T13:12:38.043;599616210935277690;1046.144;6954
2024-05-17T13:12:38.050;599616210942969480;1053.8358;6933
2024-05-17T13:12:38.058;599616210950661270;1061.5276;6848
2024-05-17T13:12:38.066;599616210958353060;1069.2195;6794
2024-05-17T13:12:38.073;599616210966044850;1076.9113;6811
2024-05-17T13:12:38.081;599616210973736640;1084.603;6705
2024-05-17T13:12:38.089;599616210981428430;1092.2948;6504
2024-05-17T13:12:38.096;599616210989120220;1099.9866;6443
2024-05-17T13:12:38.104;599616210996812010;1107.6783;6464
2024-05-17T13:12:38.112;599616211004503800;1115.3702;6386
2024-05-17T13:12:38.120;599616211012165506;1123.032;6288
2024-05-17T13:12:38.127;599616211019857714;1130.7241;6271
2024-05-17T13:12:38.135;599616211027549922;1138.4163;6226
2024-05-17T13:12:38.143;599616211035242130;1146.1085;6094
2024-05-17T13:12:38.150;599616211042934338;1153.8007;5991
2024-05-17T13:12:38.158;599616211050626546;1161.4929;5984
2024-05-17T13:12:38.166;599616211058318754;1169.1852;5977
2024-05-17T13:12:38.173;599616211066010962;1176.8773;5842
2024-05-17T13:12:38.181;599616211073703170;1184.5696;5666
2024-05-17T13:12:38.189;599616211081395378;1192.2617;5626
2024-05-17T13:12:38.196;599616211089087586;1199.954;5640
2024-05-17T13:12:38.204;599616211096779794;1207.6462;5508
2024-05-17T13:12:38.212;599616211104472002;1215.3384;5348
2024-05-17T13:12:38.220;599616211112164210;1223.0305;5296
2024-05-17T13:12:38.227;599616211119856418;1230.7228;5227
2024-05-17T13:12:38.235;599616211127548626;1238.4149;5133
2024-05-17T13:12:38.243;599616211135240834;1246.1073;5110
2024-05-17T13:12:38.250;599616211142933042;1253.7994;5091
2024-05-17T13:12:38.258;599616211150625250;1261.4916;4992
2024-05-17T13:12:38.266;599616211158317458;1269.1838;4855
2024-05-17T13:12:38.273;599616211166009666;1276.876;4923
2024-05-17T13:12:38.281;599616211173701874;1284.5682;5383
2024-05-17T13:12:38.289;599616211181394082;1292.2605;5899
2024-05-17T13:12:38.296;599616211189086290;1299.9526;5852
2024-05-17T13:12:38.304;599616211196778498;1307.6449;5180
2024-05-17T13:12:38.312;599616211204470706;1315.337;4558
2024-05-17T13:12:38.320;599616211212162914;1323.0293;4457
2024-05-17T13:12:38.327;599616211219855122;1330.7216;4504
2024-05-17T13:12:38.335;599616211227547330;1338.4137;4344
2024-05-17T13:12:38.343;599616211235239538;1346.1058;4224
2024-05-17T13:12:38.350;599616211242931746;1353.7981;4207
2024-05-17T13:12:38.358;599616211250623954;1361.4904;4082
2024-05-17T13:12:38.366;599616211258316162;1369.1826;3950
2024-05-17T13:12:38.373;599616211266008370;1376.8748;3958
2024-05-17T13:12:38.381;599616211273700578;1384.5669;3917
2024-05-17T13:12:38.389;599616211281392786;1392.2592;3809
2024-05-17T13:12:38.396;599616211289084994;1399.9514;3790
2024-05-17T13:12:38.404;599616211296777202;1407.6436;3797
2024-05-17T13:12:38.412;599616211304469410;1415.3358;3748
2024-05-17T13:12:38.420;599616211312161618;1423.028;3684
2024-05-17T13:12:38.427;599616211319853826;1430.7202;3670
2024-05-17T13:12:38.435;599616211327546034;1438.4125;3722
2024-05-17T13:12:38.443;599616211335238242;1446.1046;3736
2024-05-17T13:12:38.450;599616211342930450;1453.7969;3642
2024-05-17T13:12:38.458;599616211350622658;1461.489;3552
2024-05-17T13:12:38.466;599616211358314866;1469.1812;3583
2024-05-17T13:12:38.473;599616211366007074;1476.8734;3588
2024-05-17T13:12:38.481;599616211373699282;1484.5657;3479
2024-05-17T13:12:38.489;599616211381391490;1492.2579;3449
2024-05-17T13:12:38.496;599616211389083698;1499.9501;3439
2024-05-17T13:12:38.504;599616211396775906;1507.6422;3303
2024-05-17T13:12:38.512;599616211404468114;1515.3345;3230
2024-05-17T13:12:38.520;599616211412160322;1523.0267;3281
2024-05-17T13:12:38.527;599616211419852530;1530.7189;3220
2024-05-17T13:12:38.535;599616211427544738;1538.4111;3041
2024-05-17T13:12:38.543;599616211435236946;1546.1033;2963
2024-05-17T13:12:38.550;599616211442929154;1553.7955;2982
2024-05-17T13:12:38.558;599616211450621362;1561.4878;2973
2024-05-17T13:12:38.566;599616211458313570;1569.1799;2919
2024-05-17T13:12:38.573;599616211466005778;1576.8722;2834
2024-05-17T13:12:38.581;599616211473697986;1584.5643;2784
2024-05-17T13:12:38.589;599616211481390194;1592.2565;2780
2024-05-17T13:12:38.596;599616211489082402;1599.9489;2747
2024-05-17T13:12:38.604;599616211496774610;1607.641;2723
2024-05-17T13:12:38.612;599616211504466818;1615.3333;2756
2024-05-17T13:12:38.620;599616211512159026;1623.0254;2754
2024-05-17T13:12:38.627;599616211519851234;1630.7175;2697
2024-05-17T13:12:38.635;599616211527543442;1638.4099;2643
2024-05-17T13:12:38.643;599616211535235650;1646.102;2631
2024-05-17T13:12:38.650;599616211542927858;1653.7942;2636
2024-05-17T13:12:38.658;599616211550620066;1661.4865;2617
2024-05-17T13:12:38.666;599616211558312274;1669.1786;2582
2024-05-17T13:12:38.673;599616211566004482;1676.871;2525
2024-05-17T13:12:38.681;599616211573696706;1684.5631;2457
2024-05-17T13:12:38.689;599616211581388914;1692.2552;2426
2024-05-17T13:12:38.696;599616211589081122;1699.9475;2407
2024-05-17T13:12:38.704;599616211596773330;1707.6396;2381
2024-05-17T13:12:38.712;599616211604465538;1715.3319;2384
2024-05-17T13:12:38.720;599616211612157746;1723.0242;2370
2024-05-17T13:12:38.727;599616211619849954;1730.7163;2325
2024-05-17T13:12:38.735;599616211627542162;1738.4086;2287
2024-05-17T13:12:38.743;599616211635234370;1746.1007;2216
2024-05-17T13:12:38.750;599616211642926578;1753.7928;2148
2024-05-17T13:12:38.758;599616211650618786;1761.4852;2132
2024-05-17T13:12:38.766;599616211658310994;1769.1774;2066
2024-05-17T13:12:38.773;599616211666003202;1776.8696;1964
2024-05-17T13:12:38.781;599616211673695410;1784.5618;2080
2024-05-17T13:12:38.789;599616211681387618;1792.2539;2551
2024-05-17T13:12:38.796;599616211689079826;1799.9463;3081
2024-05-17T13:12:38.804;599616211696772034;1807.6384;3121
2024-05-17T13:12:38.812;599616211704464242;1815.3306;2506
2024-05-17T13:12:38.820;599616211712156450;1823.0228;1825
2024-05-17T13:12:38.827;599616211719848658;1830.715;1698
2024-05-17T13:12:38.835;599616211727540866;1838.4073;1795
2024-05-17T13:12:38.843;599616211735233074;1846.0995;1658
2024-05-17T13:12:38.850;599616211742925282;1853.7916;1545
2024-05-17T13:12:38.858;599616211750617490;1861.4839;1569
2024-05-17T13:12:38.866;599616211758309698;1869.176;1529
2024-05-17T13:12:38.873;599616211766001906;1876.8682;1470
2024-05-17T13:12:38.881;599616211773694114;1884.5605;1491
2024-05-17T13:12:38.889;599616211781386322;1892.2527;1505
2024-05-17T13:12:38.896;599616211789078530;1899.945;1479
2024-05-17T13:12:38.904;599616211796770738;1907.6371;1491
2024-05-17T13:12:38.912;599616211804462946;1915.3292;1521
2024-05-17T13:12:38.920;599616211812155154;1923.0216;1488
2024-05-17T13:12:38.927;599616211819847362;1930.7137;1451
2024-05-17T13:12:38.935;599616211827539570;1938.4059;1503
2024-05-17T13:12:38.943;599616211835231778;1946.0981;1559
2024-05-17T13:12:38.950;599616211842923986;1953.7903;1543
2024-05-17T13:12:38.958;599616211850616194;1961.4827;1521
2024-05-17T13:12:38.966;599616211858308402;1969.1748;1550
2024-05-17T13:12:38.973;599616211866000610;1976.867;1566
2024-05-17T13:12:38.981;599616211873692818;1984.5592;1557
2024-05-17T13:12:38.989;599616211881385026;1992.2513;1557
2024-05-17T13:12:38.996;599616211889077234;1999.9436;1538
2024-05-17T13:12:39.004;599616211896769442;2007.6359;1503
2024-05-17T13:12:39.012;599616211904461650;2015.328;1486
2024-05-17T13:12:39.020;599616211912153858;2023.0203;1479
2024-05-17T13:12:39.027;599616211919846066;2030.7124;1451
2024-05-17T13:12:39.035;599616211927538274;2038.4047;1359
2024-05-17T13:12:39.043;599616211935230482;2046.0969;1227
2024-05-17T13:12:39.050;599616211942922690;2053.789;1182
2024-05-17T13:12:39.058;599616211950614898;2061.4812;1196
2024-05-17T13:12:39.066;599616211958307106;2069.1736;1156
2024-05-17T13:12:39.073;599616211965999314;2076.8657;1112
2024-05-17T13:12:39.081;599616211973691522;2084.5579;1135
2024-05-17T13:12:39.089;599616211981383730;2092.25;1187
2024-05-17T13:12:39.096;599616211989075938;2099.9424;1173
2024-05-17T13:12:39.104;599616211996768146;2107.6345;1121
2024-05-17T13:12:39.112;599616212004460354;2115.3267;1152
2024-05-17T13:12:39.120;599616212012152562;2123.0188;1218
2024-05-17T13:12:39.127;599616212019844770;2130.7112;1215
2024-05-17T13:12:39.135;599616212027536978;2138.4033;1168
2024-05-17T13:12:39.143;599616212035229186;2146.0957;1159
2024-05-17T13:12:39.150;599616212042921394;2153.7876;1175
2024-05-17T13:12:39.158;599616212050613602;2161.48;1175
2024-05-17T13:12:39.166;599616212058305810;2169.172;1137
2024-05-17T13:12:39.173;599616212065998018;2176.8645;1093
2024-05-17T13:12:39.181;599616212073690226;2184.5566;1074
2024-05-17T13:12:39.189;599616212081382434;2192.2488;1046
2024-05-17T13:12:39.196;599616212089074642;2199.9412;1003
2024-05-17T13:12:39.204;599616212096766850;2207.633;1010
2024-05-17T13:12:39.212;599616212104459058;2215.3254;1057
2024-05-17T13:12:39.220;599616212112151266;2223.0178;1067
2024-05-17T13:12:39.227;599616212119843474;2230.7097;1043
2024-05-17T13:12:39.235;599616212127535682;2238.402;1038
2024-05-17T13:12:39.243;599616212135227906;2246.0942;1038
2024-05-17T13:12:39.250;599616212142920114;2253.7864;1036
2024-05-17T13:12:39.258;599616212150612322;2261.4788;1050
2024-05-17T13:12:39.266;599616212158304530;2269.171;1048
2024-05-17T13:12:39.273;599616212165996738;2276.8633;968
2024-05-17T13:12:39.281;599616212173688946;2284.5552;862
2024-05-17T13:12:39.289;599616212181381154;2292.2476;1005
2024-05-17T13:12:39.296;599616212189073362;2299.94;1538
2024-05-17T13:12:39.304;599616212196765570;2307.6318;2028
2024-05-17T13:12:39.312;599616212204457778;2315.3242;1880
2024-05-17T13:12:39.320;599616212212149986;2323.0164;1161
2024-05-17T13:12:39.327;599616212219842194;2330.7085;631
2024-05-17T13:12:39.335;599616212227534402;2338.401;659
2024-05-17T13:12:39.343;599616212235226610;2346.093;732
2024-05-17T13:12:39.350;599616212242918818;2353.7852;596
2024-05-17T13:12:39.358;599616212250611026;2361.4773;532
2024-05-17T13:12:39.366;599616212258303234;2369.1697;546
2024-05-17T13:12:39.373;599616212265995442;2376.8618;513
2024-05-17T13:12:39.381;599616212273687650;2384.554;497
2024-05-17T13:12:39.389;599616212281379858;2392.2463;520
2024-05-17T13:12:39.396;599616212289072066;2399.9385;537
2024-05-17T13:12:39.404;599616212296764274;2407.6306;558
2024-05-17T13:12:39.412;599616212304456482;2415.323;581
2024-05-17T13:12:39.420;599616212312148690;2423.0151;572
2024-05-17T13:12:39.427;599616212319840898;2430.7073;565
2024-05-17T13:12:39.435;599616212327533106;2438.3994;603
2024-05-17T13:12:39.443;599616212335225314;2446.0918;647
2024-05-17T13:12:39.450;599616212342917522;2453.7837;666
2024-05-17T13:12:39.458;599616212350609730;2461.476;666
2024-05-17T13:12:39.466;599616212358301938;2469.1685;671
2024-05-17T13:12:39.473;599616212365994146;2476.8604;699
2024-05-17T13:12:39.481;599616212373686354;2484.5527;737
2024-05-17T13:12:39.489;599616212381378562;2492.2449;727
2024-05-17T13:12:39.496;599616212389070770;2499.937;695
2024-05-17T13:12:39.504;599616212396762978;2507.6294;702
2024-05-17T13:12:39.512;599616212404455186;2515.3215;702
2024-05-17T13:12:39.520;599616212412147394;2523.014;662
2024-05-17T13:12:39.527;599616212419839602;2530.7058;619
2024-05-17T13:12:39.535;599616212427531810;2538.3982;556
2024-05-17T13:12:39.543;599616212435224018;2546.0906;471
2024-05-17T13:12:39.550;599616212442916226;2553.7825;417
2024-05-17T13:12:39.558;599616212450608434;2561.4749;386
2024-05-17T13:12:39.566;599616212458300642;2569.167;376
2024-05-17T13:12:39.573;599616212465992850;2576.8591;407
2024-05-17T13:12:39.581;599616212473685058;2584.5515;445
2024-05-17T13:12:39.589;599616212481377266;2592.2437;482
2024-05-17T13:12:39.596;599616212489069474;2599.9358;506
2024-05-17T13:12:39.604;599616212496761682;2607.628;482
2024-05-17T13:12:39.612;599616212504453890;2615.3203;466
2024-05-17T13:12:39.620;599616212512146098;2623.0125;499
2024-05-17T13:12:39.627;599616212519838306;2630.7046;523
2024-05-17T13:12:39.635;599616212527530514;2638.397;527
2024-05-17T13:12:39.643;599616212535222722;2646.089;530
2024-05-17T13:12:39.650;599616212542914930;2653.7812;530
2024-05-17T13:12:39.658;599616212550607138;2661.4736;527
2024-05-17T13:12:39.666;599616212558299346;2669.1658;490
2024-05-17T13:12:39.673;599616212565991554;2676.858;424
2024-05-17T13:12:39.681;599616212573683762;2684.55;417
2024-05-17T13:12:39.689;599616212581375970;2692.2424;433
2024-05-17T13:12:39.696;599616212589068178;2699.9346;409
2024-05-17T13:12:39.704;599616212596760386;2707.6267;386
2024-05-17T13:12:39.712;599616212604452594;2715.319;395
2024-05-17T13:12:39.720;599616212612144802;2723.011;431
2024-05-17T13:12:39.727;599616212619837010;2730.7034;457
2024-05-17T13:12:39.735;599616212627529218;2738.3958;435
2024-05-17T13:12:39.743;599616212635221426;2746.0876;414
2024-05-17T13:12:39.750;599616212642913634;2753.78;424
2024-05-17T13:12:39.758;599616212650605842;2761.4722;431
2024-05-17T13:12:39.766;599616212658298050;2769.1646;424
2024-05-17T13:12:39.773;599616212665990258;2776.8567;428
2024-05-17T13:12:39.781;599616212673682466;2784.5488;407
2024-05-17T13:12:39.789;599616212681374674;2792.2412;334
2024-05-17T13:12:39.796;599616212689066882;2799.933;369
2024-05-17T13:12:39.804;599616212696759106;2807.6255;730
2024-05-17T13:12:39.812;599616212704451314;2815.3179;1274
2024-05-17T13:12:39.820;599616212712143522;2823.0098;1470
2024-05-17T13:12:39.827;599616212719835730;2830.7021;965
2024-05-17T13:12:39.835;599616212727527938;2838.3943;235
2024-05-17T13:12:39.843;599616212735220146;2846.0864;2
2024-05-17T13:12:39.850;599616212742912354;2853.7788;54
2024-05-17T13:12:39.858;599616212750604562;2861.471;-68
2024-05-17T13:12:39.866;599616212758296770;2869.1633;-129
2024-05-17T13:12:39.873;599616212765988978;2876.8552;-47
2024-05-17T13:12:39.881;599616212773681186;2884.5476;-70
2024-05-17T13:12:39.889;599616212781373394;2892.24;-122
2024-05-17T13:12:39.896;599616212789065602;2899.932;-68
2024-05-17T13:12:39.904;599616212796757810;2907.6243;-16
2024-05-17T13:12:39.912;599616212804450018;2915.3164;-14
2024-05-17T13:12:39.920;599616212812142226;2923.0085;0
2024-05-17T13:12:39.927;599616212819834434;2930.7007;9
2024-05-17T13:12:39.935;599616212827526642;2938.393;11
2024-05-17T13:12:39.943;599616212835218850;2946.0852;35
2024-05-17T13:12:39.950;599616212842911058;2953.7773;77
2024-05-17T13:12:39.958;599616212850603266;2961.4697;124
2024-05-17T13:12:39.966;599616212858295474;2969.1616;146
2024-05-17T13:12:39.973;599616212865987682;2976.854;129
2024-05-17T13:12:39.981;599616212873679890;2984.5464;148
2024-05-17T13:12:39.989;599616212881372098;2992.2385;200
2024-05-17T13:12:39.996;599616212889064306;2999.9307;209
2024-05-17T13:12:40.004;599616212896756514;3007.6228;190
2024-05-17T13:12:40.012;599616212904448722;3015.3152;195
2024-05-17T13:12:40.020;599616212912140930;3023.0073;202
2024-05-17T13:12:40.027;599616212919833138;3030.6995;188
2024-05-17T13:12:40.035;599616212927525346;3038.3918;155
2024-05-17T13:12:40.043;599616212935217554;3046.0837;63
2024-05-17T13:12:40.050;599616212942909762;3053.7761;-63
2024-05-17T13:12:40.058;599616212950601970;3061.4685;-113
2024-05-17T13:12:40.066;599616212958294178;3069.1604;-84
2024-05-17T13:12:40.073;599616212965986386;3076.8528;-49
2024-05-17T13:12:40.081;599616212973678594;3084.545;0
2024-05-17T13:12:40.089;599616212981370802;3092.237;42
2024-05-17T13:12:40.096;599616212989063010;3099.9294;63
2024-05-17T13:12:40.104;599616212996755218;3107.6216;80
2024-05-17T13:12:40.112;599616213004447426;3115.314;82
2024-05-17T13:12:40.120;599616213012139634;3123.0059;80
2024-05-17T13:12:40.127;599616213019831842;3130.6982;108
2024-05-17T13:12:40.135;599616213027524050;3138.3906;146
2024-05-17T13:12:40.143;599616213035216258;3146.0825;162
2024-05-17T13:12:40.150;599616213042908466;3153.775;153
2024-05-17T13:12:40.158;599616213050600674;3161.467;117
2024-05-17T13:12:40.166;599616213058292882;3169.1592;84
2024-05-17T13:12:40.173;599616213065985090;3176.8516;75
2024-05-17T13:12:40.181;599616213073677298;3184.5437;68
2024-05-17T13:12:40.189;599616213081369506;3192.2358;63
2024-05-17T13:12:40.196;599616213089061714;3199.928;77
2024-05-17T13:12:40.204;599616213096753922;3207.6204;82
2024-05-17T13:12:40.212;599616213104446130;3215.3125;82
2024-05-17T13:12:40.220;599616213112138338;3223.0046;101
2024-05-17T13:12:40.227;599616213119830546;3230.697;139
2024-05-17T13:12:40.235;599616213127522754;3238.3892;169
2024-05-17T13:12:40.243;599616213135214962;3246.0813;171
2024-05-17T13:12:40.250;599616213142907170;3253.7737;162
2024-05-17T13:12:40.258;599616213150599378;3261.4658;183
2024-05-17T13:12:40.266;599616213158291586;3269.158;207
2024-05-17T13:12:40.273;599616213165983794;3276.85;212
2024-05-17T13:12:40.281;599616213173676002;3284.5425;240
2024-05-17T13:12:40.289;599616213181368210;3292.2344;223
2024-05-17T13:12:40.296;599616213189060418;3299.9268;70
2024-05-17T13:12:40.304;599616213196752626;3307.6191;32
2024-05-17T13:12:40.312;599616213204444834;3315.311;400
2024-05-17T13:12:40.320;599616213212137042;3323.0034;994
2024-05-17T13:12:40.327;599616213219829250;3330.6958;1286
2024-05-17T13:12:40.335;599616213227521458;3338.3877;899
2024-05-17T13:12:40.343;599616213235213666;3346.08;155
2024-05-17T13:12:40.350;599616213242905874;3353.7722;-195
2024-05-17T13:12:40.358;599616213250598082;3361.4646;-96
2024-05-17T13:12:40.366;599616213258310394;3369.1768;-75
2024-05-17T13:12:40.373;599616213266002323;3376.8687;-155
2024-05-17T13:12:40.381;599616213273694252;3384.5605;-141
2024-05-17T13:12:40.389;599616213281386181;3392.2527;-176
2024-05-17T13:12:40.396;599616213289078110;3399.9443;-270
2024-05-17T13:12:40.404;599616213296770039;3407.6365;-237
2024-05-17T13:12:40.412;599616213304461968;3415.3284;-160
2024-05-17T13:12:40.420;599616213312153897;3423.0203;-164
2024-05-17T13:12:40.427;599616213319845826;3430.7124;-160
2024-05-17T13:12:40.435;599616213327537755;3438.404;-108
2024-05-17T13:12:40.443;599616213335229684;3446.0962;-89
2024-05-17T13:12:40.450;599616213342921613;3453.7878;-84
2024-05-17T13:12:40.458;599616213350613542;3461.48;-35
2024-05-17T13:12:40.466;599616213358305471;3469.1719;28
2024-05-17T13:12:40.473;599616213365997400;3476.8638;65
2024-05-17T13:12:40.481;599616213373689329;3484.5557;82
2024-05-17T13:12:40.489;599616213381381258;3492.2476;103
2024-05-17T13:12:40.496;599616213389073187;3499.9397;139
2024-05-17T13:12:40.504;599616213396765116;3507.6316;164
2024-05-17T13:12:40.512;599616213404457045;3515.3235;167
2024-05-17T13:12:40.520;599616213412148974;3523.0154;162
2024-05-17T13:12:40.527;599616213419840903;3530.7073;169
2024-05-17T13:12:40.535;599616213427532832;3538.3992;171
2024-05-17T13:12:40.543;599616213435224761;3546.0913;117
2024-05-17T13:12:40.550;599616213442916690;3553.783;40
2024-05-17T13:12:40.558;599616213450608619;3561.475;49
2024-05-17T13:12:40.566;599616213458300548;3569.1667;89
2024-05-17T13:12:40.573;599616213465992477;3576.859;75
2024-05-17T13:12:40.581;599616213473684406;3584.5505;84
2024-05-17T13:12:40.589;599616213481376335;3592.2427;139
2024-05-17T13:12:40.596;599616213489068264;3599.9348;174
2024-05-17T13:12:40.604;599616213496760193;3607.6265;183
2024-05-17T13:12:40.612;599616213504452122;3615.3186;200
2024-05-17T13:12:40.620;599616213512144051;3623.0103;219
2024-05-17T13:12:40.627;599616213519835980;3630.7024;228
2024-05-17T13:12:40.635;599616213527527909;3638.3943;230
2024-05-17T13:12:40.643;599616213535219838;3646.0862;242
2024-05-17T13:12:40.650;599616213542911767;3653.778;266
2024-05-17T13:12:40.658;599616213550603696;3661.47;233
2024-05-17T13:12:40.666;599616213558295625;3669.1619;157
2024-05-17T13:12:40.673;599616213565987554;3676.854;155
2024-05-17T13:12:40.681;599616213573679483;3684.546;195
2024-05-17T13:12:40.689;599616213581371412;3692.2378;200
2024-05-17T13:12:40.696;599616213589063341;3699.9297;207
2024-05-17T13:12:40.704;599616213596755270;3707.6216;219
2024-05-17T13:12:40.712;599616213604447199;3715.3137;195
2024-05-17T13:12:40.720;599616213612139128;3723.0054;190
2024-05-17T13:12:40.727;599616213619831057;3730.6975;237
2024-05-17T13:12:40.735;599616213627522986;3738.3892;282
2024-05-17T13:12:40.743;599616213635214915;3746.0813;296
2024-05-17T13:12:40.750;599616213642906844;3753.7732;289
2024-05-17T13:12:40.758;599616213650598773;3761.465;268
2024-05-17T13:12:40.766;599616213658290702;3769.1572;282
2024-05-17T13:12:40.773;599616213665982631;3776.8489;336
2024-05-17T13:12:40.781;599616213673674560;3784.541;343
2024-05-17T13:12:40.789;599616213681366489;3792.233;287
2024-05-17T13:12:40.796;599616213689058418;3799.9248;228
2024-05-17T13:12:40.804;599616213696750347;3807.6167;169
2024-05-17T13:12:40.812;599616213704442276;3815.3086;214
2024-05-17T13:12:40.820;599616213712134205;3823.0005;565
2024-05-17T13:12:40.827;599616213719826134;3830.6926;1090
2024-05-17T13:12:40.835;599616213727518063;3838.3843;1267
2024-05-17T13:12:40.843;599616213735209992;3846.0764;753
2024-05-17T13:12:40.850;599616213742901921;3853.7683;44
2024-05-17T13:12:40.858;599616213750593850;3861.4602;-110
2024-05-17T13:12:40.866;599616213758285779;3869.1523;56
2024-05-17T13:12:40.873;599616213765977708;3876.844;14
2024-05-17T13:12:40.881;599616213773669637;3884.5361;-49
2024-05-17T13:12:40.889;599616213781361566;3892.2278;25
2024-05-17T13:12:40.896;599616213789053495;3899.92;30
2024-05-17T13:12:40.904;599616213796745424;3907.6118;-7
2024-05-17T13:12:40.912;599616213804437353;3915.3037;47
2024-05-17T13:12:40.919;599616213812129282;3922.9956;84
2024-05-17T13:12:40.927;599616213819796192;3930.6626;68
2024-05-17T13:12:40.935;599616213827488469;3938.355;84
2024-05-17T13:12:40.943;599616213835180746;3946.047;117
2024-05-17T13:12:40.950;599616213842873023;3953.7395;136
2024-05-17T13:12:40.958;599616213850565300;3961.4316;157
2024-05-17T13:12:40.966;599616213858257577;3969.1238;186
2024-05-17T13:12:40.973;599616213865949854;3976.8162;235
2024-05-17T13:12:40.981;599616213873642131;3984.5083;266
2024-05-17T13:12:40.989;599616213881334408;3992.2007;212
2024-05-17T13:12:40.996;599616213889026685;3999.893;150
2024-05-17T13:12:41.004;599616213896718962;4007.5852;181
2024-05-17T13:12:41.012;599616213904411239;4015.2776;242
2024-05-17T13:12:41.019;599616213912103516;4022.97;237
2024-05-17T13:12:41.027;599616213919795793;4030.662;181
2024-05-17T13:12:41.035;599616213927488070;4038.3545;136
2024-05-17T13:12:41.043;599616213935180347;4046.0466;120
2024-05-17T13:12:41.050;599616213942872624;4053.739;65
2024-05-17T13:12:41.058;599616213950564901;4061.4314;-18
2024-05-17T13:12:41.066;599616213958257178;4069.1235;-16
2024-05-17T13:12:41.073;599616213965949455;4076.816;28
2024-05-17T13:12:41.081;599616213973641732;4084.508;25
2024-05-17T13:12:41.089;599616213981334009;4092.2004;44
2024-05-17T13:12:41.096;599616213989026286;4099.8926;115
2024-05-17T13:12:41.104;599616213996718563;4107.585;146
2024-05-17T13:12:41.112;599616214004410840;4115.2773;141
2024-05-17T13:12:41.119;599616214012103117;4122.9697;157
2024-05-17T13:12:41.127;599616214019795394;4130.662;179
2024-05-17T13:12:41.135;599616214027487671;4138.354;188
2024-05-17T13:12:41.143;599616214035179948;4146.0464;207
2024-05-17T13:12:41.150;599616214042872225;4153.7383;195
2024-05-17T13:12:41.158;599616214050564502;4161.4307;160
2024-05-17T13:12:41.166;599616214058256779;4169.123;141
2024-05-17T13:12:41.173;599616214065949056;4176.8154;122
2024-05-17T13:12:41.181;599616214073641333;4184.508;101
2024-05-17T13:12:41.189;599616214081333610;4192.1997;129
2024-05-17T13:12:41.196;599616214089025887;4199.892;162
2024-05-17T13:12:41.204;599616214096718164;4207.5845;150
2024-05-17T13:12:41.212;599616214104410441;4215.277;157
2024-05-17T13:12:41.219;599616214112102718;4222.969;193
2024-05-17T13:12:41.227;599616214119794995;4230.661;195
2024-05-17T13:12:41.235;599616214127487272;4238.3535;188
2024-05-17T13:12:41.243;599616214135179549;4246.046;237
2024-05-17T13:12:41.250;599616214142871826;4253.7383;289
2024-05-17T13:12:41.258;599616214150564103;4261.4307;275
2024-05-17T13:12:41.266;599616214158256380;4269.123;252
2024-05-17T13:12:41.273;599616214165948657;4276.815;249
2024-05-17T13:12:41.281;599616214173640934;4284.5073;216
2024-05-17T13:12:41.289;599616214181333211;4292.1997;169
2024-05-17T13:12:41.296;599616214189025488;4299.8916;179
2024-05-17T13:12:41.304;599616214196717765;4307.584;176
2024-05-17T13:12:41.312;599616214204410042;4315.2764;139
2024-05-17T13:12:41.319;599616214212102319;4322.9688;310
2024-05-17T13:12:41.327;599616214219794596;4330.6606;815
2024-05-17T13:12:41.335;599616214227486873;4338.353;1251
2024-05-17T13:12:41.343;599616214235179150;4346.0454;1050
2024-05-17T13:12:41.350;599616214242871427;4353.738;320
2024-05-17T13:12:41.358;599616214250563704;4361.43;-134
2024-05-17T13:12:41.366;599616214258255981;4369.122;-42
2024-05-17T13:12:41.373;599616214265948258;4376.8145;37
2024-05-17T13:12:41.381;599616214273640535;4384.507;-58
2024-05-17T13:12:41.389;599616214281332812;4392.199;-42
2024-05-17T13:12:41.396;599616214289025089;4399.8916;40
2024-05-17T13:12:41.404;599616214296717366;4407.584;23
2024-05-17T13:12:41.412;599616214304409643;4415.276;-9
2024-05-17T13:12:41.419;599616214312101920;4422.9683;16
2024-05-17T13:12:41.427;599616214319794197;4430.6606;68
2024-05-17T13:12:41.435;599616214327486474;4438.353;103
2024-05-17T13:12:41.443;599616214335178751;4446.0454;110
2024-05-17T13:12:41.450;599616214342871028;4453.7373;117
2024-05-17T13:12:41.458;599616214350563305;4461.4297;150
2024-05-17T13:12:41.466;599616214358255582;4469.122;183
2024-05-17T13:12:41.473;599616214365947859;4476.8145;202
2024-05-17T13:12:41.481;599616214373640136;4484.507;235
2024-05-17T13:12:41.489;599616214381352494;4492.2188;273
2024-05-17T13:12:41.496;599616214389044493;4499.9106;282
2024-05-17T13:12:41.504;599616214396736492;4507.603;285
2024-05-17T13:12:41.512;599616214404428491;4515.295;306
2024-05-17T13:12:41.519;599616214412120490;4522.987;308
2024-05-17T13:12:41.527;599616214419812489;4530.6787;252
2024-05-17T13:12:41.535;599616214427504488;4538.371;190
2024-05-17T13:12:41.543;599616214435196487;4546.063;195
2024-05-17T13:12:41.550;599616214442888486;4553.7544;207
2024-05-17T13:12:41.558;599616214450580485;4561.447;136
2024-05-17T13:12:41.566;599616214458272484;4569.1387;56
2024-05-17T13:12:41.573;599616214465964483;4576.831;84
2024-05-17T13:12:41.581;599616214473656482;4584.523;124
2024-05-17T13:12:41.589;599616214481348481;4592.215;63
2024-05-17T13:12:41.596;599616214489040480;4599.9067;4
2024-05-17T13:12:41.604;599616214496732479;4607.599;44
2024-05-17T13:12:41.612;599616214504424478;4615.291;101
2024-05-17T13:12:41.619;599616214512116477;4622.9824;103
2024-05-17T13:12:41.627;599616214519808476;4630.675;98
2024-05-17T13:12:41.635;599616214527500475;4638.3667;127
2024-05-17T13:12:41.643;599616214535192474;4646.059;155
2024-05-17T13:12:41.650;599616214542884473;4653.751;139
2024-05-17T13:12:41.658;599616214550576472;4661.443;101
2024-05-17T13:12:41.666;599616214558268471;4669.135;110
2024-05-17T13:12:41.673;599616214565960470;4676.8267;127
2024-05-17T13:12:41.681;599616214573652469;4684.519;89
2024-05-17T13:12:41.689;599616214581344468;4692.2104;80
2024-05-17T13:12:41.696;599616214589036467;4699.903;124
2024-05-17T13:12:41.704;599616214596728466;4707.5947;141
2024-05-17T13:12:41.712;599616214604420465;4715.287;129
2024-05-17T13:12:41.719;599616214612112464;4722.979;150
2024-05-17T13:12:41.727;599616214619804463;4730.6704;176
2024-05-17T13:12:41.735;599616214627496462;4738.363;181
2024-05-17T13:12:41.743;599616214635188461;4746.0547;207
2024-05-17T13:12:41.750;599616214642880460;4753.747;235
2024-05-17T13:12:41.758;599616214650572459;4761.4385;247
2024-05-17T13:12:41.766;599616214658264458;4769.131;256
2024-05-17T13:12:41.773;599616214665956457;4776.8228;233
2024-05-17T13:12:41.781;599616214673648456;4784.515;195
2024-05-17T13:12:41.789;599616214681340455;4792.207;207
2024-05-17T13:12:41.796;599616214689032454;4799.8984;214
2024-05-17T13:12:41.804;599616214696724453;4807.591;162
2024-05-17T13:12:41.812;599616214704416452;4815.2827;157
2024-05-17T13:12:41.819;599616214712108451;4822.975;388
2024-05-17T13:12:41.827;599616214719800450;4830.667;859
2024-05-17T13:12:41.835;599616214727492449;4838.359;1229
2024-05-17T13:12:41.843;599616214735184448;4846.051;998
2024-05-17T13:12:41.850;599616214742876447;4853.7427;287
2024-05-17T13:12:41.858;599616214750568446;4861.435;-134
2024-05-17T13:12:41.866;599616214758260445;4869.1265;-61
2024-05-17T13:12:41.873;599616214765952444;4876.819;-11
2024-05-17T13:12:41.881;599616214773644443;4884.5107;-80
2024-05-17T13:12:41.889;599616214781336442;4892.203;-49
2024-05-17T13:12:41.896;599616214789028441;4899.895;-11
2024-05-17T13:12:41.904;599616214796720440;4907.5864;-18
2024-05-17T13:12:41.912;599616214804412439;4915.279;0
2024-05-17T13:12:41.919;599616214812104438;4922.9707;11
2024-05-17T13:12:41.927;599616214819796437;4930.663;16
2024-05-17T13:12:41.935;599616214827488436;4938.3545;68
2024-05-17T13:12:41.943;599616214835180435;4946.047;124
2024-05-17T13:12:41.950;599616214842872434;4953.739;127
2024-05-17T13:12:41.958;599616214850564433;4961.431;117
2024-05-17T13:12:41.966;599616214858256432;4969.123;153
2024-05-17T13:12:41.973;599616214865948431;4976.8145;195
2024-05-17T13:12:41.981;599616214873640430;4984.507;214
2024-05-17T13:12:41.989;599616214881332429;4992.1987;240
2024-05-17T13:12:41.996;599616214889024428;4999.891;282
2024-05-17T13:12:42.004;599616214896716427;5007.5825;296
2024-05-17T13:12:42.012;599616214904408426;5015.275;278
2024-05-17T13:12:42.019;599616214912100425;5022.967;252
2024-05-17T13:12:42.027;599616214919792424;5030.6587;247
2024-05-17T13:12:42.035;599616214927484423;5038.351;256
2024-05-17T13:12:42.043;599616214935176422;5046.0425;245
2024-05-17T13:12:42.050;599616214942853388;5053.7197;216
2024-05-17T13:12:42.058;599616214950545596;5061.4116;171
2024-05-17T13:12:42.066;599616214958237804;5069.104;84
2024-05-17T13:12:42.073;599616214965930012;5076.7964;30
2024-05-17T13:12:42.081;599616214973622220;5084.489;77
2024-05-17T13:12:42.089;599616214981314428;5092.181;131
2024-05-17T13:12:42.096;599616214989006636;5099.8726;77
2024-05-17T13:12:42.104;599616214996698844;5107.565;-9
2024-05-17T13:12:42.112;599616215004391052;5115.2573;7
2024-05-17T13:12:42.119;599616215012083260;5122.9497;77
2024-05-17T13:12:42.127;599616215019775468;5130.642;94
2024-05-17T13:12:42.135;599616215027467676;5138.334;77
2024-05-17T13:12:42.143;599616215035159884;5146.0264;82
2024-05-17T13:12:42.150;599616215042852092;5153.7183;110
2024-05-17T13:12:42.158;599616215050544300;5161.4106;110
2024-05-17T13:12:42.166;599616215058236508;5169.103;68
2024-05-17T13:12:42.173;599616215065928716;5176.795;54
2024-05-17T13:12:42.181;599616215073620924;5184.4873;82
2024-05-17T13:12:42.189;599616215081313132;5192.1797;56
2024-05-17T13:12:42.196;599616215089005340;5199.8716;11
2024-05-17T13:12:42.204;599616215096697548;5207.564;49
2024-05-17T13:12:42.212;599616215104389756;5215.256;110
2024-05-17T13:12:42.219;599616215112081964;5222.948;108
2024-05-17T13:12:42.227;599616215119774172;5230.6406;96
2024-05-17T13:12:42.235;599616215127466380;5238.333;134
2024-05-17T13:12:42.243;599616215135158588;5246.0254;171
2024-05-17T13:12:42.250;599616215142850796;5253.717;164
2024-05-17T13:12:42.258;599616215150543004;5261.409;148
2024-05-17T13:12:42.266;599616215158235212;5269.1016;131
2024-05-17T13:12:42.273;599616215165927420;5276.794;106
2024-05-17T13:12:42.281;599616215173619628;5284.4863;98
2024-05-17T13:12:42.289;599616215181311836;5292.178;108
2024-05-17T13:12:42.296;599616215189004044;5299.87;94
2024-05-17T13:12:42.304;599616215196696252;5307.5625;54
2024-05-17T13:12:42.312;599616215204388460;5315.255;143
2024-05-17T13:12:42.319;599616215212080668;5322.9473;546
2024-05-17T13:12:42.327;599616215219772876;5330.639;1071
2024-05-17T13:12:42.335;599616215227465084;5338.3315;1196
2024-05-17T13:12:42.343;599616215235157292;5346.0234;680
2024-05-17T13:12:42.350;599616215242849500;5353.716;11
2024-05-17T13:12:42.358;599616215250541708;5361.408;-143
2024-05-17T13:12:42.366;599616215258233916;5369.1;-7
2024-05-17T13:12:42.373;599616215265926124;5376.7925;-70
2024-05-17T13:12:42.381;599616215273618332;5384.485;-143
2024-05-17T13:12:42.389;599616215281310540;5392.1772;-73
2024-05-17T13:12:42.396;599616215289002748;5399.869;-44
2024-05-17T13:12:42.404;599616215296694956;5407.561;-58
2024-05-17T13:12:42.412;599616215304387164;5415.2534;-30
2024-05-17T13:12:42.419;599616215312079372;5422.946;-2
2024-05-17T13:12:42.427;599616215319771580;5430.638;-7
2024-05-17T13:12:42.435;599616215327463788;5438.3306;4
2024-05-17T13:12:42.443;599616215335155996;5446.022;49
2024-05-17T13:12:42.450;599616215342848204;5453.7144;96
2024-05-17T13:12:42.458;599616215350540412;5461.4067;117
2024-05-17T13:12:42.466;599616215358232620;5469.099;122
2024-05-17T13:12:42.473;599616215365924828;5476.7915;148
2024-05-17T13:12:42.481;599616215373617036;5484.4834;197
2024-05-17T13:12:42.489;599616215381309244;5492.176;219
2024-05-17T13:12:42.496;599616215389001452;5499.8677;221
2024-05-17T13:12:42.504;599616215396693660;5507.56;228
2024-05-17T13:12:42.512;599616215404385868;5515.2524;193
2024-05-17T13:12:42.519;599616215412078076;5522.9443;134
2024-05-17T13:12:42.527;599616215419770284;5530.6367;150
2024-05-17T13:12:42.535;599616215427462492;5538.329;207
2024-05-17T13:12:42.543;599616215435154700;5546.021;216
2024-05-17T13:12:42.550;599616215442846908;5553.7134;186
2024-05-17T13:12:42.558;599616215450539116;5561.4053;139
2024-05-17T13:12:42.566;599616215458231324;5569.0977;56
2024-05-17T13:12:42.573;599616215465923532;5576.79;-11
2024-05-17T13:12:42.581;599616215473615740;5584.4824;14
2024-05-17T13:12:42.589;599616215481307948;5592.1743;68
2024-05-17T13:12:42.596;599616215489000156;5599.866;77
2024-05-17T13:12:42.604;599616215496692364;5607.5586;80
2024-05-17T13:12:42.612;599616215504384588;5615.251;89
2024-05-17T13:12:42.619;599616215512076796;5622.9434;110
2024-05-17T13:12:42.627;599616215519769004;5630.6357;155
2024-05-17T13:12:42.635;599616215527461212;5638.3276;179
2024-05-17T13:12:42.643;599616215535153420;5646.0195;169
2024-05-17T13:12:42.650;599616215542845628;5653.712;169
2024-05-17T13:12:42.658;599616215550537836;5661.4043;188
2024-05-17T13:12:42.666;599616215558230044;5669.0967;153
2024-05-17T13:12:42.673;599616215565922252;5676.7886;47
2024-05-17T13:12:42.681;599616215573614460;5684.481;7
2024-05-17T13:12:42.689;599616215581306668;5692.173;54
2024-05-17T13:12:42.696;599616215588998876;5699.865;42
2024-05-17T13:12:42.704;599616215596691084;5707.5576;-2
2024-05-17T13:12:42.712;599616215604383292;5715.2495;40
2024-05-17T13:12:42.719;599616215612075500;5722.942;98
2024-05-17T13:12:42.727;599616215619767708;5730.6343;108
2024-05-17T13:12:42.735;599616215627459916;5738.3267;120
2024-05-17T13:12:42.743;599616215635152124;5746.018;141
2024-05-17T13:12:42.750;599616215642844332;5753.7104;117
2024-05-17T13:12:42.758;599616215650536540;5761.403;58
2024-05-17T13:12:42.766;599616215658228748;5769.095;47
2024-05-17T13:12:42.773;599616215665920956;5776.7876;94
2024-05-17T13:12:42.781;599616215673613164;5784.48;122
2024-05-17T13:12:42.789;599616215681305372;5792.1714;75
2024-05-17T13:12:42.796;599616215688997580;5799.864;14
2024-05-17T13:12:42.804;599616215696689788;5807.556;94
2024-05-17T13:12:42.812;599616215704381996;5815.2485;452
2024-05-17T13:12:42.819;599616215712074204;5822.9404;987
2024-05-17T13:12:42.827;599616215719766412;5830.633;1234
2024-05-17T13:12:42.835;599616215727458620;5838.325;810
2024-05-17T13:12:42.843;599616215735150828;5846.017;115
2024-05-17T13:12:42.850;599616215742843036;5853.7095;-106
2024-05-17T13:12:42.858;599616215750535244;5861.4014;16
2024-05-17T13:12:42.866;599616215758227452;5869.0938;-14
2024-05-17T13:12:42.873;599616215765919660;5876.786;-94
2024-05-17T13:12:42.881;599616215773611868;5884.4785;-73
2024-05-17T13:12:42.889;599616215781304076;5892.1704;-75
2024-05-17T13:12:42.896;599616215788996284;5899.8623;-77
2024-05-17T13:12:42.904;599616215796688492;5907.5547;-30
2024-05-17T13:12:42.912;599616215804380700;5915.247;-11
2024-05-17T13:12:42.919;599616215812072908;5922.9395;-9
2024-05-17T13:12:42.927;599616215819765116;5930.632;16
2024-05-17T13:12:42.935;599616215827457324;5938.323;28
2024-05-17T13:12:42.943;599616215835149532;5946.0156;35
2024-05-17T13:12:42.950;599616215842841740;5953.708;77
2024-05-17T13:12:42.958;599616215850533948;5961.4004;129
2024-05-17T13:12:42.966;599616215858226156;5969.093;153
2024-05-17T13:12:42.973;599616215865918364;5976.7847;141
2024-05-17T13:12:42.981;599616215873610572;5984.477;157
2024-05-17T13:12:42.989;599616215881302780;5992.169;214
2024-05-17T13:12:42.996;599616215888994988;5999.8613;235
2024-05-17T13:12:43.004;599616215896687196;6007.5537;200
2024-05-17T13:12:43.012;599616215904379404;6015.2456;183
2024-05-17T13:12:43.019;599616215912071612;6022.938;202
2024-05-17T13:12:43.027;599616215919763820;6030.6304;204
2024-05-17T13:12:43.035;599616215927456028;6038.3223;195
2024-05-17T13:12:43.043;599616215935148236;6046.0146;209
2024-05-17T13:12:43.050;599616215942840444;6053.7065;219
2024-05-17T13:12:43.058;599616215950532652;6061.399;188
2024-05-17T13:12:43.066;599616215958224860;6069.0913;117
2024-05-17T13:12:43.073;599616215965917068;6076.7837;32
2024-05-17T13:12:43.081;599616215973609276;6084.476;11
2024-05-17T13:12:43.089;599616215981301484;6092.1675;51
2024-05-17T13:12:43.096;599616215988993692;6099.86;70
2024-05-17T13:12:43.104;599616215996685900;6107.5522;84
2024-05-17T13:12:43.112;599616216004378108;6115.2446;110
2024-05-17T13:12:43.119;599616216012070316;6122.937;113
2024-05-17T13:12:43.127;599616216019762524;6130.629;117
2024-05-17T13:12:43.135;599616216027454732;6138.321;153
2024-05-17T13:12:43.143;599616216035146940;6146.013;169
2024-05-17T13:12:43.150;599616216042839148;6153.7056;153
2024-05-17T13:12:43.158;599616216050531356;6161.398;153
2024-05-17T13:12:43.166;599616216058223564;6169.09;181
2024-05-17T13:12:43.173;599616216065940916;6176.8076;190
2024-05-17T13:12:43.181;599616216073632775;6184.499;155
2024-05-17T13:12:43.189;599616216081324634;6192.191;113
2024-05-17T13:12:43.196;599616216089016493;6199.883;120
2024-05-17T13:12:43.204;599616216096708352;6207.5747;96
2024-05-17T13:12:43.212;599616216104400211;6215.2666;-2
2024-05-17T13:12:43.219;599616216112092070;6222.9585;-35
2024-05-17T13:12:43.227;599616216119783929;6230.6504;25
2024-05-17T13:12:43.235;599616216127475788;6238.3423;61
2024-05-17T13:12:43.243;599616216135167647;6246.0337;49
2024-05-17T13:12:43.250;599616216142859506;6253.7256;18
2024-05-17T13:12:43.258;599616216150551365;6261.418;-7
2024-05-17T13:12:43.266;599616216158243224;6269.11;14
2024-05-17T13:12:43.273;599616216165935083;6276.802;21
2024-05-17T13:12:43.281;599616216173626942;6284.493;-30
2024-05-17T13:12:43.289;599616216181318801;6292.185;-23
2024-05-17T13:12:43.296;599616216189010660;6299.877;214
2024-05-17T13:12:43.304;599616216196702519;6307.569;727
2024-05-17T13:12:43.312;599616216204394378;6315.2607;1159
2024-05-17T13:12:43.319;599616216212086237;6322.9526;980
2024-05-17T13:12:43.327;599616216219778096;6330.6445;310
2024-05-17T13:12:43.335;599616216227469955;6338.3364;-87
2024-05-17T13:12:43.343;599616216235161814;6346.028;7
2024-05-17T13:12:43.350;599616216242853673;6353.7197;63
2024-05-17T13:12:43.358;599616216250545532;6361.412;-68
2024-05-17T13:12:43.366;599616216258237391;6369.104;-127
2024-05-17T13:12:43.373;599616216265929250;6376.7954;-108
2024-05-17T13:12:43.381;599616216273621109;6384.4873;-122
2024-05-17T13:12:43.389;599616216281312968;6392.179;-150
2024-05-17T13:12:43.396;599616216289004827;6399.871;-136
2024-05-17T13:12:43.404;599616216296696686;6407.5635;-101
2024-05-17T13:12:43.412;599616216304388545;6415.255;-80
2024-05-17T13:12:43.419;599616216312080404;6422.947;-80
2024-05-17T13:12:43.427;599616216319772263;6430.6387;-77
2024-05-17T13:12:43.435;599616216327464122;6438.3306;-54
2024-05-17T13:12:43.443;599616216335155981;6446.022;-21
2024-05-17T13:12:43.450;599616216342847840;6453.7144;-7
2024-05-17T13:12:43.458;599616216350539699;6461.4062;23
2024-05-17T13:12:43.466;599616216358231558;6469.098;82
2024-05-17T13:12:43.473;599616216365923417;6476.7896;117
2024-05-17T13:12:43.481;599616216373615276;6484.4814;110
2024-05-17T13:12:43.489;599616216381307135;6492.1733;89
2024-05-17T13:12:43.496;599616216388998994;6499.8657;68
2024-05-17T13:12:43.504;599616216396690853;6507.5576;37
2024-05-17T13:12:43.512;599616216404382712;6515.249;23
2024-05-17T13:12:43.519;599616216412074571;6522.941;16
2024-05-17T13:12:43.527;599616216419766430;6530.633;9
2024-05-17T13:12:43.535;599616216427458289;6538.3247;16
2024-05-17T13:12:43.543;599616216435150148;6546.0166;7
2024-05-17T13:12:43.550;599616216442842007;6553.7085;2
2024-05-17T13:12:43.558;599616216450533866;6561.4004;61
2024-05-17T13:12:43.566;599616216458225725;6569.0923;98
2024-05-17T13:12:43.573;599616216465917584;6576.7837;18
2024-05-17T13:12:43.581;599616216473609443;6584.4756;-68
2024-05-17T13:12:43.589;599616216481301302;6592.1675;-47
2024-05-17T13:12:43.596;599616216488993161;6599.86;-4
2024-05-17T13:12:43.604;599616216496685020;6607.5513;-2
2024-05-17T13:12:43.612;599616216504376879;6615.243;11
2024-05-17T13:12:43.619;599616216512068738;6622.935;35
2024-05-17T13:12:43.627;599616216519760597;6630.627;40
2024-05-17T13:12:43.635;599616216527452456;6638.3184;47
2024-05-17T13:12:43.643;599616216535144315;6646.0107;65
2024-05-17T13:12:43.650;599616216542836174;6653.7026;94
2024-05-17T13:12:43.658;599616216550528033;6661.3945;103
2024-05-17T13:12:43.666;599616216558219892;6669.0864;89
2024-05-17T13:12:43.673;599616216565911751;6676.778;110
2024-05-17T13:12:43.681;599616216573603610;6684.4697;143
2024-05-17T13:12:43.689;599616216581295469;6692.162;124
2024-05-17T13:12:43.696;599616216588987328;6699.854;84
2024-05-17T13:12:43.704;599616216596679187;6707.5454;82
2024-05-17T13:12:43.712;599616216604371046;6715.2373;94
2024-05-17T13:12:43.719;599616216612062905;6722.929;91
2024-05-17T13:12:43.727;599616216619754764;6730.621;103
2024-05-17T13:12:43.735;599616216627426596;6738.293;106
2024-05-17T13:12:43.742;599616216635118734;6745.985;70
2024-05-17T13:12:43.750;599616216642810872;6753.6772;21
2024-05-17T13:12:43.758;599616216650503010;6761.3696;-11
2024-05-17T13:12:43.766;599616216658195148;6769.0615;-49
2024-05-17T13:12:43.773;599616216665887286;6776.754;-77
2024-05-17T13:12:43.781;599616216673579424;6784.446;56
2024-05-17T13:12:43.789;599616216681271562;6792.1377;525
2024-05-17T13:12:43.796;599616216688963700;6799.83;1020
2024-05-17T13:12:43.804;599616216696655838;6807.5225;932
2024-05-17T13:12:43.812;599616216704347976;6815.2144;261
2024-05-17T13:12:43.819;599616216712040114;6822.9062;-202
2024-05-17T13:12:43.827;599616216719732252;6830.5986;-75
2024-05-17T13:12:43.835;599616216727424390;6838.291;56
2024-05-17T13:12:43.842;599616216735116528;6845.983;-70
2024-05-17T13:12:43.850;599616216742808666;6853.675;-106
2024-05-17T13:12:43.858;599616216750500804;6861.367;-61
2024-05-17T13:12:43.866;599616216758192942;6869.059;-98
2024-05-17T13:12:43.873;599616216765885080;6876.7515;-150
2024-05-17T13:12:43.881;599616216773577218;6884.444;-162
2024-05-17T13:12:43.889;599616216781269356;6892.1357;-162
2024-05-17T13:12:43.896;599616216788961494;6899.8276;-176
2024-05-17T13:12:43.904;599616216796653632;6907.52;-174
2024-05-17T13:12:43.912;599616216804345770;6915.2124;-136
2024-05-17T13:12:43.919;599616216812037908;6922.9043;-103
2024-05-17T13:12:43.927;599616216819730046;6930.596;-94
2024-05-17T13:12:43.935;599616216827422184;6938.2886;-87
2024-05-17T13:12:43.942;599616216835114322;6945.981;-56
2024-05-17T13:12:43.950;599616216842806460;6953.673;-30
2024-05-17T13:12:43.958;599616216850498598;6961.365;-28
2024-05-17T13:12:43.966;599616216858190736;6969.057;2
2024-05-17T13:12:43.973;599616216865882874;6976.749;42
2024-05-17T13:12:43.981;599616216873575012;6984.4414;23
2024-05-17T13:12:43.989;599616216881267150;6992.134;-35
2024-05-17T13:12:43.996;599616216888959288;6999.825;-42
2024-05-17T13:12:44.004;599616216896651426;7007.5176;7
2024-05-17T13:12:44.012;599616216904343564;7015.21;23
2024-05-17T13:12:44.019;599616216912035702;7022.9023;11
2024-05-17T13:12:44.027;599616216919727840;7030.594;28
2024-05-17T13:12:44.035;599616216927419978;7038.286;47
2024-05-17T13:12:44.042;599616216935112116;7045.9785;49
2024-05-17T13:12:44.050;599616216942804254;7053.6704;47
2024-05-17T13:12:44.058;599616216950496392;7061.363;70
2024-05-17T13:12:44.066;599616216958188530;7069.055;131
2024-05-17T13:12:44.073;599616216965880668;7076.747;176
2024-05-17T13:12:44.081;599616216973572806;7084.439;127
2024-05-17T13:12:44.089;599616216981264944;7092.1313;23
2024-05-17T13:12:44.096;599616216988957082;7099.8237;0
2024-05-17T13:12:44.104;599616216996649220;7107.5156;49
2024-05-17T13:12:44.112;599616217004341358;7115.2075;54
2024-05-17T13:12:44.119;599616217012033496;7122.9;37
2024-05-17T13:12:44.127;599616217019725634;7130.5923;61
2024-05-17T13:12:44.135;599616217027417772;7138.284;73
2024-05-17T13:12:44.142;599616217035109910;7145.9766;70
2024-05-17T13:12:44.150;599616217042802048;7153.6685;94
2024-05-17T13:12:44.158;599616217050494186;7161.3604;124
2024-05-17T13:12:44.166;599616217058186324;7169.0527;139
2024-05-17T13:12:44.173;599616217065878462;7176.745;124
2024-05-17T13:12:44.181;599616217073570600;7184.4365;127
2024-05-17T13:12:44.189;599616217081262738;7192.129;167
2024-05-17T13:12:44.196;599616217088954876;7199.8213;155
2024-05-17T13:12:44.204;599616217096647014;7207.5137;101
2024-05-17T13:12:44.212;599616217104339152;7215.2056;98
2024-05-17T13:12:44.219;599616217112031290;7222.8975;129
2024-05-17T13:12:44.227;599616217119723428;7230.59;124
2024-05-17T13:12:44.235;599616217127415566;7238.2817;87
2024-05-17T13:12:44.242;599616217135107704;7245.974;37
2024-05-17T13:12:44.250;599616217142799842;7253.6665;-7
2024-05-17T13:12:44.258;599616217150491980;7261.3584;-25
2024-05-17T13:12:44.266;599616217158184118;7269.0503;160
2024-05-17T13:12:44.273;599616217165876256;7276.7427;685
2024-05-17T13:12:44.281;599616217173568394;7284.435;1185
2024-05-17T13:12:44.289;599616217181260532;7292.127;1067
2024-05-17T13:12:44.296;599616217188947670;7299.814;407
2024-05-17T13:12:44.304;599616217196639878;7307.5063;-16
2024-05-17T13:12:44.312;599616217204332086;7315.198;70
2024-05-17T13:12:44.319;599616217212024294;7322.8906;129
2024-05-17T13:12:44.327;599616217219716502;7330.583;23
2024-05-17T13:12:44.335;599616217227408710;7338.2754;56
2024-05-17T13:12:44.342;599616217235100918;7345.9673;139
2024-05-17T13:12:44.350;599616217242793126;7353.659;106
2024-05-17T13:12:44.358;599616217250485334;7361.3516;42
2024-05-17T13:12:44.366;599616217258177542;7369.044;30
2024-05-17T13:12:44.373;599616217265869750;7376.7363;11
2024-05-17T13:12:44.381;599616217273561958;7384.4287;-77
2024-05-17T13:12:44.389;599616217281254166;7392.12;-146
2024-05-17T13:12:44.396;599616217288946374;7399.8125;-124
2024-05-17T13:12:44.404;599616217296638582;7407.505;-113
2024-05-17T13:12:44.412;599616217304330790;7415.1973;-127
2024-05-17T13:12:44.419;599616217312022998;7422.8896;-96
2024-05-17T13:12:44.427;599616217319715206;7430.5815;-44
2024-05-17T13:12:44.435;599616217327407414;7438.2734;-25
2024-05-17T13:12:44.442;599616217335099622;7445.966;-30
2024-05-17T13:12:44.450;599616217342791830;7453.658;-14
2024-05-17T13:12:44.458;599616217350484038;7461.3506;18
2024-05-17T13:12:44.466;599616217358176246;7469.0425;28
2024-05-17T13:12:44.473;599616217365868454;7476.735;-4
2024-05-17T13:12:44.481;599616217373560662;7484.4272;-49
2024-05-17T13:12:44.489;599616217381252870;7492.119;-68
2024-05-17T13:12:44.496;599616217388945078;7499.8115;-68
2024-05-17T13:12:44.504;599616217396637286;7507.5034;-73
2024-05-17T13:12:44.512;599616217404329494;7515.196;-51
2024-05-17T13:12:44.519;599616217412021702;7522.888;-4
2024-05-17T13:12:44.527;599616217419713910;7530.5806;16
2024-05-17T13:12:44.535;599616217427406118;7538.2725;14
2024-05-17T13:12:44.542;599616217435098326;7545.9644;28
2024-05-17T13:12:44.550;599616217442790534;7553.6567;58
2024-05-17T13:12:44.558;599616217450482742;7561.349;80
2024-05-17T13:12:44.566;599616217458174950;7569.0415;98
2024-05-17T13:12:44.573;599616217465867158;7576.734;131
2024-05-17T13:12:44.581;599616217473559366;7584.426;155
2024-05-17T13:12:44.589;599616217481251574;7592.1177;122
2024-05-17T13:12:44.596;599616217488943782;7599.81;30
2024-05-17T13:12:44.604;599616217496635990;7607.5024;-14
2024-05-17T13:12:44.612;599616217504328198;7615.195;21
2024-05-17T13:12:44.619;599616217512020406;7622.8867;49
2024-05-17T13:12:44.627;599616217519712614;7630.579;44
2024-05-17T13:12:44.635;599616217527404822;7638.271;51
2024-05-17T13:12:44.642;599616217535097030;7645.9634;68
2024-05-17T13:12:44.650;599616217542789238;7653.656;82
2024-05-17T13:12:44.658;599616217550481446;7661.3477;110
2024-05-17T13:12:44.666;599616217558173654;7669.04;155
2024-05-17T13:12:44.673;599616217565865862;7676.7324;193
2024-05-17T13:12:44.681;599616217573558070;7684.4243;197
2024-05-17T13:12:44.689;599616217581250278;7692.1167;190
2024-05-17T13:12:44.696;599616217588942486;7699.8086;188
2024-05-17T13:12:44.704;599616217596634694;7707.501;153
2024-05-17T13:12:44.712;599616217604326902;7715.1934;117
2024-05-17T13:12:44.719;599616217612019110;7722.8857;108
2024-05-17T13:12:44.727;599616217619711318;7730.578;47
2024-05-17T13:12:44.735;599616217627403526;7738.2695;-73
2024-05-17T13:12:44.742;599616217635095734;7745.962;-108
2024-05-17T13:12:44.750;599616217642787942;7753.6543;129
2024-05-17T13:12:44.758;599616217650480150;7761.3467;650
2024-05-17T13:12:44.766;599616217658172358;7769.039;1083
2024-05-17T13:12:44.773;599616217665864566;7776.731;949
2024-05-17T13:12:44.781;599616217673556774;7784.423;325
2024-05-17T13:12:44.789;599616217681248982;7792.115;-84
2024-05-17T13:12:44.796;599616217688941190;7799.8076;7
2024-05-17T13:12:44.804;599616217696633398;7807.5;96
2024-05-17T13:12:44.812;599616217704325606;7815.192;21
2024-05-17T13:12:44.819;599616217712017814;7822.8843;35
2024-05-17T13:12:44.827;599616217719710022;7830.5767;70
2024-05-17T13:12:44.835;599616217727402230;7838.2686;61
2024-05-17T13:12:44.842;599616217735094438;7845.961;108
2024-05-17T13:12:44.850;599616217742786646;7853.653;162
2024-05-17T13:12:44.858;599616217750478870;7861.345;136
2024-05-17T13:12:44.866;599616217758171078;7869.0376;75
2024-05-17T13:12:44.873;599616217765863286;7876.73;65
2024-05-17T13:12:44.881;599616217773555494;7884.422;73
2024-05-17T13:12:44.889;599616217781247702;7892.114;23
2024-05-17T13:12:44.896;599616217788939910;7899.806;-4
2024-05-17T13:12:44.904;599616217796632118;7907.4985;28
2024-05-17T13:12:44.912;599616217804324326;7915.191;9
2024-05-17T13:12:44.919;599616217812016534;7922.8833;-77
2024-05-17T13:12:44.927;599616217819708742;7930.575;-124
2024-05-17T13:12:44.935;599616217827400950;7938.267;-96
2024-05-17T13:12:44.942;599616217835093158;7945.9595;-70
2024-05-17T13:12:44.950;599616217842785366;7953.652;-84
2024-05-17T13:12:44.958;599616217850477574;7961.344;-98
2024-05-17T13:12:44.966;599616217858169782;7969.036;-96
2024-05-17T13:12:44.973;599616217865861990;7976.7285;-139
2024-05-17T13:12:44.981;599616217873554198;7984.4204;-204
2024-05-17T13:12:44.989;599616217881246406;7992.113;-193
2024-05-17T13:12:44.996;599616217888938614;7999.8047;-153
2024-05-17T13:12:45.004;599616217896630822;8007.497;-162
2024-05-17T13:12:45.012;599616217904323030;8015.1895;-164
2024-05-17T13:12:45.019;599616217912015238;8022.882;-120
2024-05-17T13:12:45.027;599616217919707446;8030.5737;-84
2024-05-17T13:12:45.035;599616217927399654;8038.2656;-73
2024-05-17T13:12:45.042;599616217935091862;8045.958;-61
2024-05-17T13:12:45.050;599616217942784070;8053.6504;-49
2024-05-17T13:12:45.058;599616217950476278;8061.343;-21
2024-05-17T13:12:45.066;599616217958168486;8069.035;11
2024-05-17T13:12:45.073;599616217965860694;8076.7275;28
2024-05-17T13:12:45.081;599616217973552902;8084.419;47
2024-05-17T13:12:45.089;599616217981245110;8092.1113;73
2024-05-17T13:12:45.096;599616217988937318;8099.8037;54
2024-05-17T13:12:45.104;599616217996629526;8107.496;-25
2024-05-17T13:12:45.112;599616218004321734;8115.188;-80
2024-05-17T13:12:45.119;599616218012013942;8122.8804;-47
2024-05-17T13:12:45.127;599616218019706150;8130.5723;-9
2024-05-17T13:12:45.135;599616218027398358;8138.2646;-9
2024-05-17T13:12:45.142;599616218035090566;8145.957;4
2024-05-17T13:12:45.150;599616218042782774;8153.649;35
2024-05-17T13:12:45.158;599616218050474982;8161.3413;58
2024-05-17T13:12:45.166;599616218058167190;8169.0337;87
2024-05-17T13:12:45.173;599616218065859398;8176.726;124
2024-05-17T13:12:45.181;599616218073551606;8184.418;141
2024-05-17T13:12:45.189;599616218081243814;8192.11;127
2024-05-17T13:12:45.196;599616218088936022;8199.803;94
2024-05-17T13:12:45.204;599616218096628230;8207.495;63
2024-05-17T13:12:45.212;599616218104320438;8215.187;30
2024-05-17T13:12:45.219;599616218112012646;8222.879;-51
2024-05-17T13:12:45.227;599616218119704854;8230.571;-73
2024-05-17T13:12:45.235;599616218127397062;8238.264;216
2024-05-17T13:12:45.242;599616218135089270;8245.956;758
2024-05-17T13:12:45.250;599616218142781478;8253.647;1055
2024-05-17T13:12:45.258;599616218150473686;8261.34;737
2024-05-17T13:12:45.266;599616218158165894;8269.032;124
2024-05-17T13:12:45.273;599616218165858102;8276.725;-110
2024-05-17T13:12:45.281;599616218173550310;8284.417;32
2024-05-17T13:12:45.289;599616218181242518;8292.108;65
2024-05-17T13:12:45.296;599616218188934726;8299.801;2
2024-05-17T13:12:45.304;599616218196626934;8307.493;44
2024-05-17T13:12:45.312;599616218204319142;8315.186;75
2024-05-17T13:12:45.319;599616218212011350;8322.878;61
2024-05-17T13:12:45.327;599616218219703558;8330.569;87
2024-05-17T13:12:45.335;599616218227395766;8338.262;103
2024-05-17T13:12:45.342;599616218235087974;8345.954;108
2024-05-17T13:12:45.350;599616218242780182;8353.646;155
2024-05-17T13:12:45.358;599616218250472390;8361.339;190
2024-05-17T13:12:45.366;599616218258164598;8369.031;153
2024-05-17T13:12:45.373;599616218265856806;8376.723;89
2024-05-17T13:12:45.381;599616218273549014;8384.415;56
2024-05-17T13:12:45.389;599616218281241222;8392.107;47
2024-05-17T13:12:45.396;599616218288933430;8399.8;49
2024-05-17T13:12:45.404;599616218296625638;8407.492;63
2024-05-17T13:12:45.412;599616218304317846;8415.185;65
2024-05-17T13:12:45.419;599616218312015110;8422.881;51
2024-05-17T13:12:45.427;599616218319707248;8430.573;35
2024-05-17T13:12:45.435;599616218327399386;8438.266;35
2024-05-17T13:12:45.442;599616218335091524;8445.958;51
2024-05-17T13:12:45.450;599616218342783662;8453.65;73
2024-05-17T13:12:45.458;599616218350475800;8461.342;54
2024-05-17T13:12:45.466;599616218358167938;8469.034;-18
2024-05-17T13:12:45.473;599616218365860076;8476.727;-80
2024-05-17T13:12:45.481;599616218373552214;8484.419;-84
2024-05-17T13:12:45.489;599616218381244352;8492.111;-106
2024-05-17T13:12:45.496;599616218388936490;8499.803;-155
2024-05-17T13:12:45.504;599616218396628628;8507.495;-157
2024-05-17T13:12:45.512;599616218404320766;8515.1875;-124
2024-05-17T13:12:45.519;599616218412012904;8522.88;-122
2024-05-17T13:12:45.527;599616218419705042;8530.571;-113
2024-05-17T13:12:45.535;599616218427397180;8538.264;-63
2024-05-17T13:12:45.542;599616218435089318;8545.956;-21
2024-05-17T13:12:45.550;599616218442781456;8553.647;-16
2024-05-17T13:12:45.558;599616218450473594;8561.34;-21
2024-05-17T13:12:45.566;599616218458165732;8569.032;4
2024-05-17T13:12:45.573;599616218465857870;8576.725;49
2024-05-17T13:12:45.581;599616218473550008;8584.416;61
2024-05-17T13:12:45.589;599616218481242146;8592.108;51
2024-05-17T13:12:45.596;599616218488934284;8599.801;75
2024-05-17T13:12:45.604;599616218496626422;8607.493;73
2024-05-17T13:12:45.612;599616218504318560;8615.186;-11
2024-05-17T13:12:45.619;599616218512010698;8622.877;-61
2024-05-17T13:12:45.627;599616218519702836;8630.569;2
2024-05-17T13:12:45.635;599616218527394974;8638.262;58
2024-05-17T13:12:45.642;599616218535087112;8645.953;56
2024-05-17T13:12:45.650;599616218542779250;8653.6455;61
2024-05-17T13:12:45.658;599616218550471388;8661.338;98
2024-05-17T13:12:45.666;599616218558163526;8669.03;131
2024-05-17T13:12:45.673;599616218565855664;8676.722;155
2024-05-17T13:12:45.681;599616218573547802;8684.414;181
2024-05-17T13:12:45.689;599616218581239940;8692.106;169
2024-05-17T13:12:45.696;599616218588932078;8699.799;68
2024-05-17T13:12:45.704;599616218596624216;8707.491;-23
2024-05-17T13:12:45.712;599616218604316354;8715.183;131
2024-05-17T13:12:45.719;599616218612008492;8722.874;612
2024-05-17T13:12:45.727;599616218619700630;8730.566;1069
2024-05-17T13:12:45.735;599616218627392768;8738.259;951
2024-05-17T13:12:45.742;599616218635084906;8745.951;285
2024-05-17T13:12:45.750;599616218642777044;8753.644;-167
2024-05-17T13:12:45.758;599616218650469182;8761.336;-54
2024-05-17T13:12:45.766;599616218658161320;8769.028;61
2024-05-17T13:12:45.773;599616218665853458;8776.72;-18
2024-05-17T13:12:45.781;599616218673545596;8784.412;-2
2024-05-17T13:12:45.789;599616218681237734;8792.104;28
2024-05-17T13:12:45.796;599616218688929872;8799.796;0
2024-05-17T13:12:45.804;599616218696622010;8807.488;42
2024-05-17T13:12:45.812;599616218704314148;8815.181;106
2024-05-17T13:12:45.819;599616218712006286;8822.873;120
2024-05-17T13:12:45.827;599616218719698424;8830.564;122
2024-05-17T13:12:45.835;599616218727390562;8838.257;129
2024-05-17T13:12:45.842;599616218735082700;8845.949;150
2024-05-17T13:12:45.850;599616218742774838;8853.642;193
2024-05-17T13:12:45.858;599616218750466976;8861.334;202
2024-05-17T13:12:45.866;599616218758159114;8869.025;190
2024-05-17T13:12:45.873;599616218765851252;8876.718;186
2024-05-17T13:12:45.881;599616218773543390;8884.409;136
2024-05-17T13:12:45.889;599616218781235528;8892.102;106
2024-05-17T13:12:45.896;599616218788927666;8899.794;148
2024-05-17T13:12:45.904;599616218796619804;8907.486;176
2024-05-17T13:12:45.912;599616218804311942;8915.179;155
2024-05-17T13:12:45.919;599616218812004080;8922.871;136
2024-05-17T13:12:45.927;599616218819696218;8930.563;139
2024-05-17T13:12:45.935;599616218827388356;8938.254;146
2024-05-17T13:12:45.942;599616218835080494;8945.946;139
2024-05-17T13:12:45.950;599616218842772632;8953.639;113
2024-05-17T13:12:45.958;599616218850464770;8961.331;75
2024-05-17T13:12:45.966;599616218858156908;8969.023;37
2024-05-17T13:12:45.973;599616218865849046;8976.716;9
2024-05-17T13:12:45.981;599616218873561310;8984.428;7
2024-05-17T13:12:45.989;599616218881253169;8992.12;47
2024-05-17T13:12:45.996;599616218888945028;8999.812;91
2024-05-17T13:12:46.004;599616218896636887;9007.503;115
2024-05-17T13:12:46.012;599616218904328746;9015.194;129
2024-05-17T13:12:46.019;599616218912020605;9022.887;131
2024-05-17T13:12:46.027;599616218919712464;9030.579;94
2024-05-17T13:12:46.035;599616218927404323;9038.2705;32
2024-05-17T13:12:46.042;599616218935096182;9045.963;30
2024-05-17T13:12:46.050;599616218942788041;9053.654;77
2024-05-17T13:12:46.058;599616218950479900;9061.347;94
2024-05-17T13:12:46.066;599616218958171759;9069.039;84
2024-05-17T13:12:46.073;599616218965863618;9076.7295;82
2024-05-17T13:12:46.081;599616218973555477;9084.422;115
2024-05-17T13:12:46.089;599616218981247336;9092.113;143
2024-05-17T13:12:46.096;599616218988939195;9099.806;153
2024-05-17T13:12:46.104;599616218996631054;9107.497;181
2024-05-17T13:12:46.112;599616219004322913;9115.189;193
2024-05-17T13:12:46.119;599616219012014772;9122.882;136
2024-05-17T13:12:46.127;599616219019706631;9130.573;82
2024-05-17T13:12:46.135;599616219027398490;9138.265;106
2024-05-17T13:12:46.142;599616219035090349;9145.956;139
2024-05-17T13:12:46.150;599616219042782208;9153.648;122
2024-05-17T13:12:46.158;599616219050474067;9161.341;108
2024-05-17T13:12:46.166;599616219058165926;9169.032;139
2024-05-17T13:12:46.173;599616219065857785;9176.725;143
2024-05-17T13:12:46.181;599616219073549644;9184.416;84
2024-05-17T13:12:46.189;599616219081241503;9192.108;124
2024-05-17T13:12:46.196;599616219088933362;9199.799;464
2024-05-17T13:12:46.204;599616219096625221;9207.491;932
2024-05-17T13:12:46.212;599616219104317080;9215.184;1057
2024-05-17T13:12:46.219;599616219112008939;9222.875;614
2024-05-17T13:12:46.227;599616219119700798;9230.567;18
2024-05-17T13:12:46.235;599616219127392657;9238.259;-110
2024-05-17T13:12:46.242;599616219135084516;9245.951;47
2024-05-17T13:12:46.250;599616219142776375;9253.643;4
2024-05-17T13:12:46.258;599616219150468234;9261.335;-63
2024-05-17T13:12:46.266;599616219158160093;9269.026;14
2024-05-17T13:12:46.273;599616219165851952;9276.718;58
2024-05-17T13:12:46.281;599616219173543811;9284.41;54
2024-05-17T13:12:46.289;599616219181235670;9292.102;87
2024-05-17T13:12:46.296;599616219188927529;9299.794;96
2024-05-17T13:12:46.304;599616219196619388;9307.486;87
2024-05-17T13:12:46.312;599616219204311247;9315.178;127
2024-05-17T13:12:46.319;599616219212003106;9322.87;176
2024-05-17T13:12:46.327;599616219219694965;9330.561;193
2024-05-17T13:12:46.335;599616219227386824;9338.253;193
2024-05-17T13:12:46.342;599616219235078683;9345.944;214
2024-05-17T13:12:46.350;599616219242770542;9353.637;233
2024-05-17T13:12:46.358;599616219250462401;9361.329;193
2024-05-17T13:12:46.366;599616219258154260;9369.0205;143
2024-05-17T13:12:46.373;599616219265846119;9376.713;127
2024-05-17T13:12:46.381;599616219273537978;9384.404;101
2024-05-17T13:12:46.389;599616219281229837;9392.097;51
2024-05-17T13:12:46.396;599616219288921696;9399.788;18
2024-05-17T13:12:46.404;599616219296613555;9407.4795;40
2024-05-17T13:12:46.412;599616219304305414;9415.172;77
2024-05-17T13:12:46.419;599616219311997273;9422.863;68
2024-05-17T13:12:46.427;599616219319689132;9430.556;44
2024-05-17T13:12:46.435;599616219327380991;9438.247;49
2024-05-17T13:12:46.442;599616219335072850;9445.939;40
2024-05-17T13:12:46.450;599616219342764709;9453.632;7
2024-05-17T13:12:46.458;599616219350456568;9461.322;-2
2024-05-17T13:12:46.466;599616219358148427;9469.015;37
2024-05-17T13:12:46.473;599616219365840286;9476.706;70
2024-05-17T13:12:46.481;599616219373532145;9484.398;49
2024-05-17T13:12:46.489;599616219381224004;9492.091;40
2024-05-17T13:12:46.496;599616219388915863;9499.782;101
2024-05-17T13:12:46.504;599616219396607722;9507.475;136
2024-05-17T13:12:46.512;599616219404299581;9515.166;117
2024-05-17T13:12:46.519;599616219411991440;9522.858;134
2024-05-17T13:12:46.527;599616219419683299;9530.549;167
2024-05-17T13:12:46.535;599616219427375158;9538.241;162
2024-05-17T13:12:46.542;599616219435041952;9545.908;150
2024-05-17T13:12:46.550;599616219442734160;9553.601;176
2024-05-17T13:12:46.558;599616219450426368;9561.293;216
2024-05-17T13:12:46.565;599616219458118576;9568.985;214
2024-05-17T13:12:46.573;599616219465810784;9576.678;188
2024-05-17T13:12:46.581;599616219473502992;9584.37;207
2024-05-17T13:12:46.589;599616219481195200;9592.062;249
2024-05-17T13:12:46.596;599616219488887408;9599.754;235
2024-05-17T13:12:46.604;599616219496579616;9607.445;167
2024-05-17T13:12:46.612;599616219504271824;9615.138;153
2024-05-17T13:12:46.619;599616219511964032;9622.83;157
2024-05-17T13:12:46.627;599616219519656240;9630.522;65
2024-05-17T13:12:46.635;599616219527348448;9638.215;-32
2024-05-17T13:12:46.642;599616219535040656;9645.907;16
2024-05-17T13:12:46.650;599616219542732864;9653.6;89
2024-05-17T13:12:46.658;599616219550425072;9661.292;35
2024-05-17T13:12:46.665;599616219558117280;9668.983;-40
2024-05-17T13:12:46.673;599616219565809488;9676.676;84
2024-05-17T13:12:46.681;599616219573501696;9684.368;518
2024-05-17T13:12:46.689;599616219581193904;9692.061;1013
2024-05-17T13:12:46.696;599616219588886112;9699.753;1034
2024-05-17T13:12:46.704;599616219596578320;9707.444;440
2024-05-17T13:12:46.712;599616219604270528;9715.137;-113
2024-05-17T13:12:46.719;599616219611962736;9722.829;-120
2024-05-17T13:12:46.727;599616219619654944;9730.521;4
2024-05-17T13:12:46.735;599616219627347152;9738.213;-54
2024-05-17T13:12:46.742;599616219635039360;9745.905;-56
2024-05-17T13:12:46.750;599616219642731568;9753.598;11
2024-05-17T13:12:46.758;599616219650423776;9761.29;-2
2024-05-17T13:12:46.765;599616219658115984;9768.982;4
2024-05-17T13:12:46.773;599616219665808192;9776.675;70
2024-05-17T13:12:46.781;599616219673500400;9784.367;91
2024-05-17T13:12:46.789;599616219681192608;9792.06;103
2024-05-17T13:12:46.796;599616219688884816;9799.752;153
2024-05-17T13:12:46.804;599616219696577024;9807.443;169
2024-05-17T13:12:46.812;599616219704269232;9815.135;162
2024-05-17T13:12:46.819;599616219711961440;9822.827;193
2024-05-17T13:12:46.827;599616219719653648;9830.52;249
2024-05-17T13:12:46.835;599616219727345856;9838.212;278
2024-05-17T13:12:46.842;599616219735038064;9845.904;245
2024-05-17T13:12:46.850;599616219742730272;9853.597;183
2024-05-17T13:12:46.858;599616219750422480;9861.289;148
2024-05-17T13:12:46.865;599616219758114688;9868.981;115
2024-05-17T13:12:46.873;599616219765806896;9876.674;75
2024-05-17T13:12:46.881;599616219773499104;9884.366;73
2024-05-17T13:12:46.889;599616219781191312;9892.059;80
2024-05-17T13:12:46.896;599616219788883520;9899.75;54
2024-05-17T13:12:46.904;599616219796575728;9907.441;30
2024-05-17T13:12:46.912;599616219804267936;9915.134;56
2024-05-17T13:12:46.919;599616219811960144;9922.826;82
2024-05-17T13:12:46.927;599616219819652352;9930.519;73
2024-05-17T13:12:46.935;599616219827344560;9938.211;61
2024-05-17T13:12:46.942;599616219835036768;9945.903;32
2024-05-17T13:12:46.950;599616219842728976;9953.596;-2
2024-05-17T13:12:46.958;599616219850421184;9961.288;2
2024-05-17T13:12:46.965;599616219858113392;9968.9795;28
2024-05-17T13:12:46.973;599616219865805600;9976.672;58
2024-05-17T13:12:46.981;599616219873497808;9984.364;70
2024-05-17T13:12:46.989;599616219881190016;9992.057;56
2024-05-17T13:12:46.996;599616219888882224;9999.748;70
2024-05-17T13:12:47.004;599616219896574432;10007.44;108
2024-05-17T13:12:47.012;599616219904266640;10015.133;129
2024-05-17T13:12:47.019;599616219911958848;10022.825;136
2024-05-17T13:12:47.027;599616219919651056;10030.518;146
2024-05-17T13:12:47.035;599616219927343264;10038.21;148
2024-05-17T13:12:47.042;599616219935035472;10045.901;148
2024-05-17T13:12:47.050;599616219942727680;10053.594;153
2024-05-17T13:12:47.058;599616219950419888;10061.286;176
2024-05-17T13:12:47.065;599616219958112096;10068.979;221
2024-05-17T13:12:47.073;599616219965804304;10076.671;242
2024-05-17T13:12:47.081;599616219973496512;10084.363;235
2024-05-17T13:12:47.089;599616219981188720;10092.056;247
2024-05-17T13:12:47.096;599616219988880928;10099.747;280
2024-05-17T13:12:47.104;599616219996573152;10107.439;306
2024-05-17T13:12:47.112;599616220004265360;10115.132;320
2024-05-17T13:12:47.119;599616220011957568;10122.823;315
2024-05-17T13:12:47.127;599616220019649776;10130.516;249
2024-05-17T13:12:47.135;599616220027341984;10138.208;101
2024-05-17T13:12:47.142;599616220035034192;10145.9;-80
2024-05-17T13:12:47.150;599616220042726400;10153.593;-155
2024-05-17T13:12:47.158;599616220050418608;10161.285;7
2024-05-17T13:12:47.165;599616220058110816;10168.978;407
2024-05-17T13:12:47.173;599616220065803024;10176.67;817
2024-05-17T13:12:47.181;599616220073495232;10184.362;822
2024-05-17T13:12:47.189;599616220081187440;10192.055;268
2024-05-17T13:12:47.196;599616220088879648;10199.745;-278
2024-05-17T13:12:47.204;599616220096571856;10207.4375;-273
2024-05-17T13:12:47.212;599616220104264064;10215.13;-106
2024-05-17T13:12:47.219;599616220111956272;10222.822;-174
2024-05-17T13:12:47.227;599616220119648480;10230.515;-212
2024-05-17T13:12:47.235;599616220127340688;10238.207;-134
2024-05-17T13:12:47.242;599616220135032896;10245.899;-91
2024-05-17T13:12:47.250;599616220142725104;10253.592;-75
2024-05-17T13:12:47.258;599616220150417312;10261.284;-42
2024-05-17T13:12:47.265;599616220158109520;10268.977;-25
2024-05-17T13:12:47.273;599616220165801728;10276.668;2
2024-05-17T13:12:47.281;599616220173493936;10284.36;49
2024-05-17T13:12:47.289;599616220181186144;10292.053;75
2024-05-17T13:12:47.296;599616220188878352;10299.744;94
2024-05-17T13:12:47.304;599616220196570560;10307.437;136
2024-05-17T13:12:47.312;599616220204262768;10315.129;164
2024-05-17T13:12:47.319;599616220211954976;10322.821;160
2024-05-17T13:12:47.327;599616220219647184;10330.514;139
2024-05-17T13:12:47.335;599616220227339392;10338.206;127
2024-05-17T13:12:47.342;599616220235031600;10345.898;115
2024-05-17T13:12:47.350;599616220242723808;10353.59;63
2024-05-17T13:12:47.358;599616220250416016;10361.282;7
2024-05-17T13:12:47.365;599616220258108224;10368.975;7
2024-05-17T13:12:47.373;599616220265800432;10376.667;23
2024-05-17T13:12:47.381;599616220273492640;10384.359;14
2024-05-17T13:12:47.389;599616220281184848;10392.052;18
2024-05-17T13:12:47.396;599616220288877056;10399.743;42
2024-05-17T13:12:47.404;599616220296569264;10407.436;28
2024-05-17T13:12:47.412;599616220304261472;10415.128;7
2024-05-17T13:12:47.419;599616220311953680;10422.82;32
2024-05-17T13:12:47.427;599616220319645888;10430.512;61
2024-05-17T13:12:47.435;599616220327338096;10438.204;23
2024-05-17T13:12:47.442;599616220335030304;10445.896;-37
2024-05-17T13:12:47.450;599616220342722512;10453.589;-37
2024-05-17T13:12:47.458;599616220350414720;10461.281;-4
2024-05-17T13:12:47.465;599616220358106928;10468.974;14
2024-05-17T13:12:47.473;599616220365799136;10476.666;28
2024-05-17T13:12:47.481;599616220373491344;10484.358;61
2024-05-17T13:12:47.489;599616220381183552;10492.051;91
2024-05-17T13:12:47.496;599616220388875760;10499.741;84
2024-05-17T13:12:47.504;599616220396567968;10507.434;73
2024-05-17T13:12:47.512;599616220404260176;10515.126;106
2024-05-17T13:12:47.519;599616220411952384;10522.818;150
2024-05-17T13:12:47.527;599616220419644592;10530.511;157
2024-05-17T13:12:47.535;599616220427336800;10538.203;148
2024-05-17T13:12:47.542;599616220435029008;10545.8955;160
2024-05-17T13:12:47.550;599616220442721216;10553.588;188
2024-05-17T13:12:47.558;599616220450413424;10561.28;204
2024-05-17T13:12:47.565;599616220458105632;10568.973;216
2024-05-17T13:12:47.573;599616220465797840;10576.665;254
2024-05-17T13:12:47.581;599616220473490048;10584.356;287
2024-05-17T13:12:47.589;599616220481182256;10592.048;268
2024-05-17T13:12:47.596;599616220488874464;10599.74;254
2024-05-17T13:12:47.604;599616220496566672;10607.433;299
2024-05-17T13:12:47.612;599616220504258880;10615.125;329
2024-05-17T13:12:47.619;599616220511951088;10622.817;301
2024-05-17T13:12:47.627;599616220519643296;10630.51;230
2024-05-17T13:12:47.635;599616220527335504;10638.202;164
2024-05-17T13:12:47.642;599616220535027712;10645.895;261
2024-05-17T13:12:47.650;599616220542719920;10653.587;647
2024-05-17T13:12:47.658;599616220550412128;10661.278;1031
2024-05-17T13:12:47.665;599616220558119400;10668.985;890
2024-05-17T13:12:47.673;599616220565811399;10676.678;270
2024-05-17T13:12:47.681;599616220573503398;10684.37;-139
2024-05-17T13:12:47.689;599616220581195397;10692.0625;-65
2024-05-17T13:12:47.696;599616220588887396;10699.754;25
2024-05-17T13:12:47.704;599616220596579395;10707.445;-54
2024-05-17T13:12:47.712;599616220604271394;10715.138;-51
2024-05-17T13:12:47.719;599616220611963393;10722.829;11
2024-05-17T13:12:47.727;599616220619655392;10730.521;11
2024-05-17T13:12:47.735;599616220627347391;10738.214;-16
2024-05-17T13:12:47.742;599616220635039390;10745.906;-51
2024-05-17T13:12:47.750;599616220642731389;10753.598;-65
2024-05-17T13:12:47.758;599616220650423388;10761.29;-18
2024-05-17T13:12:47.765;599616220658115387;10768.982;11
2024-05-17T13:12:47.773;599616220665807386;10776.673;4
2024-05-17T13:12:47.781;599616220673499385;10784.365;35
2024-05-17T13:12:47.789;599616220681191384;10792.058;94
2024-05-17T13:12:47.796;599616220688883383;10799.75;127
2024-05-17T13:12:47.804;599616220696575382;10807.441;141
2024-05-17T13:12:47.812;599616220704267381;10815.134;129
2024-05-17T13:12:47.819;599616220711959380;10822.826;89
2024-05-17T13:12:47.827;599616220719651379;10830.518;56
2024-05-17T13:12:47.835;599616220727343378;10838.21;16
2024-05-17T13:12:47.842;599616220735035377;10845.901;-7
2024-05-17T13:12:47.850;599616220742727376;10853.594;7
2024-05-17T13:12:47.858;599616220750419375;10861.285;0
2024-05-17T13:12:47.865;599616220758111374;10868.978;-40
2024-05-17T13:12:47.873;599616220765803373;10876.67;-40
2024-05-17T13:12:47.881;599616220773495372;10884.362;-4
2024-05-17T13:12:47.889;599616220781187371;10892.054;-2
2024-05-17T13:12:47.896;599616220788879370;10899.746;-4
2024-05-17T13:12:47.904;599616220796571369;10907.438;23
2024-05-17T13:12:47.912;599616220804263368;10915.129;47
2024-05-17T13:12:47.919;599616220811955367;10922.821;47
2024-05-17T13:12:47.927;599616220819647366;10930.514;37
2024-05-17T13:12:47.935;599616220827339365;10938.206;28
2024-05-17T13:12:47.942;599616220835031364;10945.897;40
2024-05-17T13:12:47.950;599616220842723363;10953.59;44
2024-05-17T13:12:47.958;599616220850415362;10961.282;30
2024-05-17T13:12:47.965;599616220858107361;10968.974;44
2024-05-17T13:12:47.973;599616220865799360;10976.666;77
2024-05-17T13:12:47.981;599616220873491359;10984.357;89
2024-05-17T13:12:47.989;599616220881183358;10992.05;101
2024-05-17T13:12:47.996;599616220888875357;10999.741;127
2024-05-17T13:12:48.004;599616220896567356;11007.434;129
2024-05-17T13:12:48.012;599616220904259355;11015.126;106
2024-05-17T13:12:48.019;599616220911951354;11022.817;120
2024-05-17T13:12:48.027;599616220919643353;11030.51;171
2024-05-17T13:12:48.035;599616220927335352;11038.202;197
2024-05-17T13:12:48.042;599616220935027351;11045.895;197
2024-05-17T13:12:48.050;599616220942719350;11053.585;209
2024-05-17T13:12:48.058;599616220950411349;11061.277;230
2024-05-17T13:12:48.065;599616220958103348;11068.97;247
2024-05-17T13:12:48.073;599616220965795347;11076.661;256
2024-05-17T13:12:48.081;599616220973487346;11084.354;273
2024-05-17T13:12:48.089;599616220981179345;11092.046;301
2024-05-17T13:12:48.096;599616220988871344;11099.738;299
2024-05-17T13:12:48.104;599616220996563343;11107.43;247
2024-05-17T13:12:48.112;599616221004255342;11115.122;193
2024-05-17T13:12:48.119;599616221011947341;11122.813;230
2024-05-17T13:12:48.127;599616221019639340;11130.505;501
2024-05-17T13:12:48.135;599616221027331339;11138.197;958
2024-05-17T13:12:48.142;599616221035023338;11145.89;1170
2024-05-17T13:12:48.150;599616221042715337;11153.582;727
2024-05-17T13:12:48.158;599616221050407336;11161.273;7
2024-05-17T13:12:48.165;599616221058099335;11168.966;-212
2024-05-17T13:12:48.173;599616221065791334;11176.658;-70
2024-05-17T13:12:48.181;599616221073483333;11184.351;-134
2024-05-17T13:12:48.189;599616221081175332;11192.041;-254
2024-05-17T13:12:48.196;599616221088867331;11199.733;-209
2024-05-17T13:12:48.204;599616221096559330;11207.426;-155
2024-05-17T13:12:48.212;599616221104251329;11215.117;-131
2024-05-17T13:12:48.219;599616221111943328;11222.81;-101
2024-05-17T13:12:48.227;599616221119635340;11230.502;-84
2024-05-17T13:12:48.235;599616221127327339;11238.194;-73
2024-05-17T13:12:48.242;599616221135019338;11245.886;-47
2024-05-17T13:12:48.250;599616221142711337;11253.578;-25
2024-05-17T13:12:48.258;599616221150403336;11261.27;-7
2024-05-17T13:12:48.265;599616221158095335;11268.961;37
2024-05-17T13:12:48.273;599616221165787334;11276.653;58
2024-05-17T13:12:48.281;599616221173479333;11284.346;-2
2024-05-17T13:12:48.289;599616221181171332;11292.038;-63
2024-05-17T13:12:48.296;599616221188863331;11299.7295;-58
2024-05-17T13:12:48.304;599616221196555330;11307.422;-56
2024-05-17T13:12:48.312;599616221204247329;11315.114;-98
2024-05-17T13:12:48.319;599616221211939328;11322.806;-160
2024-05-17T13:12:48.327;599616221219631327;11330.497;-202
2024-05-17T13:12:48.335;599616221227323326;11338.189;-207
2024-05-17T13:12:48.342;599616221235015325;11345.882;-197
2024-05-17T13:12:48.350;599616221242707324;11353.573;-190
2024-05-17T13:12:48.358;599616221250399323;11361.266;-169
2024-05-17T13:12:48.365;599616221258091322;11368.958;-171
2024-05-17T13:12:48.373;599616221265783321;11376.649;-209
2024-05-17T13:12:48.381;599616221273475320;11384.342;-197
2024-05-17T13:12:48.389;599616221281167319;11392.034;-143
2024-05-17T13:12:48.396;599616221288859318;11399.727;-127
2024-05-17T13:12:48.404;599616221296551317;11407.417;-127
2024-05-17T13:12:48.412;599616221304243316;11415.109;-122
2024-05-17T13:12:48.419;599616221311935315;11422.802;-162
2024-05-17T13:12:48.427;599616221319627314;11430.493;-204
2024-05-17T13:12:48.435;599616221327319313;11438.186;-188
2024-05-17T13:12:48.442;599616221335011312;11445.878;-146
2024-05-17T13:12:48.450;599616221342703311;11453.57;-113
2024-05-17T13:12:48.458;599616221350395310;11461.262;-106
2024-05-17T13:12:48.465;599616221358087309;11468.953;-115
2024-05-17T13:12:48.473;599616221365779308;11476.6455;-98
2024-05-17T13:12:48.481;599616221373471307;11484.338;-68
2024-05-17T13:12:48.489;599616221381163306;11492.029;-58
2024-05-17T13:12:48.496;599616221388855305;11499.722;-25
2024-05-17T13:12:48.504;599616221396547304;11507.414;18
2024-05-17T13:12:48.512;599616221404239303;11515.105;18
2024-05-17T13:12:48.519;599616221411931302;11522.798;9
2024-05-17T13:12:48.527;599616221419623301;11530.49;47
2024-05-17T13:12:48.535;599616221427315300;11538.183;98
2024-05-17T13:12:48.542;599616221435007299;11545.873;127
2024-05-17T13:12:48.550;599616221442699298;11553.565;122
2024-05-17T13:12:48.558;599616221450391297;11561.258;103
2024-05-17T13:12:48.565;599616221458083296;11568.949;127
2024-05-17T13:12:48.573;599616221465775295;11576.642;169
2024-05-17T13:12:48.581;599616221473467294;11584.334;146
2024-05-17T13:12:48.589;599616221481159293;11592.026;84
2024-05-17T13:12:48.596;599616221488851292;11599.718;143
2024-05-17T13:12:48.604;599616221496543291;11607.409;464
2024-05-17T13:12:48.612;599616221504235290;11615.102;918
2024-05-17T13:12:48.619;599616221511927289;11622.793;1083
2024-05-17T13:12:48.627;599616221519619288;11630.485;683
2024-05-17T13:12:48.635;599616221527311287;11638.178;98
2024-05-17T13:12:48.642;599616221535003286;11645.87;-54
2024-05-17T13:12:48.650;599616221542695285;11653.562;40
2024-05-17T13:12:48.658;599616221550387284;11661.254;-103
2024-05-17T13:12:48.665;599616221558079283;11668.946;-263
2024-05-17T13:12:48.673;599616221565771282;11676.637;-219
2024-05-17T13:12:48.681;599616221573463281;11684.329;-174
2024-05-17T13:12:48.689;599616221581155280;11692.021;-179
2024-05-17T13:12:48.696;599616221588847279;11699.714;-150
2024-05-17T13:12:48.704;599616221596539278;11707.405;-124
2024-05-17T13:12:48.712;599616221604231277;11715.098;-101
2024-05-17T13:12:48.719;599616221611923276;11722.79;-54
2024-05-17T13:12:48.727;599616221619615275;11730.481;-11
2024-05-17T13:12:48.735;599616221627307274;11738.174;0
2024-05-17T13:12:48.742;599616221634999273;11745.866;14
2024-05-17T13:12:48.750;599616221642691272;11753.558;58
2024-05-17T13:12:48.758;599616221650383271;11761.249;94
2024-05-17T13:12:48.765;599616221658075270;11768.941;110
2024-05-17T13:12:48.773;599616221665767269;11776.634;131
2024-05-17T13:12:48.781;599616221673459268;11784.326;122
2024-05-17T13:12:48.789;599616221681136234;11792.003;61
2024-05-17T13:12:48.796;599616221688828442;11799.694;-4
2024-05-17T13:12:48.804;599616221696520650;11807.387;-32
2024-05-17T13:12:48.812;599616221704212858;11815.079;-23
2024-05-17T13:12:48.819;599616221711905066;11822.771;-23
2024-05-17T13:12:48.827;599616221719597274;11830.464;-65
2024-05-17T13:12:48.835;599616221727289482;11838.156;-110
2024-05-17T13:12:48.842;599616221734981690;11845.848;-143
2024-05-17T13:12:48.850;599616221742673898;11853.54;-200
2024-05-17T13:12:48.858;599616221750366106;11861.232;-235
2024-05-17T13:12:48.865;599616221758058314;11868.925;-200
2024-05-17T13:12:48.873;599616221765750522;11876.617;-181
2024-05-17T13:12:48.881;599616221773442730;11884.31;-209
2024-05-17T13:12:48.889;599616221781134938;11892.002;-193
2024-05-17T13:12:48.896;599616221788827146;11899.693;-139
2024-05-17T13:12:48.904;599616221796519354;11907.386;-106
2024-05-17T13:12:48.912;599616221804211562;11915.077;-117
2024-05-17T13:12:48.919;599616221811903770;11922.77;-153
2024-05-17T13:12:48.927;599616221819595978;11930.462;-160
2024-05-17T13:12:48.935;599616221827288186;11938.154;-139
2024-05-17T13:12:48.942;599616221834980394;11945.847;-120
2024-05-17T13:12:48.950;599616221842672602;11953.539;-91
2024-05-17T13:12:48.958;599616221850364810;11961.231;-49
2024-05-17T13:12:48.965;599616221858057018;11968.924;-32
2024-05-17T13:12:48.973;599616221865749226;11976.616;-42
2024-05-17T13:12:48.981;599616221873441434;11984.309;-23
2024-05-17T13:12:48.989;599616221881133642;11992.001;35
2024-05-17T13:12:48.996;599616221888825850;11999.691;70
2024-05-17T13:12:49.004;599616221896518058;12007.384;77
2024-05-17T13:12:49.012;599616221904210266;12015.076;106
2024-05-17T13:12:49.019;599616221911902474;12022.769;131
2024-05-17T13:12:49.027;599616221919594682;12030.461;117
2024-05-17T13:12:49.035;599616221927286890;12038.153;127
2024-05-17T13:12:49.042;599616221934979098;12045.846;174
2024-05-17T13:12:49.050;599616221942671306;12053.538;193
2024-05-17T13:12:49.058;599616221950363514;12061.23;136
2024-05-17T13:12:49.065;599616221958055722;12068.923;91
2024-05-17T13:12:49.073;599616221965747930;12076.614;313
2024-05-17T13:12:49.081;599616221973440138;12084.307;841
2024-05-17T13:12:49.088;599616221981132346;12091.999;1229
2024-05-17T13:12:49.096;599616221988824554;12099.69;980
2024-05-17T13:12:49.104;599616221996516762;12107.383;301
2024-05-17T13:12:49.112;599616222004208970;12115.075;-51
2024-05-17T13:12:49.119;599616222011901178;12122.768;73
2024-05-17T13:12:49.127;599616222019593386;12130.46;131
2024-05-17T13:12:49.135;599616222027285594;12138.152;37
2024-05-17T13:12:49.142;599616222034977802;12145.844;47
2024-05-17T13:12:49.150;599616222042670010;12153.536;80
2024-05-17T13:12:49.158;599616222050362218;12161.229;-18
2024-05-17T13:12:49.165;599616222058054426;12168.921;-120
2024-05-17T13:12:49.173;599616222065746634;12176.613;-98
2024-05-17T13:12:49.181;599616222073438842;12184.306;-63
2024-05-17T13:12:49.188;599616222081131050;12191.997;-65
2024-05-17T13:12:49.196;599616222088823258;12199.689;-28
2024-05-17T13:12:49.204;599616222096515466;12207.382;11
2024-05-17T13:12:49.212;599616222104207674;12215.074;14
2024-05-17T13:12:49.219;599616222111899882;12222.766;44
2024-05-17T13:12:49.227;599616222119592090;12230.458;110
2024-05-17T13:12:49.235;599616222127284298;12238.15;143
2024-05-17T13:12:49.242;599616222134976506;12245.843;153
2024-05-17T13:12:49.250;599616222142668714;12253.535;162
2024-05-17T13:12:49.258;599616222150360922;12261.228;136
2024-05-17T13:12:49.265;599616222158053130;12268.92;96
2024-05-17T13:12:49.273;599616222165745338;12276.612;65
2024-05-17T13:12:49.281;599616222173437546;12284.305;21
2024-05-17T13:12:49.288;599616222181129754;12291.996;-16
2024-05-17T13:12:49.296;599616222188821962;12299.6875;-47
2024-05-17T13:12:49.304;599616222196514170;12307.38;-70
2024-05-17T13:12:49.312;599616222204206378;12315.072;-65
2024-05-17T13:12:49.319;599616222211898586;12322.765;-56
2024-05-17T13:12:49.327;599616222219590794;12330.457;-70
2024-05-17T13:12:49.335;599616222227283002;12338.149;-82
2024-05-17T13:12:49.342;599616222234975210;12345.842;-70
2024-05-17T13:12:49.350;599616222242667434;12353.534;-42
2024-05-17T13:12:49.358;599616222250359642;12361.227;-16
2024-05-17T13:12:49.365;599616222258051850;12368.919;-11
2024-05-17T13:12:49.373;599616222265744058;12376.61;14
2024-05-17T13:12:49.381;599616222273436266;12384.303;30
2024-05-17T13:12:49.388;599616222281128474;12391.994;-37
2024-05-17T13:12:49.396;599616222288820682;12399.687;-134
2024-05-17T13:12:49.404;599616222296512890;12407.379;-157
2024-05-17T13:12:49.412;599616222304205098;12415.071;-162
2024-05-17T13:12:49.419;599616222311897306;12422.764;-183
2024-05-17T13:12:49.427;599616222319589514;12430.456;-186
2024-05-17T13:12:49.435;599616222327281722;12438.148;-153
2024-05-17T13:12:49.442;599616222334973930;12445.841;-106
2024-05-17T13:12:49.450;599616222342666138;12453.532;-89
2024-05-17T13:12:49.458;599616222350358346;12461.225;-73
2024-05-17T13:12:49.465;599616222358050554;12468.917;-11
2024-05-17T13:12:49.473;599616222365742762;12476.609;32
2024-05-17T13:12:49.481;599616222373434970;12484.302;18
2024-05-17T13:12:49.488;599616222381127178;12491.993;21
2024-05-17T13:12:49.496;599616222388819386;12499.686;82
2024-05-17T13:12:49.504;599616222396511594;12507.378;113
2024-05-17T13:12:49.512;599616222404203802;12515.07;110
2024-05-17T13:12:49.519;599616222411896010;12522.763;134
2024-05-17T13:12:49.527;599616222419588218;12530.454;127
2024-05-17T13:12:49.535;599616222427280426;12538.146;54
2024-05-17T13:12:49.542;599616222434972634;12545.839;96
2024-05-17T13:12:49.550;599616222442664842;12553.531;466
2024-05-17T13:12:49.558;599616222450357050;12561.224;1020
2024-05-17T13:12:49.565;599616222458049258;12568.916;1251
2024-05-17T13:12:49.573;599616222465741466;12576.608;815
2024-05-17T13:12:49.581;599616222473433674;12584.301;143
2024-05-17T13:12:49.588;599616222481125882;12591.992;-16
2024-05-17T13:12:49.596;599616222488818090;12599.685;141
2024-05-17T13:12:49.604;599616222496510298;12607.376;82
2024-05-17T13:12:49.612;599616222504202506;12615.068;11
2024-05-17T13:12:49.619;599616222511894714;12622.761;75
2024-05-17T13:12:49.627;599616222519586922;12630.453;73
2024-05-17T13:12:49.635;599616222527279130;12638.1455;42
2024-05-17T13:12:49.642;599616222534971338;12645.838;87
2024-05-17T13:12:49.650;599616222542663546;12653.53;89
2024-05-17T13:12:49.658;599616222550355754;12661.223;-21
2024-05-17T13:12:49.665;599616222558047962;12668.915;-117
2024-05-17T13:12:49.673;599616222565740170;12676.607;-110
2024-05-17T13:12:49.681;599616222573432378;12684.299;-70
2024-05-17T13:12:49.688;599616222581124586;12691.99;-56
2024-05-17T13:12:49.696;599616222588816794;12699.683;-25
2024-05-17T13:12:49.704;599616222596509002;12707.375;23
2024-05-17T13:12:49.712;599616222604201210;12715.067;44
2024-05-17T13:12:49.719;599616222611893418;12722.76;44
2024-05-17T13:12:49.727;599616222619585626;12730.452;63
2024-05-17T13:12:49.735;599616222627277834;12738.145;75
2024-05-17T13:12:49.742;599616222634970042;12745.837;40
2024-05-17T13:12:49.750;599616222642662250;12753.529;-16
2024-05-17T13:12:49.758;599616222650354458;12761.221;-68
2024-05-17T13:12:49.765;599616222658046666;12768.913;-103
2024-05-17T13:12:49.773;599616222665738874;12776.605;-113
2024-05-17T13:12:49.781;599616222673431082;12784.297;-110
2024-05-17T13:12:49.788;599616222681123290;12791.989;-98
2024-05-17T13:12:49.796;599616222688815498;12799.682;-80
2024-05-17T13:12:49.804;599616222696507706;12807.374;-82
2024-05-17T13:12:49.812;599616222704199914;12815.066;-91
2024-05-17T13:12:49.819;599616222711892122;12822.759;-61
2024-05-17T13:12:49.827;599616222719584330;12830.451;-16
2024-05-17T13:12:49.835;599616222727276538;12838.143;-4
2024-05-17T13:12:49.842;599616222734968746;12845.835;-7
2024-05-17T13:12:49.850;599616222742660954;12853.527;-11
2024-05-17T13:12:49.858;599616222750353162;12861.22;-2
2024-05-17T13:12:49.865;599616222758045370;12868.912;21
2024-05-17T13:12:49.873;599616222765737578;12876.6045;30
2024-05-17T13:12:49.881;599616222773429786;12884.296;47
2024-05-17T13:12:49.888;599616222781121994;12891.988;63
2024-05-17T13:12:49.896;599616222788814202;12899.681;23
2024-05-17T13:12:49.904;599616222796506410;12907.372;-28
2024-05-17T13:12:49.912;599616222804228728;12915.096;0
2024-05-17T13:12:49.919;599616222811920518;12922.787;44
2024-05-17T13:12:49.927;599616222819612308;12930.4795;56
2024-05-17T13:12:49.935;599616222827304098;12938.17;61
2024-05-17T13:12:49.942;599616222834995888;12945.862;77
2024-05-17T13:12:49.950;599616222842687678;12953.554;101
2024-05-17T13:12:49.958;599616222850379468;12961.246;77
2024-05-17T13:12:49.965;599616222858071258;12968.9375;16
2024-05-17T13:12:49.973;599616222865763048;12976.63;28
2024-05-17T13:12:49.981;599616222873454838;12984.321;80
2024-05-17T13:12:49.989;599616222881146628;12992.014;65
2024-05-17T13:12:49.996;599616222888838418;12999.704;42
2024-05-17T13:12:50.004;599616222896530208;13007.396;47
2024-05-17T13:12:50.012;599616222904221998;13015.088;25
2024-05-17T13:12:50.019;599616222911913788;13022.78;115
2024-05-17T13:12:50.027;599616222919605578;13030.472;532
2024-05-17T13:12:50.035;599616222927297368;13038.164;1055
2024-05-17T13:12:50.042;599616222934989158;13045.855;1128
2024-05-17T13:12:50.050;599616222942680948;13053.548;598
2024-05-17T13:12:50.058;599616222950372738;13061.239;32
2024-05-17T13:12:50.065;599616222958064528;13068.931;-2
2024-05-17T13:12:50.073;599616222965756318;13076.622;139
2024-05-17T13:12:50.081;599616222973448108;13084.314;37
2024-05-17T13:12:50.089;599616222981139898;13092.006;-18
2024-05-17T13:12:50.096;599616222988831688;13099.698;70
2024-05-17T13:12:50.104;599616222996523478;13107.39;84
2024-05-17T13:12:50.112;599616223004215268;13115.082;65
2024-05-17T13:12:50.119;599616223011907058;13122.773;96
2024-05-17T13:12:50.127;599616223019598848;13130.465;108
2024-05-17T13:12:50.135;599616223027290638;13138.156;96
2024-05-17T13:12:50.142;599616223034982428;13145.849;91
2024-05-17T13:12:50.150;599616223042674218;13153.54;77
2024-05-17T13:12:50.158;599616223050366008;13161.232;35
2024-05-17T13:12:50.165;599616223058057798;13168.925;-42
2024-05-17T13:12:50.173;599616223065749588;13176.616;-101
2024-05-17T13:12:50.181;599616223073441378;13184.309;-65
2024-05-17T13:12:50.188;599616223081133168;13191.999;-2
2024-05-17T13:12:50.196;599616223088824958;13199.691;18
2024-05-17T13:12:50.204;599616223096516748;13207.383;28
2024-05-17T13:12:50.212;599616223104208538;13215.075;49
2024-05-17T13:12:50.219;599616223111900328;13222.767;28
2024-05-17T13:12:50.227;599616223119592118;13230.459;-30
2024-05-17T13:12:50.235;599616223127283908;13238.15;-58
2024-05-17T13:12:50.242;599616223134975698;13245.843;-70
2024-05-17T13:12:50.250;599616223142667488;13253.534;-101
2024-05-17T13:12:50.258;599616223150359278;13261.226;-124
2024-05-17T13:12:50.265;599616223158051068;13268.917;-129
2024-05-17T13:12:50.273;599616223165742858;13276.609;-124
2024-05-17T13:12:50.281;599616223173434648;13284.301;-103
2024-05-17T13:12:50.288;599616223181126438;13291.993;-89
2024-05-17T13:12:50.296;599616223188818228;13299.685;-75
2024-05-17T13:12:50.304;599616223196510018;13307.377;-47
2024-05-17T13:12:50.312;599616223204201808;13315.068;-32
2024-05-17T13:12:50.319;599616223211893598;13322.76;-44
2024-05-17T13:12:50.327;599616223219585388;13330.451;-30
2024-05-17T13:12:50.335;599616223227277178;13338.144;18
2024-05-17T13:12:50.342;599616223234968968;13345.835;44
2024-05-17T13:12:50.350;599616223242660758;13353.527;35
2024-05-17T13:12:50.358;599616223250352548;13361.219;28
2024-05-17T13:12:50.365;599616223258044338;13368.911;54
2024-05-17T13:12:50.373;599616223265736128;13376.603;75
2024-05-17T13:12:50.381;599616223273427918;13384.294;73
2024-05-17T13:12:50.388;599616223281119708;13391.985;44
2024-05-17T13:12:50.396;599616223288811498;13399.678;11
2024-05-17T13:12:50.404;599616223296503288;13407.369;4
2024-05-17T13:12:50.412;599616223304195078;13415.062;16
2024-05-17T13:12:50.419;599616223311886868;13422.753;51
2024-05-17T13:12:50.427;599616223319578658;13430.445;113
2024-05-17T13:12:50.435;599616223327270448;13438.137;148
2024-05-17T13:12:50.442;599616223334962238;13445.828;136
2024-05-17T13:12:50.450;599616223342654028;13453.5205;136
2024-05-17T13:12:50.458;599616223350345818;13461.212;171
2024-05-17T13:12:50.465;599616223358037608;13468.904;204
2024-05-17T13:12:50.473;599616223365699316;13476.566;209
2024-05-17T13:12:50.481;599616223373391524;13484.259;202
2024-05-17T13:12:50.488;599616223381083732;13491.95;155
2024-05-17T13:12:50.496;599616223388775940;13499.642;103
2024-05-17T13:12:50.504;599616223396468148;13507.334;294
2024-05-17T13:12:50.512;599616223404160356;13515.026;812
2024-05-17T13:12:50.519;599616223411852564;13522.719;1168
2024-05-17T13:12:50.527;599616223419544772;13530.411;855
2024-05-17T13:12:50.535;599616223427236980;13538.104;195
2024-05-17T13:12:50.542;599616223434929188;13545.796;-54
2024-05-17T13:12:50.550;599616223442621396;13553.488;89
2024-05-17T13:12:50.558;599616223450313604;13561.18;77
2024-05-17T13:12:50.565;599616223458005812;13568.872;-21
2024-05-17T13:12:50.573;599616223465698020;13576.564;37
2024-05-17T13:12:50.581;599616223473390228;13584.257;89
2024-05-17T13:12:50.588;599616223481082436;13591.949;47
2024-05-17T13:12:50.596;599616223488774644;13599.641;37
2024-05-17T13:12:50.604;599616223496466852;13607.333;91
2024-05-17T13:12:50.612;599616223504159060;13615.025;129
2024-05-17T13:12:50.619;599616223511851268;13622.718;129
2024-05-17T13:12:50.627;599616223519543476;13630.41;127
2024-05-17T13:12:50.635;599616223527235684;13638.102;117
2024-05-17T13:12:50.642;599616223534927892;13645.794;80
2024-05-17T13:12:50.650;599616223542620100;13653.486;68
2024-05-17T13:12:50.658;599616223550312308;13661.179;98
2024-05-17T13:12:50.665;599616223558004516;13668.871;68
2024-05-17T13:12:50.673;599616223565696724;13676.563;-25
2024-05-17T13:12:50.681;599616223573388932;13684.256;-56
2024-05-17T13:12:50.688;599616223581081140;13691.947;-18
2024-05-17T13:12:50.696;599616223588773348;13699.64;14
2024-05-17T13:12:50.704;599616223596465556;13707.332;7
2024-05-17T13:12:50.712;599616223604157764;13715.023;-32
2024-05-17T13:12:50.719;599616223611849972;13722.716;-63
2024-05-17T13:12:50.727;599616223619542180;13730.408;-89
2024-05-17T13:12:50.735;599616223627234388;13738.101;-129
2024-05-17T13:12:50.742;599616223634926596;13745.793;-143
2024-05-17T13:12:50.750;599616223642618804;13753.485;-120
2024-05-17T13:12:50.758;599616223650311012;13761.178;-89
2024-05-17T13:12:50.765;599616223658003220;13768.87;-91
2024-05-17T13:12:50.773;599616223665695428;13776.5625;-113
2024-05-17T13:12:50.781;599616223673387636;13784.255;-87
2024-05-17T13:12:50.788;599616223681079844;13791.945;-37
2024-05-17T13:12:50.796;599616223688772052;13799.638;-23
2024-05-17T13:12:50.804;599616223696464260;13807.33;-14
2024-05-17T13:12:50.812;599616223704156468;13815.022;11
2024-05-17T13:12:50.819;599616223711848676;13822.715;18
2024-05-17T13:12:50.827;599616223719540884;13830.407;11
2024-05-17T13:12:50.835;599616223727233092;13838.1;30
2024-05-17T13:12:50.842;599616223734925300;13845.792;70
2024-05-17T13:12:50.850;599616223742617508;13853.484;106
2024-05-17T13:12:50.858;599616223750309716;13861.177;98
2024-05-17T13:12:50.865;599616223758001924;13868.868;63
2024-05-17T13:12:50.873;599616223765694132;13876.561;80
2024-05-17T13:12:50.881;599616223773386340;13884.253;96
2024-05-17T13:12:50.888;599616223781078548;13891.944;42
2024-05-17T13:12:50.896;599616223788770756;13899.637;21
2024-05-17T13:12:50.904;599616223796462964;13907.329;80
2024-05-17T13:12:50.912;599616223804155172;13915.021;106
2024-05-17T13:12:50.919;599616223811847380;13922.714;94
2024-05-17T13:12:50.927;599616223819539588;13930.406;117
2024-05-17T13:12:50.935;599616223827231796;13938.099;160
2024-05-17T13:12:50.942;599616223834924004;13945.79;190
2024-05-17T13:12:50.950;599616223842616212;13953.482;197
2024-05-17T13:12:50.958;599616223850308420;13961.175;193
2024-05-17T13:12:50.965;599616223858000628;13968.867;197
2024-05-17T13:12:50.973;599616223865692836;13976.56;167
2024-05-17T13:12:50.981;599616223873385044;13984.252;157
2024-05-17T13:12:50.988;599616223881077252;13991.943;419
2024-05-17T13:12:50.996;599616223888769460;13999.636;961
2024-05-17T13:12:51.004;599616223896461668;14007.328;1291
2024-05-17T13:12:51.012;599616223904153876;14015.0205;975
2024-05-17T13:12:51.019;599616223911846084;14022.712;334
2024-05-17T13:12:51.027;599616223919538292;14030.404;82
2024-05-17T13:12:51.035;599616223927230516;14038.097;204
2024-05-17T13:12:51.042;599616223934922724;14045.789;202
2024-05-17T13:12:51.050;599616223942614932;14053.481;103
2024-05-17T13:12:51.058;599616223950307140;14061.174;108
2024-05-17T13:12:51.065;599616223957999348;14068.866;127
2024-05-17T13:12:51.073;599616223965691556;14076.559;127
2024-05-17T13:12:51.081;599616223973383764;14084.251;155
2024-05-17T13:12:51.088;599616223981075972;14091.941;188
2024-05-17T13:12:51.096;599616223988768180;14099.634;139
2024-05-17T13:12:51.104;599616223996460388;14107.326;47
2024-05-17T13:12:51.112;599616224004152596;14115.019;49
2024-05-17T13:12:51.119;599616224011844804;14122.711;117
2024-05-17T13:12:51.127;599616224019537012;14130.403;124
2024-05-17T13:12:51.135;599616224027229220;14138.096;77
2024-05-17T13:12:51.142;599616224034921428;14145.788;65
2024-05-17T13:12:51.150;599616224042613636;14153.48;101
2024-05-17T13:12:51.158;599616224050305844;14161.173;136
2024-05-17T13:12:51.165;599616224057998052;14168.865;143
2024-05-17T13:12:51.173;599616224065690260;14176.557;106
2024-05-17T13:12:51.181;599616224073382468;14184.249;9
2024-05-17T13:12:51.188;599616224081074676;14191.94;-82
2024-05-17T13:12:51.196;599616224088766884;14199.633;-91
2024-05-17T13:12:51.204;599616224096459092;14207.325;-77
2024-05-17T13:12:51.212;599616224104151300;14215.018;-122
2024-05-17T13:12:51.219;599616224111843508;14222.71;-176
2024-05-17T13:12:51.227;599616224119535716;14230.402;-190
2024-05-17T13:12:51.235;599616224127227924;14238.095;-188
2024-05-17T13:12:51.242;599616224134920132;14245.787;-186
2024-05-17T13:12:51.250;599616224142612340;14253.479;-167
2024-05-17T13:12:51.258;599616224150304548;14261.171;-146
2024-05-17T13:12:51.265;599616224157996756;14268.863;-113
2024-05-17T13:12:51.273;599616224165688964;14276.556;-87
2024-05-17T13:12:51.281;599616224173381172;14284.247;-91
2024-05-17T13:12:51.288;599616224181073380;14291.939;-82
2024-05-17T13:12:51.296;599616224188765588;14299.632;-30
2024-05-17T13:12:51.304;599616224196457796;14307.324;2
2024-05-17T13:12:51.312;599616224204150004;14315.017;9
2024-05-17T13:12:51.319;599616224211842212;14322.708;18
2024-05-17T13:12:51.327;599616224219534420;14330.4;35
2024-05-17T13:12:51.335;599616224227226628;14338.093;54
2024-05-17T13:12:51.342;599616224234918836;14345.785;61
2024-05-17T13:12:51.350;599616224242611044;14353.478;75
2024-05-17T13:12:51.358;599616224250303252;14361.17;115
2024-05-17T13:12:51.365;599616224257995460;14368.862;136
2024-05-17T13:12:51.373;599616224265687668;14376.555;108
2024-05-17T13:12:51.381;599616224273379876;14384.246;73
2024-05-17T13:12:51.388;599616224281072084;14391.938;84
2024-05-17T13:12:51.396;599616224288764292;14399.63;136
2024-05-17T13:12:51.404;599616224296456500;14407.322;162
2024-05-17T13:12:51.412;599616224304148708;14415.015;176
2024-05-17T13:12:51.419;599616224311840916;14422.707;193
2024-05-17T13:12:51.427;599616224319533124;14430.399;190
2024-05-17T13:12:51.435;599616224327225332;14438.092;197
2024-05-17T13:12:51.442;599616224334917540;14445.784;237
2024-05-17T13:12:51.450;599616224342609748;14453.477;261
2024-05-17T13:12:51.458;599616224350301956;14461.169;200
2024-05-17T13:12:51.465;599616224357994164;14468.861;162
2024-05-17T13:12:51.473;599616224365686372;14476.553;419
2024-05-17T13:12:51.481;599616224373378580;14484.244;977
2024-05-17T13:12:51.488;599616224381070788;14491.937;1357
2024-05-17T13:12:51.496;599616224388762996;14499.629;1086
2024-05-17T13:12:51.504;599616224396455204;14507.321;395
2024-05-17T13:12:51.512;599616224404147412;14515.014;32
2024-05-17T13:12:51.519;599616224411839620;14522.706;134
2024-05-17T13:12:51.527;599616224419531828;14530.398;186
2024-05-17T13:12:51.535;599616224427224036;14538.091;110
2024-05-17T13:12:51.542;599616224434916244;14545.783;136
2024-05-17T13:12:51.550;599616224442608452;14553.475;160
2024-05-17T13:12:51.558;599616224450300660;14561.167;124
2024-05-17T13:12:51.565;599616224457992868;14568.859;139
2024-05-17T13:12:51.573;599616224465685076;14576.552;176
2024-05-17T13:12:51.581;599616224473377284;14584.243;174
2024-05-17T13:12:51.588;599616224481069492;14591.936;183
2024-05-17T13:12:51.596;599616224488761716;14599.628;221
2024-05-17T13:12:51.604;599616224496453924;14607.32;230
2024-05-17T13:12:51.612;599616224504146132;14615.013;216
2024-05-17T13:12:51.619;599616224511838340;14622.705;202
2024-05-17T13:12:51.627;599616224519530548;14630.396;188
2024-05-17T13:12:51.635;599616224527222756;14638.089;195
2024-05-17T13:12:51.642;599616224534914964;14645.781;195
2024-05-17T13:12:51.650;599616224542607172;14653.474;186
2024-05-17T13:12:51.658;599616224550299380;14661.166;216
2024-05-17T13:12:51.665;599616224557991588;14668.858;235
2024-05-17T13:12:51.673;599616224565683796;14676.551;146
2024-05-17T13:12:51.681;599616224573376004;14684.242;11
2024-05-17T13:12:51.688;599616224581068212;14691.935;-61
2024-05-17T13:12:51.696;599616224588760420;14699.627;-153
2024-05-17T13:12:51.704;599616224596452628;14707.318;-278
2024-05-17T13:12:51.712;599616224604144836;14715.011;-296
2024-05-17T13:12:51.719;599616224611837044;14722.703;-254
2024-05-17T13:12:51.727;599616224619529252;14730.3955;-259
2024-05-17T13:12:51.735;599616224627221460;14738.088;-275
2024-05-17T13:12:51.742;599616224634913668;14745.78;-249
2024-05-17T13:12:51.750;599616224642605876;14753.473;-214
2024-05-17T13:12:51.758;599616224650298084;14761.165;-181
2024-05-17T13:12:51.765;599616224657990292;14768.857;-153
2024-05-17T13:12:51.773;599616224665682500;14776.55;-124
2024-05-17T13:12:51.781;599616224673374708;14784.24;-94
2024-05-17T13:12:51.788;599616224681066916;14791.933;-91
2024-05-17T13:12:51.796;599616224688759124;14799.625;-98
2024-05-17T13:12:51.804;599616224696451332;14807.317;-51
2024-05-17T13:12:51.812;599616224704143540;14815.01;0
2024-05-17T13:12:51.819;599616224711835748;14822.702;4
2024-05-17T13:12:51.827;599616224719527956;14830.395;-2
2024-05-17T13:12:51.835;599616224727220164;14838.087;11
2024-05-17T13:12:51.842;599616224734912372;14845.779;40
2024-05-17T13:12:51.850;599616224742604580;14853.472;51
2024-05-17T13:12:51.858;599616224750296788;14861.163;61
2024-05-17T13:12:51.865;599616224757988996;14868.855;77
2024-05-17T13:12:51.873;599616224765681204;14876.547;58
2024-05-17T13:12:51.881;599616224773373412;14884.239;35
2024-05-17T13:12:51.888;599616224781065620;14891.932;68
2024-05-17T13:12:51.896;599616224788757828;14899.624;122
2024-05-17T13:12:51.904;599616224796450036;14907.316;150
2024-05-17T13:12:51.912;599616224804142244;14915.009;162
2024-05-17T13:12:51.919;599616224811834452;14922.701;169
2024-05-17T13:12:51.927;599616224819526660;14930.394;188
2024-05-17T13:12:51.935;599616224827218868;14938.085;214
2024-05-17T13:12:51.942;599616224834911076;14945.777;207
2024-05-17T13:12:51.950;599616224842603284;14953.47;160
2024-05-17T13:12:51.958;599616224850295492;14961.162;183
2024-05-17T13:12:51.965;599616224857987700;14968.8545;449
2024-05-17T13:12:51.973;599616224865679908;14976.546;951
2024-05-17T13:12:51.981;599616224873372116;14984.238;1281
2024-05-17T13:12:51.988;599616224881064324;14991.931;1010
2024-05-17T13:12:51.996;599616224888756532;14999.623;343
2024-05-17T13:12:52.004;599616224896448740;15007.315;16
2024-05-17T13:12:52.012;599616224904140948;15015.007;148
2024-05-17T13:12:52.019;599616224911833156;15022.699;169
2024-05-17T13:12:52.027;599616224919525364;15030.392;47
2024-05-17T13:12:52.035;599616224927217572;15038.084;73
2024-05-17T13:12:52.042;599616224934909780;15045.776;143
2024-05-17T13:12:52.050;599616224942601988;15053.469;143
2024-05-17T13:12:52.058;599616224950294196;15061.161;131
2024-05-17T13:12:52.065;599616224957986404;15068.854;131
2024-05-17T13:12:52.073;599616224965678612;15076.545;153
2024-05-17T13:12:52.081;599616224973370820;15084.236;190
2024-05-17T13:12:52.088;599616224981063028;15091.929;204
2024-05-17T13:12:52.096;599616224988755236;15099.621;212
2024-05-17T13:12:52.104;599616224996447444;15107.313;240
2024-05-17T13:12:52.112;599616225004139652;15115.006;228
2024-05-17T13:12:52.119;599616225011831860;15122.698;155
2024-05-17T13:12:52.127;599616225019524068;15130.391;141
2024-05-17T13:12:52.135;599616225027216276;15138.083;193
2024-05-17T13:12:52.142;599616225034908484;15145.775;188
2024-05-17T13:12:52.150;599616225042600692;15153.468;117
2024-05-17T13:12:52.158;599616225050297956;15161.165;61
2024-05-17T13:12:52.165;599616225057990094;15168.856;18
2024-05-17T13:12:52.173;599616225065682232;15176.549;-73
2024-05-17T13:12:52.181;599616225073374370;15184.24;-193
2024-05-17T13:12:52.188;599616225081066508;15191.933;-237
2024-05-17T13:12:52.196;599616225088758646;15199.625;-212
2024-05-17T13:12:52.204;599616225096450784;15207.317;-249
2024-05-17T13:12:52.212;599616225104142922;15215.01;-346
2024-05-17T13:12:52.219;599616225111835060;15222.701;-369
2024-05-17T13:12:52.227;599616225119527198;15230.394;-310
2024-05-17T13:12:52.235;599616225127219336;15238.086;-278
2024-05-17T13:12:52.242;599616225134911474;15245.778;-287
2024-05-17T13:12:52.250;599616225142603612;15253.47;-268
2024-05-17T13:12:52.258;599616225150295750;15261.162;-219
2024-05-17T13:12:52.265;599616225157987888;15268.854;-183
2024-05-17T13:12:52.273;599616225165680026;15276.546;-160
2024-05-17T13:12:52.281;599616225173372164;15284.238;-124
2024-05-17T13:12:52.288;599616225181064302;15291.931;-89
2024-05-17T13:12:52.296;599616225188756440;15299.623;-87
2024-05-17T13:12:52.304;599616225196448578;15307.315;-89
2024-05-17T13:12:52.312;599616225204140716;15315.008;-51
2024-05-17T13:12:52.319;599616225211832854;15322.699;0
2024-05-17T13:12:52.327;599616225219524992;15330.391;14
2024-05-17T13:12:52.335;599616225227217130;15338.083;4
2024-05-17T13:12:52.342;599616225234909268;15345.775;23
2024-05-17T13:12:52.350;599616225242601406;15353.468;51
2024-05-17T13:12:52.358;599616225250293544;15361.16;49
2024-05-17T13:12:52.365;599616225257985682;15368.853;32
2024-05-17T13:12:52.373;599616225265677820;15376.544;56
2024-05-17T13:12:52.381;599616225273369958;15384.236;110
2024-05-17T13:12:52.388;599616225281062096;15391.929;117
2024-05-17T13:12:52.396;599616225288754234;15399.621;108
2024-05-17T13:12:52.404;599616225296446372;15407.3125;146
2024-05-17T13:12:52.412;599616225304138510;15415.005;197
2024-05-17T13:12:52.419;599616225311830648;15422.697;212
2024-05-17T13:12:52.427;599616225319522786;15430.389;212
2024-05-17T13:12:52.435;599616225327214924;15438.081;214
2024-05-17T13:12:52.442;599616225334907062;15445.773;174
2024-05-17T13:12:52.450;599616225342599200;15453.466;108
2024-05-17T13:12:52.458;599616225350291338;15461.158;216
2024-05-17T13:12:52.465;599616225357983476;15468.851;671
2024-05-17T13:12:52.473;599616225365675614;15476.542;1163
2024-05-17T13:12:52.481;599616225373367752;15484.233;1116
2024-05-17T13:12:52.488;599616225381059890;15491.926;513
2024-05-17T13:12:52.496;599616225388752028;15499.618;49
2024-05-17T13:12:52.504;599616225396444166;15507.311;94
2024-05-17T13:12:52.512;599616225404136304;15515.003;176
2024-05-17T13:12:52.519;599616225411828442;15522.695;84
2024-05-17T13:12:52.527;599616225419520580;15530.388;80
2024-05-17T13:12:52.535;599616225427212718;15538.079;139
2024-05-17T13:12:52.542;599616225434904856;15545.771;134
2024-05-17T13:12:52.550;599616225442596994;15553.463;141
2024-05-17T13:12:52.558;599616225450289132;15561.155;193
2024-05-17T13:12:52.565;599616225457981270;15568.848;207
2024-05-17T13:12:52.573;599616225465673408;15576.54;181
2024-05-17T13:12:52.581;599616225473365546;15584.231;190
2024-05-17T13:12:52.588;599616225481057684;15591.924;235
2024-05-17T13:12:52.596;599616225488749822;15599.616;266
2024-05-17T13:12:52.604;599616225496441960;15607.309;266
2024-05-17T13:12:52.612;599616225504134098;15615.001;223
2024-05-17T13:12:52.619;599616225511826236;15622.692;169
2024-05-17T13:12:52.627;599616225519518374;15630.385;136
2024-05-17T13:12:52.635;599616225527210512;15638.076;106
2024-05-17T13:12:52.642;599616225534902650;15645.769;63
2024-05-17T13:12:52.650;599616225542594788;15653.461;42
2024-05-17T13:12:52.658;599616225550286926;15661.153;28
2024-05-17T13:12:52.665;599616225557979064;15668.846;-11
2024-05-17T13:12:52.673;599616225565671202;15676.538;-25
2024-05-17T13:12:52.681;599616225573363340;15684.23;-42
2024-05-17T13:12:52.688;599616225581055478;15691.922;-143
2024-05-17T13:12:52.696;599616225588747616;15699.613;-216
2024-05-17T13:12:52.704;599616225596439754;15707.306;-181
2024-05-17T13:12:52.711;599616225604131892;15714.998;-157
2024-05-17T13:12:52.719;599616225611844156;15722.711;-179
2024-05-17T13:12:52.727;599616225619536015;15730.402;-167
2024-05-17T13:12:52.735;599616225627227874;15738.095;-110
2024-05-17T13:12:52.742;599616225634919733;15745.786;-58
2024-05-17T13:12:52.750;599616225642611592;15753.479;-54
2024-05-17T13:12:52.758;599616225650303451;15761.169;-68
2024-05-17T13:12:52.765;599616225657995310;15768.861;-58
2024-05-17T13:12:52.773;599616225665687169;15776.554;-42
2024-05-17T13:12:52.781;599616225673379028;15784.245;-77
2024-05-17T13:12:52.788;599616225681070887;15791.9375;-113
2024-05-17T13:12:52.796;599616225688762746;15799.629;-87
2024-05-17T13:12:52.804;599616225696454605;15807.321;-49
2024-05-17T13:12:52.812;599616225704146464;15815.013;-49
2024-05-17T13:12:52.819;599616225711838323;15822.705;-44
2024-05-17T13:12:52.827;599616225719530182;15830.396;0
2024-05-17T13:12:52.835;599616225727222041;15838.088;44
2024-05-17T13:12:52.842;599616225734913900;15845.78;37
2024-05-17T13:12:52.850;599616225742605759;15853.472;-2
2024-05-17T13:12:52.858;599616225750297618;15861.164;-28
2024-05-17T13:12:52.865;599616225757989477;15868.856;-25
2024-05-17T13:12:52.873;599616225765681336;15876.548;0
2024-05-17T13:12:52.881;599616225773373195;15884.24;51
2024-05-17T13:12:52.888;599616225781065054;15891.931;98
2024-05-17T13:12:52.896;599616225788756913;15899.623;94
2024-05-17T13:12:52.904;599616225796448772;15907.314;89
2024-05-17T13:12:52.912;599616225804140631;15915.007;127
2024-05-17T13:12:52.919;599616225811832490;15922.699;169
2024-05-17T13:12:52.927;599616225819524349;15930.391;150
2024-05-17T13:12:52.935;599616225827216208;15938.083;89
2024-05-17T13:12:52.942;599616225834908067;15945.774;42
2024-05-17T13:12:52.950;599616225842599926;15953.467;7
2024-05-17T13:12:52.958;599616225850291785;15961.158;47
2024-05-17T13:12:52.965;599616225857983644;15968.85;372
2024-05-17T13:12:52.973;599616225865675503;15976.542;942
2024-05-17T13:12:52.981;599616225873367362;15984.233;1199
2024-05-17T13:12:52.988;599616225881059221;15991.926;749
2024-05-17T13:12:52.996;599616225888751080;15999.617;106
