Phone timestamp;sensor timestamp [ns];timestamp [ms];ecg [uV]
2024-05-17T13:14:22.149;599616315069786418;0.0;5152
2024-05-17T13:14:22.156;599616315077478208;7.69179;6026
2024-05-17T13:14:22.164;599616315085169998;15.38358;6650
2024-05-17T13:14:22.172;599616315092861788;23.07537;7126
2024-05-17T13:14:22.179;599616315100553578;30.76716;7708
2024-05-17T13:14:22.187;599616315108245368;38.458954;8330
2024-05-17T13:14:22.195;599616315115937158;46.15074;8823
2024-05-17T13:14:22.202;599616315123628948;53.84253;9150
2024-05-17T13:14:22.210;599616315131320738;61.53432;9586
2024-05-17T13:14:22.218;599616315139012528;69.22611;10116
2024-05-17T13:14:22.225;599616315146704318;76.91791;10446
2024-05-17T13:14:22.233;599616315154396108;84.60969;10681
2024-05-17T13:14:22.241;599616315162087898;92.30148;11044
2024-05-17T13:14:22.248;599616315169779688;99.99327;11416
2024-05-17T13:14:22.256;599616315177471478;107.68506;11713
2024-05-17T13:14:22.264;599616315185163268;115.37685;12027
2024-05-17T13:14:22.272;599616315192855058;123.06864;12326
2024-05-17T13:14:22.279;599616315200546848;130.76044;12564
2024-05-17T13:14:22.287;599616315208238638;138.45222;12790
2024-05-17T13:14:22.295;599616315215930428;146.14401;13070
2024-05-17T13:14:22.302;599616315223622218;153.83582;13360
2024-05-17T13:14:22.310;599616315231314008;161.52759;13499
2024-05-17T13:14:22.318;599616315239005798;169.21938;13619
2024-05-17T13:14:22.325;599616315246697588;176.91116;14140
2024-05-17T13:14:22.333;599616315254389378;184.60297;14934
2024-05-17T13:14:22.341;599616315262081168;192.29475;15344
2024-05-17T13:14:22.348;599616315269772958;199.98654;15115
2024-05-17T13:14:22.356;599616315277464748;207.67833;14656
2024-05-17T13:14:22.364;599616315285156538;215.37012;14529
2024-05-17T13:14:22.372;599616315292848328;223.0619;14715
2024-05-17T13:14:22.379;599616315300540118;230.7537;14830
2024-05-17T13:14:22.387;599616315308231908;238.4455;14920
2024-05-17T13:14:22.395;599616315315923698;246.13728;15125
2024-05-17T13:14:22.402;599616315323615488;253.82907;15195
2024-05-17T13:14:22.410;599616315331307278;261.52087;15148
2024-05-17T13:14:22.418;599616315338999068;269.21265;15259
2024-05-17T13:14:22.425;599616315346690858;276.90445;15417
2024-05-17T13:14:22.433;599616315354382648;284.59622;15490
2024-05-17T13:14:22.441;599616315362074438;292.28802;15605
2024-05-17T13:14:22.448;599616315369766228;299.9798;15650
2024-05-17T13:14:22.456;599616315377458018;307.67163;15554
2024-05-17T13:14:22.464;599616315385149808;315.3634;15591
2024-05-17T13:14:22.472;599616315392841598;323.05518;15723
2024-05-17T13:14:22.479;599616315400533388;330.74698;15657
2024-05-17T13:14:22.487;599616315408225178;338.43875;15563
2024-05-17T13:14:22.495;599616315415916968;346.13055;15575
2024-05-17T13:14:22.502;599616315423608758;353.82233;15549
2024-05-17T13:14:22.510;599616315431300548;361.51413;15549
2024-05-17T13:14:22.518;599616315438992338;369.20593;15554
2024-05-17T13:14:22.525;599616315446684128;376.8977;15480
2024-05-17T13:14:22.533;599616315454375918;384.5895;15502
2024-05-17T13:14:22.541;599616315462067708;392.28128;15558
2024-05-17T13:14:22.548;599616315469759498;399.97308;15417
2024-05-17T13:14:22.556;599616315477451288;407.66486;15250
2024-05-17T13:14:22.564;599616315485143078;415.35666;15264
2024-05-17T13:14:22.572;599616315492834868;423.04846;15299
2024-05-17T13:14:22.579;599616315500526658;430.74023;15226
2024-05-17T13:14:22.587;599616315508218448;438.43204;15108
2024-05-17T13:14:22.595;599616315515910238;446.1238;15071
2024-05-17T13:14:22.602;599616315523602028;453.8156;15099
2024-05-17T13:14:22.610;599616315531293818;461.5074;14976
2024-05-17T13:14:22.618;599616315538985608;469.1992;14856
2024-05-17T13:14:22.625;599616315546677398;476.891;14927
2024-05-17T13:14:22.633;599616315554369188;484.5828;14807
2024-05-17T13:14:22.641;599616315562060978;492.27457;14475
2024-05-17T13:14:22.648;599616315569752768;499.96634;14345
2024-05-17T13:14:22.656;599616315577444558;507.65814;14373
2024-05-17T13:14:22.664;599616315585136348;515.3499;14291
2024-05-17T13:14:22.672;599616315592828138;523.04175;14156
2024-05-17T13:14:22.679;599616315600519928;530.7335;14067
2024-05-17T13:14:22.687;599616315608211718;538.4253;13999
2024-05-17T13:14:22.695;599616315615903508;546.1171;14020
2024-05-17T13:14:22.702;599616315623595298;553.8089;13900
2024-05-17T13:14:22.710;599616315631287100;561.5007;13622
2024-05-17T13:14:22.718;599616315638978890;569.19244;13577
2024-05-17T13:14:22.725;599616315646670680;576.8843;13457
2024-05-17T13:14:22.733;599616315654362470;584.57605;13096
2024-05-17T13:14:22.741;599616315662054260;592.2678;12990
2024-05-17T13:14:22.748;599616315669746050;599.9596;13044
2024-05-17T13:14:22.756;599616315677437840;607.65137;12929
2024-05-17T13:14:22.764;599616315685129630;615.34326;12788
2024-05-17T13:14:22.772;599616315692821420;623.03503;12764
2024-05-17T13:14:22.779;599616315700513210;630.7268;12759
2024-05-17T13:14:22.787;599616315708205000;638.4186;12623
2024-05-17T13:14:22.795;599616315715896790;646.1104;12335
2024-05-17T13:14:22.802;599616315723588580;653.8022;12213
2024-05-17T13:14:22.810;599616315731280370;661.49396;12269
2024-05-17T13:14:22.818;599616315738972160;669.1857;12152
2024-05-17T13:14:22.825;599616315746663950;676.8775;11907
2024-05-17T13:14:22.833;599616315754355740;684.56934;11831
2024-05-17T13:14:22.841;599616315762047530;692.2611;11831
2024-05-17T13:14:22.848;599616315769739320;699.9529;11699
2024-05-17T13:14:22.856;599616315777431110;707.64465;11532
2024-05-17T13:14:22.864;599616315785122900;715.3365;11478
2024-05-17T13:14:22.872;599616315792814690;723.02826;11603
2024-05-17T13:14:22.879;599616315800506480;730.7201;11954
2024-05-17T13:14:22.887;599616315808198270;738.41187;12248
2024-05-17T13:14:22.895;599616315815890060;746.10364;11982
2024-05-17T13:14:22.902;599616315823581850;753.7955;11273
2024-05-17T13:14:22.910;599616315831273640;761.48724;10773
2024-05-17T13:14:22.918;599616315838965430;769.179;10688
2024-05-17T13:14:22.925;599616315846657220;776.8708;10672
2024-05-17T13:14:22.933;599616315854349010;784.56256;10542
2024-05-17T13:14:22.941;599616315862040800;792.2544;10408
2024-05-17T13:14:22.948;599616315869732590;799.94617;10349
2024-05-17T13:14:22.956;599616315877424380;807.63794;10328
2024-05-17T13:14:22.964;599616315885116170;815.3297;10250
2024-05-17T13:14:22.972;599616315892807960;823.02155;10062
2024-05-17T13:14:22.979;599616315900499750;830.7133;9850
2024-05-17T13:14:22.987;599616315908191540;838.4051;9751
2024-05-17T13:14:22.995;599616315915883330;846.0969;9708
2024-05-17T13:14:23.002;599616315923575120;853.7887;9567
2024-05-17T13:14:23.010;599616315931266910;861.4805;9414
2024-05-17T13:14:23.018;599616315938958700;869.1723;9369
2024-05-17T13:14:23.025;599616315946650490;876.8641;9306
2024-05-17T13:14:23.033;599616315954342280;884.55585;9181
2024-05-17T13:14:23.041;599616315962034070;892.2477;9131
2024-05-17T13:14:23.048;599616315969725860;899.93945;9101
2024-05-17T13:14:23.056;599616315977417650;907.6312;8954
2024-05-17T13:14:23.064;599616315985109440;915.323;8794
2024-05-17T13:14:23.072;599616315992801230;923.0148;8740
2024-05-17T13:14:23.079;599616316000493020;930.7066;8714
2024-05-17T13:14:23.087;599616316008184810;938.3984;8625
2024-05-17T13:14:23.095;599616316015876600;946.09015;8472
2024-05-17T13:14:23.102;599616316023568390;953.782;8337
2024-05-17T13:14:23.110;599616316031260180;961.4738;8278
2024-05-17T13:14:23.118;599616316038951970;969.1656;8179
2024-05-17T13:14:23.125;599616316046643760;976.85736;8033
2024-05-17T13:14:23.133;599616316054335550;984.54913;8019
2024-05-17T13:14:23.141;599616316062027340;992.2409;7977
2024-05-17T13:14:23.148;599616316069719130;999.93274;7755
2024-05-17T13:14:23.156;599616316077410920;1007.6245;7597
2024-05-17T13:14:23.164;599616316085102710;1015.3163;7531
2024-05-17T13:14:23.172;599616316092794500;1023.00806;7409
2024-05-17T13:14:23.179;599616316100486290;1030.7;7284
2024-05-17T13:14:23.187;599616316108178080;1038.3917;7199
2024-05-17T13:14:23.195;599616316115869870;1046.0835;7136
2024-05-17T13:14:23.202;599616316123561660;1053.7753;7016
2024-05-17T13:14:23.210;599616316131253450;1061.467;6771
2024-05-17T13:14:23.218;599616316138945240;1069.1588;6580
2024-05-17T13:14:23.225;599616316146637030;1076.8506;6558
2024-05-17T13:14:23.233;599616316154328820;1084.5425;6504
2024-05-17T13:14:23.241;599616316162020610;1092.2343;6346
2024-05-17T13:14:23.248;599616316169712400;1099.926;6266
2024-05-17T13:14:23.256;599616316177404190;1107.6178;6273
2024-05-17T13:14:23.264;599616316185095980;1115.3096;6226
2024-05-17T13:14:23.272;599616316192787782;1123.0013;6134
2024-05-17T13:14:23.279;599616316200479572;1130.6931;6073
2024-05-17T13:14:23.287;599616316208171362;1138.3849;6014
2024-05-17T13:14:23.295;599616316215863152;1146.0767;5934
2024-05-17T13:14:23.302;599616316223554942;1153.7686;5856
2024-05-17T13:14:23.310;599616316231246732;1161.4603;5823
2024-05-17T13:14:23.318;599616316238938522;1169.1521;5847
2024-05-17T13:14:23.325;599616316246630312;1176.8439;5769
2024-05-17T13:14:23.333;599616316254322102;1184.5356;5548
2024-05-17T13:14:23.341;599616316262013892;1192.2274;5451
2024-05-17T13:14:23.348;599616316269705682;1199.9192;5491
2024-05-17T13:14:23.356;599616316277397472;1207.611;5444
2024-05-17T13:14:23.364;599616316285089262;1215.3027;5355
2024-05-17T13:14:23.371;599616316292781052;1222.9946;5322
2024-05-17T13:14:23.379;599616316300472842;1230.6865;5286
2024-05-17T13:14:23.387;599616316308164632;1238.3783;5211
2024-05-17T13:14:23.395;599616316315856422;1246.0701;5117
2024-05-17T13:14:23.402;599616316323548212;1253.7618;5058
2024-05-17T13:14:23.410;599616316331240002;1261.4536;5154
2024-05-17T13:14:23.418;599616316338931792;1269.1454;5491
2024-05-17T13:14:23.425;599616316346623582;1276.8372;5887
2024-05-17T13:14:23.433;599616316354315372;1284.5289;5878
2024-05-17T13:14:23.441;599616316362007162;1292.2208;5298
2024-05-17T13:14:23.448;599616316369698952;1299.9126;4742
2024-05-17T13:14:23.456;599616316377390742;1307.6044;4657
2024-05-17T13:14:23.464;599616316385082532;1315.2961;4631
2024-05-17T13:14:23.471;599616316392774322;1322.9879;4445
2024-05-17T13:14:23.479;599616316400466112;1330.6797;4375
2024-05-17T13:14:23.487;599616316408157902;1338.3715;4391
2024-05-17T13:14:23.495;599616316415849692;1346.0632;4363
2024-05-17T13:14:23.502;599616316423541482;1353.755;4346
2024-05-17T13:14:23.510;599616316431233272;1361.4469;4306
2024-05-17T13:14:23.518;599616316438925062;1369.1387;4188
2024-05-17T13:14:23.525;599616316446616852;1376.8304;4097
2024-05-17T13:14:23.533;599616316454308642;1384.5222;4066
2024-05-17T13:14:23.541;599616316462000432;1392.214;4019
2024-05-17T13:14:23.548;599616316469692222;1399.9058;3983
2024-05-17T13:14:23.556;599616316477384012;1407.5975;3979
2024-05-17T13:14:23.564;599616316485075802;1415.2893;3922
2024-05-17T13:14:23.571;599616316492767592;1422.9811;3851
2024-05-17T13:14:23.579;599616316500459382;1430.673;3837
2024-05-17T13:14:23.587;599616316508151172;1438.3647;3849
2024-05-17T13:14:23.595;599616316515842962;1446.0565;3814
2024-05-17T13:14:23.602;599616316523534752;1453.7483;3741
2024-05-17T13:14:23.610;599616316531226542;1461.4402;3691
2024-05-17T13:14:23.618;599616316538918332;1469.132;3680
2024-05-17T13:14:23.625;599616316546610122;1476.8237;3635
2024-05-17T13:14:23.633;599616316554301912;1484.5155;3555
2024-05-17T13:14:23.641;599616316561993702;1492.2073;3524
2024-05-17T13:14:23.648;599616316569685492;1499.8992;3505
2024-05-17T13:14:23.656;599616316577377282;1507.591;3432
2024-05-17T13:14:23.664;599616316585069072;1515.2827;3376
2024-05-17T13:14:23.671;599616316592760862;1522.9745;3369
2024-05-17T13:14:23.679;599616316600452652;1530.6663;3319
2024-05-17T13:14:23.687;599616316608144442;1538.358;3211
2024-05-17T13:14:23.695;599616316615836232;1546.0498;3114
2024-05-17T13:14:23.702;599616316623528022;1553.7416;2980
2024-05-17T13:14:23.710;599616316631219812;1561.4333;2798
2024-05-17T13:14:23.718;599616316638911602;1569.1251;2725
2024-05-17T13:14:23.725;599616316646603392;1576.817;2725
2024-05-17T13:14:23.733;599616316654295182;1584.5088;2702
2024-05-17T13:14:23.741;599616316661986972;1592.2006;2666
2024-05-17T13:14:23.748;599616316669678762;1599.8923;2619
2024-05-17T13:14:23.756;599616316677370552;1607.5841;2586
2024-05-17T13:14:23.764;599616316685062342;1615.2759;2589
2024-05-17T13:14:23.771;599616316692754132;1622.9677;2577
2024-05-17T13:14:23.779;599616316700445922;1630.6594;2539
2024-05-17T13:14:23.787;599616316708137712;1638.3512;2506
2024-05-17T13:14:23.795;599616316715829502;1646.0431;2485
2024-05-17T13:14:23.802;599616316723521292;1653.7349;2473
2024-05-17T13:14:23.810;599616316731213082;1661.4266;2447
2024-05-17T13:14:23.818;599616316738904872;1669.1184;2431
2024-05-17T13:14:23.825;599616316746596662;1676.8102;2436
2024-05-17T13:14:23.833;599616316754293504;1684.5071;2400
2024-05-17T13:14:23.841;599616316761985224;1692.1987;2339
2024-05-17T13:14:23.848;599616316769676944;1699.8905;2339
2024-05-17T13:14:23.856;599616316777368664;1707.5822;2363
2024-05-17T13:14:23.864;599616316785060384;1715.2739;2351
2024-05-17T13:14:23.871;599616316792752104;1722.9656;2344
2024-05-17T13:14:23.879;599616316800443824;1730.6573;2332
2024-05-17T13:14:23.887;599616316808135544;1738.3492;2282
2024-05-17T13:14:23.895;599616316815827264;1746.0408;2216
2024-05-17T13:14:23.902;599616316823518984;1753.7327;2150
2024-05-17T13:14:23.910;599616316831210704;1761.4243;2134
2024-05-17T13:14:23.918;599616316838902424;1769.1161;2150
2024-05-17T13:14:23.925;599616316846594144;1776.8077;2087
2024-05-17T13:14:23.933;599616316854285864;1784.4995;1988
2024-05-17T13:14:23.941;599616316861977584;1792.1912;2049
2024-05-17T13:14:23.948;599616316869669304;1799.8829;2334
2024-05-17T13:14:23.956;599616316877361024;1807.5747;2735
2024-05-17T13:14:23.964;599616316885052744;1815.2664;2930
2024-05-17T13:14:23.971;599616316892744464;1822.9581;2556
2024-05-17T13:14:23.979;599616316900436184;1830.6498;1924
2024-05-17T13:14:23.987;599616316908127904;1838.3416;1745
2024-05-17T13:14:23.995;599616316915819624;1846.0332;1891
2024-05-17T13:14:24.002;599616316923511344;1853.725;1870
2024-05-17T13:14:24.010;599616316931203064;1861.4167;1778
2024-05-17T13:14:24.018;599616316938894784;1869.1084;1781
2024-05-17T13:14:24.025;599616316946586504;1876.8002;1781
2024-05-17T13:14:24.033;599616316954278224;1884.4918;1766
2024-05-17T13:14:24.041;599616316961969944;1892.1836;1781
2024-05-17T13:14:24.048;599616316969661664;1899.8752;1778
2024-05-17T13:14:24.056;599616316977353384;1907.567;1722
2024-05-17T13:14:24.064;599616316985045104;1915.2587;1658
2024-05-17T13:14:24.071;599616316992736824;1922.9504;1642
2024-05-17T13:14:24.079;599616317000428544;1930.6422;1646
2024-05-17T13:14:24.087;599616317008120264;1938.3339;1642
2024-05-17T13:14:24.095;599616317015811984;1946.0256;1649
2024-05-17T13:14:24.102;599616317023503704;1953.7173;1644
2024-05-17T13:14:24.110;599616317031195424;1961.409;1604
2024-05-17T13:14:24.118;599616317038887144;1969.1007;1592
2024-05-17T13:14:24.125;599616317046578864;1976.7925;1627
2024-05-17T13:14:24.133;599616317054270584;1984.4843;1632
2024-05-17T13:14:24.141;599616317061962304;1992.1759;1597
2024-05-17T13:14:24.148;599616317069654024;1999.8677;1587
2024-05-17T13:14:24.156;599616317077345744;2007.5593;1592
2024-05-17T13:14:24.164;599616317085037464;2015.2511;1559
2024-05-17T13:14:24.171;599616317092729184;2022.9427;1521
2024-05-17T13:14:24.179;599616317100420904;2030.6345;1510
2024-05-17T13:14:24.187;599616317108112624;2038.3262;1493
2024-05-17T13:14:24.195;599616317115804344;2046.018;1432
2024-05-17T13:14:24.202;599616317123496064;2053.7097;1295
2024-05-17T13:14:24.210;599616317131187784;2061.4014;1168
2024-05-17T13:14:24.218;599616317138879504;2069.093;1137
2024-05-17T13:14:24.225;599616317146571224;2076.7847;1112
2024-05-17T13:14:24.233;599616317154262944;2084.4766;1055
2024-05-17T13:14:24.241;599616317161954664;2092.1682;1020
2024-05-17T13:14:24.248;599616317169646384;2099.8599;965
2024-05-17T13:14:24.256;599616317177338104;2107.5518;914
2024-05-17T13:14:24.264;599616317185029824;2115.2434;925
2024-05-17T13:14:24.271;599616317192721544;2122.935;947
2024-05-17T13:14:24.279;599616317200413264;2130.6267;942
2024-05-17T13:14:24.287;599616317208104984;2138.3186;944
2024-05-17T13:14:24.295;599616317215796704;2146.0103;951
2024-05-17T13:14:24.302;599616317223488424;2153.702;940
2024-05-17T13:14:24.310;599616317231180144;2161.3936;932
2024-05-17T13:14:24.318;599616317238871864;2169.0854;935
2024-05-17T13:14:24.325;599616317246563584;2176.777;944
2024-05-17T13:14:24.333;599616317254255304;2184.469;954
2024-05-17T13:14:24.341;599616317261947024;2192.1604;940
2024-05-17T13:14:24.348;599616317269638744;2199.8523;914
2024-05-17T13:14:24.356;599616317277330464;2207.544;921
2024-05-17T13:14:24.364;599616317285022184;2215.2358;961
2024-05-17T13:14:24.371;599616317292713904;2222.9272;980
2024-05-17T13:14:24.379;599616317300405624;2230.6191;958
2024-05-17T13:14:24.387;599616317308097344;2238.3108;951
2024-05-17T13:14:24.394;599616317315779090;2245.9927;975
2024-05-17T13:14:24.402;599616317323470949;2253.6846;984
2024-05-17T13:14:24.410;599616317331162808;2261.3765;977
2024-05-17T13:14:24.418;599616317338854667;2269.0684;991
2024-05-17T13:14:24.425;599616317346546526;2276.76;1015
2024-05-17T13:14:24.433;599616317354238385;2284.452;1008
2024-05-17T13:14:24.441;599616317361930244;2292.1438;954
2024-05-17T13:14:24.448;599616317369622103;2299.8357;881
2024-05-17T13:14:24.456;599616317377313962;2307.5273;824
2024-05-17T13:14:24.464;599616317385005821;2315.2195;831
2024-05-17T13:14:24.471;599616317392697680;2322.9111;1095
2024-05-17T13:14:24.479;599616317400389539;2330.603;1623
2024-05-17T13:14:24.487;599616317408081398;2338.295;1875
2024-05-17T13:14:24.494;599616317415773257;2345.9868;1446
2024-05-17T13:14:24.502;599616317423465116;2353.6787;791
2024-05-17T13:14:24.510;599616317431156975;2361.3706;645
2024-05-17T13:14:24.518;599616317438848834;2369.0625;843
2024-05-17T13:14:24.525;599616317446540693;2376.7542;810
2024-05-17T13:14:24.533;599616317454232552;2384.4463;699
2024-05-17T13:14:24.541;599616317461924411;2392.138;777
2024-05-17T13:14:24.548;599616317469616270;2399.8298;848
2024-05-17T13:14:24.556;599616317477308129;2407.5217;805
2024-05-17T13:14:24.564;599616317484999988;2415.2136;791
2024-05-17T13:14:24.571;599616317492691847;2422.9053;824
2024-05-17T13:14:24.579;599616317500383706;2430.5974;831
2024-05-17T13:14:24.587;599616317508075565;2438.289;824
2024-05-17T13:14:24.594;599616317515767424;2445.981;848
2024-05-17T13:14:24.602;599616317523459283;2453.6729;866
2024-05-17T13:14:24.610;599616317531151142;2461.3647;826
2024-05-17T13:14:24.618;599616317538843001;2469.0564;772
2024-05-17T13:14:24.625;599616317546534860;2476.7485;772
2024-05-17T13:14:24.633;599616317554226719;2484.4404;798
2024-05-17T13:14:24.641;599616317561918578;2492.132;798
2024-05-17T13:14:24.648;599616317569610437;2499.8242;793
2024-05-17T13:14:24.656;599616317577302296;2507.5159;812
2024-05-17T13:14:24.664;599616317584994155;2515.2078;810
2024-05-17T13:14:24.671;599616317592686014;2522.8997;782
2024-05-17T13:14:24.679;599616317600377873;2530.5916;760
2024-05-17T13:14:24.687;599616317608069732;2538.2832;720
2024-05-17T13:14:24.694;599616317615761591;2545.9753;662
2024-05-17T13:14:24.702;599616317623453450;2553.667;636
2024-05-17T13:14:24.710;599616317631145309;2561.359;567
2024-05-17T13:14:24.718;599616317638837168;2569.0505;452
2024-05-17T13:14:24.725;599616317646529027;2576.7427;433
2024-05-17T13:14:24.733;599616317654220886;2584.4343;461
2024-05-17T13:14:24.741;599616317661912745;2592.1262;442
2024-05-17T13:14:24.748;599616317669604604;2599.8184;440
2024-05-17T13:14:24.756;599616317677296463;2607.51;457
2024-05-17T13:14:24.764;599616317684988322;2615.202;431
2024-05-17T13:14:24.771;599616317692680181;2622.8938;400
2024-05-17T13:14:24.779;599616317700372040;2630.5857;393
2024-05-17T13:14:24.787;599616317708063899;2638.2773;374
2024-05-17T13:14:24.794;599616317715755758;2645.9695;320
2024-05-17T13:14:24.802;599616317723447617;2653.6611;278
2024-05-17T13:14:24.810;599616317731139476;2661.353;280
2024-05-17T13:14:24.818;599616317738831335;2669.045;294
2024-05-17T13:14:24.825;599616317746523194;2676.7368;282
2024-05-17T13:14:24.833;599616317754215053;2684.4285;270
2024-05-17T13:14:24.841;599616317761906912;2692.1206;289
2024-05-17T13:14:24.848;599616317769598771;2699.8123;299
2024-05-17T13:14:24.856;599616317777290630;2707.5042;275
2024-05-17T13:14:24.864;599616317784982489;2715.196;268
2024-05-17T13:14:24.871;599616317792674348;2722.888;289
2024-05-17T13:14:24.879;599616317800366207;2730.5798;303
2024-05-17T13:14:24.887;599616317808058066;2738.2717;301
2024-05-17T13:14:24.894;599616317815749925;2745.9636;301
2024-05-17T13:14:24.902;599616317823441784;2753.6553;306
2024-05-17T13:14:24.910;599616317831133643;2761.3474;322
2024-05-17T13:14:24.918;599616317838825502;2769.039;336
2024-05-17T13:14:24.925;599616317846517361;2776.731;341
2024-05-17T13:14:24.933;599616317854209220;2784.4229;313
2024-05-17T13:14:24.941;599616317861901079;2792.1147;249
2024-05-17T13:14:24.948;599616317869592938;2799.8064;226
2024-05-17T13:14:24.956;599616317877289826;2807.5034;268
2024-05-17T13:14:24.964;599616317884981616;2815.195;296
2024-05-17T13:14:24.971;599616317892673406;2822.887;266
2024-05-17T13:14:24.979;599616317900365196;2830.5786;214
2024-05-17T13:14:24.987;599616317908056986;2838.2705;280
2024-05-17T13:14:24.994;599616317915748776;2845.9622;654
2024-05-17T13:14:25.002;599616317923440566;2853.6543;1168
2024-05-17T13:14:25.010;599616317931132356;2861.346;1314
2024-05-17T13:14:25.018;599616317938824146;2869.0378;845
2024-05-17T13:14:25.025;599616317946515936;2876.7295;214
2024-05-17T13:14:25.033;599616317954207726;2884.4214;70
2024-05-17T13:14:25.041;599616317961899516;2892.113;219
2024-05-17T13:14:25.048;599616317969591306;2899.805;195
2024-05-17T13:14:25.056;599616317977283096;2907.4966;164
2024-05-17T13:14:25.064;599616317984974886;2915.1885;230
2024-05-17T13:14:25.071;599616317992666676;2922.8804;245
2024-05-17T13:14:25.079;599616318000358466;2930.572;233
2024-05-17T13:14:25.087;599616318008050256;2938.264;254
2024-05-17T13:14:25.094;599616318015742046;2945.9556;270
2024-05-17T13:14:25.102;599616318023433836;2953.6475;289
2024-05-17T13:14:25.110;599616318031125626;2961.339;325
2024-05-17T13:14:25.118;599616318038817416;2969.031;336
2024-05-17T13:14:25.125;599616318046509206;2976.7227;320
2024-05-17T13:14:25.133;599616318054200996;2984.4146;334
2024-05-17T13:14:25.141;599616318061892786;2992.1064;395
2024-05-17T13:14:25.148;599616318069584576;2999.7983;424
2024-05-17T13:14:25.156;599616318077276366;3007.49;398
2024-05-17T13:14:25.164;599616318084968156;3015.182;365
2024-05-17T13:14:25.171;599616318092659946;3022.8735;343
2024-05-17T13:14:25.179;599616318100351736;3030.5654;299
2024-05-17T13:14:25.187;599616318108043526;3038.257;235
2024-05-17T13:14:25.194;599616318115735316;3045.949;233
2024-05-17T13:14:25.202;599616318123427106;3053.6406;275
2024-05-17T13:14:25.210;599616318131118896;3061.3325;278
2024-05-17T13:14:25.218;599616318138810686;3069.0242;204
2024-05-17T13:14:25.225;599616318146502476;3076.716;110
2024-05-17T13:14:25.233;599616318154194266;3084.4077;103
2024-05-17T13:14:25.241;599616318161886056;3092.0996;143
2024-05-17T13:14:25.248;599616318169577846;3099.7913;150
2024-05-17T13:14:25.256;599616318177269636;3107.4832;174
2024-05-17T13:14:25.264;599616318184961426;3115.1748;195
2024-05-17T13:14:25.271;599616318192653216;3122.8667;186
2024-05-17T13:14:25.279;599616318200345006;3130.5583;202
2024-05-17T13:14:25.287;599616318208036796;3138.2505;259
2024-05-17T13:14:25.294;599616318215728586;3145.9424;299
2024-05-17T13:14:25.302;599616318223420376;3153.634;294
2024-05-17T13:14:25.310;599616318231112166;3161.326;280
2024-05-17T13:14:25.318;599616318238803956;3169.0176;292
2024-05-17T13:14:25.325;599616318246495746;3176.7095;294
2024-05-17T13:14:25.333;599616318254187536;3184.4011;252
2024-05-17T13:14:25.341;599616318261879326;3192.093;209
2024-05-17T13:14:25.348;599616318269571116;3199.7847;193
2024-05-17T13:14:25.356;599616318277262906;3207.4766;176
2024-05-17T13:14:25.364;599616318284954696;3215.1682;150
2024-05-17T13:14:25.371;599616318292646486;3222.86;139
2024-05-17T13:14:25.379;599616318300338276;3230.5518;162
2024-05-17T13:14:25.387;599616318308030066;3238.2437;188
2024-05-17T13:14:25.394;599616318315721856;3245.9353;169
2024-05-17T13:14:25.402;599616318323413646;3253.6272;148
2024-05-17T13:14:25.410;599616318331105436;3261.3188;164
2024-05-17T13:14:25.418;599616318338797226;3269.0107;195
2024-05-17T13:14:25.425;599616318346489016;3276.7026;193
2024-05-17T13:14:25.433;599616318354180806;3284.3945;176
2024-05-17T13:14:25.441;599616318361872596;3292.0862;193
2024-05-17T13:14:25.448;599616318369564386;3299.778;207
2024-05-17T13:14:25.456;599616318377256176;3307.4697;197
2024-05-17T13:14:25.464;599616318384947966;3315.1616;223
2024-05-17T13:14:25.471;599616318392639756;3322.8533;275
2024-05-17T13:14:25.479;599616318400331546;3330.5452;287
2024-05-17T13:14:25.487;599616318408023336;3338.2368;275
2024-05-17T13:14:25.494;599616318415715126;3345.9287;237
2024-05-17T13:14:25.502;599616318423406916;3353.6204;223
2024-05-17T13:14:25.510;599616318431098706;3361.3123;417
2024-05-17T13:14:25.518;599616318438790510;3369.0042;888
2024-05-17T13:14:25.525;599616318446482300;3376.6958;1342
2024-05-17T13:14:25.533;599616318454174090;3384.3877;1281
2024-05-17T13:14:25.541;599616318461865880;3392.0793;629
2024-05-17T13:14:25.548;599616318469557670;3399.7712;96
2024-05-17T13:14:25.556;599616318477249460;3407.4631;162
2024-05-17T13:14:25.564;599616318484941250;3415.155;294
2024-05-17T13:14:25.571;599616318492633040;3422.8467;190
2024-05-17T13:14:25.579;599616318500324830;3430.5386;169
2024-05-17T13:14:25.587;599616318508016620;3438.2302;235
2024-05-17T13:14:25.594;599616318515708410;3445.922;237
2024-05-17T13:14:25.602;599616318523400200;3453.6138;245
2024-05-17T13:14:25.610;599616318531091990;3461.3057;292
2024-05-17T13:14:25.617;599616318538783780;3468.9973;322
2024-05-17T13:14:25.625;599616318546475570;3476.6892;334
2024-05-17T13:14:25.633;599616318554167360;3484.3809;334
2024-05-17T13:14:25.641;599616318561859150;3492.0728;343
2024-05-17T13:14:25.648;599616318569550940;3499.7644;376
2024-05-17T13:14:25.656;599616318577242730;3507.4563;417
2024-05-17T13:14:25.664;599616318584934520;3515.148;440
2024-05-17T13:14:25.671;599616318592626310;3522.8398;431
2024-05-17T13:14:25.679;599616318600318100;3530.5315;398
2024-05-17T13:14:25.687;599616318608009890;3538.2234;391
2024-05-17T13:14:25.694;599616318615701680;3545.915;405
2024-05-17T13:14:25.702;599616318623393470;3553.6072;391
2024-05-17T13:14:25.710;599616318631085260;3561.2988;355
2024-05-17T13:14:25.717;599616318638777050;3568.9907;280
2024-05-17T13:14:25.725;599616318646468840;3576.6826;160
2024-05-17T13:14:25.733;599616318654160630;3584.3743;108
2024-05-17T13:14:25.741;599616318661852420;3592.0662;157
2024-05-17T13:14:25.748;599616318669544210;3599.7578;190
2024-05-17T13:14:25.756;599616318677236000;3607.4497;174
2024-05-17T13:14:25.764;599616318684927790;3615.1414;176
2024-05-17T13:14:25.771;599616318692619580;3622.8333;195
2024-05-17T13:14:25.779;599616318700311370;3630.525;204
2024-05-17T13:14:25.787;599616318708003160;3638.2168;226
2024-05-17T13:14:25.794;599616318715694950;3645.9084;259
2024-05-17T13:14:25.802;599616318723386740;3653.6003;287
2024-05-17T13:14:25.810;599616318731078530;3661.292;296
2024-05-17T13:14:25.817;599616318738770320;3668.984;289
2024-05-17T13:14:25.825;599616318746462110;3676.6755;301
2024-05-17T13:14:25.833;599616318754153900;3684.3674;336
2024-05-17T13:14:25.841;599616318761845690;3692.0593;351
2024-05-17T13:14:25.848;599616318769537480;3699.7512;343
2024-05-17T13:14:25.856;599616318777229270;3707.4429;362
2024-05-17T13:14:25.864;599616318784921060;3715.1348;360
2024-05-17T13:14:25.871;599616318792612850;3722.8264;303
2024-05-17T13:14:25.879;599616318800304640;3730.5183;266
2024-05-17T13:14:25.887;599616318807996430;3738.21;249
2024-05-17T13:14:25.894;599616318815688220;3745.9019;204
2024-05-17T13:14:25.902;599616318823380010;3753.5935;162
2024-05-17T13:14:25.910;599616318831071800;3761.2854;131
2024-05-17T13:14:25.917;599616318838763590;3768.977;82
2024-05-17T13:14:25.925;599616318846455380;3776.669;35
2024-05-17T13:14:25.933;599616318854147170;3784.3606;30
2024-05-17T13:14:25.941;599616318861838960;3792.0525;56
2024-05-17T13:14:25.948;599616318869530750;3799.7441;82
2024-05-17T13:14:25.956;599616318877222540;3807.436;89
2024-05-17T13:14:25.964;599616318884914330;3815.128;82
2024-05-17T13:14:25.971;599616318892606120;3822.8196;89
2024-05-17T13:14:25.979;599616318900297910;3830.5117;115
2024-05-17T13:14:25.987;599616318907989700;3838.2034;146
2024-05-17T13:14:25.994;599616318915681490;3845.8953;162
2024-05-17T13:14:26.002;599616318923373280;3853.587;148
2024-05-17T13:14:26.010;599616318931065070;3861.2788;120
2024-05-17T13:14:26.017;599616318938756860;3868.9705;96
2024-05-17T13:14:26.025;599616318946448650;3876.6624;150
2024-05-17T13:14:26.033;599616318954140440;3884.354;487
2024-05-17T13:14:26.041;599616318961832230;3892.046;1038
2024-05-17T13:14:26.048;599616318969524020;3899.7375;1255
2024-05-17T13:14:26.056;599616318977215810;3907.4294;805
2024-05-17T13:14:26.064;599616318984907600;3915.121;202
2024-05-17T13:14:26.071;599616318992599390;3922.813;113
2024-05-17T13:14:26.079;599616319000291192;3930.5046;285
2024-05-17T13:14:26.087;599616319007982982;3938.1965;228
2024-05-17T13:14:26.094;599616319015674772;3945.8882;153
2024-05-17T13:14:26.102;599616319023366562;3953.58;219
2024-05-17T13:14:26.110;599616319031058352;3961.2717;235
2024-05-17T13:14:26.117;599616319038750142;3968.9639;204
2024-05-17T13:14:26.125;599616319046441932;3976.6555;235
2024-05-17T13:14:26.133;599616319054133722;3984.3474;270
2024-05-17T13:14:26.141;599616319061825512;3992.039;214
2024-05-17T13:14:26.148;599616319069517302;3999.731;124
2024-05-17T13:14:26.156;599616319077209092;4007.4226;113
2024-05-17T13:14:26.164;599616319084900882;4015.1145;136
2024-05-17T13:14:26.171;599616319092592672;4022.8062;101
2024-05-17T13:14:26.179;599616319100284462;4030.498;84
2024-05-17T13:14:26.187;599616319107976252;4038.19;120
2024-05-17T13:14:26.194;599616319115668042;4045.8816;155
2024-05-17T13:14:26.202;599616319123359832;4053.5735;174
2024-05-17T13:14:26.210;599616319131051622;4061.2651;190
2024-05-17T13:14:26.217;599616319138743412;4068.957;190
2024-05-17T13:14:26.225;599616319146435202;4076.6487;120
2024-05-17T13:14:26.233;599616319154126992;4084.3406;40
2024-05-17T13:14:26.241;599616319161818782;4092.0322;47
2024-05-17T13:14:26.248;599616319169510572;4099.724;65
2024-05-17T13:14:26.256;599616319177202362;4107.416;30
2024-05-17T13:14:26.264;599616319184894152;4115.108;9
2024-05-17T13:14:26.271;599616319192585942;4122.8;18
2024-05-17T13:14:26.279;599616319200277732;4130.491;14
2024-05-17T13:14:26.287;599616319207969522;4138.183;9
2024-05-17T13:14:26.294;599616319215661312;4145.875;25
2024-05-17T13:14:26.302;599616319223353102;4153.567;44
2024-05-17T13:14:26.310;599616319231044892;4161.2583;70
2024-05-17T13:14:26.317;599616319238736682;4168.95;94
2024-05-17T13:14:26.325;599616319246428472;4176.642;87
2024-05-17T13:14:26.333;599616319254120262;4184.334;89
2024-05-17T13:14:26.341;599616319261812052;4192.0254;127
2024-05-17T13:14:26.348;599616319269503842;4199.7173;157
2024-05-17T13:14:26.356;599616319277195632;4207.409;162
2024-05-17T13:14:26.364;599616319284887422;4215.101;169
2024-05-17T13:14:26.371;599616319292579212;4222.7925;183
2024-05-17T13:14:26.379;599616319300271002;4230.4844;186
2024-05-17T13:14:26.387;599616319307962792;4238.1763;188
2024-05-17T13:14:26.394;599616319315654582;4245.868;212
2024-05-17T13:14:26.402;599616319323346372;4253.56;237
2024-05-17T13:14:26.410;599616319331038162;4261.252;193
2024-05-17T13:14:26.417;599616319338729952;4268.944;98
2024-05-17T13:14:26.425;599616319346421742;4276.6353;56
2024-05-17T13:14:26.433;599616319354113532;4284.327;58
2024-05-17T13:14:26.441;599616319361805322;4292.019;23
2024-05-17T13:14:26.448;599616319369497112;4299.7104;-21
2024-05-17T13:14:26.456;599616319377188902;4307.4023;-11
2024-05-17T13:14:26.464;599616319384880692;4315.0947;11
2024-05-17T13:14:26.471;599616319392572482;4322.786;7
2024-05-17T13:14:26.479;599616319400264272;4330.478;0
2024-05-17T13:14:26.487;599616319407956062;4338.17;23
2024-05-17T13:14:26.494;599616319415647852;4345.862;56
2024-05-17T13:14:26.502;599616319423339642;4353.553;51
2024-05-17T13:14:26.510;599616319431031432;4361.245;32
2024-05-17T13:14:26.517;599616319438723222;4368.937;54
2024-05-17T13:14:26.525;599616319446415012;4376.629;65
2024-05-17T13:14:26.533;599616319454106802;4384.3203;0
2024-05-17T13:14:26.541;599616319461798592;4392.012;11
2024-05-17T13:14:26.548;599616319469490382;4399.704;313
2024-05-17T13:14:26.556;599616319477182172;4407.396;822
2024-05-17T13:14:26.564;599616319484873962;4415.0874;1116
2024-05-17T13:14:26.571;599616319492565752;4422.7793;812
2024-05-17T13:14:26.579;599616319500257542;4430.471;212
2024-05-17T13:14:26.587;599616319507949332;4438.163;16
2024-05-17T13:14:26.594;599616319515641122;4445.8545;157
2024-05-17T13:14:26.602;599616319523332912;4453.5464;117
2024-05-17T13:14:26.610;599616319531024702;4461.2383;35
2024-05-17T13:14:26.617;599616319538716492;4468.93;113
2024-05-17T13:14:26.625;599616319546408282;4476.6216;146
2024-05-17T13:14:26.633;599616319554100072;4484.3135;122
2024-05-17T13:14:26.641;599616319561791874;4492.0054;167
2024-05-17T13:14:26.648;599616319569483664;4499.6973;190
2024-05-17T13:14:26.656;599616319577175454;4507.389;139
2024-05-17T13:14:26.664;599616319584867244;4515.0806;117
2024-05-17T13:14:26.671;599616319592559034;4522.7725;160
2024-05-17T13:14:26.679;599616319600250824;4530.4644;186
2024-05-17T13:14:26.687;599616319607942614;4538.1562;171
2024-05-17T13:14:26.694;599616319615634404;4545.8477;176
2024-05-17T13:14:26.702;599616319623326194;4553.5396;212
2024-05-17T13:14:26.710;599616319631017984;4561.2314;214
2024-05-17T13:14:26.717;599616319638709774;4568.9233;157
2024-05-17T13:14:26.725;599616319646401564;4576.6147;101
2024-05-17T13:14:26.733;599616319654093354;4584.3066;61
2024-05-17T13:14:26.740;599616319661785144;4591.999;14
2024-05-17T13:14:26.748;599616319669476934;4599.691;0
2024-05-17T13:14:26.756;599616319677168724;4607.3823;30
2024-05-17T13:14:26.764;599616319684860514;4615.074;70
2024-05-17T13:14:26.771;599616319692552304;4622.766;87
2024-05-17T13:14:26.779;599616319700244094;4630.458;82
2024-05-17T13:14:26.787;599616319707935884;4638.1494;73
2024-05-17T13:14:26.794;599616319715627674;4645.8413;49
2024-05-17T13:14:26.802;599616319723319464;4653.533;18
2024-05-17T13:14:26.810;599616319731011254;4661.225;14
2024-05-17T13:14:26.817;599616319738703044;4668.9165;47
2024-05-17T13:14:26.825;599616319746394834;4676.6084;68
2024-05-17T13:14:26.833;599616319754086624;4684.3003;44
2024-05-17T13:14:26.840;599616319761778414;4691.992;42
2024-05-17T13:14:26.848;599616319769470204;4699.684;82
2024-05-17T13:14:26.856;599616319777161994;4707.3755;115
2024-05-17T13:14:26.864;599616319784853784;4715.0674;129
2024-05-17T13:14:26.871;599616319792545574;4722.7593;131
2024-05-17T13:14:26.879;599616319800237364;4730.451;117
2024-05-17T13:14:26.887;599616319807929154;4738.1426;122
2024-05-17T13:14:26.894;599616319815620944;4745.8345;141
2024-05-17T13:14:26.902;599616319823312734;4753.5264;115
2024-05-17T13:14:26.910;599616319831004524;4761.2183;80
2024-05-17T13:14:26.917;599616319838696314;4768.9097;84
2024-05-17T13:14:26.925;599616319846388104;4776.6016;89
2024-05-17T13:14:26.933;599616319854079894;4784.2935;94
2024-05-17T13:14:26.940;599616319861771684;4791.9854;124
2024-05-17T13:14:26.948;599616319869463474;4799.677;141
2024-05-17T13:14:26.956;599616319877155264;4807.3687;113
2024-05-17T13:14:26.964;599616319884847054;4815.0605;73
2024-05-17T13:14:26.971;599616319892538844;4822.7524;49
2024-05-17T13:14:26.979;599616319900230634;4830.444;25
2024-05-17T13:14:26.987;599616319907922424;4838.1357;0
2024-05-17T13:14:26.994;599616319915614214;4845.8276;7
2024-05-17T13:14:27.002;599616319923306004;4853.5195;30
2024-05-17T13:14:27.010;599616319930997794;4861.211;21
2024-05-17T13:14:27.017;599616319938689584;4868.903;0
2024-05-17T13:14:27.025;599616319946381374;4876.595;11
2024-05-17T13:14:27.033;599616319954073164;4884.287;35
2024-05-17T13:14:27.040;599616319961764954;4891.9785;9
2024-05-17T13:14:27.048;599616319969456744;4899.6704;-42
2024-05-17T13:14:27.056;599616319977148534;4907.3623;25
2024-05-17T13:14:27.064;599616319984840324;4915.054;362
2024-05-17T13:14:27.071;599616319992532114;4922.746;866
2024-05-17T13:14:27.079;599616320000223904;4930.4375;1071
2024-05-17T13:14:27.087;599616320007915694;4938.1294;647
2024-05-17T13:14:27.094;599616320015607484;4945.8213;56
2024-05-17T13:14:27.102;599616320023299274;4953.513;-47
2024-05-17T13:14:27.110;599616320030991064;4961.2046;101
2024-05-17T13:14:27.117;599616320038682854;4968.8965;54
2024-05-17T13:14:27.125;599616320046374644;4976.5884;4
2024-05-17T13:14:27.133;599616320054066434;4984.2803;58
2024-05-17T13:14:27.140;599616320061758224;4991.9717;63
2024-05-17T13:14:27.148;599616320069450014;4999.6636;23
2024-05-17T13:14:27.156;599616320077141804;5007.3555;-9
2024-05-17T13:14:27.164;599616320084833594;5015.0474;-21
2024-05-17T13:14:27.171;599616320092525384;5022.739;7
2024-05-17T13:14:27.179;599616320100217174;5030.4307;63
2024-05-17T13:14:27.187;599616320107908964;5038.1226;110
2024-05-17T13:14:27.194;599616320115600754;5045.8145;115
2024-05-17T13:14:27.202;599616320123292556;5053.506;103
2024-05-17T13:14:27.210;599616320130984346;5061.1978;141
2024-05-17T13:14:27.217;599616320138676136;5068.8896;197
2024-05-17T13:14:27.225;599616320146367926;5076.5815;183
2024-05-17T13:14:27.233;599616320154059716;5084.273;127
2024-05-17T13:14:27.240;599616320161751506;5091.965;115
2024-05-17T13:14:27.248;599616320169443296;5099.6567;113
2024-05-17T13:14:27.256;599616320177135086;5107.3486;61
2024-05-17T13:14:27.264;599616320184826876;5115.04;35
2024-05-17T13:14:27.271;599616320192518666;5122.732;77
2024-05-17T13:14:27.279;599616320200210456;5130.424;113
2024-05-17T13:14:27.287;599616320207902246;5138.1157;103
2024-05-17T13:14:27.294;599616320215594036;5145.808;98
2024-05-17T13:14:27.302;599616320223285826;5153.4995;129
2024-05-17T13:14:27.310;599616320230977616;5161.1914;153
2024-05-17T13:14:27.317;599616320238669406;5168.8833;127
2024-05-17T13:14:27.325;599616320246361196;5176.575;94
2024-05-17T13:14:27.333;599616320254052986;5184.2666;84
2024-05-17T13:14:27.340;599616320261744776;5191.9585;63
2024-05-17T13:14:27.348;599616320269436566;5199.6504;44
2024-05-17T13:14:27.356;599616320277128356;5207.3423;75
2024-05-17T13:14:27.364;599616320284820146;5215.0337;113
2024-05-17T13:14:27.371;599616320292511936;5222.7256;108
2024-05-17T13:14:27.379;599616320300203726;5230.4175;96
2024-05-17T13:14:27.387;599616320307895516;5238.1094;98
2024-05-17T13:14:27.394;599616320315587306;5245.801;70
2024-05-17T13:14:27.402;599616320323279096;5253.4927;14
2024-05-17T13:14:27.410;599616320330970886;5261.1846;14
2024-05-17T13:14:27.417;599616320338662676;5268.8765;68
2024-05-17T13:14:27.425;599616320346354466;5276.568;94
2024-05-17T13:14:27.433;599616320354046256;5284.26;82
2024-05-17T13:14:27.440;599616320361738046;5291.9517;82
2024-05-17T13:14:27.448;599616320369429836;5299.6436;117
2024-05-17T13:14:27.456;599616320377121626;5307.335;146
2024-05-17T13:14:27.464;599616320384813416;5315.027;134
2024-05-17T13:14:27.471;599616320392505206;5322.7188;141
2024-05-17T13:14:27.479;599616320400196996;5330.4106;181
2024-05-17T13:14:27.487;599616320407888786;5338.102;181
2024-05-17T13:14:27.494;599616320415580576;5345.794;146
2024-05-17T13:14:27.502;599616320423272366;5353.486;157
2024-05-17T13:14:27.510;599616320430964156;5361.1777;148
2024-05-17T13:14:27.517;599616320438655946;5368.869;65
2024-05-17T13:14:27.525;599616320446347736;5376.561;14
2024-05-17T13:14:27.533;599616320454039526;5384.253;35
2024-05-17T13:14:27.540;599616320461731316;5391.945;58
2024-05-17T13:14:27.548;599616320469423106;5399.6367;56
2024-05-17T13:14:27.556;599616320477114896;5407.328;28
2024-05-17T13:14:27.564;599616320484806686;5415.02;-16
2024-05-17T13:14:27.571;599616320492498476;5422.712;-7
2024-05-17T13:14:27.579;599616320500190266;5430.4043;214
2024-05-17T13:14:27.587;599616320507882056;5438.0957;687
2024-05-17T13:14:27.594;599616320515573846;5445.7876;1062
2024-05-17T13:14:27.602;599616320523265636;5453.4795;836
2024-05-17T13:14:27.610;599616320530957426;5461.1714;209
2024-05-17T13:14:27.617;599616320538649216;5468.863;-65
2024-05-17T13:14:27.625;599616320546341006;5476.5547;73
2024-05-17T13:14:27.633;599616320554032796;5484.2466;101
2024-05-17T13:14:27.640;599616320561724586;5491.9385;0
2024-05-17T13:14:27.648;599616320569416376;5499.63;7
2024-05-17T13:14:27.656;599616320577108166;5507.322;35
2024-05-17T13:14:27.664;599616320584799956;5515.0137;18
2024-05-17T13:14:27.671;599616320592491746;5522.7056;25
2024-05-17T13:14:27.679;599616320600183536;5530.397;56
2024-05-17T13:14:27.687;599616320607875326;5538.089;101
2024-05-17T13:14:27.694;599616320615567116;5545.781;148
2024-05-17T13:14:27.702;599616320623258906;5553.4727;155
2024-05-17T13:14:27.710;599616320630950696;5561.164;148
2024-05-17T13:14:27.717;599616320638642486;5568.856;179
2024-05-17T13:14:27.725;599616320646334276;5576.548;212
2024-05-17T13:14:27.733;599616320654026066;5584.2397;207
2024-05-17T13:14:27.740;599616320661717856;5591.931;167
2024-05-17T13:14:27.748;599616320669409646;5599.623;127
2024-05-17T13:14:27.756;599616320677101436;5607.315;122
2024-05-17T13:14:27.764;599616320684793238;5615.007;129
2024-05-17T13:14:27.771;599616320692485028;5622.6987;139
2024-05-17T13:14:27.779;599616320700176818;5630.39;179
2024-05-17T13:14:27.787;599616320707868608;5638.082;223
2024-05-17T13:14:27.794;599616320715560398;5645.774;221
2024-05-17T13:14:27.802;599616320723252188;5653.466;202
2024-05-17T13:14:27.810;599616320730943978;5661.157;221
2024-05-17T13:14:27.817;599616320738635768;5668.849;230
2024-05-17T13:14:27.825;599616320746327558;5676.541;160
2024-05-17T13:14:27.833;599616320754019348;5684.233;106
2024-05-17T13:14:27.840;599616320761711138;5691.9243;139
2024-05-17T13:14:27.848;599616320769402928;5699.616;122
2024-05-17T13:14:27.856;599616320777094718;5707.3086;44
2024-05-17T13:14:27.864;599616320784786508;5715.0005;56
2024-05-17T13:14:27.871;599616320792478298;5722.692;117
2024-05-17T13:14:27.879;599616320800170088;5730.384;120
2024-05-17T13:14:27.887;599616320807861878;5738.0757;80
2024-05-17T13:14:27.894;599616320815553668;5745.7676;49
2024-05-17T13:14:27.902;599616320823245458;5753.459;56
2024-05-17T13:14:27.910;599616320830937248;5761.151;75
2024-05-17T13:14:27.917;599616320838629038;5768.843;73
2024-05-17T13:14:27.925;599616320846320828;5776.5347;101
2024-05-17T13:14:27.933;599616320854012618;5784.226;141
2024-05-17T13:14:27.940;599616320861704408;5791.918;124
2024-05-17T13:14:27.948;599616320869396198;5799.61;98
2024-05-17T13:14:27.956;599616320877087988;5807.302;127
2024-05-17T13:14:27.963;599616320884779778;5814.993;157
2024-05-17T13:14:27.971;599616320892471568;5822.685;155
2024-05-17T13:14:27.979;599616320900163358;5830.377;148
2024-05-17T13:14:27.987;599616320907855148;5838.069;153
2024-05-17T13:14:27.994;599616320915546938;5845.7607;162
2024-05-17T13:14:28.002;599616320923238728;5853.452;176
2024-05-17T13:14:28.010;599616320930930518;5861.144;188
2024-05-17T13:14:28.017;599616320938622308;5868.836;174
2024-05-17T13:14:28.025;599616320946314098;5876.528;120
2024-05-17T13:14:28.033;599616320954005888;5884.219;49
2024-05-17T13:14:28.040;599616320961697678;5891.911;0
2024-05-17T13:14:28.048;599616320969389468;5899.603;-7
2024-05-17T13:14:28.056;599616320977081258;5907.295;9
2024-05-17T13:14:28.063;599616320984773048;5914.9863;14
2024-05-17T13:14:28.071;599616320992464838;5922.678;-37
2024-05-17T13:14:28.079;599616321000156628;5930.37;-110
2024-05-17T13:14:28.087;599616321007848418;5938.062;-49
2024-05-17T13:14:28.094;599616321015540208;5945.7534;270
2024-05-17T13:14:28.102;599616321023231998;5953.4453;753
2024-05-17T13:14:28.110;599616321030923788;5961.137;989
2024-05-17T13:14:28.117;599616321038615578;5968.829;614
2024-05-17T13:14:28.125;599616321046307368;5976.5205;2
2024-05-17T13:14:28.133;599616321053999158;5984.213;-176
2024-05-17T13:14:28.140;599616321061690948;5991.905;-73
2024-05-17T13:14:28.148;599616321069382738;5999.5967;-122
2024-05-17T13:14:28.156;599616321077074528;6007.288;-179
2024-05-17T13:14:28.163;599616321084766318;6014.98;-115
2024-05-17T13:14:28.171;599616321092458108;6022.672;-94
2024-05-17T13:14:28.179;599616321100149898;6030.364;-108
2024-05-17T13:14:28.187;599616321107841688;6038.0557;-77
2024-05-17T13:14:28.194;599616321115533478;6045.747;-32
2024-05-17T13:14:28.202;599616321123225268;6053.439;14
2024-05-17T13:14:28.210;599616321130917058;6061.131;40
2024-05-17T13:14:28.217;599616321138608848;6068.8228;30
2024-05-17T13:14:28.225;599616321146300638;6076.514;40
2024-05-17T13:14:28.233;599616321153992428;6084.206;80
2024-05-17T13:14:28.240;599616321161684218;6091.898;87
2024-05-17T13:14:28.248;599616321169376008;6099.59;47
2024-05-17T13:14:28.256;599616321177067798;6107.2812;16
2024-05-17T13:14:28.263;599616321184759588;6114.973;23
2024-05-17T13:14:28.271;599616321192451378;6122.665;40
2024-05-17T13:14:28.279;599616321200143168;6130.357;54
2024-05-17T13:14:28.287;599616321207834958;6138.0483;80
2024-05-17T13:14:28.294;599616321215526748;6145.74;101
2024-05-17T13:14:28.302;599616321223218538;6153.432;94
2024-05-17T13:14:28.310;599616321230910328;6161.124;73
2024-05-17T13:14:28.317;599616321238602118;6168.8154;84
2024-05-17T13:14:28.325;599616321246288952;6176.503;120
2024-05-17T13:14:28.333;599616321253980811;6184.1943;136
2024-05-17T13:14:28.340;599616321261672670;6191.886;143
2024-05-17T13:14:28.348;599616321269364529;6199.578;160
2024-05-17T13:14:28.356;599616321277056388;6207.27;155
2024-05-17T13:14:28.363;599616321284748247;6214.9614;80
2024-05-17T13:14:28.371;599616321292440106;6222.6533;-25
2024-05-17T13:14:28.379;599616321300131965;6230.3457;-80
2024-05-17T13:14:28.387;599616321307823824;6238.0376;-96
2024-05-17T13:14:28.394;599616321315515683;6245.7295;-113
2024-05-17T13:14:28.402;599616321323207542;6253.421;-115
2024-05-17T13:14:28.410;599616321330899401;6261.113;-103
2024-05-17T13:14:28.417;599616321338591260;6268.8047;-80
2024-05-17T13:14:28.425;599616321346283119;6276.497;-61
2024-05-17T13:14:28.433;599616321353974978;6284.1885;-37
2024-05-17T13:14:28.440;599616321361666837;6291.8804;0
2024-05-17T13:14:28.448;599616321369358696;6299.5723;4
2024-05-17T13:14:28.456;599616321377050555;6307.264;-16
2024-05-17T13:14:28.463;599616321384742414;6314.9556;14
2024-05-17T13:14:28.471;599616321392434273;6322.648;61
2024-05-17T13:14:28.479;599616321400126132;6330.34;65
2024-05-17T13:14:28.487;599616321407817991;6338.0317;51
2024-05-17T13:14:28.494;599616321415509850;6345.7236;56
2024-05-17T13:14:28.502;599616321423201709;6353.415;84
2024-05-17T13:14:28.510;599616321430893568;6361.107;113
2024-05-17T13:14:28.517;599616321438585427;6368.7993;136
2024-05-17T13:14:28.525;599616321446277286;6376.491;164
2024-05-17T13:14:28.533;599616321453969145;6384.1826;179
2024-05-17T13:14:28.540;599616321461661004;6391.8745;124
2024-05-17T13:14:28.548;599616321469352863;6399.5664;44
2024-05-17T13:14:28.556;599616321477044722;6407.2583;21
2024-05-17T13:14:28.563;599616321484736581;6414.95;18
2024-05-17T13:14:28.571;599616321492428440;6422.642;-2
2024-05-17T13:14:28.579;599616321500120299;6430.334;-35
2024-05-17T13:14:28.587;599616321507812158;6438.026;-87
2024-05-17T13:14:28.594;599616321515504017;6445.7173;-117
2024-05-17T13:14:28.602;599616321523195876;6453.409;9
2024-05-17T13:14:28.610;599616321530887735;6461.1016;414
2024-05-17T13:14:28.617;599616321538579594;6468.7935;899
2024-05-17T13:14:28.625;599616321546271453;6476.4854;914
2024-05-17T13:14:28.633;599616321553963312;6484.177;289
2024-05-17T13:14:28.640;599616321561655171;6491.8687;-242
2024-05-17T13:14:28.648;599616321569347030;6499.5605;-179
2024-05-17T13:14:28.656;599616321577038889;6507.2524;-49
2024-05-17T13:14:28.663;599616321584730748;6514.9443;-153
2024-05-17T13:14:28.671;599616321592422607;6522.636;-183
2024-05-17T13:14:28.679;599616321600114466;6530.328;-113
2024-05-17T13:14:28.687;599616321607806325;6538.02;-94
2024-05-17T13:14:28.694;599616321615498184;6545.7114;-91
2024-05-17T13:14:28.702;599616321623190043;6553.4033;-65
2024-05-17T13:14:28.710;599616321630881902;6561.0957;-35
2024-05-17T13:14:28.717;599616321638573761;6568.7876;0
2024-05-17T13:14:28.725;599616321646265620;6576.479;4
2024-05-17T13:14:28.733;599616321653957479;6584.171;-4
2024-05-17T13:14:28.740;599616321661649338;6591.863;37
2024-05-17T13:14:28.748;599616321669341197;6599.5547;82
2024-05-17T13:14:28.756;599616321677033056;6607.247;28
2024-05-17T13:14:28.763;599616321684724915;6614.9385;-32
2024-05-17T13:14:28.771;599616321692416774;6622.6304;4
2024-05-17T13:14:28.779;599616321700108633;6630.3223;35
2024-05-17T13:14:28.787;599616321707800492;6638.014;25
2024-05-17T13:14:28.794;599616321715492351;6645.7056;58
2024-05-17T13:14:28.802;599616321723184210;6653.398;103
2024-05-17T13:14:28.810;599616321730876069;6661.09;101
2024-05-17T13:14:28.817;599616321738567928;6668.7817;70
2024-05-17T13:14:28.825;599616321746259787;6676.473;75
2024-05-17T13:14:28.833;599616321753951646;6684.165;106
2024-05-17T13:14:28.840;599616321761643505;6691.857;113
2024-05-17T13:14:28.848;599616321769335364;6699.5493;110
2024-05-17T13:14:28.856;599616321777027223;6707.2407;124
2024-05-17T13:14:28.863;599616321784719082;6714.9326;124
2024-05-17T13:14:28.871;599616321792410941;6722.6245;98
2024-05-17T13:14:28.879;599616321800102800;6730.3164;75
2024-05-17T13:14:28.886;599616321807774632;6737.9883;63
2024-05-17T13:14:28.894;599616321815466770;6745.68;44
2024-05-17T13:14:28.902;599616321823158908;6753.3726;4
2024-05-17T13:14:28.910;599616321830851046;6761.0645;-23
2024-05-17T13:14:28.917;599616321838543184;6768.757;-18
2024-05-17T13:14:28.925;599616321846235322;6776.449;-9
2024-05-17T13:14:28.933;599616321853927460;6784.1406;-35
2024-05-17T13:14:28.940;599616321861619598;6791.833;-77
2024-05-17T13:14:28.948;599616321869311736;6799.5254;-82
2024-05-17T13:14:28.956;599616321877003874;6807.218;-75
2024-05-17T13:14:28.963;599616321884696012;6814.9097;-87
2024-05-17T13:14:28.971;599616321892388150;6822.6016;-75
2024-05-17T13:14:28.979;599616321900080288;6830.294;-28
2024-05-17T13:14:28.986;599616321907772426;6837.986;-4
2024-05-17T13:14:28.994;599616321915464564;6845.678;-23
2024-05-17T13:14:29.002;599616321923156702;6853.3706;-16
2024-05-17T13:14:29.010;599616321930848840;6861.0625;37
2024-05-17T13:14:29.017;599616321938540978;6868.7544;54
2024-05-17T13:14:29.025;599616321946233116;6876.447;49
2024-05-17T13:14:29.033;599616321953925254;6884.139;98
2024-05-17T13:14:29.040;599616321961617392;6891.8306;134
2024-05-17T13:14:29.048;599616321969309530;6899.523;103
2024-05-17T13:14:29.056;599616321977001668;6907.2153;54
2024-05-17T13:14:29.063;599616321984693806;6914.907;37
2024-05-17T13:14:29.071;599616321992385944;6922.5996;51
2024-05-17T13:14:29.079;599616322000078082;6930.2915;14
2024-05-17T13:14:29.086;599616322007770220;6937.984;-75
2024-05-17T13:14:29.094;599616322015462358;6945.676;-146
2024-05-17T13:14:29.102;599616322023154496;6953.368;-139
2024-05-17T13:14:29.110;599616322030846634;6961.0605;98
2024-05-17T13:14:29.117;599616322038538772;6968.752;586
2024-05-17T13:14:29.125;599616322046230910;6976.4443;914
2024-05-17T13:14:29.133;599616322053923048;6984.1367;638
2024-05-17T13:14:29.140;599616322061615186;6991.829;-16
2024-05-17T13:14:29.148;599616322069307324;6999.521;-320
2024-05-17T13:14:29.156;599616322076999462;7007.213;-150
2024-05-17T13:14:29.163;599616322084691600;7014.9053;-68
2024-05-17T13:14:29.171;599616322092383738;7022.597;-162
2024-05-17T13:14:29.179;599616322100075876;7030.2896;-150
2024-05-17T13:14:29.186;599616322107768014;7037.982;-94
2024-05-17T13:14:29.194;599616322115460152;7045.674;-94
2024-05-17T13:14:29.202;599616322123152290;7053.3657;-87
2024-05-17T13:14:29.210;599616322130844428;7061.058;-49
2024-05-17T13:14:29.217;599616322138536566;7068.7505;-16
2024-05-17T13:14:29.225;599616322146228704;7076.442;2
2024-05-17T13:14:29.233;599616322153920842;7084.1343;4
2024-05-17T13:14:29.240;599616322161612980;7091.8267;7
2024-05-17T13:14:29.248;599616322169305118;7099.5186;37
2024-05-17T13:14:29.256;599616322176997256;7107.211;21
2024-05-17T13:14:29.263;599616322184689394;7114.903;-54
2024-05-17T13:14:29.271;599616322192381532;7122.595;-54
2024-05-17T13:14:29.279;599616322200073670;7130.287;11
2024-05-17T13:14:29.286;599616322207765808;7137.9795;42
2024-05-17T13:14:29.294;599616322215457946;7145.672;49
2024-05-17T13:14:29.302;599616322223150084;7153.3633;80
2024-05-17T13:14:29.310;599616322230842222;7161.0557;124
2024-05-17T13:14:29.317;599616322238534360;7168.748;146
2024-05-17T13:14:29.325;599616322246226498;7176.4404;136
2024-05-17T13:14:29.333;599616322253918636;7184.1323;129
2024-05-17T13:14:29.340;599616322261610774;7191.824;155
2024-05-17T13:14:29.348;599616322269302912;7199.5166;181
2024-05-17T13:14:29.356;599616322276995050;7207.2085;169
2024-05-17T13:14:29.363;599616322284687188;7214.901;129
2024-05-17T13:14:29.371;599616322292379326;7222.5933;82
2024-05-17T13:14:29.379;599616322300071464;7230.2847;58
2024-05-17T13:14:29.386;599616322307763602;7237.977;77
2024-05-17T13:14:29.394;599616322315455740;7245.6694;122
2024-05-17T13:14:29.402;599616322323147878;7253.362;155
2024-05-17T13:14:29.410;599616322330840016;7261.053;134
2024-05-17T13:14:29.417;599616322338532154;7268.7456;70
2024-05-17T13:14:29.425;599616322346224292;7276.438;56
2024-05-17T13:14:29.433;599616322353916430;7284.13;108
2024-05-17T13:14:29.440;599616322361608568;7291.8223;131
2024-05-17T13:14:29.448;599616322369325802;7299.5396;117
2024-05-17T13:14:29.456;599616322377017592;7307.2314;120
2024-05-17T13:14:29.463;599616322384709382;7314.923;136
2024-05-17T13:14:29.471;599616322392401172;7322.6147;131
2024-05-17T13:14:29.479;599616322400092962;7330.3066;136
2024-05-17T13:14:29.486;599616322407784752;7337.9985;164
2024-05-17T13:14:29.494;599616322415476542;7345.69;179
2024-05-17T13:14:29.502;599616322423168332;7353.382;162
2024-05-17T13:14:29.510;599616322430860122;7361.0737;148
2024-05-17T13:14:29.517;599616322438551912;7368.7656;164
2024-05-17T13:14:29.525;599616322446243702;7376.457;179
2024-05-17T13:14:29.533;599616322453935492;7384.149;150
2024-05-17T13:14:29.540;599616322461627282;7391.841;103
2024-05-17T13:14:29.548;599616322469319072;7399.5327;108
2024-05-17T13:14:29.556;599616322477010862;7407.224;146
2024-05-17T13:14:29.563;599616322484702652;7414.916;141
2024-05-17T13:14:29.571;599616322492394442;7422.608;113
2024-05-17T13:14:29.579;599616322500086232;7430.3;96
2024-05-17T13:14:29.586;599616322507778022;7437.991;84
2024-05-17T13:14:29.594;599616322515469812;7445.683;18
2024-05-17T13:14:29.602;599616322523161602;7453.375;-113
2024-05-17T13:14:29.610;599616322530853392;7461.067;-98
2024-05-17T13:14:29.617;599616322538545182;7468.7583;254
2024-05-17T13:14:29.625;599616322546236972;7476.45;763
2024-05-17T13:14:29.633;599616322553928762;7484.1426;914
2024-05-17T13:14:29.640;599616322561620552;7491.8345;435
2024-05-17T13:14:29.648;599616322569312342;7499.5264;-174
2024-05-17T13:14:29.656;599616322577004132;7507.218;-259
2024-05-17T13:14:29.663;599616322584695922;7514.9097;-73
2024-05-17T13:14:29.671;599616322592387712;7522.6016;-96
2024-05-17T13:14:29.679;599616322600079502;7530.2935;-146
2024-05-17T13:14:29.686;599616322607771292;7537.985;-94
2024-05-17T13:14:29.694;599616322615463082;7545.677;-84
2024-05-17T13:14:29.702;599616322623154872;7553.3687;-84
2024-05-17T13:14:29.710;599616322630846662;7561.0605;-44
2024-05-17T13:14:29.717;599616322638538452;7568.752;-21
2024-05-17T13:14:29.725;599616322646230242;7576.444;4
2024-05-17T13:14:29.733;599616322653922032;7584.1357;49
2024-05-17T13:14:29.740;599616322661613822;7591.8276;61
2024-05-17T13:14:29.748;599616322669305612;7599.519;51
2024-05-17T13:14:29.756;599616322676997402;7607.211;44
2024-05-17T13:14:29.763;599616322684689192;7614.903;-4
2024-05-17T13:14:29.771;599616322692380982;7622.5947;-32
2024-05-17T13:14:29.779;599616322700072772;7630.286;11
2024-05-17T13:14:29.786;599616322707764562;7637.978;47
2024-05-17T13:14:29.794;599616322715456352;7645.67;68
2024-05-17T13:14:29.802;599616322723148142;7653.362;106
2024-05-17T13:14:29.810;599616322730839932;7661.053;122
2024-05-17T13:14:29.817;599616322738531722;7668.745;136
2024-05-17T13:14:29.825;599616322746223512;7676.437;162
2024-05-17T13:14:29.833;599616322753915302;7684.129;157
2024-05-17T13:14:29.840;599616322761607092;7691.8203;141
2024-05-17T13:14:29.848;599616322769298882;7699.512;164
2024-05-17T13:14:29.856;599616322776990672;7707.204;167
2024-05-17T13:14:29.863;599616322784682462;7714.896;113
2024-05-17T13:14:29.871;599616322792374252;7722.588;77
2024-05-17T13:14:29.879;599616322800066042;7730.2793;91
2024-05-17T13:14:29.886;599616322807757832;7737.971;115
2024-05-17T13:14:29.894;599616322815449622;7745.663;136
2024-05-17T13:14:29.902;599616322823141412;7753.355;155
2024-05-17T13:14:29.910;599616322830833202;7761.0464;193
2024-05-17T13:14:29.917;599616322838524992;7768.739;223
2024-05-17T13:14:29.925;599616322846216782;7776.4307;186
2024-05-17T13:14:29.933;599616322853908572;7784.1226;127
2024-05-17T13:14:29.940;599616322861600362;7791.814;134
2024-05-17T13:14:29.948;599616322869292152;7799.506;167
2024-05-17T13:14:29.956;599616322876983942;7807.1978;164
2024-05-17T13:14:29.963;599616322884675732;7814.8896;155
2024-05-17T13:14:29.971;599616322892367522;7822.581;164
2024-05-17T13:14:29.979;599616322900059312;7830.273;171
2024-05-17T13:14:29.986;599616322907751102;7837.965;167
2024-05-17T13:14:29.994;599616322915442892;7845.6567;171
2024-05-17T13:14:30.002;599616322923134682;7853.348;200
2024-05-17T13:14:30.010;599616322930826484;7861.04;214
2024-05-17T13:14:30.017;599616322938518274;7868.732;190
2024-05-17T13:14:30.025;599616322946210064;7876.424;186
2024-05-17T13:14:30.033;599616322953901854;7884.115;228
2024-05-17T13:14:30.040;599616322961593644;7891.807;266
2024-05-17T13:14:30.048;599616322969285434;7899.499;270
2024-05-17T13:14:30.056;599616322976977224;7907.191;273
2024-05-17T13:14:30.063;599616322984669014;7914.8823;270
2024-05-17T13:14:30.071;599616322992360804;7922.574;228
2024-05-17T13:14:30.079;599616323000052594;7930.266;169
2024-05-17T13:14:30.086;599616323007744384;7937.958;157
2024-05-17T13:14:30.094;599616323015436174;7945.65;136
2024-05-17T13:14:30.102;599616323023127964;7953.3413;11
2024-05-17T13:14:30.110;599616323030819754;7961.033;-113
2024-05-17T13:14:30.117;599616323038511544;7968.725;28
2024-05-17T13:14:30.125;599616323046203334;7976.417;525
2024-05-17T13:14:30.133;599616323053895124;7984.1084;961
2024-05-17T13:14:30.140;599616323061586914;7991.8003;808
2024-05-17T13:14:30.148;599616323069278704;7999.492;176
2024-05-17T13:14:30.156;599616323076970494;8007.184;-223
2024-05-17T13:14:30.163;599616323084662284;8014.8755;-150
2024-05-17T13:14:30.171;599616323092354074;8022.5674;-80
2024-05-17T13:14:30.179;599616323100045864;8030.2593;-146
2024-05-17T13:14:30.186;599616323107737654;8037.9517;-124
2024-05-17T13:14:30.194;599616323115429444;8045.643;-84
2024-05-17T13:14:30.202;599616323123121234;8053.335;-103
2024-05-17T13:14:30.210;599616323130813024;8061.027;-82
2024-05-17T13:14:30.217;599616323138504814;8068.7188;-28
2024-05-17T13:14:30.225;599616323146196604;8076.41;-14
2024-05-17T13:14:30.233;599616323153888394;8084.102;-4
2024-05-17T13:14:30.240;599616323161580184;8091.794;18
2024-05-17T13:14:30.248;599616323169271974;8099.486;28
2024-05-17T13:14:30.256;599616323176963764;8107.1772;32
2024-05-17T13:14:30.263;599616323184655554;8114.869;16
2024-05-17T13:14:30.271;599616323192347344;8122.561;-44
2024-05-17T13:14:30.279;599616323200039134;8130.253;-58
2024-05-17T13:14:30.286;599616323207730924;8137.9443;-16
2024-05-17T13:14:30.294;599616323215422714;8145.636;-2
2024-05-17T13:14:30.302;599616323223114504;8153.328;4
2024-05-17T13:14:30.310;599616323230806294;8161.02;47
2024-05-17T13:14:30.317;599616323238498084;8168.712;75
2024-05-17T13:14:30.325;599616323246189874;8176.4033;89
2024-05-17T13:14:30.333;599616323253881664;8184.095;115
2024-05-17T13:14:30.340;599616323261573454;8191.787;122
2024-05-17T13:14:30.348;599616323269265244;8199.479;94
2024-05-17T13:14:30.356;599616323276957034;8207.171;68
2024-05-17T13:14:30.363;599616323284648824;8214.862;82
2024-05-17T13:14:30.371;599616323292340614;8222.554;110
2024-05-17T13:14:30.379;599616323300032404;8230.246;113
2024-05-17T13:14:30.386;599616323307724194;8237.9375;108
2024-05-17T13:14:30.394;599616323315415984;8245.63;131
2024-05-17T13:14:30.402;599616323323107774;8253.321;162
2024-05-17T13:14:30.410;599616323330799564;8261.013;174
2024-05-17T13:14:30.417;599616323338491354;8268.705;200
2024-05-17T13:14:30.425;599616323346183144;8276.396;228
2024-05-17T13:14:30.433;599616323353874934;8284.088;214
2024-05-17T13:14:30.440;599616323361566724;8291.78;176
2024-05-17T13:14:30.448;599616323369258514;8299.472;157
2024-05-17T13:14:30.456;599616323376950304;8307.164;157
2024-05-17T13:14:30.463;599616323384642094;8314.855;157
2024-05-17T13:14:30.471;599616323392333884;8322.548;148
2024-05-17T13:14:30.479;599616323400025674;8330.239;143
2024-05-17T13:14:30.486;599616323407717464;8337.932;150
2024-05-17T13:14:30.494;599616323415409254;8345.623;148
2024-05-17T13:14:30.502;599616323423101044;8353.314;155
2024-05-17T13:14:30.510;599616323430792834;8361.007;174
2024-05-17T13:14:30.517;599616323438484624;8368.698;179
2024-05-17T13:14:30.525;599616323446176414;8376.391;167
2024-05-17T13:14:30.533;599616323453868204;8384.082;176
2024-05-17T13:14:30.540;599616323461559994;8391.773;212
2024-05-17T13:14:30.548;599616323469251784;8399.466;235
2024-05-17T13:14:30.556;599616323476943574;8407.157;235
2024-05-17T13:14:30.563;599616323484635364;8414.849;230
2024-05-17T13:14:30.571;599616323492327166;8422.541;235
2024-05-17T13:14:30.579;599616323500018956;8430.232;240
2024-05-17T13:14:30.586;599616323507710746;8437.925;242
2024-05-17T13:14:30.594;599616323515402536;8445.616;221
2024-05-17T13:14:30.602;599616323523094326;8453.308;131
2024-05-17T13:14:30.609;599616323530786116;8461.0;-7
2024-05-17T13:14:30.617;599616323538477906;8468.691;-37
2024-05-17T13:14:30.625;599616323546169696;8476.383;249
2024-05-17T13:14:30.633;599616323553861486;8484.075;760
2024-05-17T13:14:30.640;599616323561553276;8491.767;965
2024-05-17T13:14:30.648;599616323569245066;8499.459;482
2024-05-17T13:14:30.656;599616323576936856;8507.15;-197
2024-05-17T13:14:30.663;599616323584628646;8514.842;-358
2024-05-17T13:14:30.671;599616323592320436;8522.534;-214
2024-05-17T13:14:30.679;599616323600012226;8530.226;-254
2024-05-17T13:14:30.686;599616323607704016;8537.917;-310
2024-05-17T13:14:30.694;599616323615395806;8545.609;-245
2024-05-17T13:14:30.702;599616323623087596;8553.301;-228
2024-05-17T13:14:30.709;599616323630779386;8560.993;-252
2024-05-17T13:14:30.717;599616323638471176;8568.685;-230
2024-05-17T13:14:30.725;599616323646162966;8576.376;-197
2024-05-17T13:14:30.733;599616323653854756;8584.068;-174
2024-05-17T13:14:30.740;599616323661546546;8591.761;-150
2024-05-17T13:14:30.748;599616323669238336;8599.451;-131
2024-05-17T13:14:30.756;599616323676930126;8607.144;-101
2024-05-17T13:14:30.763;599616323684621916;8614.835;-77
2024-05-17T13:14:30.771;599616323692313706;8622.527;-108
2024-05-17T13:14:30.779;599616323700005496;8630.219;-150
2024-05-17T13:14:30.786;599616323707697286;8637.911;-131
2024-05-17T13:14:30.794;599616323715389076;8645.603;-101
2024-05-17T13:14:30.802;599616323723080866;8653.295;-89
2024-05-17T13:14:30.809;599616323730772656;8660.986;-58
2024-05-17T13:14:30.817;599616323738464446;8668.678;-23
2024-05-17T13:14:30.825;599616323746156236;8676.369;-11
2024-05-17T13:14:30.833;599616323753848026;8684.062;-2
2024-05-17T13:14:30.840;599616323761539816;8691.753;-18
2024-05-17T13:14:30.848;599616323769231606;8699.445;-77
2024-05-17T13:14:30.856;599616323776923396;8707.137;-98
2024-05-17T13:14:30.863;599616323784615186;8714.829;-51
2024-05-17T13:14:30.871;599616323792306976;8722.5205;-9
2024-05-17T13:14:30.879;599616323799998766;8730.212;4
2024-05-17T13:14:30.886;599616323807690556;8737.904;14
2024-05-17T13:14:30.894;599616323815382346;8745.596;35
2024-05-17T13:14:30.902;599616323823074136;8753.288;61
2024-05-17T13:14:30.909;599616323830765926;8760.9795;70
2024-05-17T13:14:30.917;599616323838457716;8768.672;73
2024-05-17T13:14:30.925;599616323846149506;8776.363;110
2024-05-17T13:14:30.933;599616323853841296;8784.056;155
2024-05-17T13:14:30.940;599616323861533086;8791.746;160
2024-05-17T13:14:30.948;599616323869224876;8799.438;148
2024-05-17T13:14:30.956;599616323876916666;8807.13;139
2024-05-17T13:14:30.963;599616323884608456;8814.822;110
2024-05-17T13:14:30.971;599616323892300246;8822.514;98
2024-05-17T13:14:30.979;599616323899992036;8830.206;103
2024-05-17T13:14:30.986;599616323907683826;8837.897;77
2024-05-17T13:14:30.994;599616323915375616;8845.59;68
2024-05-17T13:14:31.002;599616323923067406;8853.281;89
2024-05-17T13:14:31.009;599616323930759196;8860.973;89
2024-05-17T13:14:31.017;599616323938450986;8868.664;91
2024-05-17T13:14:31.025;599616323946142776;8876.356;117
2024-05-17T13:14:31.033;599616323953834566;8884.048;108
2024-05-17T13:14:31.040;599616323961526356;8891.74;84
2024-05-17T13:14:31.048;599616323969218146;8899.432;113
2024-05-17T13:14:31.056;599616323976909936;8907.124;167
2024-05-17T13:14:31.063;599616323984601726;8914.815;174
2024-05-17T13:14:31.071;599616323992293516;8922.507;167
2024-05-17T13:14:31.079;599616323999985306;8930.198;179
2024-05-17T13:14:31.086;599616324007677096;8937.891;160
2024-05-17T13:14:31.094;599616324015368886;8945.582;96
2024-05-17T13:14:31.102;599616324023060676;8953.274;70
2024-05-17T13:14:31.109;599616324030752466;8960.966;98
2024-05-17T13:14:31.117;599616324038444256;8968.658;54
2024-05-17T13:14:31.125;599616324046136046;8976.35;-56
2024-05-17T13:14:31.133;599616324053797752;8984.012;58
2024-05-17T13:14:31.140;599616324061489960;8991.703;551
2024-05-17T13:14:31.148;599616324069182168;8999.3955;1020
2024-05-17T13:14:31.156;599616324076874376;9007.088;937
2024-05-17T13:14:31.163;599616324084566584;9014.78;301
2024-05-17T13:14:31.171;599616324092258792;9022.473;-221
2024-05-17T13:14:31.179;599616324099951000;9030.164;-216
2024-05-17T13:14:31.186;599616324107643208;9037.856;-179
2024-05-17T13:14:31.194;599616324115335416;9045.549;-306
2024-05-17T13:14:31.202;599616324123027624;9053.241;-278
2024-05-17T13:14:31.209;599616324130719832;9060.934;-212
2024-05-17T13:14:31.217;599616324138412040;9068.626;-263
2024-05-17T13:14:31.225;599616324146104248;9076.318;-252
2024-05-17T13:14:31.233;599616324153796456;9084.011;-157
2024-05-17T13:14:31.240;599616324161488664;9091.702;-129
2024-05-17T13:14:31.248;599616324169180872;9099.395;-143
2024-05-17T13:14:31.256;599616324176873080;9107.086;-103
2024-05-17T13:14:31.263;599616324184565288;9114.778;-84
2024-05-17T13:14:31.271;599616324192257496;9122.471;-150
2024-05-17T13:14:31.279;599616324199949704;9130.163;-195
2024-05-17T13:14:31.286;599616324207641912;9137.855;-136
2024-05-17T13:14:31.294;599616324215334120;9145.548;-73
2024-05-17T13:14:31.302;599616324223026328;9153.24;-63
2024-05-17T13:14:31.309;599616324230718536;9160.933;-63
2024-05-17T13:14:31.317;599616324238410744;9168.625;-30
2024-05-17T13:14:31.325;599616324246102952;9176.317;4
2024-05-17T13:14:31.333;599616324253795160;9184.009;7
2024-05-17T13:14:31.340;599616324261487368;9191.7;-16
2024-05-17T13:14:31.348;599616324269179576;9199.393;-25
2024-05-17T13:14:31.356;599616324276871784;9207.085;-18
2024-05-17T13:14:31.363;599616324284563992;9214.777;-11
2024-05-17T13:14:31.371;599616324292256200;9222.47;2
2024-05-17T13:14:31.379;599616324299948408;9230.162;47
2024-05-17T13:14:31.386;599616324307640616;9237.8545;94
2024-05-17T13:14:31.394;599616324315332824;9245.547;101
2024-05-17T13:14:31.402;599616324323025032;9253.239;87
2024-05-17T13:14:31.409;599616324330717240;9260.931;106
2024-05-17T13:14:31.417;599616324338409448;9268.623;148
2024-05-17T13:14:31.425;599616324346101656;9276.315;171
2024-05-17T13:14:31.433;599616324353793864;9284.008;188
2024-05-17T13:14:31.440;599616324361486072;9291.699;219
2024-05-17T13:14:31.448;599616324369178280;9299.392;223
2024-05-17T13:14:31.456;599616324376870488;9307.084;209
2024-05-17T13:14:31.463;599616324384562696;9314.776;216
2024-05-17T13:14:31.471;599616324392254904;9322.469;233
2024-05-17T13:14:31.479;599616324399947112;9330.16;212
2024-05-17T13:14:31.486;599616324407639320;9337.853;169
2024-05-17T13:14:31.494;599616324415331528;9345.545;157
2024-05-17T13:14:31.502;599616324423023736;9353.237;171
2024-05-17T13:14:31.509;599616324430715944;9360.93;181
2024-05-17T13:14:31.517;599616324438408152;9368.622;179
2024-05-17T13:14:31.525;599616324446100360;9376.314;183
2024-05-17T13:14:31.533;599616324453792568;9384.007;193
2024-05-17T13:14:31.540;599616324461484776;9391.698;171
2024-05-17T13:14:31.548;599616324469176984;9399.391;162
2024-05-17T13:14:31.556;599616324476869192;9407.082;200
2024-05-17T13:14:31.563;599616324484561400;9414.774;235
2024-05-17T13:14:31.571;599616324492253608;9422.467;259
2024-05-17T13:14:31.579;599616324499945816;9430.159;273
2024-05-17T13:14:31.586;599616324507638024;9437.852;230
2024-05-17T13:14:31.594;599616324515330232;9445.544;190
2024-05-17T13:14:31.602;599616324523022440;9453.236;212
2024-05-17T13:14:31.609;599616324530714648;9460.929;237
2024-05-17T13:14:31.617;599616324538406856;9468.621;252
2024-05-17T13:14:31.625;599616324546099064;9476.313;263
2024-05-17T13:14:31.633;599616324553791272;9484.004;219
2024-05-17T13:14:31.640;599616324561483480;9491.696;113
2024-05-17T13:14:31.648;599616324569175688;9499.389;139
2024-05-17T13:14:31.656;599616324576867896;9507.081;482
2024-05-17T13:14:31.663;599616324584560104;9514.773;968
2024-05-17T13:14:31.671;599616324592252312;9522.466;1121
2024-05-17T13:14:31.679;599616324599944520;9530.158;659
2024-05-17T13:14:31.686;599616324607636728;9537.851;18
2024-05-17T13:14:31.694;599616324615359046;9545.572;-106
2024-05-17T13:14:31.702;599616324623050836;9553.265;75
2024-05-17T13:14:31.709;599616324630742626;9560.956;25
2024-05-17T13:14:31.717;599616324638434416;9568.648;-84
2024-05-17T13:14:31.725;599616324646126206;9576.34;-94
2024-05-17T13:14:31.733;599616324653817996;9584.032;-124
2024-05-17T13:14:31.740;599616324661509786;9591.723;-120
2024-05-17T13:14:31.748;599616324669201576;9599.415;-61
2024-05-17T13:14:31.756;599616324676893366;9607.106;-42
2024-05-17T13:14:31.763;599616324684585156;9614.799;-54
2024-05-17T13:14:31.771;599616324692276946;9622.49;-75
2024-05-17T13:14:31.779;599616324699968736;9630.183;-139
2024-05-17T13:14:31.786;599616324707660526;9637.874;-181
2024-05-17T13:14:31.794;599616324715352316;9645.566;-134
2024-05-17T13:14:31.802;599616324723044106;9653.257;-68
2024-05-17T13:14:31.809;599616324730735896;9660.949;-51
2024-05-17T13:14:31.817;599616324738427686;9668.641;-47
2024-05-17T13:14:31.825;599616324746119476;9676.333;-44
2024-05-17T13:14:31.833;599616324753811266;9684.025;-49
2024-05-17T13:14:31.840;599616324761503056;9691.717;-49
2024-05-17T13:14:31.848;599616324769194846;9699.409;-21
2024-05-17T13:14:31.856;599616324776886636;9707.101;16
2024-05-17T13:14:31.863;599616324784578426;9714.792;28
2024-05-17T13:14:31.871;599616324792270216;9722.483;28
2024-05-17T13:14:31.879;599616324799962006;9730.176;42
2024-05-17T13:14:31.886;599616324807653796;9737.867;68
2024-05-17T13:14:31.894;599616324815345586;9745.56;91
2024-05-17T13:14:31.902;599616324823037376;9753.251;98
2024-05-17T13:14:31.909;599616324830729166;9760.943;84
2024-05-17T13:14:31.917;599616324838420956;9768.635;94
2024-05-17T13:14:31.925;599616324846112746;9776.326;136
2024-05-17T13:14:31.933;599616324853804536;9784.018;160
2024-05-17T13:14:31.940;599616324861496326;9791.71;171
2024-05-17T13:14:31.948;599616324869188116;9799.401;195
2024-05-17T13:14:31.956;599616324876879906;9807.094;202
2024-05-17T13:14:31.963;599616324884571696;9814.785;195
2024-05-17T13:14:31.971;599616324892263486;9822.478;223
2024-05-17T13:14:31.979;599616324899955276;9830.169;256
2024-05-17T13:14:31.986;599616324907647066;9837.861;240
2024-05-17T13:14:31.994;599616324915338856;9845.552;193
2024-05-17T13:14:32.002;599616324923030646;9853.244;171
2024-05-17T13:14:32.009;599616324930722436;9860.936;181
2024-05-17T13:14:32.017;599616324938414226;9868.628;195
2024-05-17T13:14:32.025;599616324946106016;9876.319;186
2024-05-17T13:14:32.033;599616324953797806;9884.012;179
2024-05-17T13:14:32.040;599616324961489596;9891.703;197
2024-05-17T13:14:32.048;599616324969181386;9899.3955;188
2024-05-17T13:14:32.056;599616324976873176;9907.086;153
2024-05-17T13:14:32.063;599616324984564966;9914.778;160
2024-05-17T13:14:32.071;599616324992256756;9922.47;179
2024-05-17T13:14:32.079;599616324999948546;9930.162;139
2024-05-17T13:14:32.086;599616325007640336;9937.854;101
2024-05-17T13:14:32.094;599616325015332126;9945.546;120
2024-05-17T13:14:32.102;599616325023023916;9953.237;139
2024-05-17T13:14:32.109;599616325030715706;9960.93;131
2024-05-17T13:14:32.117;599616325038407496;9968.621;131
2024-05-17T13:14:32.125;599616325046099286;9976.3125;160
2024-05-17T13:14:32.133;599616325053791076;9984.005;188
2024-05-17T13:14:32.140;599616325061482866;9991.696;171
2024-05-17T13:14:32.148;599616325069174656;9999.389;110
2024-05-17T13:14:32.156;599616325076866446;10007.08;30
2024-05-17T13:14:32.163;599616325084558236;10014.772;47
2024-05-17T13:14:32.171;599616325092250026;10022.464;332
2024-05-17T13:14:32.179;599616325099941816;10030.156;822
2024-05-17T13:14:32.186;599616325107633606;10037.847;1057
2024-05-17T13:14:32.194;599616325115325396;10045.539;643
2024-05-17T13:14:32.202;599616325123017186;10053.23;-44
2024-05-17T13:14:32.209;599616325130708976;10060.923;-216
2024-05-17T13:14:32.217;599616325138400766;10068.614;0
2024-05-17T13:14:32.225;599616325146092556;10076.307;-11
2024-05-17T13:14:32.232;599616325153784346;10083.998;-134
2024-05-17T13:14:32.240;599616325161476136;10091.69;-101
2024-05-17T13:14:32.248;599616325169167926;10099.381;-42
2024-05-17T13:14:32.256;599616325176859730;10107.073;-28
2024-05-17T13:14:32.263;599616325184551520;10114.765;-9
2024-05-17T13:14:32.271;599616325192243310;10122.457;-2
2024-05-17T13:14:32.279;599616325199935100;10130.148;-61
2024-05-17T13:14:32.286;599616325207626890;10137.841;-162
2024-05-17T13:14:32.294;599616325215318680;10145.532;-228
2024-05-17T13:14:32.302;599616325223010470;10153.225;-230
2024-05-17T13:14:32.309;599616325230702260;10160.915;-186
2024-05-17T13:14:32.317;599616325238394050;10168.607;-157
2024-05-17T13:14:32.325;599616325246085840;10176.299;-183
2024-05-17T13:14:32.332;599616325253777630;10183.991;-167
2024-05-17T13:14:32.340;599616325261469420;10191.683;-89
2024-05-17T13:14:32.348;599616325269161210;10199.375;-47
2024-05-17T13:14:32.356;599616325276853000;10207.066;-30
2024-05-17T13:14:32.363;599616325284544790;10214.759;2
2024-05-17T13:14:32.371;599616325292236580;10222.449;25
2024-05-17T13:14:32.379;599616325299928370;10230.142;40
2024-05-17T13:14:32.386;599616325307620160;10237.834;56
2024-05-17T13:14:32.394;599616325315311950;10245.525;77
2024-05-17T13:14:32.402;599616325323003740;10253.218;101
2024-05-17T13:14:32.409;599616325330695530;10260.909;101
2024-05-17T13:14:32.417;599616325338387320;10268.602;87
2024-05-17T13:14:32.425;599616325346079110;10276.293;96
2024-05-17T13:14:32.432;599616325353770900;10283.985;129
2024-05-17T13:14:32.440;599616325361462690;10291.676;157
2024-05-17T13:14:32.448;599616325369154480;10299.368;179
2024-05-17T13:14:32.456;599616325376846270;10307.06;193
2024-05-17T13:14:32.463;599616325384538060;10314.752;195
2024-05-17T13:14:32.471;599616325392229850;10322.443;197
2024-05-17T13:14:32.479;599616325399921640;10330.136;216
2024-05-17T13:14:32.486;599616325407613430;10337.827;228
2024-05-17T13:14:32.494;599616325415305220;10345.52;202
2024-05-17T13:14:32.502;599616325422997010;10353.21;174
2024-05-17T13:14:32.509;599616325430688800;10360.902;167
2024-05-17T13:14:32.517;599616325438380590;10368.594;167
2024-05-17T13:14:32.525;599616325446072380;10376.286;183
2024-05-17T13:14:32.532;599616325453764170;10383.978;195
2024-05-17T13:14:32.540;599616325461455960;10391.67;200
2024-05-17T13:14:32.548;599616325469147750;10399.361;212
2024-05-17T13:14:32.556;599616325476839540;10407.054;214
2024-05-17T13:14:32.563;599616325484531330;10414.744;193
2024-05-17T13:14:32.571;599616325492223120;10422.437;153
2024-05-17T13:14:32.579;599616325499914910;10430.128;141
2024-05-17T13:14:32.586;599616325507606700;10437.82;179
2024-05-17T13:14:32.594;599616325515298490;10445.512;188
2024-05-17T13:14:32.602;599616325522990280;10453.204;160
2024-05-17T13:14:32.609;599616325530682070;10460.8955;186
2024-05-17T13:14:32.617;599616325538373860;10468.588;240
2024-05-17T13:14:32.625;599616325546065650;10476.278;247
2024-05-17T13:14:32.632;599616325553757440;10483.971;252
2024-05-17T13:14:32.640;599616325561449230;10491.662;275
2024-05-17T13:14:32.648;599616325569141020;10499.3545;270
2024-05-17T13:14:32.656;599616325576832810;10507.046;216
2024-05-17T13:14:32.663;599616325584524600;10514.738;174
2024-05-17T13:14:32.671;599616325592216390;10522.431;155
2024-05-17T13:14:32.679;599616325599908180;10530.122;65
2024-05-17T13:14:32.686;599616325607599970;10537.814;14
2024-05-17T13:14:32.694;599616325615291760;10545.505;275
2024-05-17T13:14:32.702;599616325622983550;10553.197;812
2024-05-17T13:14:32.709;599616325630675340;10560.889;1130
2024-05-17T13:14:32.717;599616325638367130;10568.581;791
2024-05-17T13:14:32.725;599616325646058920;10576.272;136
2024-05-17T13:14:32.732;599616325653750710;10583.965;-82
2024-05-17T13:14:32.740;599616325661442500;10591.656;54
2024-05-17T13:14:32.748;599616325669134290;10599.349;14
2024-05-17T13:14:32.756;599616325676826080;10607.039;-61
2024-05-17T13:14:32.763;599616325684517870;10614.731;21
2024-05-17T13:14:32.771;599616325692209660;10622.423;54
2024-05-17T13:14:32.779;599616325699901450;10630.115;2
2024-05-17T13:14:32.786;599616325707593240;10637.807;-56
2024-05-17T13:14:32.794;599616325715285030;10645.499;-110
2024-05-17T13:14:32.802;599616325722976820;10653.19;-115
2024-05-17T13:14:32.809;599616325730668610;10660.883;-103
2024-05-17T13:14:32.817;599616325738345364;10668.56;-129
2024-05-17T13:14:32.825;599616325746037363;10676.251;-131
2024-05-17T13:14:32.832;599616325753729362;10683.943;-110
2024-05-17T13:14:32.840;599616325761421361;10691.635;-91
2024-05-17T13:14:32.848;599616325769113360;10699.326;-42
2024-05-17T13:14:32.856;599616325776805359;10707.019;14
2024-05-17T13:14:32.863;599616325784497358;10714.711;37
2024-05-17T13:14:32.871;599616325792189357;10722.403;49
2024-05-17T13:14:32.879;599616325799881356;10730.095;70
2024-05-17T13:14:32.886;599616325807573355;10737.787;75
2024-05-17T13:14:32.894;599616325815265354;10745.4795;32
2024-05-17T13:14:32.902;599616325822957353;10753.171;-11
2024-05-17T13:14:32.909;599616325830649352;10760.862;11
2024-05-17T13:14:32.917;599616325838341351;10768.555;49
2024-05-17T13:14:32.925;599616325846033350;10776.247;32
2024-05-17T13:14:32.932;599616325853725349;10783.938;32
2024-05-17T13:14:32.940;599616325861417348;10791.631;82
2024-05-17T13:14:32.948;599616325869109347;10799.323;115
2024-05-17T13:14:32.956;599616325876801346;10807.016;122
2024-05-17T13:14:32.963;599616325884493345;10814.707;141
2024-05-17T13:14:32.971;599616325892185344;10822.399;160
2024-05-17T13:14:32.979;599616325899877343;10830.091;174
2024-05-17T13:14:32.986;599616325907569342;10837.782;188
2024-05-17T13:14:32.994;599616325915261341;10845.475;186
2024-05-17T13:14:33.002;599616325922953340;10853.167;174
2024-05-17T13:14:33.009;599616325930645339;10860.859;167
2024-05-17T13:14:33.017;599616325938337338;10868.551;150
2024-05-17T13:14:33.025;599616325946029337;10876.243;146
2024-05-17T13:14:33.032;599616325953721336;10883.936;176
2024-05-17T13:14:33.040;599616325961413335;10891.627;195
2024-05-17T13:14:33.048;599616325969105334;10899.318;190
2024-05-17T13:14:33.056;599616325976797333;10907.011;176
2024-05-17T13:14:33.063;599616325984489332;10914.703;127
2024-05-17T13:14:33.071;599616325992181331;10922.395;84
2024-05-17T13:14:33.079;599616325999873330;10930.087;106
2024-05-17T13:14:33.086;599616326007565329;10937.779;148
2024-05-17T13:14:33.094;599616326015257328;10945.471;167
2024-05-17T13:14:33.102;599616326022949327;10953.163;160
2024-05-17T13:14:33.109;599616326030641326;10960.855;136
2024-05-17T13:14:33.117;599616326038333325;10968.547;146
2024-05-17T13:14:33.125;599616326046025324;10976.238;183
2024-05-17T13:14:33.132;599616326053717323;10983.931;202
2024-05-17T13:14:33.140;599616326061409322;10991.623;214
2024-05-17T13:14:33.148;599616326069101321;10999.314;235
2024-05-17T13:14:33.156;599616326076793320;11007.007;223
2024-05-17T13:14:33.163;599616326084485319;11014.699;174
2024-05-17T13:14:33.171;599616326092177318;11022.392;155
2024-05-17T13:14:33.179;599616326099869317;11030.083;150
2024-05-17T13:14:33.186;599616326107561316;11037.774;103
2024-05-17T13:14:33.194;599616326115253315;11045.467;40
2024-05-17T13:14:33.202;599616326122945314;11053.158;-18
2024-05-17T13:14:33.209;599616326130637313;11060.851;-32
2024-05-17T13:14:33.217;599616326138329312;11068.543;193
2024-05-17T13:14:33.225;599616326146021311;11076.235;706
2024-05-17T13:14:33.232;599616326153713310;11083.927;1116
2024-05-17T13:14:33.240;599616326161405309;11091.619;925
2024-05-17T13:14:33.248;599616326169097308;11099.312;263
2024-05-17T13:14:33.256;599616326176789307;11107.003;-91
2024-05-17T13:14:33.263;599616326184481306;11114.694;54
2024-05-17T13:14:33.271;599616326192173305;11122.387;110
2024-05-17T13:14:33.279;599616326199865304;11130.079;2
2024-05-17T13:14:33.286;599616326207557303;11137.7705;2
2024-05-17T13:14:33.294;599616326215249302;11145.463;-35
2024-05-17T13:14:33.302;599616326222941301;11153.155;-155
2024-05-17T13:14:33.309;599616326230633300;11160.848;-188
2024-05-17T13:14:33.317;599616326238325299;11168.539;-157
2024-05-17T13:14:33.325;599616326246017298;11176.23;-120
2024-05-17T13:14:33.332;599616326253709297;11183.923;-73
2024-05-17T13:14:33.340;599616326261401296;11191.614;-58
2024-05-17T13:14:33.348;599616326269093295;11199.307;-68
2024-05-17T13:14:33.355;599616326276785294;11206.999;-25
2024-05-17T13:14:33.363;599616326284477293;11214.691;47
2024-05-17T13:14:33.371;599616326292169292;11222.383;73
2024-05-17T13:14:33.379;599616326299871384;11230.085;75
2024-05-17T13:14:33.386;599616326307563243;11237.776;106
2024-05-17T13:14:33.394;599616326315255102;11245.469;150
2024-05-17T13:14:33.402;599616326322946961;11253.161;179
2024-05-17T13:14:33.409;599616326330638820;11260.853;188
2024-05-17T13:14:33.417;599616326338330679;11268.545;212
2024-05-17T13:14:33.425;599616326346022538;11276.235;228
2024-05-17T13:14:33.432;599616326353714397;11283.928;157
2024-05-17T13:14:33.440;599616326361406256;11291.619;73
2024-05-17T13:14:33.448;599616326369098115;11299.312;103
2024-05-17T13:14:33.456;599616326376789974;11307.004;160
2024-05-17T13:14:33.463;599616326384481833;11314.695;150
2024-05-17T13:14:33.471;599616326392173692;11322.388;153
2024-05-17T13:14:33.479;599616326399865551;11330.079;181
2024-05-17T13:14:33.486;599616326407557410;11337.771;190
2024-05-17T13:14:33.494;599616326415249269;11345.463;188
2024-05-17T13:14:33.502;599616326422941128;11353.154;171
2024-05-17T13:14:33.509;599616326430632987;11360.847;160
2024-05-17T13:14:33.517;599616326438324846;11368.538;164
2024-05-17T13:14:33.525;599616326446016705;11376.23;150
2024-05-17T13:14:33.532;599616326453708564;11383.922;139
2024-05-17T13:14:33.540;599616326461400423;11391.614;171
2024-05-17T13:14:33.548;599616326469092282;11399.307;188
2024-05-17T13:14:33.555;599616326476784141;11406.997;148
2024-05-17T13:14:33.563;599616326484476000;11414.689;124
2024-05-17T13:14:33.571;599616326492167859;11422.381;139
2024-05-17T13:14:33.579;599616326499859718;11430.073;148
2024-05-17T13:14:33.586;599616326507551577;11437.766;155
2024-05-17T13:14:33.594;599616326515243436;11445.457;181
2024-05-17T13:14:33.602;599616326522935295;11453.149;214
2024-05-17T13:14:33.609;599616326530627154;11460.841;212
2024-05-17T13:14:33.617;599616326538319013;11468.533;181
2024-05-17T13:14:33.625;599616326546010872;11476.224;183
2024-05-17T13:14:33.632;599616326553702731;11483.916;223
2024-05-17T13:14:33.640;599616326561394590;11491.608;247
2024-05-17T13:14:33.648;599616326569086449;11499.3;247
2024-05-17T13:14:33.655;599616326576778308;11506.992;261
2024-05-17T13:14:33.663;599616326584470167;11514.684;247
2024-05-17T13:14:33.671;599616326592162026;11522.376;193
2024-05-17T13:14:33.679;599616326599853885;11530.068;155
2024-05-17T13:14:33.686;599616326607545744;11537.759;136
2024-05-17T13:14:33.694;599616326615237603;11545.451;113
2024-05-17T13:14:33.702;599616326622929462;11553.143;94
2024-05-17T13:14:33.709;599616326630621321;11560.835;63
2024-05-17T13:14:33.717;599616326638313180;11568.526;42
2024-05-17T13:14:33.725;599616326646005039;11576.219;30
2024-05-17T13:14:33.732;599616326653696898;11583.911;0
2024-05-17T13:14:33.740;599616326661388757;11591.603;131
2024-05-17T13:14:33.748;599616326669080616;11599.295;607
2024-05-17T13:14:33.755;599616326676772475;11606.985;1093
2024-05-17T13:14:33.763;599616326684464334;11614.678;998
2024-05-17T13:14:33.771;599616326692156193;11622.369;365
2024-05-17T13:14:33.779;599616326699848052;11630.062;-47
2024-05-17T13:14:33.786;599616326707539911;11637.754;65
2024-05-17T13:14:33.794;599616326715231770;11645.445;89
2024-05-17T13:14:33.802;599616326722923629;11653.138;-153
2024-05-17T13:14:33.809;599616326730615488;11660.829;-190
2024-05-17T13:14:33.817;599616326738307347;11668.5205;-70
2024-05-17T13:14:33.825;599616326745999206;11676.213;-80
2024-05-17T13:14:33.832;599616326753691065;11683.904;-96
2024-05-17T13:14:33.840;599616326761382924;11691.597;-32
2024-05-17T13:14:33.848;599616326769074783;11699.288;-7
2024-05-17T13:14:33.855;599616326776766642;11706.98;-16
2024-05-17T13:14:33.863;599616326784458501;11714.672;18
2024-05-17T13:14:33.871;599616326792150360;11722.364;77
2024-05-17T13:14:33.879;599616326799842219;11730.057;110
2024-05-17T13:14:33.886;599616326807534078;11737.747;108
2024-05-17T13:14:33.894;599616326815225937;11745.439;117
2024-05-17T13:14:33.902;599616326822917796;11753.131;167
2024-05-17T13:14:33.909;599616326830609655;11760.823;197
2024-05-17T13:14:33.917;599616326838301514;11768.516;195
2024-05-17T13:14:33.925;599616326845993373;11776.207;219
2024-05-17T13:14:33.932;599616326853685232;11783.899;259
2024-05-17T13:14:33.940;599616326861377152;11791.591;252
2024-05-17T13:14:33.948;599616326869069011;11799.282;233
2024-05-17T13:14:33.955;599616326876760870;11806.974;259
2024-05-17T13:14:33.963;599616326884452729;11814.666;289
2024-05-17T13:14:33.971;599616326892144588;11822.358;289
2024-05-17T13:14:33.979;599616326899836447;11830.05;270
2024-05-17T13:14:33.986;599616326907528306;11837.742;256
2024-05-17T13:14:33.994;599616326915220165;11845.434;261
2024-05-17T13:14:34.002;599616326922912024;11853.126;219
2024-05-17T13:14:34.009;599616326930603883;11860.818;117
2024-05-17T13:14:34.017;599616326938295742;11868.509;89
2024-05-17T13:14:34.025;599616326945987601;11876.201;122
2024-05-17T13:14:34.032;599616326953679460;11883.893;98
2024-05-17T13:14:34.040;599616326961371319;11891.585;58
2024-05-17T13:14:34.048;599616326969063178;11899.276;44
2024-05-17T13:14:34.055;599616326976755037;11906.969;32
2024-05-17T13:14:34.063;599616326984446896;11914.661;40
2024-05-17T13:14:34.071;599616326992138755;11922.353;51
2024-05-17T13:14:34.079;599616326999830614;11930.044;47
2024-05-17T13:14:34.086;599616327007522473;11937.735;56
2024-05-17T13:14:34.094;599616327015214332;11945.428;80
2024-05-17T13:14:34.102;599616327022906191;11953.12;84
2024-05-17T13:14:34.109;599616327030598050;11960.812;94
2024-05-17T13:14:34.117;599616327038289909;11968.504;103
2024-05-17T13:14:34.125;599616327045981768;11976.195;89
2024-05-17T13:14:34.132;599616327053673627;11983.888;96
2024-05-17T13:14:34.140;599616327061365486;11991.579;141
2024-05-17T13:14:34.148;599616327069057345;11999.2705;157
2024-05-17T13:14:34.155;599616327076749204;12006.963;141
2024-05-17T13:14:34.163;599616327084441063;12014.654;129
2024-05-17T13:14:34.171;599616327092132922;12022.347;103
2024-05-17T13:14:34.179;599616327099824781;12030.038;73
2024-05-17T13:14:34.186;599616327107516640;12037.73;49
2024-05-17T13:14:34.194;599616327115208499;12045.423;25
2024-05-17T13:14:34.202;599616327122900358;12053.114;21
2024-05-17T13:14:34.209;599616327130592217;12060.806;16
2024-05-17T13:14:34.217;599616327138284076;12068.497;-21
2024-05-17T13:14:34.225;599616327145975935;12076.189;-21
2024-05-17T13:14:34.232;599616327153667794;12083.881;16
2024-05-17T13:14:34.240;599616327161359653;12091.573;9
2024-05-17T13:14:34.248;599616327169051512;12099.266;-40
2024-05-17T13:14:34.255;599616327176743371;12106.957;-73
2024-05-17T13:14:34.263;599616327184435230;12114.649;4
2024-05-17T13:14:34.271;599616327192127089;12122.341;367
2024-05-17T13:14:34.279;599616327199818948;12130.032;892
2024-05-17T13:14:34.286;599616327207510807;12137.724;1020
2024-05-17T13:14:34.294;599616327215202666;12145.416;428
2024-05-17T13:14:34.302;599616327222894525;12153.108;-292
2024-05-17T13:14:34.309;599616327230586384;12160.8;-398
2024-05-17T13:14:34.317;599616327238278243;12168.492;-197
2024-05-17T13:14:34.325;599616327245970102;12176.184;-235
2024-05-17T13:14:34.332;599616327253661961;12183.876;-285
2024-05-17T13:14:34.340;599616327261353820;12191.568;-200
2024-05-17T13:14:34.348;599616327269045679;12199.259;-167
2024-05-17T13:14:34.355;599616327276737538;12206.951;-181
2024-05-17T13:14:34.363;599616327284429397;12214.643;-150
2024-05-17T13:14:34.371;599616327292121256;12222.335;-101
2024-05-17T13:14:34.379;599616327299813115;12230.026;-56
2024-05-17T13:14:34.386;599616327307504974;12237.719;-16
2024-05-17T13:14:34.394;599616327315196833;12245.411;-9
2024-05-17T13:14:34.402;599616327322888692;12253.103;-16
2024-05-17T13:14:34.409;599616327330580551;12260.794;23
2024-05-17T13:14:34.417;599616327338272410;12268.485;82
2024-05-17T13:14:34.425;599616327345964269;12276.178;98
2024-05-17T13:14:34.432;599616327353656128;12283.87;113
2024-05-17T13:14:34.440;599616327361347987;12291.562;157
2024-05-17T13:14:34.448;599616327369039846;12299.254;174
2024-05-17T13:14:34.455;599616327376731705;12306.945;164
2024-05-17T13:14:34.463;599616327384423564;12314.638;190
2024-05-17T13:14:34.471;599616327392115423;12322.328;233
2024-05-17T13:14:34.479;599616327399807282;12330.0205;242
2024-05-17T13:14:34.486;599616327407499141;12337.713;230
2024-05-17T13:14:34.494;599616327415191000;12345.404;221
2024-05-17T13:14:34.502;599616327422882920;12353.097;223
2024-05-17T13:14:34.509;599616327430574779;12360.788;214
2024-05-17T13:14:34.517;599616327438266638;12368.48;169
2024-05-17T13:14:34.525;599616327445958497;12376.173;134
2024-05-17T13:14:34.532;599616327453650356;12383.864;120
2024-05-17T13:14:34.540;599616327461342215;12391.556;21
2024-05-17T13:14:34.548;599616327469034074;12399.247;-110
2024-05-17T13:14:34.555;599616327476725933;12406.939;-103
2024-05-17T13:14:34.563;599616327484417792;12414.631;-40
2024-05-17T13:14:34.571;599616327492109651;12422.323;-42
2024-05-17T13:14:34.579;599616327499801510;12430.016;-51
2024-05-17T13:14:34.586;599616327507493369;12437.707;-37
2024-05-17T13:14:34.594;599616327515185228;12445.399;-18
2024-05-17T13:14:34.602;599616327522877087;12453.09;4
2024-05-17T13:14:34.609;599616327530568946;12460.782;23
2024-05-17T13:14:34.617;599616327538260805;12468.475;49
2024-05-17T13:14:34.625;599616327545952664;12476.166;73
2024-05-17T13:14:34.632;599616327553644523;12483.858;61
2024-05-17T13:14:34.640;599616327561336382;12491.55;51
2024-05-17T13:14:34.648;599616327569028241;12499.242;87
2024-05-17T13:14:34.655;599616327576720100;12506.934;117
2024-05-17T13:14:34.663;599616327584411959;12514.626;117
2024-05-17T13:14:34.671;599616327592103818;12522.317;103
2024-05-17T13:14:34.679;599616327599795677;12530.009;70
2024-05-17T13:14:34.686;599616327607487536;12537.701;40
2024-05-17T13:14:34.694;599616327615179395;12545.393;23
2024-05-17T13:14:34.702;599616327622871254;12553.085;-11
2024-05-17T13:14:34.709;599616327630563113;12560.776;-25
2024-05-17T13:14:34.717;599616327638254972;12568.469;-11
2024-05-17T13:14:34.725;599616327645946831;12576.161;-35
2024-05-17T13:14:34.732;599616327653638690;12583.852;-61
2024-05-17T13:14:34.740;599616327661330549;12591.544;-30
2024-05-17T13:14:34.748;599616327669022408;12599.235;-4
2024-05-17T13:14:34.755;599616327676714267;12606.928;-11
2024-05-17T13:14:34.763;599616327684406126;12614.62;-28
2024-05-17T13:14:34.771;599616327692097985;12622.312;-63
2024-05-17T13:14:34.779;599616327699789844;12630.004;-94
2024-05-17T13:14:34.786;599616327707481703;12637.695;75
2024-05-17T13:14:34.794;599616327715173562;12645.388;560
2024-05-17T13:14:34.802;599616327722865421;12653.078;947
2024-05-17T13:14:34.809;599616327730557280;12660.7705;654
2024-05-17T13:14:34.817;599616327738249139;12668.463;-68
2024-05-17T13:14:34.825;599616327745940998;12676.154;-379
2024-05-17T13:14:34.832;599616327753632857;12683.847;-186
2024-05-17T13:14:34.840;599616327761324716;12691.538;-122
2024-05-17T13:14:34.848;599616327769016575;12699.23;-226
2024-05-17T13:14:34.855;599616327776708434;12706.923;-176
2024-05-17T13:14:34.863;599616327784400293;12714.613;-113
2024-05-17T13:14:34.871;599616327792092152;12722.306;-134
2024-05-17T13:14:34.878;599616327799784011;12729.997;-98
2024-05-17T13:14:34.886;599616327807475870;12737.689;-23
2024-05-17T13:14:34.894;599616327815167729;12745.381;0
2024-05-17T13:14:34.902;599616327822859588;12753.073;-2
2024-05-17T13:14:34.909;599616327830551447;12760.766;4
2024-05-17T13:14:34.917;599616327838243306;12768.457;40
2024-05-17T13:14:34.925;599616327845935165;12776.149;82
2024-05-17T13:14:34.932;599616327853627024;12783.84;103
2024-05-17T13:14:34.940;599616327861318883;12791.532;120
2024-05-17T13:14:34.948;599616327869010742;12799.225;153
2024-05-17T13:14:34.955;599616327876702601;12806.916;176
2024-05-17T13:14:34.963;599616327884394460;12814.608;181
2024-05-17T13:14:34.971;599616327892086319;12822.3;195
2024-05-17T13:14:34.978;599616327899778178;12829.992;230
2024-05-17T13:14:34.986;599616327907470037;12837.684;261
2024-05-17T13:14:34.994;599616327915161896;12845.375;263
2024-05-17T13:14:35.002;599616327922853755;12853.067;242
2024-05-17T13:14:35.009;599616327930545614;12860.759;240
2024-05-17T13:14:35.017;599616327938237473;12868.451;266
2024-05-17T13:14:35.025;599616327945929332;12876.143;273
2024-05-17T13:14:35.032;599616327953621191;12883.835;214
2024-05-17T13:14:35.040;599616327961313050;12891.526;131
2024-05-17T13:14:35.048;599616327969004909;12899.219;96
2024-05-17T13:14:35.055;599616327976696768;12906.911;94
2024-05-17T13:14:35.063;599616327984393658;12914.607;101
2024-05-17T13:14:35.071;599616327992085448;12922.3;127
2024-05-17T13:14:35.078;599616327999777238;12929.99;146
2024-05-17T13:14:35.086;599616328007469028;12937.683;134
2024-05-17T13:14:35.094;599616328015160818;12945.374;115
2024-05-17T13:14:35.102;599616328022852608;12953.066;122
2024-05-17T13:14:35.109;599616328030544398;12960.758;106
2024-05-17T13:14:35.117;599616328038236188;12968.45;21
2024-05-17T13:14:35.125;599616328045927978;12976.142;-14
2024-05-17T13:14:35.132;599616328053619768;12983.834;32
2024-05-17T13:14:35.140;599616328061311558;12991.524;30
2024-05-17T13:14:35.148;599616328069003348;12999.217;-4
2024-05-17T13:14:35.155;599616328076695138;13006.908;35
2024-05-17T13:14:35.163;599616328084386928;13014.601;89
2024-05-17T13:14:35.171;599616328092078718;13022.292;87
2024-05-17T13:14:35.178;599616328099770508;13029.984;77
2024-05-17T13:14:35.186;599616328107462298;13037.676;84
2024-05-17T13:14:35.194;599616328115154088;13045.368;75
2024-05-17T13:14:35.202;599616328122845878;13053.059;37
2024-05-17T13:14:35.209;599616328130537668;13060.751;9
2024-05-17T13:14:35.217;599616328138229458;13068.442;-2
2024-05-17T13:14:35.225;599616328145921248;13076.135;-37
2024-05-17T13:14:35.232;599616328153613038;13083.826;-73
2024-05-17T13:14:35.240;599616328161304828;13091.519;-70
2024-05-17T13:14:35.248;599616328168996618;13099.21;-51
2024-05-17T13:14:35.255;599616328176688408;13106.902;-40
2024-05-17T13:14:35.263;599616328184380198;13114.594;-40
2024-05-17T13:14:35.271;599616328192071988;13122.285;-58
2024-05-17T13:14:35.278;599616328199763778;13129.978;-110
2024-05-17T13:14:35.286;599616328207455568;13137.669;-160
2024-05-17T13:14:35.294;599616328215147358;13145.361;-200
2024-05-17T13:14:35.302;599616328222839148;13153.053;-240
2024-05-17T13:14:35.309;599616328230530938;13160.745;-94
2024-05-17T13:14:35.317;599616328238222728;13168.437;388
2024-05-17T13:14:35.325;599616328245914518;13176.129;801
2024-05-17T13:14:35.332;599616328253606308;13183.819;588
2024-05-17T13:14:35.340;599616328261298098;13191.512;-40
2024-05-17T13:14:35.348;599616328268989888;13199.203;-327
2024-05-17T13:14:35.355;599616328276681678;13206.8955;-179
2024-05-17T13:14:35.363;599616328284373468;13214.587;-141
2024-05-17T13:14:35.371;599616328292065258;13222.279;-221
2024-05-17T13:14:35.378;599616328299757048;13229.971;-169
2024-05-17T13:14:35.386;599616328307448838;13237.663;-108
2024-05-17T13:14:35.394;599616328315140628;13245.354;-103
2024-05-17T13:14:35.402;599616328322832418;13253.046;-61
2024-05-17T13:14:35.409;599616328330524208;13260.737;-23
2024-05-17T13:14:35.417;599616328338215998;13268.43;-35
2024-05-17T13:14:35.425;599616328345907788;13276.121;-16
2024-05-17T13:14:35.432;599616328353599578;13283.813;47
2024-05-17T13:14:35.440;599616328361291368;13291.505;75
2024-05-17T13:14:35.448;599616328368983158;13299.197;80
2024-05-17T13:14:35.455;599616328376674948;13306.889;106
2024-05-17T13:14:35.463;599616328384366738;13314.58;139
2024-05-17T13:14:35.471;599616328392058528;13322.271;150
2024-05-17T13:14:35.478;599616328399750318;13329.964;164
2024-05-17T13:14:35.486;599616328407442108;13337.655;197
2024-05-17T13:14:35.494;599616328415133898;13345.348;233
2024-05-17T13:14:35.502;599616328422825688;13353.039;237
2024-05-17T13:14:35.509;599616328430517478;13360.731;216
2024-05-17T13:14:35.517;599616328438209268;13368.423;202
2024-05-17T13:14:35.525;599616328445901058;13376.114;181
2024-05-17T13:14:35.532;599616328453592848;13383.806;136
2024-05-17T13:14:35.540;599616328461284638;13391.498;122
2024-05-17T13:14:35.548;599616328468976428;13399.189;124
2024-05-17T13:14:35.555;599616328476668218;13406.882;94
2024-05-17T13:14:35.563;599616328484360008;13414.574;65
2024-05-17T13:14:35.571;599616328492051798;13422.266;75
2024-05-17T13:14:35.578;599616328499743588;13429.958;101
2024-05-17T13:14:35.586;599616328507435378;13437.648;113
2024-05-17T13:14:35.594;599616328515127168;13445.341;103
2024-05-17T13:14:35.602;599616328522818958;13453.032;91
2024-05-17T13:14:35.609;599616328530510748;13460.725;106
2024-05-17T13:14:35.617;599616328538202538;13468.416;136
2024-05-17T13:14:35.625;599616328545894340;13476.108;146
2024-05-17T13:14:35.632;599616328553586130;13483.8;153
2024-05-17T13:14:35.640;599616328561277920;13491.492;176
2024-05-17T13:14:35.648;599616328568969710;13499.183;150
2024-05-17T13:14:35.655;599616328576661500;13506.875;65
2024-05-17T13:14:35.663;599616328584353290;13514.566;30
2024-05-17T13:14:35.671;599616328592045080;13522.259;70
2024-05-17T13:14:35.678;599616328599736870;13529.95;94
2024-05-17T13:14:35.686;599616328607428660;13537.643;80
2024-05-17T13:14:35.694;599616328615120450;13545.334;75
2024-05-17T13:14:35.702;599616328622812240;13553.026;87
2024-05-17T13:14:35.709;599616328630504030;13560.718;87
2024-05-17T13:14:35.717;599616328638195820;13568.409;51
2024-05-17T13:14:35.725;599616328645887610;13576.101;28
2024-05-17T13:14:35.732;599616328653579400;13583.793;16
2024-05-17T13:14:35.740;599616328661271190;13591.484;-35
2024-05-17T13:14:35.748;599616328668962980;13599.177;-63
2024-05-17T13:14:35.755;599616328676654770;13606.868;-30
2024-05-17T13:14:35.763;599616328684346560;13614.561;-32
2024-05-17T13:14:35.771;599616328692038350;13622.252;-98
2024-05-17T13:14:35.778;599616328699730140;13629.943;-139
2024-05-17T13:14:35.786;599616328707421930;13637.635;-127
2024-05-17T13:14:35.794;599616328715113720;13645.327;-106
2024-05-17T13:14:35.802;599616328722805510;13653.019;-115
2024-05-17T13:14:35.809;599616328730497300;13660.711;-207
2024-05-17T13:14:35.817;599616328738189090;13668.402;-318
2024-05-17T13:14:35.825;599616328745880880;13676.095;-190
2024-05-17T13:14:35.832;599616328753572670;13683.787;263
2024-05-17T13:14:35.840;599616328761264460;13691.478;749
2024-05-17T13:14:35.848;599616328768956250;13699.17;805
2024-05-17T13:14:35.855;599616328776648040;13706.861;299
2024-05-17T13:14:35.863;599616328784339830;13714.554;-193
2024-05-17T13:14:35.871;599616328792031620;13722.245;-171
2024-05-17T13:14:35.878;599616328799723410;13729.9375;-49
2024-05-17T13:14:35.886;599616328807415200;13737.629;-131
2024-05-17T13:14:35.894;599616328815106990;13745.321;-134
2024-05-17T13:14:35.902;599616328822798780;13753.013;-51
2024-05-17T13:14:35.909;599616328830490570;13760.704;-28
2024-05-17T13:14:35.917;599616328838182360;13768.3955;-7
2024-05-17T13:14:35.925;599616328845874150;13776.088;7
2024-05-17T13:14:35.932;599616328853565940;13783.779;7
2024-05-17T13:14:35.940;599616328861257730;13791.472;49
2024-05-17T13:14:35.948;599616328868949520;13799.163;89
2024-05-17T13:14:35.955;599616328876641310;13806.855;94
2024-05-17T13:14:35.963;599616328884333100;13814.547;117
2024-05-17T13:14:35.971;599616328892024890;13822.238;150
2024-05-17T13:14:35.978;599616328899716680;13829.93;164
2024-05-17T13:14:35.986;599616328907408470;13837.622;171
2024-05-17T13:14:35.994;599616328915100260;13845.313;200
2024-05-17T13:14:36.002;599616328922792050;13853.006;247
2024-05-17T13:14:36.009;599616328930483840;13860.697;263
2024-05-17T13:14:36.017;599616328938175630;13868.39;219
2024-05-17T13:14:36.025;599616328945867420;13876.081;174
2024-05-17T13:14:36.032;599616328953559210;13883.772;204
2024-05-17T13:14:36.040;599616328961251000;13891.464;242
2024-05-17T13:14:36.048;599616328968942790;13899.156;221
2024-05-17T13:14:36.055;599616328976634580;13906.848;209
2024-05-17T13:14:36.063;599616328984326370;13914.54;228
2024-05-17T13:14:36.071;599616328992018160;13922.231;216
2024-05-17T13:14:36.078;599616328999709950;13929.924;176
2024-05-17T13:14:36.086;599616329007401740;13937.615;167
2024-05-17T13:14:36.094;599616329015093530;13945.308;181
2024-05-17T13:14:36.101;599616329022785320;13952.998;157
2024-05-17T13:14:36.109;599616329030477110;13960.69;117
2024-05-17T13:14:36.117;599616329038168900;13968.383;124
2024-05-17T13:14:36.125;599616329045860690;13976.074;157
2024-05-17T13:14:36.132;599616329053552480;13983.767;162
2024-05-17T13:14:36.140;599616329061244270;13991.458;150
2024-05-17T13:14:36.148;599616329068936060;13999.15;162
2024-05-17T13:14:36.155;599616329076627850;14006.842;169
2024-05-17T13:14:36.163;599616329084319640;14014.533;155
2024-05-17T13:14:36.171;599616329092011430;14022.225;157
2024-05-17T13:14:36.178;599616329099703220;14029.917;186
2024-05-17T13:14:36.186;599616329107395022;14037.608;202
2024-05-17T13:14:36.194;599616329115086812;14045.301;193
2024-05-17T13:14:36.201;599616329122778602;14052.992;171
2024-05-17T13:14:36.209;599616329130470392;14060.685;181
2024-05-17T13:14:36.217;599616329138162182;14068.376;209
2024-05-17T13:14:36.225;599616329145853972;14076.067;195
2024-05-17T13:14:36.232;599616329153545762;14083.759;179
2024-05-17T13:14:36.240;599616329161237552;14091.451;174
2024-05-17T13:14:36.248;599616329168929342;14099.143;127
2024-05-17T13:14:36.255;599616329176621132;14106.835;58
2024-05-17T13:14:36.263;599616329184312922;14114.526;11
2024-05-17T13:14:36.271;599616329192004712;14122.219;-21
2024-05-17T13:14:36.278;599616329199696502;14129.91;-49
2024-05-17T13:14:36.286;599616329207388292;14137.602;-129
2024-05-17T13:14:36.294;599616329215080082;14145.293;-202
2024-05-17T13:14:36.301;599616329222771872;14152.985;-179
2024-05-17T13:14:36.309;599616329230463662;14160.677;-141
2024-05-17T13:14:36.317;599616329238155452;14168.369;-207
2024-05-17T13:14:36.325;599616329245847242;14176.061;-320
2024-05-17T13:14:36.332;599616329253539032;14183.753;-353
2024-05-17T13:14:36.340;599616329261230822;14191.444;-202
2024-05-17T13:14:36.348;599616329268922612;14199.137;235
2024-05-17T13:14:36.355;599616329276614402;14206.827;746
2024-05-17T13:14:36.363;599616329284306192;14214.52;760
2024-05-17T13:14:36.371;599616329291997982;14222.211;169
2024-05-17T13:14:36.378;599616329299689772;14229.903;-299
2024-05-17T13:14:36.386;599616329307381562;14237.596;-207
2024-05-17T13:14:36.394;599616329315073352;14245.287;-73
2024-05-17T13:14:36.401;599616329322765142;14252.9795;-167
2024-05-17T13:14:36.409;599616329330456932;14260.671;-167
2024-05-17T13:14:36.417;599616329338148722;14268.362;-68
2024-05-17T13:14:36.425;599616329345840512;14276.054;-51
2024-05-17T13:14:36.432;599616329353532302;14283.746;-73
2024-05-17T13:14:36.440;599616329361224092;14291.4375;-47
2024-05-17T13:14:36.448;599616329368915882;14299.13;2
2024-05-17T13:14:36.455;599616329376607672;14306.821;35
2024-05-17T13:14:36.463;599616329384299462;14314.514;56
2024-05-17T13:14:36.471;599616329391991252;14322.205;80
2024-05-17T13:14:36.478;599616329399683042;14329.896;96
2024-05-17T13:14:36.486;599616329407374832;14337.588;113
2024-05-17T13:14:36.494;599616329415066622;14345.28;143
2024-05-17T13:14:36.501;599616329422758412;14352.972;153
2024-05-17T13:14:36.509;599616329430450202;14360.664;122
2024-05-17T13:14:36.517;599616329438141992;14368.355;98
2024-05-17T13:14:36.525;599616329445833782;14376.048;108
2024-05-17T13:14:36.532;599616329453525572;14383.739;124
2024-05-17T13:14:36.540;599616329461217362;14391.432;148
2024-05-17T13:14:36.548;599616329468909152;14399.122;174
2024-05-17T13:14:36.555;599616329476600942;14406.814;179
2024-05-17T13:14:36.563;599616329484292732;14414.506;179
2024-05-17T13:14:36.571;599616329491984522;14422.198;183
2024-05-17T13:14:36.578;599616329499676312;14429.89;190
2024-05-17T13:14:36.586;599616329507368102;14437.582;202
2024-05-17T13:14:36.594;599616329515059892;14445.273;204
2024-05-17T13:14:36.601;599616329522751682;14452.966;179
2024-05-17T13:14:36.609;599616329530443472;14460.656;143
2024-05-17T13:14:36.617;599616329538135262;14468.349;120
2024-05-17T13:14:36.625;599616329545827052;14476.04;120
2024-05-17T13:14:36.632;599616329553518842;14483.732;150
2024-05-17T13:14:36.640;599616329561210632;14491.424;171
2024-05-17T13:14:36.648;599616329568902422;14499.116;169
2024-05-17T13:14:36.655;599616329576594212;14506.808;164
2024-05-17T13:14:36.663;599616329584286002;14514.5;160
2024-05-17T13:14:36.671;599616329591977792;14522.191;162
2024-05-17T13:14:36.678;599616329599669582;14529.883;174
2024-05-17T13:14:36.686;599616329607361372;14537.575;181
2024-05-17T13:14:36.694;599616329615053162;14545.267;202
2024-05-17T13:14:36.701;599616329622744952;14552.959;212
2024-05-17T13:14:36.709;599616329630436742;14560.65;186
2024-05-17T13:14:36.717;599616329638128532;14568.343;179
2024-05-17T13:14:36.725;599616329645820322;14576.034;204
2024-05-17T13:14:36.732;599616329653512112;14583.727;216
2024-05-17T13:14:36.740;599616329661203902;14591.417;219
2024-05-17T13:14:36.748;599616329668895704;14599.109;219
2024-05-17T13:14:36.755;599616329676587494;14606.801;167
2024-05-17T13:14:36.763;599616329684279284;14614.493;75
2024-05-17T13:14:36.771;599616329691971074;14622.185;49
2024-05-17T13:14:36.778;599616329699662864;14629.877;65
2024-05-17T13:14:36.786;599616329707354654;14637.568;35
2024-05-17T13:14:36.794;599616329715046444;14645.261;-25
2024-05-17T13:14:36.801;599616329722738234;14652.951;-61
2024-05-17T13:14:36.809;599616329730430024;14660.644;-63
2024-05-17T13:14:36.817;599616329738121814;14668.335;-106
2024-05-17T13:14:36.825;599616329745813604;14676.027;-261
2024-05-17T13:14:36.832;599616329753505394;14683.719;-409
2024-05-17T13:14:36.840;599616329761197184;14691.411;-362
2024-05-17T13:14:36.848;599616329768888974;14699.103;-47
2024-05-17T13:14:36.855;599616329776580764;14706.795;449
2024-05-17T13:14:36.863;599616329784272554;14714.485;727
2024-05-17T13:14:36.871;599616329791964344;14722.178;400
2024-05-17T13:14:36.878;599616329799656134;14729.869;-188
2024-05-17T13:14:36.886;599616329807347924;14737.562;-329
2024-05-17T13:14:36.894;599616329815039714;14745.253;-155
2024-05-17T13:14:36.901;599616329822731504;14752.945;-171
2024-05-17T13:14:36.909;599616329830423294;14760.637;-237
2024-05-17T13:14:36.917;599616329838115084;14768.329;-162
2024-05-17T13:14:36.925;599616329845806874;14776.02;-108
2024-05-17T13:14:36.932;599616329853498664;14783.712;-106
2024-05-17T13:14:36.940;599616329861190454;14791.404;-89
2024-05-17T13:14:36.948;599616329868882244;14799.096;-70
2024-05-17T13:14:36.955;599616329876574034;14806.788;-42
2024-05-17T13:14:36.963;599616329884265824;14814.4795;7
2024-05-17T13:14:36.971;599616329891957614;14822.172;37
2024-05-17T13:14:36.978;599616329899649404;14829.863;47
2024-05-17T13:14:36.986;599616329907341194;14837.556;61
2024-05-17T13:14:36.994;599616329915032984;14845.246;75
2024-05-17T13:14:37.001;599616329922724774;14852.938;68
2024-05-17T13:14:37.009;599616329930416564;14860.63;73
2024-05-17T13:14:37.017;599616329938108354;14868.322;120
2024-05-17T13:14:37.025;599616329945800144;14876.014;155
2024-05-17T13:14:37.032;599616329953491934;14883.706;141
2024-05-17T13:14:37.040;599616329961183724;14891.397;134
2024-05-17T13:14:37.048;599616329968875514;14899.09;174
2024-05-17T13:14:37.055;599616329976567304;14906.78;212
2024-05-17T13:14:37.063;599616329984259094;14914.473;212
2024-05-17T13:14:37.071;599616329991950884;14922.164;209
2024-05-17T13:14:37.078;599616329999642674;14929.856;214
2024-05-17T13:14:37.086;599616330007334464;14937.548;216
2024-05-17T13:14:37.094;599616330015026254;14945.24;219
2024-05-17T13:14:37.101;599616330022718044;14952.932;228
2024-05-17T13:14:37.109;599616330030409834;14960.624;240
2024-05-17T13:14:37.117;599616330038101624;14968.314;237
2024-05-17T13:14:37.125;599616330045793414;14976.007;188
2024-05-17T13:14:37.132;599616330053485204;14983.698;139
2024-05-17T13:14:37.140;599616330061176994;14991.391;164
2024-05-17T13:14:37.148;599616330068868784;14999.082;193
2024-05-17T13:14:37.155;599616330076560574;15006.774;179
2024-05-17T13:14:37.163;599616330084252364;15014.466;171
2024-05-17T13:14:37.171;599616330091944154;15022.158;176
2024-05-17T13:14:37.178;599616330099635944;15029.849;176
2024-05-17T13:14:37.186;599616330107327734;15037.541;176
2024-05-17T13:14:37.194;599616330115019524;15045.232;195
2024-05-17T13:14:37.201;599616330122711314;15052.925;223
2024-05-17T13:14:37.209;599616330130403104;15060.616;212
2024-05-17T13:14:37.217;599616330138094894;15068.309;181
2024-05-17T13:14:37.225;599616330145786684;15076.001;190
2024-05-17T13:14:37.232;599616330153478474;15083.692;221
2024-05-17T13:14:37.240;599616330161170264;15091.385;230
2024-05-17T13:14:37.248;599616330168862054;15099.075;202
2024-05-17T13:14:37.255;599616330176553844;15106.768;169
2024-05-17T13:14:37.263;599616330184245634;15114.459;171
2024-05-17T13:14:37.271;599616330191937424;15122.151;183
2024-05-17T13:14:37.278;599616330199629214;15129.843;176
2024-05-17T13:14:37.286;599616330207321004;15137.535;171
2024-05-17T13:14:37.294;599616330215012794;15145.227;160
2024-05-17T13:14:37.301;599616330222704584;15152.919;103
2024-05-17T13:14:37.309;599616330230396386;15160.609;28
2024-05-17T13:14:37.317;599616330238088176;15168.302;-23
2024-05-17T13:14:37.324;599616330245779966;15175.993;-120
2024-05-17T13:14:37.332;599616330253471756;15183.686;-280
2024-05-17T13:14:37.340;599616330261163546;15191.377;-273
2024-05-17T13:14:37.348;599616330268855336;15199.069;82
2024-05-17T13:14:37.355;599616330276547126;15206.761;579
2024-05-17T13:14:37.363;599616330284238916;15214.453;732
2024-05-17T13:14:37.371;599616330291930706;15222.144;280
2024-05-17T13:14:37.378;599616330299622496;15229.836;-289
2024-05-17T13:14:37.386;599616330307314286;15237.527;-362
2024-05-17T13:14:37.394;599616330315006076;15245.22;-212
2024-05-17T13:14:37.401;599616330322697866;15252.911;-278
2024-05-17T13:14:37.409;599616330330389656;15260.604;-320
2024-05-17T13:14:37.417;599616330338081446;15268.295;-216
2024-05-17T13:14:37.424;599616330345773236;15275.987;-188
2024-05-17T13:14:37.432;599616330353465026;15283.678;-202
2024-05-17T13:14:37.440;599616330361156816;15291.37;-157
2024-05-17T13:14:37.448;599616330368848606;15299.062;-131
2024-05-17T13:14:37.455;599616330376540396;15306.754;-127
2024-05-17T13:14:37.463;599616330384232186;15314.445;-91
2024-05-17T13:14:37.471;599616330391923976;15322.138;-44
2024-05-17T13:14:37.478;599616330399615766;15329.829;-14
2024-05-17T13:14:37.486;599616330407307556;15337.521;-11
2024-05-17T13:14:37.494;599616330414999346;15345.214;-47
2024-05-17T13:14:37.501;599616330422691136;15352.904;-70
2024-05-17T13:14:37.509;599616330430382926;15360.597;-32
2024-05-17T13:14:37.517;599616330438074716;15368.288;11
2024-05-17T13:14:37.524;599616330445766506;15375.98;37
2024-05-17T13:14:37.532;599616330453458296;15383.672;70
2024-05-17T13:14:37.540;599616330461150086;15391.364;80
2024-05-17T13:14:37.548;599616330468841876;15399.056;65
2024-05-17T13:14:37.555;599616330476533666;15406.748;94
2024-05-17T13:14:37.563;599616330484225456;15414.438;148
2024-05-17T13:14:37.571;599616330491917246;15422.131;150
2024-05-17T13:14:37.578;599616330499609036;15429.822;129
2024-05-17T13:14:37.586;599616330507300826;15437.515;139
2024-05-17T13:14:37.594;599616330514992616;15445.206;160
2024-05-17T13:14:37.601;599616330522684406;15452.898;160
2024-05-17T13:14:37.609;599616330530376196;15460.59;157
2024-05-17T13:14:37.617;599616330538067986;15468.282;179
2024-05-17T13:14:37.624;599616330545759776;15475.973;207
2024-05-17T13:14:37.632;599616330553451566;15483.665;200
2024-05-17T13:14:37.640;599616330561143356;15491.356;181
2024-05-17T13:14:37.648;599616330568835146;15499.049;183
2024-05-17T13:14:37.655;599616330576526936;15506.74;169
2024-05-17T13:14:37.663;599616330584218726;15514.433;148
2024-05-17T13:14:37.671;599616330591910516;15522.124;153
2024-05-17T13:14:37.678;599616330599602306;15529.816;148
2024-05-17T13:14:37.686;599616330607294096;15537.508;131
2024-05-17T13:14:37.694;599616330614985886;15545.199;131
2024-05-17T13:14:37.701;599616330622677676;15552.891;150
2024-05-17T13:14:37.709;599616330630369466;15560.583;169
2024-05-17T13:14:37.717;599616330638061256;15568.274;162
2024-05-17T13:14:37.724;599616330645753046;15575.967;127
2024-05-17T13:14:37.732;599616330653444836;15583.658;96
2024-05-17T13:14:37.740;599616330661136626;15591.351;87
2024-05-17T13:14:37.748;599616330668828416;15599.042;75
2024-05-17T13:14:37.755;599616330676520206;15606.733;65
2024-05-17T13:14:37.763;599616330684211996;15614.425;75
2024-05-17T13:14:37.771;599616330691903786;15622.117;94
2024-05-17T13:14:37.778;599616330699595576;15629.81;98
2024-05-17T13:14:37.786;599616330707287366;15637.501;106
2024-05-17T13:14:37.794;599616330714979156;15645.193;122
2024-05-17T13:14:37.801;599616330722670946;15652.885;148
2024-05-17T13:14:37.809;599616330730362736;15660.577;155
2024-05-17T13:14:37.817;599616330738054526;15668.268;89
2024-05-17T13:14:37.824;599616330745746316;15675.96;-49
2024-05-17T13:14:37.832;599616330753438106;15683.651;-183
2024-05-17T13:14:37.840;599616330761129896;15691.344;-106
2024-05-17T13:14:37.848;599616330768821686;15699.035;332
2024-05-17T13:14:37.855;599616330776513476;15706.728;775
2024-05-17T13:14:37.863;599616330784205266;15714.419;638
2024-05-17T13:14:37.871;599616330791897068;15722.111;11
2024-05-17T13:14:37.878;599616330799588858;15729.802;-353
2024-05-17T13:14:37.886;599616330807280648;15737.494;-216
2024-05-17T13:14:37.894;599616330814972438;15745.186;-124
2024-05-17T13:14:37.901;599616330822664228;15752.878;-228
2024-05-17T13:14:37.909;599616330830356018;15760.569;-242
2024-05-17T13:14:37.917;599616330838047808;15768.262;-186
2024-05-17T13:14:37.924;599616330845739598;15775.953;-181
2024-05-17T13:14:37.932;599616330853431388;15783.6455;-209
2024-05-17T13:14:37.940;599616330861123178;15791.337;-233
2024-05-17T13:14:37.948;599616330868814968;15799.028;-212
2024-05-17T13:14:37.955;599616330876506758;15806.72;-179
2024-05-17T13:14:37.963;599616330884198548;15814.412;-181
2024-05-17T13:14:37.971;599616330891890338;15822.104;-157
2024-05-17T13:14:37.978;599616330899582128;15829.796;-106
2024-05-17T13:14:37.986;599616330907273918;15837.487;-113
2024-05-17T13:14:37.994;599616330914965708;15845.18;-155
2024-05-17T13:14:38.001;599616330922657498;15852.871;-141
2024-05-17T13:14:38.009;599616330930349288;15860.5625;-84
2024-05-17T13:14:38.017;599616330938041078;15868.254;-44
2024-05-17T13:14:38.024;599616330945732868;15875.946;-21
2024-05-17T13:14:38.032;599616330953424658;15883.638;14
2024-05-17T13:14:38.040;599616330961116448;15891.33;47
2024-05-17T13:14:38.048;599616330968808238;15899.021;51
2024-05-17T13:14:38.055;599616330976500028;15906.714;47
2024-05-17T13:14:38.063;599616330984191818;15914.406;65
2024-05-17T13:14:38.071;599616330991883608;15922.097;106
2024-05-17T13:14:38.078;599616330999575398;15929.789;122
2024-05-17T13:14:38.086;599616331007267188;15937.48;106
2024-05-17T13:14:38.094;599616331014958978;15945.173;96
2024-05-17T13:14:38.101;599616331022650768;15952.864;122
2024-05-17T13:14:38.109;599616331030342558;15960.557;134
2024-05-17T13:14:38.117;599616331038034348;15968.248;124
2024-05-17T13:14:38.124;599616331045726138;15975.94;146
2024-05-17T13:14:38.132;599616331053417928;15983.632;188
