Phone timestamp;sensor timestamp [ns];timestamp [ms];ecg [uV]
2024-05-17T13:20:16.905;599616669826134954;0.0;4078
2024-05-17T13:20:16.912;599616669833826674;7.69172;4855
2024-05-17T13:20:16.920;599616669841518394;15.38344;5640
2024-05-17T13:20:16.928;599616669849210114;23.07516;6229
2024-05-17T13:20:16.935;599616669856901834;30.76688;6839
2024-05-17T13:20:16.943;599616669864593554;38.4586;7480
2024-05-17T13:20:16.951;599616669872285274;46.15032;8010
2024-05-17T13:20:16.958;599616669879976994;53.84204;8495
2024-05-17T13:20:16.966;599616669887668714;61.53376;9042
2024-05-17T13:20:16.974;599616669895360434;69.22548;9591
2024-05-17T13:20:16.981;599616669903052154;76.9172;9902
2024-05-17T13:20:16.989;599616669910743874;84.60892;10090
2024-05-17T13:20:16.997;599616669918435594;92.30064;10491
2024-05-17T13:20:17.004;599616669926127314;99.99236;10917
2024-05-17T13:20:17.012;599616669933819034;107.68408;11181
2024-05-17T13:20:17.020;599616669941510754;115.3758;11485
2024-05-17T13:20:17.028;599616669949202474;123.06752;11836
2024-05-17T13:20:17.035;599616669956894194;130.75925;12111
2024-05-17T13:20:17.043;599616669964585914;138.45096;12338
2024-05-17T13:20:17.051;599616669972277634;146.14268;12609
2024-05-17T13:20:17.058;599616669979969354;153.8344;12955
2024-05-17T13:20:17.066;599616669987661074;161.52611;13212
2024-05-17T13:20:17.074;599616669995352794;169.21783;13318
2024-05-17T13:20:17.081;599616670003044514;176.90956;13499
2024-05-17T13:20:17.089;599616670010736234;184.60127;13794
2024-05-17T13:20:17.097;599616670018427954;192.293;13987
2024-05-17T13:20:17.104;599616670026119674;199.98473;14178
2024-05-17T13:20:17.112;599616670033811394;207.67645;14463
2024-05-17T13:20:17.120;599616670041503114;215.36816;14559
2024-05-17T13:20:17.128;599616670049194834;223.05988;14484
2024-05-17T13:20:17.135;599616670056886554;230.7516;14555
2024-05-17T13:20:17.143;599616670064578274;238.44333;14755
2024-05-17T13:20:17.151;599616670072269994;246.13504;14943
2024-05-17T13:20:17.158;599616670079961714;253.82675;15012
2024-05-17T13:20:17.166;599616670087653434;261.5185;14969
2024-05-17T13:20:17.174;599616670095345154;269.2102;15054
2024-05-17T13:20:17.181;599616670103036874;276.90192;15238
2024-05-17T13:20:17.189;599616670110728594;284.59363;15280
2024-05-17T13:20:17.197;599616670118420314;292.28537;15309
2024-05-17T13:20:17.204;599616670126112034;299.97708;15431
2024-05-17T13:20:17.212;599616670133803754;307.6688;15473
2024-05-17T13:20:17.220;599616670141495474;315.3605;15422
2024-05-17T13:20:17.228;599616670149187194;323.05222;15415
2024-05-17T13:20:17.235;599616670156878914;330.74396;15497
2024-05-17T13:20:17.243;599616670164570634;338.43567;15598
2024-05-17T13:20:17.251;599616670172262354;346.12738;15542
2024-05-17T13:20:17.258;599616670179954074;353.81912;15363
2024-05-17T13:20:17.266;599616670187645794;361.51083;15431
2024-05-17T13:20:17.274;599616670195337514;369.20255;15890
2024-05-17T13:20:17.281;599616670203029234;376.8943;16380
2024-05-17T13:20:17.289;599616670210720954;384.586;16482
2024-05-17T13:20:17.297;599616670218412674;392.27774;16060
2024-05-17T13:20:17.304;599616670226104394;399.96945;15396
2024-05-17T13:20:17.312;599616670233796114;407.66116;15092
2024-05-17T13:20:17.320;599616670241487834;415.3529;15179
2024-05-17T13:20:17.328;599616670249179554;423.04462;15188
2024-05-17T13:20:17.335;599616670256871274;430.73633;15120
2024-05-17T13:20:17.343;599616670264562994;438.42804;15054
2024-05-17T13:20:17.351;599616670272254714;446.11975;14993
2024-05-17T13:20:17.358;599616670279946434;453.8115;15038
2024-05-17T13:20:17.366;599616670287638154;461.5032;14953
2024-05-17T13:20:17.374;599616670295329874;469.19492;14684
2024-05-17T13:20:17.381;599616670303021594;476.88666;14644
2024-05-17T13:20:17.389;599616670310713314;484.57837;14722
2024-05-17T13:20:17.397;599616670318405034;492.27008;14571
2024-05-17T13:20:17.404;599616670326096754;499.9618;14399
2024-05-17T13:20:17.412;599616670333788474;507.6535;14399
2024-05-17T13:20:17.420;599616670341480194;515.3453;14427
2024-05-17T13:20:17.428;599616670349171914;523.037;14371
2024-05-17T13:20:17.435;599616670356863634;530.7287;14291
2024-05-17T13:20:17.443;599616670364555354;538.4204;14253
2024-05-17T13:20:17.451;599616670372247074;546.1121;14178
2024-05-17T13:20:17.458;599616670379938794;553.80383;14036
2024-05-17T13:20:17.466;599616670387625510;561.49054;13973
2024-05-17T13:20:17.474;599616670395317300;569.1823;13959
2024-05-17T13:20:17.481;599616670403009090;576.8741;13692
2024-05-17T13:20:17.489;599616670410700880;584.566;13238
2024-05-17T13:20:17.497;599616670418392670;592.25775;13061
2024-05-17T13:20:17.504;599616670426084460;599.9495;13080
2024-05-17T13:20:17.512;599616670433776250;607.6413;12976
2024-05-17T13:20:17.520;599616670441468040;615.33307;12849
2024-05-17T13:20:17.528;599616670449159830;623.0249;12752
2024-05-17T13:20:17.535;599616670456851620;630.7167;12682
2024-05-17T13:20:17.543;599616670464543410;638.40845;12649
2024-05-17T13:20:17.551;599616670472235200;646.1002;12444
2024-05-17T13:20:17.558;599616670479926990;653.79205;12189
2024-05-17T13:20:17.566;599616670487618780;661.4838;12201
2024-05-17T13:20:17.574;599616670495310570;669.1756;12175
2024-05-17T13:20:17.581;599616670503002360;676.8674;11902
2024-05-17T13:20:17.589;599616670510694150;684.55914;11756
2024-05-17T13:20:17.597;599616670518385940;692.25104;11805
2024-05-17T13:20:17.604;599616670526077730;699.9428;11770
2024-05-17T13:20:17.612;599616670533769520;707.6346;11584
2024-05-17T13:20:17.620;599616670541461310;715.32635;11386
2024-05-17T13:20:17.628;599616670549153100;723.0182;11289
2024-05-17T13:20:17.635;599616670556844890;730.70996;11214
2024-05-17T13:20:17.643;599616670564536680;738.40173;11072
2024-05-17T13:20:17.651;599616670572228470;746.0935;10964
2024-05-17T13:20:17.658;599616670579920260;753.7853;10962
2024-05-17T13:20:17.666;599616670587612050;761.4771;10875
2024-05-17T13:20:17.674;599616670595303840;769.1689;10672
2024-05-17T13:20:17.681;599616670602995630;776.86066;10590
2024-05-17T13:20:17.689;599616670610687420;784.5524;10587
2024-05-17T13:20:17.697;599616670618379210;792.2442;10481
2024-05-17T13:20:17.704;599616670626071000;799.93604;10356
2024-05-17T13:20:17.712;599616670633762790;807.62787;10290
2024-05-17T13:20:17.720;599616670641454580;815.31964;10201
2024-05-17T13:20:17.728;599616670649146370;823.0114;10078
2024-05-17T13:20:17.735;599616670656838160;830.70325;9935
2024-05-17T13:20:17.743;599616670664529950;838.395;9805
2024-05-17T13:20:17.751;599616670672221740;846.0868;9772
2024-05-17T13:20:17.758;599616670679913530;853.77856;9932
2024-05-17T13:20:17.766;599616670687605320;861.47034;10279
2024-05-17T13:20:17.774;599616670695297110;869.1622;10472
2024-05-17T13:20:17.781;599616670702988900;876.85394;10092
2024-05-17T13:20:17.789;599616670710680690;884.5457;9329
2024-05-17T13:20:17.797;599616670718372480;892.2375;8940
2024-05-17T13:20:17.804;599616670726064270;899.9293;9004
2024-05-17T13:20:17.812;599616670733756060;907.6211;8903
2024-05-17T13:20:17.820;599616670741447850;915.31287;8665
2024-05-17T13:20:17.828;599616670749139640;923.0047;8603
2024-05-17T13:20:17.835;599616670756831430;930.6965;8570
2024-05-17T13:20:17.843;599616670764523220;938.3883;8507
2024-05-17T13:20:17.851;599616670772215010;946.0801;8457
2024-05-17T13:20:17.858;599616670779906800;953.77185;8295
2024-05-17T13:20:17.866;599616670787598590;961.4636;8120
2024-05-17T13:20:17.874;599616670795290380;969.15546;8078
2024-05-17T13:20:17.881;599616670802982170;976.8472;8007
2024-05-17T13:20:17.889;599616670810673960;984.539;7899
2024-05-17T13:20:17.897;599616670818365750;992.2308;7871
2024-05-17T13:20:17.904;599616670826057540;999.92255;7809
2024-05-17T13:20:17.912;599616670833749330;1007.6144;7685
2024-05-17T13:20:17.920;599616670841441120;1015.30615;7645
2024-05-17T13:20:17.927;599616670849132910;1022.9979;7668
2024-05-17T13:20:17.935;599616670856824700;1030.6897;7569
2024-05-17T13:20:17.943;599616670864516490;1038.3816;7390
2024-05-17T13:20:17.951;599616670872208280;1046.0734;7275
2024-05-17T13:20:17.958;599616670879900070;1053.7651;7157
2024-05-17T13:20:17.966;599616670887591860;1061.4569;6980
2024-05-17T13:20:17.974;599616670895283650;1069.1487;6884
2024-05-17T13:20:17.981;599616670902975440;1076.8405;6832
2024-05-17T13:20:17.989;599616670910667230;1084.5322;6613
2024-05-17T13:20:17.997;599616670918359020;1092.2241;6358
2024-05-17T13:20:18.004;599616670926050810;1099.9159;6283
2024-05-17T13:20:18.012;599616670933742600;1107.6077;6257
2024-05-17T13:20:18.020;599616670941434390;1115.2994;6184
2024-05-17T13:20:18.028;599616670949156288;1123.0214;6125
2024-05-17T13:20:18.035;599616670956847660;1130.7126;6043
2024-05-17T13:20:18.043;599616670964539032;1138.404;5951
2024-05-17T13:20:18.051;599616670972230404;1146.0955;5915
2024-05-17T13:20:18.058;599616670979921776;1153.7869;5859
2024-05-17T13:20:18.066;599616670987613148;1161.4781;5772
2024-05-17T13:20:18.074;599616670995304520;1169.1696;5762
2024-05-17T13:20:18.081;599616671002995892;1176.861;5736
2024-05-17T13:20:18.089;599616671010687264;1184.5524;5548
2024-05-17T13:20:18.097;599616671018378636;1192.2437;5364
2024-05-17T13:20:18.104;599616671026070008;1199.935;5298
2024-05-17T13:20:18.112;599616671033761380;1207.6263;5227
2024-05-17T13:20:18.120;599616671041452752;1215.3177;5126
2024-05-17T13:20:18.128;599616671049144124;1223.0092;5053
2024-05-17T13:20:18.135;599616671056835496;1230.7006;5008
2024-05-17T13:20:18.143;599616671064526868;1238.392;4971
2024-05-17T13:20:18.151;599616671072218240;1246.0834;4914
2024-05-17T13:20:18.158;599616671079909612;1253.7748;4874
2024-05-17T13:20:18.166;599616671087600984;1261.466;4876
2024-05-17T13:20:18.174;599616671095292356;1269.1573;4836
2024-05-17T13:20:18.181;599616671102983728;1276.8488;4728
2024-05-17T13:20:18.189;599616671110675100;1284.5402;4681
2024-05-17T13:20:18.197;599616671118366472;1292.2316;4685
2024-05-17T13:20:18.204;599616671126057844;1299.923;4645
2024-05-17T13:20:18.212;599616671133749216;1307.6143;4579
2024-05-17T13:20:18.220;599616671141440588;1315.3055;4502
2024-05-17T13:20:18.227;599616671149131960;1322.997;4398
2024-05-17T13:20:18.235;599616671156823332;1330.6884;4375
2024-05-17T13:20:18.243;599616671164514704;1338.3798;4664
2024-05-17T13:20:18.251;599616671172206076;1346.0712;5176
2024-05-17T13:20:18.258;599616671179897448;1353.7625;5307
2024-05-17T13:20:18.266;599616671187588820;1361.4539;4690
2024-05-17T13:20:18.274;599616671195280192;1369.1453;3939
2024-05-17T13:20:18.281;599616671202971564;1376.8365;3816
2024-05-17T13:20:18.289;599616671210662936;1384.528;3990
2024-05-17T13:20:18.297;599616671218354308;1392.2194;3875
2024-05-17T13:20:18.304;599616671226045680;1399.9108;3724
2024-05-17T13:20:18.312;599616671233737052;1407.602;3741
2024-05-17T13:20:18.320;599616671241428424;1415.2935;3708
2024-05-17T13:20:18.327;599616671249119796;1422.9849;3614
2024-05-17T13:20:18.335;599616671256811168;1430.6763;3583
2024-05-17T13:20:18.343;599616671264502540;1438.3677;3581
2024-05-17T13:20:18.351;599616671272193912;1446.059;3512
2024-05-17T13:20:18.358;599616671279885284;1453.7502;3409
2024-05-17T13:20:18.366;599616671287576656;1461.4417;3357
2024-05-17T13:20:18.374;599616671295268028;1469.133;3371
2024-05-17T13:20:18.381;599616671302959400;1476.8245;3366
2024-05-17T13:20:18.389;599616671310650772;1484.5159;3326
2024-05-17T13:20:18.397;599616671318342144;1492.2073;3326
2024-05-17T13:20:18.404;599616671326033516;1499.8987;3350
2024-05-17T13:20:18.412;599616671333724888;1507.5898;3333
2024-05-17T13:20:18.420;599616671341416260;1515.2812;3263
2024-05-17T13:20:18.427;599616671349107632;1522.9727;3178
2024-05-17T13:20:18.435;599616671356799004;1530.6641;3135
2024-05-17T13:20:18.443;599616671364490376;1538.3555;3060
2024-05-17T13:20:18.451;599616671372181748;1546.0469;2911
2024-05-17T13:20:18.458;599616671379873120;1553.7382;2822
2024-05-17T13:20:18.466;599616671387564492;1561.4294;2808
2024-05-17T13:20:18.474;599616671395255864;1569.1208;2763
2024-05-17T13:20:18.481;599616671402947236;1576.8123;2692
2024-05-17T13:20:18.489;599616671410638608;1584.5037;2619
2024-05-17T13:20:18.497;599616671418329980;1592.1951;2506
2024-05-17T13:20:18.504;599616671426021352;1599.8864;2424
2024-05-17T13:20:18.512;599616671433712724;1607.5778;2421
2024-05-17T13:20:18.520;599616671441404096;1615.2692;2431
2024-05-17T13:20:18.527;599616671449095468;1622.9606;2426
2024-05-17T13:20:18.535;599616671456786840;1630.6519;2414
2024-05-17T13:20:18.543;599616671464478212;1638.3433;2374
2024-05-17T13:20:18.551;599616671472169584;1646.0347;2351
2024-05-17T13:20:18.558;599616671479860956;1653.726;2377
2024-05-17T13:20:18.566;599616671487552328;1661.4174;2386
2024-05-17T13:20:18.574;599616671495243700;1669.1088;2355
2024-05-17T13:20:18.581;599616671502935072;1676.8002;2344
2024-05-17T13:20:18.589;599616671510596356;1684.4614;2313
2024-05-17T13:20:18.597;599616671518288146;1692.1532;2233
2024-05-17T13:20:18.604;599616671525979936;1699.845;2207
2024-05-17T13:20:18.612;599616671533671726;1707.5367;2247
2024-05-17T13:20:18.620;599616671541363516;1715.2285;2242
2024-05-17T13:20:18.627;599616671549055306;1722.9203;2200
2024-05-17T13:20:18.635;599616671556747096;1730.612;2181
2024-05-17T13:20:18.643;599616671564438886;1738.3038;2179
2024-05-17T13:20:18.650;599616671572130676;1745.9957;2160
2024-05-17T13:20:18.658;599616671579822466;1753.6875;2092
2024-05-17T13:20:18.666;599616671587514256;1761.3793;2030
2024-05-17T13:20:18.674;599616671595206046;1769.071;2033
2024-05-17T13:20:18.681;599616671602897836;1776.763;2026
2024-05-17T13:20:18.689;599616671610589626;1784.4547;1981
2024-05-17T13:20:18.697;599616671618281416;1792.1465;1950
2024-05-17T13:20:18.704;599616671625973206;1799.8383;1915
2024-05-17T13:20:18.712;599616671633664996;1807.53;1946
2024-05-17T13:20:18.720;599616671641356786;1815.2219;2275
2024-05-17T13:20:18.727;599616671649048576;1822.9137;2822
2024-05-17T13:20:18.735;599616671656740366;1830.6055;2996
2024-05-17T13:20:18.743;599616671664432156;1838.2972;2407
2024-05-17T13:20:18.750;599616671672123946;1845.989;1682
2024-05-17T13:20:18.758;599616671679815736;1853.6808;1639
2024-05-17T13:20:18.766;599616671687507526;1861.3726;1851
2024-05-17T13:20:18.774;599616671695199316;1869.0643;1715
2024-05-17T13:20:18.781;599616671702891106;1876.7561;1594
2024-05-17T13:20:18.789;599616671710582896;1884.448;1684
2024-05-17T13:20:18.797;599616671718274686;1892.1398;1710
2024-05-17T13:20:18.804;599616671725966476;1899.8315;1665
2024-05-17T13:20:18.812;599616671733658266;1907.5233;1663
2024-05-17T13:20:18.820;599616671741350056;1915.2151;1672
2024-05-17T13:20:18.827;599616671749041846;1922.9069;1670
2024-05-17T13:20:18.835;599616671756733636;1930.5986;1663
2024-05-17T13:20:18.843;599616671764425426;1938.2904;1639
2024-05-17T13:20:18.850;599616671772117216;1945.9822;1620
2024-05-17T13:20:18.858;599616671779809006;1953.6741;1644
2024-05-17T13:20:18.866;599616671787500796;1961.3658;1651
2024-05-17T13:20:18.874;599616671795192586;1969.0576;1642
2024-05-17T13:20:18.881;599616671802884376;1976.7494;1675
2024-05-17T13:20:18.889;599616671810576166;1984.4412;1719
2024-05-17T13:20:18.897;599616671818267956;1992.1329;1710
2024-05-17T13:20:18.904;599616671825959746;1999.8247;1649
2024-05-17T13:20:18.912;599616671833651536;2007.5166;1580
2024-05-17T13:20:18.920;599616671841343326;2015.2084;1529
2024-05-17T13:20:18.927;599616671849035116;2022.9003;1458
2024-05-17T13:20:18.935;599616671856726906;2030.592;1399
2024-05-17T13:20:18.943;599616671864418696;2038.2838;1397
2024-05-17T13:20:18.950;599616671872110486;2045.9756;1375
2024-05-17T13:20:18.958;599616671879802276;2053.6672;1309
2024-05-17T13:20:18.966;599616671887494066;2061.3591;1281
2024-05-17T13:20:18.974;599616671895185856;2069.0508;1295
2024-05-17T13:20:18.981;599616671902877646;2076.7427;1300
2024-05-17T13:20:18.989;599616671910569436;2084.4343;1288
2024-05-17T13:20:18.997;599616671918261226;2092.1262;1248
2024-05-17T13:20:19.004;599616671925953016;2099.818;1156
2024-05-17T13:20:19.012;599616671933644806;2107.51;1107
2024-05-17T13:20:19.020;599616671941336596;2115.2017;1133
2024-05-17T13:20:19.027;599616671949028386;2122.8936;1156
2024-05-17T13:20:19.035;599616671956720176;2130.5852;1163
2024-05-17T13:20:19.043;599616671964411966;2138.277;1168
2024-05-17T13:20:19.050;599616671972103756;2145.9688;1149
2024-05-17T13:20:19.058;599616671979795546;2153.6606;1137
2024-05-17T13:20:19.066;599616671987487336;2161.3525;1161
2024-05-17T13:20:19.074;599616671995179126;2169.0442;1168
2024-05-17T13:20:19.081;599616672002870916;2176.736;1128
2024-05-17T13:20:19.089;599616672010562706;2184.4277;1076
2024-05-17T13:20:19.097;599616672018254496;2192.1196;1060
2024-05-17T13:20:19.104;599616672025946286;2199.8113;1062
2024-05-17T13:20:19.112;599616672033638076;2207.5032;1071
2024-05-17T13:20:19.120;599616672041329866;2215.1948;1088
2024-05-17T13:20:19.127;599616672049021656;2222.8867;1100
2024-05-17T13:20:19.135;599616672056713446;2230.5784;1100
2024-05-17T13:20:19.143;599616672064405236;2238.2703;1090
2024-05-17T13:20:19.150;599616672072097038;2245.962;1095
2024-05-17T13:20:19.158;599616672079788828;2253.6538;1119
2024-05-17T13:20:19.166;599616672087480618;2261.3457;1112
2024-05-17T13:20:19.174;599616672095172408;2269.0376;1067
2024-05-17T13:20:19.181;599616672102864198;2276.7292;1024
2024-05-17T13:20:19.189;599616672110555988;2284.4211;1043
2024-05-17T13:20:19.197;599616672118247778;2292.1128;1288
2024-05-17T13:20:19.204;599616672125939568;2299.8047;1764
2024-05-17T13:20:19.212;599616672133631358;2307.4963;2004
2024-05-17T13:20:19.220;599616672141323148;2315.1882;1573
2024-05-17T13:20:19.227;599616672149014938;2322.88;899
2024-05-17T13:20:19.235;599616672156706728;2330.5718;760
2024-05-17T13:20:19.243;599616672164398518;2338.2637;921
2024-05-17T13:20:19.250;599616672172090308;2345.9553;850
2024-05-17T13:20:19.258;599616672179782098;2353.6472;772
2024-05-17T13:20:19.266;599616672187473888;2361.3389;845
2024-05-17T13:20:19.274;599616672195165678;2369.0308;874
2024-05-17T13:20:19.281;599616672202857468;2376.7224;843
2024-05-17T13:20:19.289;599616672210549258;2384.4143;838
2024-05-17T13:20:19.297;599616672218241048;2392.106;864
2024-05-17T13:20:19.304;599616672225932838;2399.7979;892
2024-05-17T13:20:19.312;599616672233624628;2407.4897;911
2024-05-17T13:20:19.320;599616672241316418;2415.1816;907
2024-05-17T13:20:19.327;599616672249008208;2422.8733;874
2024-05-17T13:20:19.335;599616672256699998;2430.5652;843
2024-05-17T13:20:19.343;599616672264391788;2438.2568;852
2024-05-17T13:20:19.350;599616672272083578;2445.9487;881
2024-05-17T13:20:19.358;599616672279775368;2453.6404;899
2024-05-17T13:20:19.366;599616672287467158;2461.3323;911
2024-05-17T13:20:19.374;599616672295158948;2469.024;907
2024-05-17T13:20:19.381;599616672302850738;2476.7158;888
2024-05-17T13:20:19.389;599616672310542528;2484.4075;850
2024-05-17T13:20:19.397;599616672318234318;2492.0994;817
2024-05-17T13:20:19.404;599616672325926108;2499.791;777
2024-05-17T13:20:19.412;599616672333617898;2507.483;709
2024-05-17T13:20:19.420;599616672341309688;2515.1746;669
2024-05-17T13:20:19.427;599616672349001478;2522.8665;683
2024-05-17T13:20:19.435;599616672356693268;2530.558;678
2024-05-17T13:20:19.443;599616672364385058;2538.25;657
2024-05-17T13:20:19.450;599616672372076848;2545.942;669
2024-05-17T13:20:19.458;599616672379768638;2553.6338;690
2024-05-17T13:20:19.466;599616672387460428;2561.3257;671
2024-05-17T13:20:19.474;599616672395152218;2569.0173;657
2024-05-17T13:20:19.481;599616672402844008;2576.7092;695
2024-05-17T13:20:19.489;599616672410535798;2584.401;727
2024-05-17T13:20:19.497;599616672418227588;2592.0928;716
2024-05-17T13:20:19.504;599616672425919378;2599.7844;652
2024-05-17T13:20:19.512;599616672433611168;2607.4763;584
2024-05-17T13:20:19.520;599616672441302958;2615.168;577
2024-05-17T13:20:19.527;599616672448994748;2622.8599;598
2024-05-17T13:20:19.535;599616672456686538;2630.5515;610
2024-05-17T13:20:19.543;599616672464378328;2638.2434;633
2024-05-17T13:20:19.550;599616672472070118;2645.935;643
2024-05-17T13:20:19.558;599616672479761908;2653.627;626
2024-05-17T13:20:19.566;599616672487453698;2661.3186;624
2024-05-17T13:20:19.574;599616672495145488;2669.0105;629
2024-05-17T13:20:19.581;599616672502837278;2676.7021;593
2024-05-17T13:20:19.589;599616672510529068;2684.3943;577
2024-05-17T13:20:19.597;599616672518220858;2692.086;610
2024-05-17T13:20:19.604;599616672525912648;2699.7778;626
2024-05-17T13:20:19.612;599616672533604438;2707.4695;624
2024-05-17T13:20:19.620;599616672541296228;2715.1614;638
2024-05-17T13:20:19.627;599616672548988018;2722.853;664
2024-05-17T13:20:19.635;599616672556679808;2730.545;695
2024-05-17T13:20:19.643;599616672564371598;2738.2366;692
2024-05-17T13:20:19.650;599616672572063388;2745.9285;633
2024-05-17T13:20:19.658;599616672579755178;2753.62;584
2024-05-17T13:20:19.666;599616672587446968;2761.312;692
2024-05-17T13:20:19.674;599616672595138758;2769.0037;1088
2024-05-17T13:20:19.681;599616672602830548;2776.6956;1580
2024-05-17T13:20:19.689;599616672610522338;2784.3872;1668
2024-05-17T13:20:19.697;599616672618214128;2792.079;1135
2024-05-17T13:20:19.704;599616672625905918;2799.771;567
2024-05-17T13:20:19.712;599616672633597720;2807.4626;544
2024-05-17T13:20:19.720;599616672641289510;2815.1545;671
2024-05-17T13:20:19.727;599616672648981300;2822.8464;586
2024-05-17T13:20:19.735;599616672656673090;2830.5383;548
2024-05-17T13:20:19.743;599616672664364880;2838.23;581
2024-05-17T13:20:19.750;599616672672056670;2845.9219;567
2024-05-17T13:20:19.758;599616672679748460;2853.6135;553
2024-05-17T13:20:19.766;599616672687440250;2861.3054;527
2024-05-17T13:20:19.773;599616672695132040;2868.997;499
2024-05-17T13:20:19.781;599616672702823830;2876.689;523
2024-05-17T13:20:19.789;599616672710515620;2884.3806;534
2024-05-17T13:20:19.797;599616672718207410;2892.0725;525
2024-05-17T13:20:19.804;599616672725899200;2899.7642;558
2024-05-17T13:20:19.812;599616672733590990;2907.456;600
2024-05-17T13:20:19.820;599616672741282780;2915.1477;610
2024-05-17T13:20:19.827;599616672748974570;2922.8396;591
2024-05-17T13:20:19.835;599616672756666360;2930.5312;581
2024-05-17T13:20:19.843;599616672764358150;2938.2231;610
2024-05-17T13:20:19.850;599616672772049940;2945.9148;631
2024-05-17T13:20:19.858;599616672779741730;2953.6067;612
2024-05-17T13:20:19.866;599616672787433520;2961.2986;588
2024-05-17T13:20:19.873;599616672795125310;2968.9905;563
2024-05-17T13:20:19.881;599616672802817100;2976.6821;504
2024-05-17T13:20:19.889;599616672810508890;2984.374;433
2024-05-17T13:20:19.897;599616672818200680;2992.0657;402
2024-05-17T13:20:19.904;599616672825892470;2999.7576;412
2024-05-17T13:20:19.912;599616672833584260;3007.4495;405
2024-05-17T13:20:19.920;599616672841276050;3015.141;386
2024-05-17T13:20:19.927;599616672848967840;3022.833;384
2024-05-17T13:20:19.935;599616672856659630;3030.5247;395
2024-05-17T13:20:19.943;599616672864351420;3038.2166;405
2024-05-17T13:20:19.950;599616672872043210;3045.9082;407
2024-05-17T13:20:19.958;599616672879735000;3053.6;426
2024-05-17T13:20:19.966;599616672887426790;3061.2917;449
2024-05-17T13:20:19.973;599616672895118580;3068.9836;435
2024-05-17T13:20:19.981;599616672902810370;3076.6753;414
2024-05-17T13:20:19.989;599616672910502160;3084.3672;433
2024-05-17T13:20:19.997;599616672918193950;3092.0588;459
2024-05-17T13:20:20.004;599616672925885740;3099.751;419
2024-05-17T13:20:20.012;599616672933577530;3107.4426;343
2024-05-17T13:20:20.020;599616672941269320;3115.1345;325
2024-05-17T13:20:20.027;599616672948961110;3122.8262;346
2024-05-17T13:20:20.035;599616672956652900;3130.518;348
2024-05-17T13:20:20.043;599616672964344690;3138.2097;365
2024-05-17T13:20:20.050;599616672972036480;3145.9016;409
2024-05-17T13:20:20.058;599616672979728270;3153.5933;421
2024-05-17T13:20:20.066;599616672987420060;3161.2852;393
2024-05-17T13:20:20.073;599616672995111850;3168.9768;372
2024-05-17T13:20:20.081;599616673002803640;3176.6687;391
2024-05-17T13:20:20.089;599616673010495430;3184.3604;419
2024-05-17T13:20:20.097;599616673018187220;3192.0522;428
2024-05-17T13:20:20.104;599616673025879010;3199.744;438
2024-05-17T13:20:20.112;599616673033570800;3207.4358;447
2024-05-17T13:20:20.120;599616673041262590;3215.1274;440
2024-05-17T13:20:20.127;599616673048954380;3222.8193;414
2024-05-17T13:20:20.135;599616673056646170;3230.511;376
2024-05-17T13:20:20.143;599616673064337960;3238.203;435
2024-05-17T13:20:20.150;599616673072029750;3245.895;770
2024-05-17T13:20:20.158;599616673079721540;3253.5867;1269
2024-05-17T13:20:20.166;599616673087413330;3261.2786;1437
2024-05-17T13:20:20.173;599616673095105120;3268.9702;991
2024-05-17T13:20:20.181;599616673102796910;3276.662;402
2024-05-17T13:20:20.189;599616673110488700;3284.3538;313
2024-05-17T13:20:20.197;599616673118180490;3292.0457;459
2024-05-17T13:20:20.204;599616673125872280;3299.7373;388
2024-05-17T13:20:20.212;599616673133564070;3307.4292;313
2024-05-17T13:20:20.220;599616673141255860;3315.1208;367
2024-05-17T13:20:20.227;599616673148947650;3322.8127;395
2024-05-17T13:20:20.235;599616673156639440;3330.5044;400
2024-05-17T13:20:20.243;599616673164331230;3338.1963;414
2024-05-17T13:20:20.250;599616673172023020;3345.888;402
2024-05-17T13:20:20.258;599616673179714810;3353.5798;407
2024-05-17T13:20:20.266;599616673187406600;3361.2715;447
2024-05-17T13:20:20.273;599616673195098402;3368.9634;466
2024-05-17T13:20:20.281;599616673202790192;3376.6553;466
2024-05-17T13:20:20.289;599616673210481982;3384.3472;494
2024-05-17T13:20:20.297;599616673218173772;3392.0388;504
2024-05-17T13:20:20.304;599616673225865562;3399.7307;449
2024-05-17T13:20:20.312;599616673233557352;3407.4224;381
2024-05-17T13:20:20.320;599616673241249142;3415.1143;369
2024-05-17T13:20:20.327;599616673248940932;3422.806;393
2024-05-17T13:20:20.335;599616673256632722;3430.4978;381
2024-05-17T13:20:20.343;599616673264324512;3438.1895;334
2024-05-17T13:20:20.350;599616673272016302;3445.8813;303
2024-05-17T13:20:20.358;599616673279708092;3453.573;287
2024-05-17T13:20:20.366;599616673287399882;3461.265;235
2024-05-17T13:20:20.373;599616673295091672;3468.9568;179
2024-05-17T13:20:20.381;599616673302783462;3476.6484;179
2024-05-17T13:20:20.389;599616673310475252;3484.3403;179
2024-05-17T13:20:20.397;599616673318167042;3492.032;150
2024-05-17T13:20:20.404;599616673325858832;3499.7239;153
2024-05-17T13:20:20.412;599616673333550622;3507.4155;200
2024-05-17T13:20:20.420;599616673341242412;3515.1077;223
2024-05-17T13:20:20.427;599616673348934202;3522.7993;204
2024-05-17T13:20:20.435;599616673356625992;3530.4912;195
2024-05-17T13:20:20.443;599616673364317782;3538.1829;223
2024-05-17T13:20:20.450;599616673372009572;3545.8748;254
2024-05-17T13:20:20.458;599616673379701362;3553.5664;259
2024-05-17T13:20:20.466;599616673387393152;3561.2583;268
2024-05-17T13:20:20.473;599616673395084942;3568.95;289
2024-05-17T13:20:20.481;599616673402776732;3576.6418;287
2024-05-17T13:20:20.489;599616673410468522;3584.3335;273
2024-05-17T13:20:20.497;599616673418160312;3592.0254;287
2024-05-17T13:20:20.504;599616673425852102;3599.717;301
2024-05-17T13:20:20.512;599616673433543892;3607.409;240
2024-05-17T13:20:20.520;599616673441235682;3615.1006;160
2024-05-17T13:20:20.527;599616673448927472;3622.7925;167
2024-05-17T13:20:20.535;599616673456619262;3630.4841;214
2024-05-17T13:20:20.543;599616673464311052;3638.176;228
2024-05-17T13:20:20.550;599616673472002842;3645.8677;245
2024-05-17T13:20:20.558;599616673479694632;3653.5596;259
2024-05-17T13:20:20.566;599616673487386422;3661.2515;228
2024-05-17T13:20:20.573;599616673495078212;3668.9434;190
2024-05-17T13:20:20.581;599616673502770002;3676.6353;202
2024-05-17T13:20:20.589;599616673510461792;3684.327;249
2024-05-17T13:20:20.597;599616673518153582;3692.0188;287
2024-05-17T13:20:20.604;599616673525845372;3699.7104;287
2024-05-17T13:20:20.612;599616673533537162;3707.4023;235
2024-05-17T13:20:20.620;599616673541228952;3715.094;214
2024-05-17T13:20:20.627;599616673548920742;3722.786;419
2024-05-17T13:20:20.635;599616673556612532;3730.4775;899
2024-05-17T13:20:20.643;599616673564304322;3738.1694;1295
2024-05-17T13:20:20.650;599616673571996112;3745.861;1135
2024-05-17T13:20:20.658;599616673579687902;3753.553;530
2024-05-17T13:20:20.666;599616673587379692;3761.2446;179
2024-05-17T13:20:20.673;599616673595071482;3768.9365;273
2024-05-17T13:20:20.681;599616673602763272;3776.6282;315
2024-05-17T13:20:20.689;599616673610455062;3784.32;228
2024-05-17T13:20:20.697;599616673618146852;3792.0117;245
2024-05-17T13:20:20.704;599616673625838642;3799.7039;282
2024-05-17T13:20:20.712;599616673633530432;3807.3955;266
2024-05-17T13:20:20.720;599616673641222222;3815.0874;275
2024-05-17T13:20:20.727;599616673648914012;3822.779;306
2024-05-17T13:20:20.735;599616673656605802;3830.471;322
2024-05-17T13:20:20.743;599616673664297592;3838.1626;355
2024-05-17T13:20:20.750;599616673671989382;3845.8545;376
2024-05-17T13:20:20.758;599616673679681172;3853.5461;365
2024-05-17T13:20:20.766;599616673687372962;3861.238;376
2024-05-17T13:20:20.773;599616673695064752;3868.9297;424
2024-05-17T13:20:20.781;599616673702756542;3876.6216;447
2024-05-17T13:20:20.789;599616673710448332;3884.3132;457
2024-05-17T13:20:20.797;599616673718140122;3892.0051;475
2024-05-17T13:20:20.804;599616673725831912;3899.6968;457
2024-05-17T13:20:20.812;599616673733523702;3907.3887;398
2024-05-17T13:20:20.820;599616673741215492;3915.0806;369
2024-05-17T13:20:20.827;599616673748907282;3922.7722;369
2024-05-17T13:20:20.835;599616673756629180;3930.4941;332
2024-05-17T13:20:20.843;599616673764320552;3938.1855;261
2024-05-17T13:20:20.850;599616673772011924;3945.877;188
2024-05-17T13:20:20.858;599616673779703296;3953.5684;148
2024-05-17T13:20:20.866;599616673787394668;3961.2598;153
2024-05-17T13:20:20.873;599616673795086040;3968.951;150
2024-05-17T13:20:20.881;599616673802777412;3976.6426;139
2024-05-17T13:20:20.889;599616673810468784;3984.3337;139
2024-05-17T13:20:20.897;599616673818160156;3992.0251;120
2024-05-17T13:20:20.904;599616673825851528;3999.7166;65
2024-05-17T13:20:20.912;599616673833542900;4007.408;32
2024-05-17T13:20:20.920;599616673841234272;4015.0994;68
2024-05-17T13:20:20.927;599616673848925644;4022.7908;103
2024-05-17T13:20:20.935;599616673856617016;4030.4822;89
2024-05-17T13:20:20.943;599616673864308388;4038.1733;77
2024-05-17T13:20:20.950;599616673871999760;4045.8647;103
2024-05-17T13:20:20.958;599616673879691132;4053.5562;134
2024-05-17T13:20:20.966;599616673887382504;4061.2476;136
2024-05-17T13:20:20.973;599616673895073876;4068.939;143
2024-05-17T13:20:20.981;599616673902765248;4076.6304;157
2024-05-17T13:20:20.989;599616673910456620;4084.3218;155
2024-05-17T13:20:20.997;599616673918147992;4092.013;155
2024-05-17T13:20:21.004;599616673925839364;4099.704;174
2024-05-17T13:20:21.012;599616673933530736;4107.396;167
2024-05-17T13:20:21.020;599616673941222108;4115.087;98
2024-05-17T13:20:21.027;599616673948913480;4122.779;47
2024-05-17T13:20:21.035;599616673956604852;4130.4697;82
2024-05-17T13:20:21.043;599616673964296224;4138.161;141
2024-05-17T13:20:21.050;599616673971987596;4145.8525;136
2024-05-17T13:20:21.058;599616673979678968;4153.544;103
2024-05-17T13:20:21.066;599616673987370340;4161.2354;120
2024-05-17T13:20:21.073;599616673995061712;4168.927;164
2024-05-17T13:20:21.081;599616674002753084;4176.618;169
2024-05-17T13:20:21.089;599616674010444456;4184.3096;148
2024-05-17T13:20:21.097;599616674018135828;4192.001;136
2024-05-17T13:20:21.104;599616674025827200;4199.6924;160
2024-05-17T13:20:21.112;599616674033518572;4207.384;388
2024-05-17T13:20:21.120;599616674041209944;4215.075;874
2024-05-17T13:20:21.127;599616674048901316;4222.766;1220
2024-05-17T13:20:21.135;599616674056592688;4230.458;958
2024-05-17T13:20:21.143;599616674064284060;4238.149;332
2024-05-17T13:20:21.150;599616674071975432;4245.8403;63
2024-05-17T13:20:21.158;599616674079666804;4253.5317;193
2024-05-17T13:20:21.166;599616674087358176;4261.223;195
2024-05-17T13:20:21.173;599616674095049548;4268.9146;80
2024-05-17T13:20:21.181;599616674102740920;4276.606;98
2024-05-17T13:20:21.189;599616674110432292;4284.2974;153
2024-05-17T13:20:21.196;599616674118123664;4291.989;155
2024-05-17T13:20:21.204;599616674125815036;4299.68;171
2024-05-17T13:20:21.212;599616674133506408;4307.3716;195
2024-05-17T13:20:21.220;599616674141197780;4315.063;200
2024-05-17T13:20:21.227;599616674148889152;4322.754;212
2024-05-17T13:20:21.235;599616674156580524;4330.446;233
2024-05-17T13:20:21.243;599616674164271896;4338.137;249
2024-05-17T13:20:21.250;599616674171963268;4345.828;287
2024-05-17T13:20:21.258;599616674179654640;4353.5195;327
2024-05-17T13:20:21.266;599616674187346012;4361.211;334
2024-05-17T13:20:21.273;599616674195037384;4368.903;351
2024-05-17T13:20:21.281;599616674202728756;4376.5938;400
2024-05-17T13:20:21.289;599616674210420128;4384.285;433
2024-05-17T13:20:21.296;599616674218111500;4391.9766;421
2024-05-17T13:20:21.304;599616674225802872;4399.6675;381
2024-05-17T13:20:21.312;599616674233494244;4407.3594;346
2024-05-17T13:20:21.320;599616674241185616;4415.051;292
2024-05-17T13:20:21.327;599616674248876988;4422.742;219
2024-05-17T13:20:21.335;599616674256568360;4430.433;164
2024-05-17T13:20:21.343;599616674264259732;4438.1245;131
2024-05-17T13:20:21.350;599616674271951104;4445.8164;94
2024-05-17T13:20:21.358;599616674279642476;4453.508;58
2024-05-17T13:20:21.366;599616674287333848;4461.1987;58
2024-05-17T13:20:21.373;599616674295025220;4468.89;82
2024-05-17T13:20:21.381;599616674302716592;4476.582;84
2024-05-17T13:20:21.389;599616674310407964;4484.273;82
2024-05-17T13:20:21.396;599616674318069248;4491.934;103
2024-05-17T13:20:21.404;599616674325761038;4499.626;110
2024-05-17T13:20:21.412;599616674333452828;4507.318;98
2024-05-17T13:20:21.420;599616674341144618;4515.01;113
2024-05-17T13:20:21.427;599616674348836408;4522.701;148
2024-05-17T13:20:21.435;599616674356528198;4530.393;169
2024-05-17T13:20:21.443;599616674364219988;4538.085;155
2024-05-17T13:20:21.450;599616674371911778;4545.777;124
2024-05-17T13:20:21.458;599616674379603568;4553.4683;141
2024-05-17T13:20:21.466;599616674387295358;4561.16;167
2024-05-17T13:20:21.473;599616674394987148;4568.852;113
2024-05-17T13:20:21.481;599616674402678938;4576.544;44
2024-05-17T13:20:21.489;599616674410370728;4584.2354;68
2024-05-17T13:20:21.496;599616674418062518;4591.9277;98
2024-05-17T13:20:21.504;599616674425754308;4599.6196;77
2024-05-17T13:20:21.512;599616674433446098;4607.3115;70
2024-05-17T13:20:21.520;599616674441137888;4615.003;49
2024-05-17T13:20:21.527;599616674448829678;4622.695;11
2024-05-17T13:20:21.535;599616674456521468;4630.3867;9
2024-05-17T13:20:21.543;599616674464213258;4638.0786;2
2024-05-17T13:20:21.550;599616674471905048;4645.77;-21
2024-05-17T13:20:21.558;599616674479596838;4653.462;-2
2024-05-17T13:20:21.566;599616674487288628;4661.154;28
2024-05-17T13:20:21.573;599616674494980418;4668.8457;7
2024-05-17T13:20:21.581;599616674502672208;4676.537;-7
2024-05-17T13:20:21.589;599616674510363998;4684.229;155
2024-05-17T13:20:21.596;599616674518055788;4691.921;610
2024-05-17T13:20:21.604;599616674525747578;4699.613;1069
2024-05-17T13:20:21.612;599616674533439368;4707.3047;991
2024-05-17T13:20:21.619;599616674541131158;4714.996;391
2024-05-17T13:20:21.627;599616674548822948;4722.688;-7
2024-05-17T13:20:21.635;599616674556514738;4730.38;84
2024-05-17T13:20:21.643;599616674564206528;4738.072;150
2024-05-17T13:20:21.650;599616674571898318;4745.763;44
2024-05-17T13:20:21.658;599616674579590108;4753.455;54
2024-05-17T13:20:21.666;599616674587281898;4761.147;120
2024-05-17T13:20:21.673;599616674594973688;4768.839;117
2024-05-17T13:20:21.681;599616674602665478;4776.5303;106
2024-05-17T13:20:21.689;599616674610357268;4784.222;122
2024-05-17T13:20:21.696;599616674618049058;4791.914;155
2024-05-17T13:20:21.704;599616674625740848;4799.606;195
2024-05-17T13:20:21.712;599616674633432638;4807.2974;223
2024-05-17T13:20:21.719;599616674641124428;4814.9893;233
2024-05-17T13:20:21.727;599616674648816218;4822.681;254
2024-05-17T13:20:21.735;599616674656508008;4830.373;296
2024-05-17T13:20:21.743;599616674664199798;4838.0645;329
2024-05-17T13:20:21.750;599616674671891588;4845.7563;353
2024-05-17T13:20:21.758;599616674679583378;4853.448;398
2024-05-17T13:20:21.766;599616674687275168;4861.14;431
2024-05-17T13:20:21.773;599616674694966958;4868.832;419
2024-05-17T13:20:21.781;599616674702658748;4876.524;402
2024-05-17T13:20:21.789;599616674710350538;4884.216;395
2024-05-17T13:20:21.796;599616674718042328;4891.9077;332
2024-05-17T13:20:21.804;599616674725734118;4899.599;228
2024-05-17T13:20:21.812;599616674733425908;4907.291;171
2024-05-17T13:20:21.819;599616674741117698;4914.983;143
2024-05-17T13:20:21.827;599616674748809488;4922.675;89
2024-05-17T13:20:21.835;599616674756501278;4930.3667;63
2024-05-17T13:20:21.843;599616674764193068;4938.058;75
2024-05-17T13:20:21.850;599616674771884858;4945.75;84
2024-05-17T13:20:21.858;599616674779576648;4953.442;77
2024-05-17T13:20:21.866;599616674787268438;4961.134;75
2024-05-17T13:20:21.873;599616674794960228;4968.825;87
2024-05-17T13:20:21.881;599616674802652018;4976.517;115
2024-05-17T13:20:21.889;599616674810343808;4984.209;136
2024-05-17T13:20:21.896;599616674818035598;4991.901;146
2024-05-17T13:20:21.904;599616674825727388;4999.5923;155
2024-05-17T13:20:21.912;599616674833419178;5007.284;153
2024-05-17T13:20:21.919;599616674841110968;5014.976;146
2024-05-17T13:20:21.927;599616674848802758;5022.668;164
2024-05-17T13:20:21.935;599616674856494548;5030.3594;197
2024-05-17T13:20:21.943;599616674864186338;5038.0513;212
2024-05-17T13:20:21.950;599616674871878128;5045.743;200
2024-05-17T13:20:21.958;599616674879569930;5053.435;190
2024-05-17T13:20:21.966;599616674887261720;5061.1265;195
2024-05-17T13:20:21.973;599616674894953510;5068.8184;223
2024-05-17T13:20:21.981;599616674902645300;5076.5103;249
2024-05-17T13:20:21.989;599616674910337090;5084.202;252
2024-05-17T13:20:21.996;599616674918028880;5091.8936;266
2024-05-17T13:20:22.004;599616674925720670;5099.5854;292
2024-05-17T13:20:22.012;599616674933412460;5107.2773;259
2024-05-17T13:20:22.019;599616674941104250;5114.969;171
2024-05-17T13:20:22.027;599616674948796040;5122.6606;101
2024-05-17T13:20:22.035;599616674956487830;5130.3525;61
2024-05-17T13:20:22.043;599616674964179620;5138.0444;11
2024-05-17T13:20:22.050;599616674971871410;5145.737;-28
2024-05-17T13:20:22.058;599616674979563200;5153.4287;-21
2024-05-17T13:20:22.066;599616674987254990;5161.12;-21
2024-05-17T13:20:22.073;599616674994946780;5168.812;35
2024-05-17T13:20:22.081;599616675002638570;5176.504;395
2024-05-17T13:20:22.089;599616675010330360;5184.196;958
2024-05-17T13:20:22.096;599616675018022150;5191.887;1147
2024-05-17T13:20:22.104;599616675025713940;5199.579;657
2024-05-17T13:20:22.112;599616675033405730;5207.271;42
2024-05-17T13:20:22.119;599616675041097520;5214.963;-35
2024-05-17T13:20:22.127;599616675048789310;5222.6543;122
2024-05-17T13:20:22.135;599616675056481100;5230.346;37
2024-05-17T13:20:22.143;599616675064172890;5238.038;-44
2024-05-17T13:20:22.150;599616675071864680;5245.73;35
2024-05-17T13:20:22.158;599616675079556470;5253.4214;77
2024-05-17T13:20:22.166;599616675087248260;5261.1133;63
2024-05-17T13:20:22.173;599616675094940050;5268.805;94
2024-05-17T13:20:22.181;599616675102631840;5276.497;131
2024-05-17T13:20:22.189;599616675110323630;5284.1885;136
2024-05-17T13:20:22.196;599616675118015420;5291.8804;134
2024-05-17T13:20:22.204;599616675125707210;5299.5723;160
2024-05-17T13:20:22.212;599616675133399000;5307.264;214
2024-05-17T13:20:22.219;599616675141090790;5314.9556;252
2024-05-17T13:20:22.227;599616675148782580;5322.6475;256
2024-05-17T13:20:22.235;599616675156474370;5330.3394;275
2024-05-17T13:20:22.243;599616675164166160;5338.0312;318
2024-05-17T13:20:22.250;599616675171857950;5345.7227;334
2024-05-17T13:20:22.258;599616675179549740;5353.4146;336
2024-05-17T13:20:22.266;599616675187241530;5361.1064;353
2024-05-17T13:20:22.273;599616675194933320;5368.7983;346
2024-05-17T13:20:22.281;599616675202625110;5376.4897;270
2024-05-17T13:20:22.289;599616675210316900;5384.1816;169
2024-05-17T13:20:22.296;599616675218008690;5391.8735;108
2024-05-17T13:20:22.304;599616675225700480;5399.5654;94
2024-05-17T13:20:22.312;599616675233392270;5407.2573;89
2024-05-17T13:20:22.319;599616675241084060;5414.9487;65
2024-05-17T13:20:22.327;599616675248775850;5422.641;54
2024-05-17T13:20:22.335;599616675256467640;5430.333;75
2024-05-17T13:20:22.343;599616675264159430;5438.025;87
2024-05-17T13:20:22.350;599616675271851220;5445.7163;82
2024-05-17T13:20:22.358;599616675279543010;5453.408;115
2024-05-17T13:20:22.366;599616675287234800;5461.1;143
2024-05-17T13:20:22.373;599616675294926590;5468.792;117
2024-05-17T13:20:22.381;599616675302618380;5476.4834;106
2024-05-17T13:20:22.389;599616675310310170;5484.1753;148
2024-05-17T13:20:22.396;599616675318001960;5491.867;183
2024-05-17T13:20:22.404;599616675325693750;5499.559;183
2024-05-17T13:20:22.412;599616675333385540;5507.2505;179
2024-05-17T13:20:22.419;599616675341077330;5514.9424;186
2024-05-17T13:20:22.427;599616675348769120;5522.6343;193
2024-05-17T13:20:22.435;599616675356460910;5530.326;193
2024-05-17T13:20:22.443;599616675364152700;5538.0176;200
2024-05-17T13:20:22.450;599616675371844490;5545.7095;226
2024-05-17T13:20:22.458;599616675379536280;5553.4014;242
2024-05-17T13:20:22.466;599616675387228070;5561.0933;235
2024-05-17T13:20:22.473;599616675394919860;5568.7847;237
2024-05-17T13:20:22.481;599616675402611650;5576.4766;275
2024-05-17T13:20:22.489;599616675410303440;5584.1685;308
2024-05-17T13:20:22.496;599616675417995230;5591.8604;318
2024-05-17T13:20:22.504;599616675425687020;5599.552;315
2024-05-17T13:20:22.512;599616675433378810;5607.2437;322
2024-05-17T13:20:22.519;599616675441070612;5614.9355;329
2024-05-17T13:20:22.527;599616675448762402;5622.6274;303
2024-05-17T13:20:22.535;599616675456454192;5630.3193;237
2024-05-17T13:20:22.543;599616675464145982;5638.0107;200
2024-05-17T13:20:22.550;599616675471837772;5645.7026;160
2024-05-17T13:20:22.558;599616675479529562;5653.3945;148
2024-05-17T13:20:22.566;599616675487221352;5661.0864;431
2024-05-17T13:20:22.573;599616675494913142;5668.778;994
2024-05-17T13:20:22.581;599616675502604932;5676.4697;1253
2024-05-17T13:20:22.589;599616675510296722;5684.1616;770
2024-05-17T13:20:22.596;599616675517988512;5691.8535;61
2024-05-17T13:20:22.604;599616675525680302;5699.5454;-75
2024-05-17T13:20:22.612;599616675533372092;5707.2373;89
2024-05-17T13:20:22.619;599616675541063882;5714.929;21
2024-05-17T13:20:22.627;599616675548755672;5722.621;-37
2024-05-17T13:20:22.635;599616675556447462;5730.3125;58
2024-05-17T13:20:22.643;599616675564139252;5738.0044;75
2024-05-17T13:20:22.650;599616675571831042;5745.6963;37
2024-05-17T13:20:22.658;599616675579522832;5753.388;73
2024-05-17T13:20:22.666;599616675587214622;5761.0796;113
2024-05-17T13:20:22.673;599616675594906412;5768.7715;117
2024-05-17T13:20:22.681;599616675602598202;5776.4634;143
2024-05-17T13:20:22.689;599616675610289992;5784.1553;181
2024-05-17T13:20:22.696;599616675617981782;5791.8467;193
2024-05-17T13:20:22.704;599616675625673572;5799.5386;197
2024-05-17T13:20:22.712;599616675633365362;5807.2305;228
2024-05-17T13:20:22.719;599616675641057152;5814.9224;278
2024-05-17T13:20:22.727;599616675648748942;5822.6143;310
2024-05-17T13:20:22.735;599616675656440732;5830.3057;322
2024-05-17T13:20:22.742;599616675664132522;5837.9976;320
2024-05-17T13:20:22.750;599616675671824312;5845.6895;299
2024-05-17T13:20:22.758;599616675679516102;5853.3813;261
2024-05-17T13:20:22.766;599616675687207892;5861.0728;221
2024-05-17T13:20:22.773;599616675694899682;5868.7646;162
2024-05-17T13:20:22.781;599616675702591472;5876.4565;70
2024-05-17T13:20:22.789;599616675710283262;5884.1484;4
2024-05-17T13:20:22.796;599616675717975052;5891.84;-2
2024-05-17T13:20:22.804;599616675725666842;5899.5317;7
2024-05-17T13:20:22.812;599616675733358632;5907.2236;21
2024-05-17T13:20:22.819;599616675741050422;5914.9155;35
2024-05-17T13:20:22.827;599616675748742212;5922.607;25
2024-05-17T13:20:22.835;599616675756434002;5930.299;23
2024-05-17T13:20:22.842;599616675764125792;5937.9907;51
2024-05-17T13:20:22.850;599616675771817582;5945.6826;70
2024-05-17T13:20:22.858;599616675779509372;5953.374;73
2024-05-17T13:20:22.866;599616675787201162;5961.066;98
2024-05-17T13:20:22.873;599616675794892952;5968.758;124
2024-05-17T13:20:22.881;599616675802584742;5976.4497;120
2024-05-17T13:20:22.889;599616675810276532;5984.1416;103
2024-05-17T13:20:22.896;599616675817968322;5991.8335;124
2024-05-17T13:20:22.904;599616675825660112;5999.5254;162
2024-05-17T13:20:22.912;599616675833351902;6007.2173;169
2024-05-17T13:20:22.919;599616675841043692;6014.9087;160
2024-05-17T13:20:22.927;599616675848735482;6022.6006;157
2024-05-17T13:20:22.935;599616675856427272;6030.2925;171
2024-05-17T13:20:22.942;599616675864119062;6037.9844;183
2024-05-17T13:20:22.950;599616675871810852;6045.6763;190
2024-05-17T13:20:22.958;599616675879502642;6053.3677;212
2024-05-17T13:20:22.966;599616675887194432;6061.0596;230
2024-05-17T13:20:22.973;599616675894886222;6068.7515;228
2024-05-17T13:20:22.981;599616675902578012;6076.4434;228
2024-05-17T13:20:22.989;599616675910269802;6084.135;249
2024-05-17T13:20:22.996;599616675917961592;6091.8267;268
2024-05-17T13:20:23.004;599616675925653382;6099.5186;275
2024-05-17T13:20:23.012;599616675933345172;6107.2104;280
2024-05-17T13:20:23.019;599616675941036962;6114.902;268
2024-05-17T13:20:23.027;599616675948728752;6122.5938;221
2024-05-17T13:20:23.035;599616675956420542;6130.2856;136
2024-05-17T13:20:23.042;599616675964112332;6137.9775;25
2024-05-17T13:20:23.050;599616675971804122;6145.669;68
2024-05-17T13:20:23.058;599616675979495912;6153.361;457
2024-05-17T13:20:23.066;599616675987187702;6161.0527;932
2024-05-17T13:20:23.073;599616675994879492;6168.7446;991
2024-05-17T13:20:23.081;599616676002591382;6176.456;494
2024-05-17T13:20:23.089;599616676010282893;6184.148;-23
2024-05-17T13:20:23.096;599616676017974404;6191.8394;-32
2024-05-17T13:20:23.104;599616676025665915;6199.5312;101
2024-05-17T13:20:23.112;599616676033357426;6207.222;-7
2024-05-17T13:20:23.119;599616676041048937;6214.914;-96
2024-05-17T13:20:23.127;599616676048740448;6222.6055;-87
2024-05-17T13:20:23.135;599616676056431959;6230.297;-108
2024-05-17T13:20:23.142;599616676064123470;6237.9883;-89
2024-05-17T13:20:23.150;599616676071814981;6245.68;-49
2024-05-17T13:20:23.158;599616676079506492;6253.3716;-58
2024-05-17T13:20:23.166;599616676087198003;6261.063;-44
2024-05-17T13:20:23.173;599616676094889514;6268.7544;7
2024-05-17T13:20:23.181;599616676102581025;6276.4463;35
2024-05-17T13:20:23.189;599616676110272536;6284.1377;47
2024-05-17T13:20:23.196;599616676117964047;6291.829;80
2024-05-17T13:20:23.204;599616676125655558;6299.5205;113
2024-05-17T13:20:23.212;599616676133347069;6307.2124;134
2024-05-17T13:20:23.219;599616676141038580;6314.9033;153
2024-05-17T13:20:23.227;599616676148730091;6322.595;155
2024-05-17T13:20:23.235;599616676156421602;6330.2866;141
2024-05-17T13:20:23.242;599616676164113113;6337.9785;103
2024-05-17T13:20:23.250;599616676171804624;6345.6694;42
2024-05-17T13:20:23.258;599616676179496135;6353.3613;-4
2024-05-17T13:20:23.266;599616676187187646;6361.0527;-28
2024-05-17T13:20:23.273;599616676194879157;6368.7446;-94
2024-05-17T13:20:23.281;599616676202570668;6376.4355;-150
2024-05-17T13:20:23.289;599616676210262179;6384.127;-136
2024-05-17T13:20:23.296;599616676217953690;6391.819;-131
2024-05-17T13:20:23.304;599616676225645201;6399.5103;-157
2024-05-17T13:20:23.312;599616676233336712;6407.2017;-155
2024-05-17T13:20:23.319;599616676241028223;6414.893;-117
2024-05-17T13:20:23.327;599616676248719734;6422.585;-80
2024-05-17T13:20:23.335;599616676256411245;6430.276;-80
2024-05-17T13:20:23.342;599616676264102756;6437.968;-101
2024-05-17T13:20:23.350;599616676271794267;6445.659;-84
2024-05-17T13:20:23.358;599616676279485778;6453.351;-47
2024-05-17T13:20:23.366;599616676287177289;6461.042;-37
2024-05-17T13:20:23.373;599616676294868800;6468.734;-35
2024-05-17T13:20:23.381;599616676302560311;6476.4253;-16
2024-05-17T13:20:23.389;599616676310251822;6484.117;-21
2024-05-17T13:20:23.396;599616676317943333;6491.808;-28
2024-05-17T13:20:23.404;599616676325634844;6499.5;-9
2024-05-17T13:20:23.412;599616676333326355;6507.1914;16
2024-05-17T13:20:23.419;599616676341017866;6514.8833;25
2024-05-17T13:20:23.427;599616676348709377;6522.574;23
2024-05-17T13:20:23.435;599616676356400888;6530.266;14
2024-05-17T13:20:23.442;599616676364092399;6537.9575;28
2024-05-17T13:20:23.450;599616676371783910;6545.649;56
2024-05-17T13:20:23.458;599616676379475421;6553.3403;68
2024-05-17T13:20:23.466;599616676387166932;6561.032;87
2024-05-17T13:20:23.473;599616676394858443;6568.7236;108
2024-05-17T13:20:23.481;599616676402549954;6576.415;94
2024-05-17T13:20:23.489;599616676410241465;6584.1064;80
2024-05-17T13:20:23.496;599616676417932976;6591.7983;110
2024-05-17T13:20:23.504;599616676425624487;6599.4897;139
2024-05-17T13:20:23.512;599616676433315998;6607.1807;129
2024-05-17T13:20:23.519;599616676441007509;6614.8726;84
2024-05-17T13:20:23.527;599616676448699020;6622.564;14
2024-05-17T13:20:23.535;599616676456390531;6630.256;-35
2024-05-17T13:20:23.542;599616676464082042;6637.947;70
2024-05-17T13:20:23.550;599616676471773553;6645.6387;452
2024-05-17T13:20:23.558;599616676479465064;6653.33;855
2024-05-17T13:20:23.566;599616676487156575;6661.0215;702
2024-05-17T13:20:23.573;599616676494848086;6668.713;40
2024-05-17T13:20:23.581;599616676502539597;6676.405;-299
2024-05-17T13:20:23.589;599616676510231108;6684.096;-117
2024-05-17T13:20:23.596;599616676517922619;6691.7876;-56
2024-05-17T13:20:23.604;599616676525614130;6699.479;-183
2024-05-17T13:20:23.612;599616676533305641;6707.171;-171
2024-05-17T13:20:23.619;599616676540997152;6714.8623;-117
2024-05-17T13:20:23.627;599616676548688663;6722.5537;-122
2024-05-17T13:20:23.635;599616676556380174;6730.245;-101
2024-05-17T13:20:23.642;599616676564061710;6737.927;-75
2024-05-17T13:20:23.650;599616676571753360;6745.6187;-58
2024-05-17T13:20:23.658;599616676579445010;6753.31;-54
2024-05-17T13:20:23.666;599616676587136660;6761.0015;-120
2024-05-17T13:20:23.673;599616676594828310;6768.6934;-167
2024-05-17T13:20:23.681;599616676602519960;6776.3853;-101
2024-05-17T13:20:23.689;599616676610211610;6784.0767;-32
2024-05-17T13:20:23.696;599616676617903260;6791.768;-30
2024-05-17T13:20:23.704;599616676625594910;6799.46;-35
2024-05-17T13:20:23.712;599616676633286560;6807.152;-37
2024-05-17T13:20:23.719;599616676640978210;6814.8433;-51
2024-05-17T13:20:23.727;599616676648669860;6822.5347;-87
2024-05-17T13:20:23.735;599616676656361510;6830.2266;-110
2024-05-17T13:20:23.742;599616676664053160;6837.918;-96
2024-05-17T13:20:23.750;599616676671744810;6845.61;-96
2024-05-17T13:20:23.758;599616676679436460;6853.302;-157
2024-05-17T13:20:23.765;599616676687128110;6860.993;-221
2024-05-17T13:20:23.773;599616676694819760;6868.6846;-230
2024-05-17T13:20:23.781;599616676702511410;6876.3765;-223
2024-05-17T13:20:23.789;599616676710203060;6884.0684;-237
2024-05-17T13:20:23.796;599616676717894710;6891.76;-240
2024-05-17T13:20:23.804;599616676725586360;6899.451;-230
2024-05-17T13:20:23.812;599616676733278010;6907.143;-223
2024-05-17T13:20:23.819;599616676740969660;6914.835;-202
2024-05-17T13:20:23.827;599616676748661310;6922.5264;-164
2024-05-17T13:20:23.835;599616676756352960;6930.218;-136
2024-05-17T13:20:23.842;599616676764044610;6937.9097;-134
2024-05-17T13:20:23.850;599616676771736260;6945.6016;-143
2024-05-17T13:20:23.858;599616676779427910;6953.293;-124
2024-05-17T13:20:23.865;599616676787119560;6960.9844;-87
2024-05-17T13:20:23.873;599616676794811210;6968.6763;-77
2024-05-17T13:20:23.881;599616676802502860;6976.368;-80
2024-05-17T13:20:23.889;599616676810194510;6984.0596;-63
2024-05-17T13:20:23.896;599616676817886160;6991.751;-56
2024-05-17T13:20:23.904;599616676825577810;6999.443;-63
2024-05-17T13:20:23.912;599616676833269460;7007.135;-37
2024-05-17T13:20:23.919;599616676840961110;7014.826;4
2024-05-17T13:20:23.927;599616676848652760;7022.5176;14
2024-05-17T13:20:23.935;599616676856344410;7030.2095;4
2024-05-17T13:20:23.942;599616676864036060;7037.9014;9
2024-05-17T13:20:23.950;599616676871727710;7045.593;40
2024-05-17T13:20:23.958;599616676879419360;7053.284;73
2024-05-17T13:20:23.965;599616676887111010;7060.976;77
2024-05-17T13:20:23.973;599616676894802660;7068.668;80
2024-05-17T13:20:23.981;599616676902494310;7076.3594;103
2024-05-17T13:20:23.989;599616676910185960;7084.051;115
2024-05-17T13:20:23.996;599616676917877610;7091.7427;98
2024-05-17T13:20:24.004;599616676925569260;7099.4346;80
2024-05-17T13:20:24.012;599616676933260910;7107.126;18
2024-05-17T13:20:24.019;599616676940952560;7114.8174;-63
2024-05-17T13:20:24.027;599616676948644210;7122.5093;51
2024-05-17T13:20:24.035;599616676956335860;7130.201;501
2024-05-17T13:20:24.042;599616676964027510;7137.8926;940
2024-05-17T13:20:24.050;599616676971719160;7145.584;777
2024-05-17T13:20:24.058;599616676979410810;7153.276;56
2024-05-17T13:20:24.065;599616676987102460;7160.968;-348
2024-05-17T13:20:24.073;599616676994794110;7168.659;-155
2024-05-17T13:20:24.081;599616677002485760;7176.3506;-75
2024-05-17T13:20:24.089;599616677010177410;7184.0425;-221
2024-05-17T13:20:24.096;599616677017869060;7191.7344;-174
2024-05-17T13:20:24.104;599616677025560710;7199.4253;-75
2024-05-17T13:20:24.112;599616677033252360;7207.117;-108
2024-05-17T13:20:24.119;599616677040944010;7214.809;-127
2024-05-17T13:20:24.127;599616677048635660;7222.501;-82
2024-05-17T13:20:24.135;599616677056327310;7230.192;-44
2024-05-17T13:20:24.142;599616677064018960;7237.884;-25
2024-05-17T13:20:24.150;599616677071710610;7245.5757;-9
2024-05-17T13:20:24.158;599616677079402260;7253.2676;23
2024-05-17T13:20:24.165;599616677087093910;7260.9585;54
2024-05-17T13:20:24.173;599616677094785560;7268.6504;58
2024-05-17T13:20:24.181;599616677102477210;7276.3423;61
2024-05-17T13:20:24.189;599616677110168860;7284.034;82
2024-05-17T13:20:24.196;599616677117860510;7291.725;96
2024-05-17T13:20:24.204;599616677125542140;7299.407;82
2024-05-17T13:20:24.212;599616677133233930;7307.099;30
2024-05-17T13:20:24.219;599616677140925720;7314.791;-7
2024-05-17T13:20:24.227;599616677148617510;7322.483;-2
2024-05-17T13:20:24.235;599616677156309300;7330.1743;-16
2024-05-17T13:20:24.242;599616677164001090;7337.866;-42
2024-05-17T13:20:24.250;599616677171692880;7345.558;-58
2024-05-17T13:20:24.258;599616677179384670;7353.25;-143
2024-05-17T13:20:24.265;599616677187076460;7360.9414;-273
2024-05-17T13:20:24.273;599616677194768250;7368.6333;-308
2024-05-17T13:20:24.281;599616677202460040;7376.325;-261
2024-05-17T13:20:24.289;599616677210151830;7384.017;-242
2024-05-17T13:20:24.296;599616677217843620;7391.7085;-237
2024-05-17T13:20:24.304;599616677225535410;7399.4004;-214
2024-05-17T13:20:24.312;599616677233227200;7407.0923;-190
2024-05-17T13:20:24.319;599616677240918990;7414.784;-171
2024-05-17T13:20:24.327;599616677248610780;7422.4756;-148
2024-05-17T13:20:24.335;599616677256302570;7430.1675;-120
2024-05-17T13:20:24.342;599616677263994360;7437.8594;-82
2024-05-17T13:20:24.350;599616677271686150;7445.5513;-63
2024-05-17T13:20:24.358;599616677279377940;7453.2427;-63
2024-05-17T13:20:24.365;599616677287069730;7460.9346;-37
2024-05-17T13:20:24.373;599616677294761520;7468.6265;2
2024-05-17T13:20:24.381;599616677302453310;7476.3184;16
2024-05-17T13:20:24.389;599616677310145100;7484.01;14
2024-05-17T13:20:24.396;599616677317836890;7491.7017;30
2024-05-17T13:20:24.404;599616677325528680;7499.3936;47
2024-05-17T13:20:24.412;599616677333220470;7507.0854;56
2024-05-17T13:20:24.419;599616677340912260;7514.777;77
2024-05-17T13:20:24.427;599616677348604050;7522.4688;108
2024-05-17T13:20:24.435;599616677356295840;7530.1606;136
2024-05-17T13:20:24.442;599616677363987630;7537.853;148
2024-05-17T13:20:24.450;599616677371679420;7545.545;143
2024-05-17T13:20:24.458;599616677379371210;7553.2363;157
2024-05-17T13:20:24.465;599616677387063000;7560.928;190
2024-05-17T13:20:24.473;599616677394754790;7568.62;207
2024-05-17T13:20:24.481;599616677402446580;7576.312;207
2024-05-17T13:20:24.489;599616677410138370;7584.0034;221
2024-05-17T13:20:24.496;599616677417830160;7591.6953;183
2024-05-17T13:20:24.504;599616677425521950;7599.387;54
2024-05-17T13:20:24.512;599616677433213740;7607.079;16
2024-05-17T13:20:24.519;599616677440905530;7614.7705;334
2024-05-17T13:20:24.527;599616677448597320;7622.4624;885
2024-05-17T13:20:24.535;599616677456289110;7630.1543;1128
2024-05-17T13:20:24.542;599616677463980900;7637.846;716
2024-05-17T13:20:24.550;599616677471672690;7645.5376;82
2024-05-17T13:20:24.558;599616677479364480;7653.2295;-101
2024-05-17T13:20:24.565;599616677487056270;7660.9214;-28
2024-05-17T13:20:24.573;599616677494748060;7668.6133;-115
2024-05-17T13:20:24.581;599616677502439850;7676.3047;-153
2024-05-17T13:20:24.588;599616677510131640;7683.9966;-87
2024-05-17T13:20:24.596;599616677517823430;7691.6885;-87
2024-05-17T13:20:24.604;599616677525515220;7699.3804;-75
2024-05-17T13:20:24.612;599616677533207010;7707.072;-11
2024-05-17T13:20:24.619;599616677540898800;7714.7637;11
2024-05-17T13:20:24.627;599616677548590590;7722.4556;0
2024-05-17T13:20:24.635;599616677556282380;7730.1475;14
2024-05-17T13:20:24.642;599616677563974170;7737.839;56
2024-05-17T13:20:24.650;599616677571665960;7745.531;89
2024-05-17T13:20:24.658;599616677579357750;7753.2227;101
2024-05-17T13:20:24.665;599616677587049540;7760.9146;120
2024-05-17T13:20:24.673;599616677594741330;7768.6064;122
2024-05-17T13:20:24.681;599616677602433120;7776.298;84
2024-05-17T13:20:24.688;599616677610124910;7783.9897;47
2024-05-17T13:20:24.696;599616677617816700;7791.6816;37
2024-05-17T13:20:24.704;599616677625508490;7799.3735;35
2024-05-17T13:20:24.712;599616677633200280;7807.065;21
2024-05-17T13:20:24.719;599616677640892070;7814.757;-7
2024-05-17T13:20:24.727;599616677648583860;7822.449;-23
2024-05-17T13:20:24.735;599616677656275650;7830.141;-21
2024-05-17T13:20:24.742;599616677663967440;7837.8325;-32
2024-05-17T13:20:24.750;599616677671659230;7845.5244;-77
2024-05-17T13:20:24.758;599616677679351020;7853.2163;-98
2024-05-17T13:20:24.765;599616677687052902;7860.918;-77
2024-05-17T13:20:24.773;599616677694744552;7868.6094;-75
2024-05-17T13:20:24.781;599616677702436202;7876.3013;-84
2024-05-17T13:20:24.788;599616677710127852;7883.993;-51
2024-05-17T13:20:24.796;599616677717819502;7891.6846;-9
2024-05-17T13:20:24.804;599616677725511152;7899.376;-11
2024-05-17T13:20:24.812;599616677733202802;7907.068;-18
2024-05-17T13:20:24.819;599616677740894452;7914.76;-11
2024-05-17T13:20:24.827;599616677748586102;7922.451;-14
2024-05-17T13:20:24.835;599616677756277752;7930.1426;-58
2024-05-17T13:20:24.842;599616677763969402;7937.8345;-101
2024-05-17T13:20:24.850;599616677771661052;7945.5264;-75
2024-05-17T13:20:24.858;599616677779352702;7953.218;-35
2024-05-17T13:20:24.865;599616677787044352;7960.909;-49
2024-05-17T13:20:24.873;599616677794736002;7968.601;-51
2024-05-17T13:20:24.881;599616677802427652;7976.293;-9
2024-05-17T13:20:24.888;599616677810119302;7983.984;14
2024-05-17T13:20:24.896;599616677817810952;7991.676;4
2024-05-17T13:20:24.904;599616677825502602;7999.3677;16
2024-05-17T13:20:24.912;599616677833194252;8007.0596;42
2024-05-17T13:20:24.919;599616677840885902;8014.7505;56
2024-05-17T13:20:24.927;599616677848577552;8022.4424;77
2024-05-17T13:20:24.935;599616677856269202;8030.1343;106
2024-05-17T13:20:24.942;599616677863960852;8037.826;134
2024-05-17T13:20:24.950;599616677871652502;8045.517;141
2024-05-17T13:20:24.958;599616677879344152;8053.209;124
2024-05-17T13:20:24.965;599616677887035802;8060.901;129
2024-05-17T13:20:24.973;599616677894727452;8068.593;160
2024-05-17T13:20:24.981;599616677902419102;8076.2837;148
2024-05-17T13:20:24.988;599616677910110752;8083.9756;42
2024-05-17T13:20:24.996;599616677917802402;8091.6675;-75
2024-05-17T13:20:25.004;599616677925494052;8099.3594;42
2024-05-17T13:20:25.012;599616677933185702;8107.0503;506
2024-05-17T13:20:25.019;599616677940877352;8114.742;956
2024-05-17T13:20:25.027;599616677948569002;8122.434;864
2024-05-17T13:20:25.035;599616677956260652;8130.126;278
2024-05-17T13:20:25.042;599616677963952302;8137.8174;-120
2024-05-17T13:20:25.050;599616677971643952;8145.509;-44
2024-05-17T13:20:25.058;599616677979335602;8153.2007;-18
2024-05-17T13:20:25.065;599616677987027252;8160.8926;-193
2024-05-17T13:20:25.073;599616677994718902;8168.584;-214
2024-05-17T13:20:25.081;599616678002410552;8176.2754;-131
2024-05-17T13:20:25.088;599616678010102202;8183.9673;-131
2024-05-17T13:20:25.096;599616678017793852;8191.659;-136
2024-05-17T13:20:25.104;599616678025485502;8199.351;-101
2024-05-17T13:20:25.112;599616678033177152;8207.042;-77
2024-05-17T13:20:25.119;599616678040868802;8214.733;-51
2024-05-17T13:20:25.127;599616678048560452;8222.426;-11
2024-05-17T13:20:25.135;599616678056252102;8230.117;2
2024-05-17T13:20:25.142;599616678063943752;8237.809;-11
2024-05-17T13:20:25.150;599616678071635402;8245.5;-14
2024-05-17T13:20:25.158;599616678079327052;8253.192;-9
2024-05-17T13:20:25.165;599616678087018702;8260.884;-16
2024-05-17T13:20:25.173;599616678094710352;8268.575;-28
2024-05-17T13:20:25.181;599616678102402002;8276.267;-35
2024-05-17T13:20:25.188;599616678110093652;8283.959;-49
2024-05-17T13:20:25.196;599616678117785302;8291.65;-73
2024-05-17T13:20:25.204;599616678125476952;8299.342;-73
2024-05-17T13:20:25.212;599616678133168602;8307.033;-49
2024-05-17T13:20:25.219;599616678140860252;8314.726;-49
2024-05-17T13:20:25.227;599616678148551902;8322.417;-82
2024-05-17T13:20:25.235;599616678156243552;8330.108;-115
2024-05-17T13:20:25.242;599616678163935202;8337.8;-153
2024-05-17T13:20:25.250;599616678171626852;8345.492;-176
2024-05-17T13:20:25.258;599616678179318502;8353.184;-164
2024-05-17T13:20:25.265;599616678187010152;8360.875;-134
2024-05-17T13:20:25.273;599616678194701802;8368.566;-108
2024-05-17T13:20:25.281;599616678202393452;8376.259;-103
2024-05-17T13:20:25.288;599616678210085102;8383.95;-98
2024-05-17T13:20:25.296;599616678217776752;8391.642;-58
2024-05-17T13:20:25.304;599616678225468402;8399.333;-11
2024-05-17T13:20:25.312;599616678233160052;8407.025;2
2024-05-17T13:20:25.319;599616678240851702;8414.717;4
2024-05-17T13:20:25.327;599616678248553418;8422.418;4
2024-05-17T13:20:25.335;599616678256244929;8430.11;16
2024-05-17T13:20:25.342;599616678263936440;8437.802;42
2024-05-17T13:20:25.350;599616678271627951;8445.493;54
2024-05-17T13:20:25.358;599616678279319462;8453.185;75
2024-05-17T13:20:25.365;599616678287010973;8460.876;89
2024-05-17T13:20:25.373;599616678294702484;8468.567;30
2024-05-17T13:20:25.381;599616678302393995;8476.259;-37
2024-05-17T13:20:25.388;599616678310085506;8483.95;-2
2024-05-17T13:20:25.396;599616678317777017;8491.642;54
2024-05-17T13:20:25.404;599616678325468528;8499.334;47
2024-05-17T13:20:25.412;599616678333160039;8507.024;47
2024-05-17T13:20:25.419;599616678340851550;8514.717;87
2024-05-17T13:20:25.427;599616678348543061;8522.408;113
2024-05-17T13:20:25.435;599616678356234572;8530.1;117
2024-05-17T13:20:25.442;599616678363926083;8537.791;141
2024-05-17T13:20:25.450;599616678371617594;8545.482;181
2024-05-17T13:20:25.458;599616678379309105;8553.174;193
2024-05-17T13:20:25.465;599616678387000616;8560.866;157
2024-05-17T13:20:25.473;599616678394692127;8568.557;94
2024-05-17T13:20:25.481;599616678402383638;8576.249;11
2024-05-17T13:20:25.488;599616678410075149;8583.94;-16
2024-05-17T13:20:25.496;599616678417766660;8591.632;237
2024-05-17T13:20:25.504;599616678425458171;8599.323;763
2024-05-17T13:20:25.512;599616678433149682;8607.015;1031
2024-05-17T13:20:25.519;599616678440841193;8614.706;636
2024-05-17T13:20:25.527;599616678448532704;8622.397;21
2024-05-17T13:20:25.535;599616678456224215;8630.09;-89
2024-05-17T13:20:25.542;599616678463915726;8637.781;98
2024-05-17T13:20:25.550;599616678471607237;8645.473;47
2024-05-17T13:20:25.558;599616678479298748;8653.163;-56
2024-05-17T13:20:25.565;599616678486990259;8660.855;-32
2024-05-17T13:20:25.573;599616678494681770;8668.547;-73
2024-05-17T13:20:25.581;599616678502373281;8676.238;-124
2024-05-17T13:20:25.588;599616678510064792;8683.93;-75
2024-05-17T13:20:25.596;599616678517756303;8691.621;-28
2024-05-17T13:20:25.604;599616678525447814;8699.313;-23
2024-05-17T13:20:25.612;599616678533139325;8707.005;-4
2024-05-17T13:20:25.619;599616678540830836;8714.695;28
2024-05-17T13:20:25.627;599616678548522347;8722.387;58
2024-05-17T13:20:25.635;599616678556213858;8730.079;75
2024-05-17T13:20:25.642;599616678563905369;8737.7705;54
2024-05-17T13:20:25.650;599616678571596880;8745.462;28
2024-05-17T13:20:25.658;599616678579288391;8753.153;30
2024-05-17T13:20:25.665;599616678586979902;8760.846;28
2024-05-17T13:20:25.673;599616678594671413;8768.536;21
2024-05-17T13:20:25.681;599616678602362924;8776.228;25
2024-05-17T13:20:25.688;599616678610054435;8783.919;30
2024-05-17T13:20:25.696;599616678617745946;8791.611;21
2024-05-17T13:20:25.704;599616678625437457;8799.303;-2
2024-05-17T13:20:25.711;599616678633128968;8806.994;-11
2024-05-17T13:20:25.719;599616678640820479;8814.686;4
2024-05-17T13:20:25.727;599616678648511990;8822.378;7
2024-05-17T13:20:25.735;599616678656203501;8830.068;-35
2024-05-17T13:20:25.742;599616678663895012;8837.76;-73
2024-05-17T13:20:25.750;599616678671586523;8845.451;-54
2024-05-17T13:20:25.758;599616678679278034;8853.144;-21
2024-05-17T13:20:25.765;599616678686969545;8860.835;-4
2024-05-17T13:20:25.773;599616678694661056;8868.526;21
2024-05-17T13:20:25.781;599616678702352567;8876.218;47
2024-05-17T13:20:25.788;599616678710044078;8883.909;51
2024-05-17T13:20:25.796;599616678717735589;8891.601;49
2024-05-17T13:20:25.804;599616678725427100;8899.292;73
2024-05-17T13:20:25.811;599616678733118611;8906.983;108
2024-05-17T13:20:25.819;599616678740810122;8914.675;127
2024-05-17T13:20:25.827;599616678748501633;8922.367;124
2024-05-17T13:20:25.835;599616678756193144;8930.059;120
2024-05-17T13:20:25.842;599616678763884655;8937.749;143
2024-05-17T13:20:25.850;599616678771576166;8945.44;171
2024-05-17T13:20:25.858;599616678779267677;8953.133;169
2024-05-17T13:20:25.865;599616678786959188;8960.824;176
2024-05-17T13:20:25.873;599616678794650699;8968.516;207
2024-05-17T13:20:25.881;599616678802342210;8976.207;204
2024-05-17T13:20:25.888;599616678810013668;8983.879;197
2024-05-17T13:20:25.896;599616678817705458;8991.571;230
2024-05-17T13:20:25.904;599616678825397248;8999.263;268
2024-05-17T13:20:25.911;599616678833089038;9006.954;280
2024-05-17T13:20:25.919;599616678840780828;9014.6455;270
2024-05-17T13:20:25.927;599616678848472618;9022.338;266
2024-05-17T13:20:25.935;599616678856164408;9030.029;270
2024-05-17T13:20:25.942;599616678863856198;9037.722;240
2024-05-17T13:20:25.950;599616678871547988;9045.413;176
2024-05-17T13:20:25.958;599616678879239778;9053.105;136
2024-05-17T13:20:25.965;599616678886931568;9060.797;91
2024-05-17T13:20:25.973;599616678894623358;9068.488;9
2024-05-17T13:20:25.981;599616678902315148;9076.18;42
2024-05-17T13:20:25.988;599616678910006938;9083.872;407
2024-05-17T13:20:25.996;599616678917698728;9091.563;932
2024-05-17T13:20:26.004;599616678925390518;9099.256;1020
2024-05-17T13:20:26.011;599616678933082308;9106.947;466
2024-05-17T13:20:26.019;599616678940774098;9114.64;-56
2024-05-17T13:20:26.027;599616678948465888;9122.331;-21
2024-05-17T13:20:26.035;599616678956157678;9130.022;115
2024-05-17T13:20:26.042;599616678963849468;9137.714;25
2024-05-17T13:20:26.050;599616678971541258;9145.406;11
2024-05-17T13:20:26.058;599616678979233048;9153.098;94
2024-05-17T13:20:26.065;599616678986924838;9160.79;61
2024-05-17T13:20:26.073;599616678994616628;9168.481;-18
2024-05-17T13:20:26.081;599616679002308418;9176.174;-9
2024-05-17T13:20:26.088;599616679010000208;9183.865;32
2024-05-17T13:20:26.096;599616679017691998;9191.557;42
2024-05-17T13:20:26.104;599616679025383788;9199.248;56
2024-05-17T13:20:26.111;599616679033075578;9206.94;87
2024-05-17T13:20:26.119;599616679040767368;9214.632;87
2024-05-17T13:20:26.127;599616679048459158;9222.324;70
2024-05-17T13:20:26.135;599616679056150948;9230.016;77
2024-05-17T13:20:26.142;599616679063842738;9237.708;87
2024-05-17T13:20:26.150;599616679071534528;9245.4;63
2024-05-17T13:20:26.158;599616679079226318;9253.092;40
2024-05-17T13:20:26.165;599616679086918108;9260.783;47
2024-05-17T13:20:26.173;599616679094609898;9268.475;68
2024-05-17T13:20:26.181;599616679102301688;9276.167;70
2024-05-17T13:20:26.188;599616679109993478;9283.858;56
2024-05-17T13:20:26.196;599616679117685268;9291.551;49
2024-05-17T13:20:26.204;599616679125377058;9299.242;40
2024-05-17T13:20:26.211;599616679133068848;9306.935;18
2024-05-17T13:20:26.219;599616679140760638;9314.626;-7
2024-05-17T13:20:26.227;599616679148452428;9322.317;-40
2024-05-17T13:20:26.235;599616679156144218;9330.009;-56
2024-05-17T13:20:26.242;599616679163836008;9337.701;-47
2024-05-17T13:20:26.250;599616679171527798;9345.393;-40
2024-05-17T13:20:26.258;599616679179219588;9353.085;-23
2024-05-17T13:20:26.265;599616679186911378;9360.776;30
2024-05-17T13:20:26.273;599616679194603168;9368.469;51
2024-05-17T13:20:26.281;599616679202294958;9376.16;44
2024-05-17T13:20:26.288;599616679209986748;9383.852;68
2024-05-17T13:20:26.296;599616679217678538;9391.543;96
2024-05-17T13:20:26.304;599616679225370328;9399.235;91
2024-05-17T13:20:26.311;599616679233062118;9406.927;94
2024-05-17T13:20:26.319;599616679240753908;9414.619;124
2024-05-17T13:20:26.327;599616679248445698;9422.311;153
2024-05-17T13:20:26.335;599616679256137488;9430.003;153
2024-05-17T13:20:26.342;599616679263829278;9437.694;148
2024-05-17T13:20:26.350;599616679271521068;9445.387;164
2024-05-17T13:20:26.358;599616679279212858;9453.077;188
2024-05-17T13:20:26.365;599616679286904648;9460.77;190
2024-05-17T13:20:26.373;599616679294596438;9468.461;193
2024-05-17T13:20:26.381;599616679302288228;9476.153;219
2024-05-17T13:20:26.388;599616679309980018;9483.845;237
2024-05-17T13:20:26.396;599616679317671808;9491.537;233
2024-05-17T13:20:26.404;599616679325363598;9499.229;249
2024-05-17T13:20:26.411;599616679333055388;9506.921;287
2024-05-17T13:20:26.419;599616679340747178;9514.612;301
2024-05-17T13:20:26.427;599616679348438968;9522.304;287
2024-05-17T13:20:26.434;599616679356130758;9529.996;278
2024-05-17T13:20:26.442;599616679363822548;9537.6875;278
2024-05-17T13:20:26.450;599616679371544444;9545.409;249
2024-05-17T13:20:26.458;599616679379235816;9553.101;190
2024-05-17T13:20:26.465;599616679386927188;9560.792;129
2024-05-17T13:20:26.473;599616679394618560;9568.483;117
2024-05-17T13:20:26.481;599616679402309932;9576.175;325
2024-05-17T13:20:26.488;599616679410001304;9583.866;768
2024-05-17T13:20:26.496;599616679417692676;9591.559;994
2024-05-17T13:20:26.504;599616679425384048;9599.249;610
2024-05-17T13:20:26.511;599616679433075420;9606.94;14
2024-05-17T13:20:26.519;599616679440766792;9614.632;-106
2024-05-17T13:20:26.527;599616679448458164;9622.323;54
2024-05-17T13:20:26.535;599616679456149536;9630.015;11
2024-05-17T13:20:26.542;599616679463840908;9637.706;-51
2024-05-17T13:20:26.550;599616679471532280;9645.397;14
2024-05-17T13:20:26.558;599616679479223652;9653.088;51
2024-05-17T13:20:26.565;599616679486915024;9660.78;35
2024-05-17T13:20:26.573;599616679494606396;9668.472;-7
2024-05-17T13:20:26.581;599616679502297768;9676.163;-47
2024-05-17T13:20:26.588;599616679509989140;9683.8545;-16
2024-05-17T13:20:26.596;599616679517680512;9691.546;40
2024-05-17T13:20:26.604;599616679525371884;9699.237;54
2024-05-17T13:20:26.611;599616679533063256;9706.928;37
2024-05-17T13:20:26.619;599616679540754628;9714.619;18
2024-05-17T13:20:26.627;599616679548446000;9722.311;23
2024-05-17T13:20:26.635;599616679556137372;9730.002;28
2024-05-17T13:20:26.642;599616679563828744;9737.694;25
2024-05-17T13:20:26.650;599616679571520116;9745.386;56
2024-05-17T13:20:26.658;599616679579211488;9753.077;77
2024-05-17T13:20:26.665;599616679586902860;9760.768;58
2024-05-17T13:20:26.673;599616679594594232;9768.459;47
2024-05-17T13:20:26.681;599616679602285604;9776.15;68
2024-05-17T13:20:26.688;599616679609976976;9783.842;77
2024-05-17T13:20:26.696;599616679617668348;9791.533;61
2024-05-17T13:20:26.704;599616679625359720;9799.225;44
2024-05-17T13:20:26.711;599616679633051092;9806.917;21
2024-05-17T13:20:26.719;599616679640742464;9814.607;-30
2024-05-17T13:20:26.727;599616679648433836;9822.299;-75
2024-05-17T13:20:26.734;599616679656125208;9829.99;-51
2024-05-17T13:20:26.742;599616679663816580;9837.682;-2
2024-05-17T13:20:26.750;599616679671507952;9845.373;9
2024-05-17T13:20:26.758;599616679679199324;9853.064;2
2024-05-17T13:20:26.765;599616679686890696;9860.756;23
2024-05-17T13:20:26.773;599616679694582068;9868.446;61
2024-05-17T13:20:26.781;599616679702273440;9876.138;84
2024-05-17T13:20:26.788;599616679709964812;9883.83;94
2024-05-17T13:20:26.796;599616679717656184;9891.521;110
2024-05-17T13:20:26.804;599616679725347556;9899.213;122
2024-05-17T13:20:26.811;599616679733038928;9906.904;127
2024-05-17T13:20:26.819;599616679740730300;9914.596;141
2024-05-17T13:20:26.827;599616679748421672;9922.286;167
2024-05-17T13:20:26.834;599616679756113044;9929.978;190
2024-05-17T13:20:26.842;599616679763804416;9937.669;190
2024-05-17T13:20:26.850;599616679771495788;9945.36;174
2024-05-17T13:20:26.858;599616679779187160;9953.053;176
2024-05-17T13:20:26.865;599616679786878532;9960.744;214
2024-05-17T13:20:26.873;599616679794569904;9968.436;240
2024-05-17T13:20:26.881;599616679802261276;9976.126;242
2024-05-17T13:20:26.888;599616679809952648;9983.817;259
2024-05-17T13:20:26.896;599616679817644020;9991.509;278
2024-05-17T13:20:26.904;599616679825335392;9999.2;263
2024-05-17T13:20:26.911;599616679833026764;10006.892;263
2024-05-17T13:20:26.919;599616679840718136;10014.583;306
2024-05-17T13:20:26.927;599616679848409508;10022.274;332
2024-05-17T13:20:26.934;599616679856100880;10029.967;289
2024-05-17T13:20:26.942;599616679863792252;10037.657;212
2024-05-17T13:20:26.950;599616679871483624;10045.349;162
2024-05-17T13:20:26.958;599616679879174996;10053.04;171
2024-05-17T13:20:26.965;599616679886866368;10060.731;362
2024-05-17T13:20:26.973;599616679894557740;10068.423;819
2024-05-17T13:20:26.981;599616679902249112;10076.114;1170
2024-05-17T13:20:26.988;599616679909940484;10083.806;876
2024-05-17T13:20:26.996;599616679917631856;10091.496;204
2024-05-17T13:20:27.004;599616679925323228;10099.188;-18
2024-05-17T13:20:27.011;599616679933004602;10106.87;179
2024-05-17T13:20:27.019;599616679940696113;10114.561;186
2024-05-17T13:20:27.027;599616679948387624;10122.252;61
2024-05-17T13:20:27.034;599616679956079135;10129.944;91
2024-05-17T13:20:27.042;599616679963770646;10137.636;139
2024-05-17T13:20:27.050;599616679971462157;10145.327;96
2024-05-17T13:20:27.058;599616679979153668;10153.019;44
2024-05-17T13:20:27.065;599616679986845179;10160.711;23
2024-05-17T13:20:27.073;599616679994536690;10168.402;-23
2024-05-17T13:20:27.081;599616680002228201;10176.093;-89
2024-05-17T13:20:27.088;599616680009919712;10183.784;-91
2024-05-17T13:20:27.096;599616680017611223;10191.477;-54
2024-05-17T13:20:27.104;599616680025302734;10199.168;-42
2024-05-17T13:20:27.111;599616680032994245;10206.859;-37
2024-05-17T13:20:27.119;599616680040685756;10214.551;-42
2024-05-17T13:20:27.127;599616680048377267;10222.243;-58
2024-05-17T13:20:27.134;599616680056068778;10229.934;-42
2024-05-17T13:20:27.142;599616680063760289;10237.625;-14
2024-05-17T13:20:27.150;599616680071451800;10245.316;-14
2024-05-17T13:20:27.158;599616680079143311;10253.008;-7
2024-05-17T13:20:27.165;599616680086834822;10260.7;4
2024-05-17T13:20:27.173;599616680094526333;10268.392;-18
2024-05-17T13:20:27.181;599616680102217844;10276.083;-47
2024-05-17T13:20:27.188;599616680109909355;10283.774;-42
2024-05-17T13:20:27.196;599616680117600866;10291.466;-23
2024-05-17T13:20:27.204;599616680125292377;10299.157;-25
2024-05-17T13:20:27.211;599616680132983888;10306.849;-65
2024-05-17T13:20:27.219;599616680140675399;10314.54;-96
2024-05-17T13:20:27.227;599616680148366910;10322.232;-75
2024-05-17T13:20:27.234;599616680156058421;10329.924;-51
2024-05-17T13:20:27.242;599616680163749932;10337.615;-40
2024-05-17T13:20:27.250;599616680171441443;10345.306;4
2024-05-17T13:20:27.257;599616680179132954;10352.998;44
2024-05-17T13:20:27.265;599616680186824465;10360.689;28
2024-05-17T13:20:27.273;599616680194515976;10368.381;28
2024-05-17T13:20:27.281;599616680202207487;10376.072;84
2024-05-17T13:20:27.288;599616680209898998;10383.765;117
2024-05-17T13:20:27.296;599616680217590509;10391.456;117
2024-05-17T13:20:27.304;599616680225282020;10399.147;134
2024-05-17T13:20:27.311;599616680232973531;10406.838;153
2024-05-17T13:20:27.319;599616680240665042;10414.53;150
2024-05-17T13:20:27.327;599616680248356553;10422.222;162
2024-05-17T13:20:27.334;599616680256048064;10429.913;193
2024-05-17T13:20:27.342;599616680263739575;10437.6045;221
2024-05-17T13:20:27.350;599616680271431086;10445.297;233
2024-05-17T13:20:27.357;599616680279122597;10452.988;230
2024-05-17T13:20:27.365;599616680286814108;10460.679;237
2024-05-17T13:20:27.373;599616680294505619;10468.37;282
2024-05-17T13:20:27.381;599616680302197130;10476.062;313
2024-05-17T13:20:27.388;599616680309888641;10483.754;306
2024-05-17T13:20:27.396;599616680317580152;10491.445;313
2024-05-17T13:20:27.404;599616680325271663;10499.137;332
2024-05-17T13:20:27.411;599616680332963174;10506.828;327
2024-05-17T13:20:27.419;599616680340654685;10514.5205;301
2024-05-17T13:20:27.427;599616680348346196;10522.211;278
2024-05-17T13:20:27.434;599616680356037707;10529.902;237
2024-05-17T13:20:27.442;599616680363729218;10537.594;176
2024-05-17T13:20:27.450;599616680371420729;10545.286;273
2024-05-17T13:20:27.457;599616680379112240;10552.978;690
2024-05-17T13:20:27.465;599616680386803751;10560.669;1133
2024-05-17T13:20:27.473;599616680394495262;10568.36;1043
2024-05-17T13:20:27.481;599616680402186773;10576.052;426
2024-05-17T13:20:27.488;599616680409878284;10583.743;11
2024-05-17T13:20:27.496;599616680417569795;10591.435;113
2024-05-17T13:20:27.504;599616680425261306;10599.126;179
2024-05-17T13:20:27.511;599616680432952817;10606.818;65
2024-05-17T13:20:27.519;599616680440644328;10614.51;101
2024-05-17T13:20:27.527;599616680448335839;10622.201;186
2024-05-17T13:20:27.534;599616680456027350;10629.893;153
2024-05-17T13:20:27.542;599616680463718861;10637.584;129
2024-05-17T13:20:27.550;599616680471410372;10645.275;176
2024-05-17T13:20:27.557;599616680479101883;10652.967;207
2024-05-17T13:20:27.565;599616680486793394;10660.658;207
2024-05-17T13:20:27.573;599616680494474930;10668.34;209
2024-05-17T13:20:27.581;599616680502166580;10676.031;150
2024-05-17T13:20:27.588;599616680509858230;10683.724;49
2024-05-17T13:20:27.596;599616680517549880;10691.415;25
2024-05-17T13:20:27.604;599616680525241530;10699.106;49
2024-05-17T13:20:27.611;599616680532933180;10706.799;35
2024-05-17T13:20:27.619;599616680540624830;10714.49;40
2024-05-17T13:20:27.627;599616680548316480;10722.181;63
2024-05-17T13:20:27.634;599616680556008130;10729.873;51
2024-05-17T13:20:27.642;599616680563699780;10737.564;37
2024-05-17T13:20:27.650;599616680571391430;10745.257;18
2024-05-17T13:20:27.657;599616680579083080;10752.948;-40
2024-05-17T13:20:27.665;599616680586774730;10760.64;-70
2024-05-17T13:20:27.673;599616680594466380;10768.332;-51
2024-05-17T13:20:27.681;599616680602158030;10776.023;-58
2024-05-17T13:20:27.688;599616680609849680;10783.714;-80
2024-05-17T13:20:27.696;599616680617541330;10791.406;-77
2024-05-17T13:20:27.704;599616680625232980;10799.098;-84
2024-05-17T13:20:27.711;599616680632924630;10806.79;-108
2024-05-17T13:20:27.719;599616680640616280;10814.481;-106
2024-05-17T13:20:27.727;599616680648307930;10822.173;-80
2024-05-17T13:20:27.734;599616680655999580;10829.865;-47
2024-05-17T13:20:27.742;599616680663691230;10837.557;-18
2024-05-17T13:20:27.750;599616680671382880;10845.247;2
2024-05-17T13:20:27.757;599616680679074530;10852.939;35
2024-05-17T13:20:27.765;599616680686766180;10860.631;61
2024-05-17T13:20:27.773;599616680694457830;10868.323;56
2024-05-17T13:20:27.781;599616680702149480;10876.015;56
2024-05-17T13:20:27.788;599616680709841130;10883.706;94
2024-05-17T13:20:27.796;599616680717532780;10891.398;131
2024-05-17T13:20:27.804;599616680725224430;10899.09;143
2024-05-17T13:20:27.811;599616680732916080;10906.78;146
2024-05-17T13:20:27.819;599616680740607730;10914.473;155
2024-05-17T13:20:27.827;599616680748299380;10922.164;164
2024-05-17T13:20:27.834;599616680755991030;10929.856;179
2024-05-17T13:20:27.842;599616680763682680;10937.548;202
2024-05-17T13:20:27.850;599616680771374330;10945.239;233
2024-05-17T13:20:27.857;599616680779065980;10952.932;268
2024-05-17T13:20:27.865;599616680786757630;10960.623;275
2024-05-17T13:20:27.873;599616680794449280;10968.313;263
2024-05-17T13:20:27.881;599616680802140930;10976.006;282
2024-05-17T13:20:27.888;599616680809832580;10983.697;315
2024-05-17T13:20:27.896;599616680817524230;10991.39;322
2024-05-17T13:20:27.904;599616680825215880;10999.081;306
2024-05-17T13:20:27.911;599616680832907530;11006.772;266
2024-05-17T13:20:27.919;599616680840599180;11014.465;186
2024-05-17T13:20:27.927;599616680848290830;11022.156;134
2024-05-17T13:20:27.934;599616680855982480;11029.847;308
2024-05-17T13:20:27.942;599616680863674130;11037.539;793
2024-05-17T13:20:27.950;599616680871365780;11045.23;1203
2024-05-17T13:20:27.957;599616680879057430;11052.923;991
2024-05-17T13:20:27.965;599616680886749080;11060.614;327
2024-05-17T13:20:27.973;599616680894440730;11068.306;2
2024-05-17T13:20:27.980;599616680902132380;11075.998;139
2024-05-17T13:20:27.988;599616680909824030;11083.688;162
2024-05-17T13:20:27.996;599616680917515680;11091.38;63
2024-05-17T13:20:28.004;599616680925207330;11099.072;101
2024-05-17T13:20:28.011;599616680932898980;11106.764;136
2024-05-17T13:20:28.019;599616680940590630;11114.456;117
2024-05-17T13:20:28.027;599616680948282280;11122.147;150
2024-05-17T13:20:28.034;599616680955973930;11129.839;200
2024-05-17T13:20:28.042;599616680963665580;11137.531;200
2024-05-17T13:20:28.050;599616680971357230;11145.222;186
2024-05-17T13:20:28.057;599616680979048880;11152.914;212
2024-05-17T13:20:28.065;599616680986740530;11160.605;249
2024-05-17T13:20:28.073;599616680994432180;11168.297;245
2024-05-17T13:20:28.080;599616681002123830;11175.989;207
2024-05-17T13:20:28.088;599616681009815480;11183.681;146
2024-05-17T13:20:28.096;599616681017507130;11191.372;47
2024-05-17T13:20:28.104;599616681025198780;11199.064;-18
2024-05-17T13:20:28.111;599616681032890430;11206.755;4
2024-05-17T13:20:28.119;599616681040582080;11214.447;35
2024-05-17T13:20:28.127;599616681048273730;11222.139;25
2024-05-17T13:20:28.134;599616681055985456;11229.851;2
2024-05-17T13:20:28.142;599616681063676828;11237.542;-25
2024-05-17T13:20:28.150;599616681071368200;11245.233;-28
2024-05-17T13:20:28.157;599616681079059572;11252.925;0
2024-05-17T13:20:28.165;599616681086750944;11260.615;0
2024-05-17T13:20:28.173;599616681094442316;11268.307;-14
2024-05-17T13:20:28.180;599616681102133688;11275.999;0
2024-05-17T13:20:28.188;599616681109825060;11283.69;2
2024-05-17T13:20:28.196;599616681117516432;11291.382;-30
2024-05-17T13:20:28.204;599616681125207804;11299.073;-40
2024-05-17T13:20:28.211;599616681132899176;11306.765;0
2024-05-17T13:20:28.219;599616681140590548;11314.455;11
2024-05-17T13:20:28.227;599616681148281920;11322.146;-54
2024-05-17T13:20:28.234;599616681155973292;11329.838;-91
2024-05-17T13:20:28.242;599616681163664664;11337.529;-47
2024-05-17T13:20:28.250;599616681171356036;11345.221;-7
2024-05-17T13:20:28.257;599616681179047408;11352.913;-4
2024-05-17T13:20:28.265;599616681186738780;11360.6045;25
2024-05-17T13:20:28.273;599616681194430152;11368.296;63
2024-05-17T13:20:28.280;599616681202121524;11375.986;54
2024-05-17T13:20:28.288;599616681209812896;11383.678;40
2024-05-17T13:20:28.296;599616681217504268;11391.369;70
2024-05-17T13:20:28.304;599616681225195640;11399.061;113
2024-05-17T13:20:28.311;599616681232887012;11406.752;139
2024-05-17T13:20:28.319;599616681240578384;11414.443;148
2024-05-17T13:20:28.327;599616681248269756;11422.136;150
2024-05-17T13:20:28.334;599616681255961128;11429.826;174
2024-05-17T13:20:28.342;599616681263652500;11437.518;209
2024-05-17T13:20:28.350;599616681271343872;11445.209;223
2024-05-17T13:20:28.357;599616681279035244;11452.9;240
2024-05-17T13:20:28.365;599616681286726616;11460.592;263
2024-05-17T13:20:28.373;599616681294417988;11468.283;259
2024-05-17T13:20:28.380;599616681302109360;11475.975;249
2024-05-17T13:20:28.388;599616681309800732;11483.665;273
2024-05-17T13:20:28.396;599616681317492104;11491.356;266
2024-05-17T13:20:28.404;599616681325183476;11499.049;167
2024-05-17T13:20:28.411;599616681332874848;11506.74;106
2024-05-17T13:20:28.419;599616681340566220;11514.432;334
2024-05-17T13:20:28.427;599616681348257592;11522.123;859
2024-05-17T13:20:28.434;599616681355948964;11529.814;1218
2024-05-17T13:20:28.442;599616681363640336;11537.505;921
2024-05-17T13:20:28.450;599616681371331708;11545.196;245
2024-05-17T13:20:28.457;599616681379023080;11552.888;-4
2024-05-17T13:20:28.465;599616681386714452;11560.579;143
2024-05-17T13:20:28.473;599616681394405824;11568.271;127
2024-05-17T13:20:28.480;599616681402097196;11575.963;51
2024-05-17T13:20:28.488;599616681409788568;11583.654;124
2024-05-17T13:20:28.496;599616681417479940;11591.345;150
2024-05-17T13:20:28.504;599616681425171312;11599.036;124
2024-05-17T13:20:28.511;599616681432862684;11606.728;148
2024-05-17T13:20:28.519;599616681440554056;11614.419;176
2024-05-17T13:20:28.527;599616681448245428;11622.11;176
2024-05-17T13:20:28.534;599616681455936800;11629.802;197
2024-05-17T13:20:28.542;599616681463628172;11637.493;240
2024-05-17T13:20:28.550;599616681471319544;11645.185;259
2024-05-17T13:20:28.557;599616681479010916;11652.876;242
2024-05-17T13:20:28.565;599616681486702288;11660.567;223
2024-05-17T13:20:28.573;599616681494393660;11668.259;226
2024-05-17T13:20:28.580;599616681502085032;11675.95;223
2024-05-17T13:20:28.588;599616681509776404;11683.642;157
2024-05-17T13:20:28.596;599616681517467776;11691.333;58
2024-05-17T13:20:28.604;599616681525159148;11699.023;21
2024-05-17T13:20:28.611;599616681532850520;11706.715;30
2024-05-17T13:20:28.619;599616681540541892;11714.407;16
2024-05-17T13:20:28.627;599616681548233264;11722.099;4
2024-05-17T13:20:28.634;599616681555924636;11729.79;18
2024-05-17T13:20:28.642;599616681563616008;11737.481;9
2024-05-17T13:20:28.650;599616681571307380;11745.173;-28
2024-05-17T13:20:28.657;599616681578998752;11752.863;-23
2024-05-17T13:20:28.665;599616681586690124;11760.555;18
2024-05-17T13:20:28.673;599616681594381496;11768.246;28
2024-05-17T13:20:28.680;599616681602072868;11775.9375;11
2024-05-17T13:20:28.688;599616681609764240;11783.629;-7
2024-05-17T13:20:28.696;599616681617425524;11791.29;-35
2024-05-17T13:20:28.703;599616681625117314;11798.982;-37
2024-05-17T13:20:28.711;599616681632809104;11806.674;-7
2024-05-17T13:20:28.719;599616681640500894;11814.366;30
2024-05-17T13:20:28.727;599616681648192684;11822.058;63
2024-05-17T13:20:28.734;599616681655884474;11829.75;65
2024-05-17T13:20:28.742;599616681663576264;11837.441;58
2024-05-17T13:20:28.750;599616681671268054;11845.134;84
2024-05-17T13:20:28.757;599616681678959844;11852.824;106
2024-05-17T13:20:28.765;599616681686651634;11860.517;58
2024-05-17T13:20:28.773;599616681694343424;11868.208;16
2024-05-17T13:20:28.780;599616681702035214;11875.9;42
2024-05-17T13:20:28.788;599616681709727004;11883.592;58
2024-05-17T13:20:28.796;599616681717418794;11891.284;47
2024-05-17T13:20:28.803;599616681725110584;11898.976;70
2024-05-17T13:20:28.811;599616681732802374;11906.668;117
2024-05-17T13:20:28.819;599616681740494164;11914.358;148
2024-05-17T13:20:28.827;599616681748185954;11922.051;162
2024-05-17T13:20:28.834;599616681755877744;11929.742;174
2024-05-17T13:20:28.842;599616681763569534;11937.435;188
2024-05-17T13:20:28.850;599616681771261324;11945.126;204
2024-05-17T13:20:28.857;599616681778953114;11952.818;219
2024-05-17T13:20:28.865;599616681786644904;11960.51;242
2024-05-17T13:20:28.873;599616681794336694;11968.202;266
2024-05-17T13:20:28.880;599616681802028484;11975.894;219
2024-05-17T13:20:28.888;599616681809720274;11983.585;103
2024-05-17T13:20:28.896;599616681817412064;11991.277;91
2024-05-17T13:20:28.903;599616681825103854;11998.969;407
2024-05-17T13:20:28.911;599616681832795644;12006.661;937
2024-05-17T13:20:28.919;599616681840487434;12014.353;1173
2024-05-17T13:20:28.927;599616681848179224;12022.045;765
2024-05-17T13:20:28.934;599616681855871014;12029.736;117
2024-05-17T13:20:28.942;599616681863562804;12037.429;-61
2024-05-17T13:20:28.950;599616681871254594;12045.119;91
2024-05-17T13:20:28.957;599616681878946384;12052.812;77
2024-05-17T13:20:28.965;599616681886638174;12060.503;11
2024-05-17T13:20:28.973;599616681894329964;12068.195;54
2024-05-17T13:20:28.980;599616681902021754;12075.887;70
2024-05-17T13:20:28.988;599616681909713544;12083.579;75
2024-05-17T13:20:28.996;599616681917405334;12091.2705;117
2024-05-17T13:20:29.003;599616681925097124;12098.963;141
2024-05-17T13:20:29.011;599616681932788914;12106.653;141
2024-05-17T13:20:29.019;599616681940480704;12114.346;155
2024-05-17T13:20:29.027;599616681948172494;12122.037;181
2024-05-17T13:20:29.034;599616681955864284;12129.7295;204
2024-05-17T13:20:29.042;599616681963556074;12137.421;223
2024-05-17T13:20:29.050;599616681971247864;12145.113;237
2024-05-17T13:20:29.057;599616681978939654;12152.805;223
2024-05-17T13:20:29.065;599616681986631444;12160.497;186
2024-05-17T13:20:29.073;599616681994323234;12168.1875;155
2024-05-17T13:20:29.080;599616682002015024;12175.88;146
2024-05-17T13:20:29.088;599616682009706814;12183.571;143
2024-05-17T13:20:29.096;599616682017398604;12191.264;101
2024-05-17T13:20:29.103;599616682025090394;12198.955;14
2024-05-17T13:20:29.111;599616682032782184;12206.647;-42
2024-05-17T13:20:29.119;599616682040473974;12214.339;-51
2024-05-17T13:20:29.127;599616682048165764;12222.031;-70
2024-05-17T13:20:29.134;599616682055857554;12229.722;-73
2024-05-17T13:20:29.142;599616682063549344;12237.414;-35
2024-05-17T13:20:29.150;599616682071241134;12245.106;-23
2024-05-17T13:20:29.157;599616682078932924;12252.798;-49
2024-05-17T13:20:29.165;599616682086624714;12260.49;-44
2024-05-17T13:20:29.173;599616682094316504;12268.182;-11
2024-05-17T13:20:29.180;599616682102008294;12275.874;-11
2024-05-17T13:20:29.188;599616682109700084;12283.565;-28
2024-05-17T13:20:29.196;599616682117391874;12291.258;-2
2024-05-17T13:20:29.203;599616682125083664;12298.948;23
2024-05-17T13:20:29.211;599616682132775454;12306.641;21
2024-05-17T13:20:29.219;599616682140467244;12314.332;32
2024-05-17T13:20:29.227;599616682148159034;12322.024;65
2024-05-17T13:20:29.234;599616682155850824;12329.716;101
2024-05-17T13:20:29.242;599616682163542614;12337.408;110
2024-05-17T13:20:29.250;599616682171234404;12345.1;98
2024-05-17T13:20:29.257;599616682178956302;12352.821;110
2024-05-17T13:20:29.265;599616682186647674;12360.513;141
2024-05-17T13:20:29.273;599616682194339046;12368.204;153
2024-05-17T13:20:29.280;599616682202030418;12375.8955;160
2024-05-17T13:20:29.288;599616682209721790;12383.587;183
2024-05-17T13:20:29.296;599616682217413162;12391.278;179
2024-05-17T13:20:29.303;599616682225104534;12398.97;117
2024-05-17T13:20:29.311;599616682232795906;12406.661;77
2024-05-17T13:20:29.319;599616682240487278;12414.353;124
2024-05-17T13:20:29.327;599616682248178650;12422.044;171
2024-05-17T13:20:29.334;599616682255870022;12429.735;155
2024-05-17T13:20:29.342;599616682263561394;12437.426;141
2024-05-17T13:20:29.350;599616682271252766;12445.117;171
2024-05-17T13:20:29.357;599616682278944138;12452.809;195
2024-05-17T13:20:29.365;599616682286635510;12460.501;160
2024-05-17T13:20:29.373;599616682294326882;12468.192;89
2024-05-17T13:20:29.380;599616682302018254;12475.884;131
2024-05-17T13:20:29.388;599616682309709626;12483.575;480
2024-05-17T13:20:29.396;599616682317400998;12491.266;984
2024-05-17T13:20:29.403;599616682325092370;12498.957;1083
2024-05-17T13:20:29.411;599616682332783742;12506.648;558
2024-05-17T13:20:29.419;599616682340475114;12514.34;42
2024-05-17T13:20:29.427;599616682348166486;12522.031;28
2024-05-17T13:20:29.434;599616682355857858;12529.724;98
2024-05-17T13:20:29.442;599616682363549230;12537.415;0
2024-05-17T13:20:29.450;599616682371240602;12545.105;4
2024-05-17T13:20:29.457;599616682378931974;12552.797;73
2024-05-17T13:20:29.465;599616682386623346;12560.488;65
2024-05-17T13:20:29.473;599616682394314718;12568.18;68
2024-05-17T13:20:29.480;599616682402006090;12575.871;89
2024-05-17T13:20:29.488;599616682409697462;12583.5625;89
2024-05-17T13:20:29.496;599616682417388834;12591.254;115
2024-05-17T13:20:29.503;599616682425080206;12598.944;162
2024-05-17T13:20:29.511;599616682432771578;12606.637;179
2024-05-17T13:20:29.519;599616682440462950;12614.328;179
2024-05-17T13:20:29.527;599616682448154322;12622.02;195
2024-05-17T13:20:29.534;599616682455845694;12629.711;228
2024-05-17T13:20:29.542;599616682463537066;12637.402;233
2024-05-17T13:20:29.550;599616682471228438;12645.094;212
2024-05-17T13:20:29.557;599616682478919810;12652.784;197
2024-05-17T13:20:29.565;599616682486611182;12660.476;174
2024-05-17T13:20:29.573;599616682494302554;12668.167;122
2024-05-17T13:20:29.580;599616682501993926;12675.859;82
2024-05-17T13:20:29.588;599616682509685298;12683.551;84
2024-05-17T13:20:29.596;599616682517376670;12691.242;77
2024-05-17T13:20:29.603;599616682525068042;12698.934;4
2024-05-17T13:20:29.611;599616682532759414;12706.625;-87
2024-05-17T13:20:29.619;599616682540450786;12714.315;-101
2024-05-17T13:20:29.627;599616682548142158;12722.007;-75
2024-05-17T13:20:29.634;599616682555833530;12729.698;-80
2024-05-17T13:20:29.642;599616682563524902;12737.39;-84
2024-05-17T13:20:29.650;599616682571216274;12745.081;-54
2024-05-17T13:20:29.657;599616682578907646;12752.773;-32
2024-05-17T13:20:29.665;599616682586599018;12760.465;-51
2024-05-17T13:20:29.673;599616682594290390;12768.155;-84
2024-05-17T13:20:29.680;599616682601981762;12775.847;-89
2024-05-17T13:20:29.688;599616682609673134;12783.538;-68
2024-05-17T13:20:29.696;599616682617364506;12791.2295;-49
2024-05-17T13:20:29.703;599616682625055878;12798.921;-40
2024-05-17T13:20:29.711;599616682632747250;12806.612;-23
2024-05-17T13:20:29.719;599616682640438622;12814.304;0
2024-05-17T13:20:29.726;599616682648129994;12821.995;7
2024-05-17T13:20:29.734;599616682655821366;12829.687;4
2024-05-17T13:20:29.742;599616682663512738;12837.378;32
2024-05-17T13:20:29.750;599616682671204110;12845.069;61
2024-05-17T13:20:29.757;599616682678895482;12852.761;51
2024-05-17T13:20:29.765;599616682686586854;12860.452;58
2024-05-17T13:20:29.773;599616682694278226;12868.144;108
2024-05-17T13:20:29.780;599616682701969598;12875.834;141
2024-05-17T13:20:29.788;599616682709660970;12883.525;141
2024-05-17T13:20:29.796;599616682717352342;12891.217;141
2024-05-17T13:20:29.803;599616682725043714;12898.909;148
2024-05-17T13:20:29.811;599616682732735086;12906.601;155
2024-05-17T13:20:29.819;599616682740396370;12914.261;169
2024-05-17T13:20:29.826;599616682748088160;12921.953;186
2024-05-17T13:20:29.834;599616682755779950;12929.645;183
2024-05-17T13:20:29.842;599616682763471740;12937.337;129
2024-05-17T13:20:29.850;599616682771163530;12945.028;117
2024-05-17T13:20:29.857;599616682778855320;12952.721;391
2024-05-17T13:20:29.865;599616682786547110;12960.412;923
2024-05-17T13:20:29.873;599616682794238900;12968.104;1116
2024-05-17T13:20:29.880;599616682801930690;12975.796;586
2024-05-17T13:20:29.888;599616682809622480;12983.487;-54
2024-05-17T13:20:29.896;599616682817314270;12991.18;-134
2024-05-17T13:20:29.903;599616682825006060;12998.871;7
2024-05-17T13:20:29.911;599616682832697850;13006.563;-61
2024-05-17T13:20:29.919;599616682840389640;13014.255;-143
2024-05-17T13:20:29.926;599616682848081430;13021.947;-127
2024-05-17T13:20:29.934;599616682855773220;13029.638;-120
2024-05-17T13:20:29.942;599616682863465010;13037.33;-120
2024-05-17T13:20:29.950;599616682871156800;13045.021;-94
2024-05-17T13:20:29.957;599616682878848590;13052.714;-61
2024-05-17T13:20:29.965;599616682886540380;13060.405;-44
2024-05-17T13:20:29.973;599616682894232170;13068.098;-30
2024-05-17T13:20:29.980;599616682901923960;13075.789;-2
2024-05-17T13:20:29.988;599616682909615750;13083.481;11
2024-05-17T13:20:29.996;599616682917307540;13091.172;18
2024-05-17T13:20:30.003;599616682924999330;13098.864;58
2024-05-17T13:20:30.011;599616682932691120;13106.556;117
2024-05-17T13:20:30.019;599616682940382910;13114.248;150
2024-05-17T13:20:30.026;599616682948074700;13121.939;143
2024-05-17T13:20:30.034;599616682955766490;13129.632;120
2024-05-17T13:20:30.042;599616682963458280;13137.323;108
2024-05-17T13:20:30.050;599616682971150070;13145.016;87
2024-05-17T13:20:30.057;599616682978841860;13152.707;23
2024-05-17T13:20:30.065;599616682986533650;13160.398;-40
2024-05-17T13:20:30.073;599616682994225440;13168.09;-56
2024-05-17T13:20:30.080;599616683001917230;13175.782;-84
2024-05-17T13:20:30.088;599616683009609020;13183.474;-139
2024-05-17T13:20:30.096;599616683017300810;13191.166;-148
2024-05-17T13:20:30.103;599616683024992600;13198.857;-143
2024-05-17T13:20:30.111;599616683032684390;13206.55;-204
2024-05-17T13:20:30.119;599616683040376180;13214.241;-287
2024-05-17T13:20:30.126;599616683048067970;13221.933;-285
2024-05-17T13:20:30.134;599616683055759760;13229.624;-247
2024-05-17T13:20:30.142;599616683063451550;13237.316;-242
2024-05-17T13:20:30.150;599616683071143340;13245.009;-233
2024-05-17T13:20:30.157;599616683078835130;13252.7;-197
2024-05-17T13:20:30.165;599616683086526920;13260.393;-214
2024-05-17T13:20:30.173;599616683094218710;13268.084;-282
2024-05-17T13:20:30.180;599616683101910500;13275.776;-294
2024-05-17T13:20:30.188;599616683109602290;13283.467;-240
2024-05-17T13:20:30.196;599616683117294080;13291.159;-207
2024-05-17T13:20:30.203;599616683124985870;13298.851;-204
2024-05-17T13:20:30.211;599616683132677660;13306.543;-195
2024-05-17T13:20:30.219;599616683140369450;13314.234;-169
2024-05-17T13:20:30.226;599616683148061240;13321.927;-143
2024-05-17T13:20:30.234;599616683155753030;13329.618;-139
2024-05-17T13:20:30.242;599616683163444820;13337.311;-127
2024-05-17T13:20:30.250;599616683171136610;13345.002;-87
2024-05-17T13:20:30.257;599616683178828400;13352.693;-61
2024-05-17T13:20:30.265;599616683186520190;13360.385;-73
2024-05-17T13:20:30.273;599616683194211980;13368.077;-70
2024-05-17T13:20:30.280;599616683201903770;13375.769;-23
2024-05-17T13:20:30.288;599616683209595560;13383.461;4
2024-05-17T13:20:30.296;599616683217287350;13391.152;-9
2024-05-17T13:20:30.303;599616683224979140;13398.845;-35
2024-05-17T13:20:30.311;599616683232670930;13406.536;-63
2024-05-17T13:20:30.319;599616683240362720;13414.228;0
2024-05-17T13:20:30.326;599616683248054510;13421.919;358
2024-05-17T13:20:30.334;599616683255746300;13429.611;885
2024-05-17T13:20:30.342;599616683263438090;13437.303;1027
2024-05-17T13:20:30.349;599616683271129880;13444.995;492
2024-05-17T13:20:30.357;599616683278821670;13452.687;-127
2024-05-17T13:20:30.365;599616683286513460;13460.379;-169
2024-05-17T13:20:30.373;599616683294205250;13468.07;7
2024-05-17T13:20:30.380;599616683301917140;13475.782;-77
2024-05-17T13:20:30.388;599616683309608651;13483.474;-148
2024-05-17T13:20:30.396;599616683317300162;13491.165;-77
2024-05-17T13:20:30.403;599616683324991673;13498.856;-75
2024-05-17T13:20:30.411;599616683332683184;13506.549;-136
2024-05-17T13:20:30.419;599616683340374695;13514.24;-143
2024-05-17T13:20:30.426;599616683348066206;13521.932;-103
2024-05-17T13:20:30.434;599616683355757717;13529.622;-77
2024-05-17T13:20:30.442;599616683363449228;13537.313;-115
2024-05-17T13:20:30.450;599616683371140739;13545.006;-183
2024-05-17T13:20:30.457;599616683378832250;13552.697;-167
2024-05-17T13:20:30.465;599616683386523761;13560.389;-94
2024-05-17T13:20:30.473;599616683394215272;13568.08;-65
2024-05-17T13:20:30.480;599616683401906783;13575.772;-49
2024-05-17T13:20:30.488;599616683409598294;13583.464;2
2024-05-17T13:20:30.496;599616683417289805;13591.154;32
2024-05-17T13:20:30.503;599616683424981316;13598.846;35
2024-05-17T13:20:30.511;599616683432672827;13606.538;40
2024-05-17T13:20:30.519;599616683440364338;13614.2295;37
2024-05-17T13:20:30.526;599616683448055849;13621.921;-2
2024-05-17T13:20:30.534;599616683455747360;13629.612;-65
2024-05-17T13:20:30.542;599616683463438871;13637.305;-139
2024-05-17T13:20:30.549;599616683471130382;13644.995;-183
2024-05-17T13:20:30.557;599616683478821893;13652.687;-186
2024-05-17T13:20:30.565;599616683486513404;13660.378;-195
2024-05-17T13:20:30.573;599616683494204915;13668.07;-207
2024-05-17T13:20:30.580;599616683501896426;13675.762;-188
2024-05-17T13:20:30.588;599616683509587937;13683.453;-186
2024-05-17T13:20:30.596;599616683517279448;13691.145;-204
2024-05-17T13:20:30.603;599616683524970959;13698.837;-190
2024-05-17T13:20:30.611;599616683532662470;13706.527;-155
2024-05-17T13:20:30.619;599616683540353981;13714.219;-171
2024-05-17T13:20:30.626;599616683548045492;13721.91;-242
2024-05-17T13:20:30.634;599616683555737003;13729.603;-268
2024-05-17T13:20:30.642;599616683563428514;13737.294;-219
2024-05-17T13:20:30.649;599616683571120025;13744.985;-183
2024-05-17T13:20:30.657;599616683578811536;13752.677;-202
2024-05-17T13:20:30.665;599616683586503047;13760.367;-221
2024-05-17T13:20:30.673;599616683594194558;13768.06;-207
2024-05-17T13:20:30.680;599616683601886069;13775.751;-197
2024-05-17T13:20:30.688;599616683609577580;13783.442;-193
2024-05-17T13:20:30.696;599616683617269091;13791.134;-162
2024-05-17T13:20:30.703;599616683624960602;13798.826;-115
2024-05-17T13:20:30.711;599616683632652113;13806.518;-89
2024-05-17T13:20:30.719;599616683640343624;13814.209;-75
2024-05-17T13:20:30.726;599616683648035135;13821.899;-44
2024-05-17T13:20:30.734;599616683655726646;13829.592;-11
2024-05-17T13:20:30.742;599616683663418157;13837.283;-4
2024-05-17T13:20:30.749;599616683671109668;13844.975;4
2024-05-17T13:20:30.757;599616683678801179;13852.666;35
2024-05-17T13:20:30.765;599616683686492690;13860.358;58
2024-05-17T13:20:30.773;599616683694184201;13868.05;42
2024-05-17T13:20:30.780;599616683701875712;13875.74;0
2024-05-17T13:20:30.788;599616683709567223;13883.432;-30
2024-05-17T13:20:30.796;599616683717258734;13891.124;94
2024-05-17T13:20:30.803;599616683724950245;13898.815;511
2024-05-17T13:20:30.811;599616683732641756;13906.507;1017
2024-05-17T13:20:30.819;599616683740333267;13914.198;1088
2024-05-17T13:20:30.826;599616683748024778;13921.891;541
2024-05-17T13:20:30.834;599616683755716289;13929.582;11
2024-05-17T13:20:30.842;599616683763407800;13937.272;11
2024-05-17T13:20:30.849;599616683771099311;13944.964;96
2024-05-17T13:20:30.857;599616683778790822;13952.655;-23
2024-05-17T13:20:30.865;599616683786482333;13960.348;-65
2024-05-17T13:20:30.873;599616683794173844;13968.039;-9
2024-05-17T13:20:30.880;599616683801865355;13975.73;2
2024-05-17T13:20:30.888;599616683809556866;13983.422;4
2024-05-17T13:20:30.896;599616683817248377;13991.113;14
2024-05-17T13:20:30.903;599616683824939888;13998.805;-18
2024-05-17T13:20:30.911;599616683832631399;14006.496;-51
2024-05-17T13:20:30.919;599616683840322910;14014.1875;-40
2024-05-17T13:20:30.926;599616683848014421;14021.88;-21
2024-05-17T13:20:30.934;599616683855705932;14029.571;-2
2024-05-17T13:20:30.942;599616683863387468;14037.252;49
2024-05-17T13:20:30.949;599616683871079118;14044.944;80
2024-05-17T13:20:30.957;599616683878770768;14052.636;77
2024-05-17T13:20:30.965;599616683886462418;14060.328;103
2024-05-17T13:20:30.973;599616683894154068;14068.02;150
2024-05-17T13:20:30.980;599616683901845718;14075.711;164
2024-05-17T13:20:30.988;599616683909537368;14083.402;155
2024-05-17T13:20:30.996;599616683917229018;14091.094;155
2024-05-17T13:20:31.003;599616683924920668;14098.785;131
2024-05-17T13:20:31.011;599616683932612318;14106.478;44
2024-05-17T13:20:31.019;599616683940303968;14114.169;-56
2024-05-17T13:20:31.026;599616683947995618;14121.861;-96
2024-05-17T13:20:31.034;599616683955687268;14129.553;-103
2024-05-17T13:20:31.042;599616683963378918;14137.243;-134
2024-05-17T13:20:31.049;599616683971070568;14144.936;-164
2024-05-17T13:20:31.057;599616683978762218;14152.627;-155
2024-05-17T13:20:31.065;599616683986453868;14160.318;-127
2024-05-17T13:20:31.073;599616683994145518;14168.011;-110
2024-05-17T13:20:31.080;599616684001837168;14175.702;-98
2024-05-17T13:20:31.088;599616684009528818;14183.395;-80
2024-05-17T13:20:31.096;599616684017220468;14191.086;-75
2024-05-17T13:20:31.103;599616684024912118;14198.776;-77
2024-05-17T13:20:31.111;599616684032603768;14206.469;-70
2024-05-17T13:20:31.119;599616684040295418;14214.16;-73
2024-05-17T13:20:31.126;599616684047987068;14221.852;-129
2024-05-17T13:20:31.134;599616684055678718;14229.544;-207
2024-05-17T13:20:31.142;599616684063370368;14237.235;-223
2024-05-17T13:20:31.149;599616684071062018;14244.928;-216
2024-05-17T13:20:31.157;599616684078753668;14252.619;-247
2024-05-17T13:20:31.165;599616684086445318;14260.31;-252
2024-05-17T13:20:31.173;599616684094136968;14268.002;-209
2024-05-17T13:20:31.180;599616684101828618;14275.693;-171
2024-05-17T13:20:31.188;599616684109520268;14283.385;-160
2024-05-17T13:20:31.196;599616684117211918;14291.077;-143
2024-05-17T13:20:31.203;599616684124903568;14298.769;-98
2024-05-17T13:20:31.211;599616684132595218;14306.461;-51
2024-05-17T13:20:31.219;599616684140286868;14314.152;-25
2024-05-17T13:20:31.226;599616684147978518;14321.843;-25
2024-05-17T13:20:31.234;599616684155670168;14329.535;-21
2024-05-17T13:20:31.242;599616684163361818;14337.227;11
2024-05-17T13:20:31.249;599616684171053468;14344.918;40
2024-05-17T13:20:31.257;599616684178745118;14352.61;23
2024-05-17T13:20:31.265;599616684186436768;14360.302;-23
2024-05-17T13:20:31.272;599616684194128418;14367.994;2
2024-05-17T13:20:31.280;599616684201820068;14375.686;278
2024-05-17T13:20:31.288;599616684209511718;14383.376;798
2024-05-17T13:20:31.296;599616684217203368;14391.068;1116
2024-05-17T13:20:31.303;599616684224895018;14398.76;786
2024-05-17T13:20:31.311;599616684232586668;14406.452;157
2024-05-17T13:20:31.319;599616684240278318;14414.144;-21
2024-05-17T13:20:31.326;599616684247969968;14421.835;101
2024-05-17T13:20:31.334;599616684255661618;14429.527;28
2024-05-17T13:20:31.342;599616684263353268;14437.219;-56
2024-05-17T13:20:31.349;599616684271044918;14444.909;0
2024-05-17T13:20:31.357;599616684278736568;14452.602;28
2024-05-17T13:20:31.365;599616684286428218;14460.293;16
2024-05-17T13:20:31.372;599616684294119868;14467.985;23
2024-05-17T13:20:31.380;599616684301811518;14475.677;25
2024-05-17T13:20:31.388;599616684309503168;14483.368;42
2024-05-17T13:20:31.396;599616684317194818;14491.061;42
2024-05-17T13:20:31.403;599616684324886468;14498.752;-4
2024-05-17T13:20:31.411;599616684332578118;14506.442;-14
2024-05-17T13:20:31.419;599616684340269768;14514.135;30
2024-05-17T13:20:31.426;599616684347961418;14521.826;61
2024-05-17T13:20:31.434;599616684355653068;14529.519;77
2024-05-17T13:20:31.442;599616684363344718;14537.21;113
2024-05-17T13:20:31.449;599616684371036368;14544.901;155
2024-05-17T13:20:31.457;599616684378728018;14552.594;176
2024-05-17T13:20:31.465;599616684386419668;14560.285;155
2024-05-17T13:20:31.472;599616684394111318;14567.976;143
2024-05-17T13:20:31.480;599616684401802968;14575.668;164
2024-05-17T13:20:31.488;599616684409494618;14583.359;157
2024-05-17T13:20:31.496;599616684417186268;14591.052;101
2024-05-17T13:20:31.503;599616684424897994;14598.764;56
2024-05-17T13:20:31.511;599616684432589366;14606.455;25
2024-05-17T13:20:31.519;599616684440280738;14614.146;-21
2024-05-17T13:20:31.526;599616684447972110;14621.837;-47
2024-05-17T13:20:31.534;599616684455663482;14629.528;-40
2024-05-17T13:20:31.542;599616684463354854;14637.22;-28
2024-05-17T13:20:31.549;599616684471046226;14644.911;-25
2024-05-17T13:20:31.557;599616684478737598;14652.603;-42
2024-05-17T13:20:31.565;599616684486428970;14660.294;-42
2024-05-17T13:20:31.572;599616684494120342;14667.985;-14
2024-05-17T13:20:31.580;599616684501811714;14675.677;-25
2024-05-17T13:20:31.588;599616684509503086;14683.368;-101
2024-05-17T13:20:31.596;599616684517194458;14691.06;-127
2024-05-17T13:20:31.603;599616684524885830;14698.751;-94
2024-05-17T13:20:31.611;599616684532577202;14706.442;-82
2024-05-17T13:20:31.619;599616684540268574;14714.134;-96
2024-05-17T13:20:31.626;599616684547959946;14721.825;-124
2024-05-17T13:20:31.634;599616684555651318;14729.516;-188
2024-05-17T13:20:31.642;599616684563342690;14737.207;-240
2024-05-17T13:20:31.649;599616684571034062;14744.899;-252
2024-05-17T13:20:31.657;599616684578725434;14752.591;-235
2024-05-17T13:20:31.665;599616684586416806;14760.282;-197
2024-05-17T13:20:31.672;599616684594108178;14767.974;-169
2024-05-17T13:20:31.680;599616684601799550;14775.665;-150
2024-05-17T13:20:31.688;599616684609490922;14783.355;-108
2024-05-17T13:20:31.696;599616684617182294;14791.047;-73
2024-05-17T13:20:31.703;599616684624873666;14798.738;-75
2024-05-17T13:20:31.711;599616684632565038;14806.43;-61
2024-05-17T13:20:31.719;599616684640256410;14814.121;-4
2024-05-17T13:20:31.726;599616684647947782;14821.813;25
2024-05-17T13:20:31.734;599616684655639154;14829.505;14
2024-05-17T13:20:31.742;599616684663330526;14837.195;-2
2024-05-17T13:20:31.749;599616684671021898;14844.887;-28
2024-05-17T13:20:31.757;599616684678713270;14852.578;-30
2024-05-17T13:20:31.765;599616684686404642;14860.27;174
2024-05-17T13:20:31.772;599616684694096014;14867.961;671
2024-05-17T13:20:31.780;599616684701787386;14875.652;1097
2024-05-17T13:20:31.788;599616684709478758;14883.344;918
2024-05-17T13:20:31.796;599616684717170130;14891.036;278
2024-05-17T13:20:31.803;599616684724861502;14898.727;-44
2024-05-17T13:20:31.811;599616684732552874;14906.418;75
2024-05-17T13:20:31.819;599616684740244246;14914.109;68
2024-05-17T13:20:31.826;599616684747935618;14921.801;-63
2024-05-17T13:20:31.834;599616684755626990;14929.492;-35
2024-05-17T13:20:31.842;599616684763318362;14937.184;18
2024-05-17T13:20:31.849;599616684771009734;14944.874;7
2024-05-17T13:20:31.857;599616684778701106;14952.565;14
2024-05-17T13:20:31.865;599616684786392478;14960.257;35
2024-05-17T13:20:31.872;599616684794083850;14967.949;49
2024-05-17T13:20:31.880;599616684801775222;14975.641;65
2024-05-17T13:20:31.888;599616684809466594;14983.332;54
2024-05-17T13:20:31.896;599616684817157966;14991.023;28
2024-05-17T13:20:31.903;599616684824849338;14998.715;51
2024-05-17T13:20:31.911;599616684832540710;15006.405;89
2024-05-17T13:20:31.919;599616684840232082;15014.097;98
2024-05-17T13:20:31.926;599616684847923454;15021.788;122
2024-05-17T13:20:31.934;599616684855614826;15029.4795;171
2024-05-17T13:20:31.942;599616684863306198;15037.172;195
2024-05-17T13:20:31.949;599616684870997570;15044.863;190
2024-05-17T13:20:31.957;599616684878688942;15052.555;202
2024-05-17T13:20:31.965;599616684886380314;15060.245;207
2024-05-17T13:20:31.972;599616684894071686;15067.937;167
2024-05-17T13:20:31.980;599616684901763058;15075.628;103
2024-05-17T13:20:31.988;599616684909454430;15083.319;68
2024-05-17T13:20:31.996;599616684917145802;15091.011;42
2024-05-17T13:20:32.003;599616684924837174;15098.702;-4
2024-05-17T13:20:32.011;599616684932528546;15106.394;-28
2024-05-17T13:20:32.019;599616684940219918;15114.085;-23
2024-05-17T13:20:32.026;599616684947911290;15121.776;-32
2024-05-17T13:20:32.034;599616684955602662;15129.468;-40
2024-05-17T13:20:32.042;599616684963294034;15137.159;-25
2024-05-17T13:20:32.049;599616684970985406;15144.851;2
2024-05-17T13:20:32.057;599616684978676778;15152.542;16
2024-05-17T13:20:32.065;599616684986338062;15160.203;7
2024-05-17T13:20:32.072;599616684994029852;15167.895;2
2024-05-17T13:20:32.080;599616685001721642;15175.587;37
2024-05-17T13:20:32.088;599616685009413432;15183.278;63
2024-05-17T13:20:32.095;599616685017105222;15190.971;58
2024-05-17T13:20:32.103;599616685024797012;15198.662;58
2024-05-17T13:20:32.111;599616685032488802;15206.354;58
2024-05-17T13:20:32.119;599616685040180592;15214.045;18
2024-05-17T13:20:32.126;599616685047872382;15221.737;-58
2024-05-17T13:20:32.134;599616685055564172;15229.429;-139
2024-05-17T13:20:32.142;599616685063255962;15237.121;-179
2024-05-17T13:20:32.149;599616685070947752;15244.8125;-186
2024-05-17T13:20:32.157;599616685078639542;15252.505;-193
2024-05-17T13:20:32.165;599616685086331332;15260.197;-167
2024-05-17T13:20:32.172;599616685094023122;15267.888;-103
2024-05-17T13:20:32.180;599616685101714912;15275.58;-58
2024-05-17T13:20:32.188;599616685109406702;15283.271;-49
2024-05-17T13:20:32.195;599616685117098492;15290.964;-32
2024-05-17T13:20:32.203;599616685124790282;15298.655;-2
2024-05-17T13:20:32.211;599616685132482072;15306.348;18
2024-05-17T13:20:32.219;599616685140173862;15314.039;25
2024-05-17T13:20:32.226;599616685147865652;15321.731;51
2024-05-17T13:20:32.234;599616685155557442;15329.422;82
2024-05-17T13:20:32.242;599616685163249232;15337.114;47
2024-05-17T13:20:32.249;599616685170941022;15344.806;23
2024-05-17T13:20:32.257;599616685178632812;15352.498;310
2024-05-17T13:20:32.265;599616685186324602;15360.189;883
2024-05-17T13:20:32.272;599616685194016392;15367.882;1187
2024-05-17T13:20:32.280;599616685201708182;15375.573;808
2024-05-17T13:20:32.288;599616685209399972;15383.266;150
2024-05-17T13:20:32.295;599616685217091762;15390.957;-44
2024-05-17T13:20:32.303;599616685224783552;15398.648;96
2024-05-17T13:20:32.311;599616685232475342;15406.34;63
2024-05-17T13:20:32.319;599616685240167132;15414.032;-11
2024-05-17T13:20:32.326;599616685247858922;15421.724;54
2024-05-17T13:20:32.334;599616685255550712;15429.416;80
2024-05-17T13:20:32.342;599616685263242502;15437.107;40
2024-05-17T13:20:32.349;599616685270934292;15444.8;65
2024-05-17T13:20:32.357;599616685278626082;15452.491;98
2024-05-17T13:20:32.365;599616685286317872;15460.183;98
2024-05-17T13:20:32.372;599616685294009662;15467.874;124
2024-05-17T13:20:32.380;599616685301701452;15475.566;129
2024-05-17T13:20:32.388;599616685309393242;15483.258;58
2024-05-17T13:20:32.395;599616685317085032;15490.95;37
2024-05-17T13:20:32.403;599616685324776822;15498.642;115
2024-05-17T13:20:32.411;599616685332468612;15506.334;195
2024-05-17T13:20:32.419;599616685340160402;15514.025;230
2024-05-17T13:20:32.426;599616685347852192;15521.717;240
2024-05-17T13:20:32.434;599616685355543982;15529.409;245
2024-05-17T13:20:32.442;599616685363235772;15537.101;263
2024-05-17T13:20:32.449;599616685370927562;15544.793;268
2024-05-17T13:20:32.457;599616685378619352;15552.484;235
2024-05-17T13:20:32.465;599616685386311142;15560.177;190
2024-05-17T13:20:32.472;599616685394002932;15567.868;153
2024-05-17T13:20:32.480;599616685401694722;15575.561;89
2024-05-17T13:20:32.488;599616685409386512;15583.251;18
2024-05-17T13:20:32.495;599616685417078302;15590.943;7
2024-05-17T13:20:32.503;599616685424770092;15598.635;28
2024-05-17T13:20:32.511;599616685432461882;15606.327;28
2024-05-17T13:20:32.519;599616685440153672;15614.019;11
2024-05-17T13:20:32.526;599616685447845462;15621.711;4
2024-05-17T13:20:32.534;599616685455537252;15629.402;28
2024-05-17T13:20:32.542;599616685463229042;15637.095;54
2024-05-17T13:20:32.549;599616685470920832;15644.786;58
2024-05-17T13:20:32.557;599616685478612622;15652.478;70
2024-05-17T13:20:32.565;599616685486304412;15660.169;89
2024-05-17T13:20:32.572;599616685493996202;15667.861;84
2024-05-17T13:20:32.580;599616685501687992;15675.553;80
2024-05-17T13:20:32.588;599616685509379782;15683.245;108
2024-05-17T13:20:32.595;599616685517071572;15690.937;127
2024-05-17T13:20:32.603;599616685524763362;15698.629;122
2024-05-17T13:20:32.611;599616685532455152;15706.32;122
2024-05-17T13:20:32.619;599616685540146942;15714.012;134
2024-05-17T13:20:32.626;599616685547868840;15721.734;113
2024-05-17T13:20:32.634;599616685555560212;15729.426;37
2024-05-17T13:20:32.642;599616685563251584;15737.116;-28
2024-05-17T13:20:32.649;599616685570942956;15744.808;-30
2024-05-17T13:20:32.657;599616685578634328;15752.499;-16
2024-05-17T13:20:32.665;599616685586325700;15760.19;-65
2024-05-17T13:20:32.672;599616685594017072;15767.882;-110
2024-05-17T13:20:32.680;599616685601708444;15775.573;-63
2024-05-17T13:20:32.688;599616685609399816;15783.266;-9
2024-05-17T13:20:32.695;599616685617091188;15790.957;-9
2024-05-17T13:20:32.703;599616685624782560;15798.647;4
2024-05-17T13:20:32.711;599616685632473932;15806.339;40
2024-05-17T13:20:32.719;599616685640165304;15814.03;28
2024-05-17T13:20:32.726;599616685647856676;15821.722;-7
2024-05-17T13:20:32.734;599616685655548048;15829.413;56
2024-05-17T13:20:32.742;599616685663239420;15837.1045;395
2024-05-17T13:20:32.749;599616685670930792;15844.795;932
2024-05-17T13:20:32.757;599616685678622164;15852.487;1173
2024-05-17T13:20:32.765;599616685686313536;15860.179;749
2024-05-17T13:20:32.772;599616685694004908;15867.87;124
2024-05-17T13:20:32.780;599616685701696280;15875.562;-7
2024-05-17T13:20:32.788;599616685709387652;15883.253;141
2024-05-17T13:20:32.795;599616685717079024;15890.944;84
2024-05-17T13:20:32.803;599616685724770396;15898.636;7
2024-05-17T13:20:32.811;599616685732461768;15906.326;68
2024-05-17T13:20:32.819;599616685740153140;15914.018;91
2024-05-17T13:20:32.826;599616685747844512;15921.709;87
2024-05-17T13:20:32.834;599616685755535884;15929.401;131
2024-05-17T13:20:32.842;599616685763227256;15937.093;157
2024-05-17T13:20:32.849;599616685770918628;15944.784;139
2024-05-17T13:20:32.857;599616685778610000;15952.476;150
2024-05-17T13:20:32.865;599616685786301372;15960.166;200
2024-05-17T13:20:32.872;599616685793992744;15967.857;219
2024-05-17T13:20:32.880;599616685801684116;15975.549;200
2024-05-17T13:20:32.888;599616685809375488;15983.24;209
2024-05-17T13:20:32.895;599616685817066860;15990.932;247
