Phone timestamp;sensor timestamp [ns];timestamp [ms];ecg [uV]
2024-05-17T13:22:07.575;599616780493182012;0.0;18
2024-05-17T13:22:07.582;599616780500873802;7.69179;268
2024-05-17T13:22:07.590;599616780508565592;15.38358;1406
2024-05-17T13:22:07.598;599616780516257382;23.07537;3055
2024-05-17T13:22:07.605;599616780523949172;30.76716;4056
2024-05-17T13:22:07.613;599616780531640962;38.458954;4662
2024-05-17T13:22:07.621;599616780539332752;46.15074;5498
2024-05-17T13:22:07.628;599616780547024542;53.84253;6231
2024-05-17T13:22:07.636;599616780554716332;61.53432;6832
2024-05-17T13:22:07.644;599616780562408122;69.22611;7510
2024-05-17T13:22:07.651;599616780570099912;76.91791;7998
2024-05-17T13:22:07.659;599616780577791702;84.60969;8330
2024-05-17T13:22:07.667;599616780585483492;92.30148;8827
2024-05-17T13:22:07.674;599616780593175282;99.99327;9374
2024-05-17T13:22:07.682;599616780600867072;107.68506;9814
2024-05-17T13:22:07.690;599616780608558862;115.37685;10241
2024-05-17T13:22:07.698;599616780616250652;123.06864;10644
2024-05-17T13:22:07.705;599616780623942442;130.76044;10945
2024-05-17T13:22:07.713;599616780631634232;138.45222;11268
2024-05-17T13:22:07.721;599616780639326022;146.14401;11657
2024-05-17T13:22:07.728;599616780647017812;153.83582;11987
2024-05-17T13:22:07.736;599616780654709602;161.52759;12239
2024-05-17T13:22:07.744;599616780662401392;169.21938;12465
2024-05-17T13:22:07.751;599616780670093182;176.91116;12696
2024-05-17T13:22:07.759;599616780677784972;184.60297;12967
2024-05-17T13:22:07.767;599616780685476762;192.29475;13271
2024-05-17T13:22:07.774;599616780693168552;199.98654;13523
2024-05-17T13:22:07.782;599616780700860342;207.67833;13685
2024-05-17T13:22:07.790;599616780708552132;215.37012;13853
2024-05-17T13:22:07.798;599616780716243922;223.0619;14081
2024-05-17T13:22:07.805;599616780723935712;230.7537;14255
2024-05-17T13:22:07.813;599616780731627502;238.4455;14371
2024-05-17T13:22:07.821;599616780739319292;246.13728;14578
2024-05-17T13:22:07.828;599616780747011082;253.82907;14753
2024-05-17T13:22:07.836;599616780754702872;261.52087;14731
2024-05-17T13:22:07.844;599616780762394662;269.21265;14854
2024-05-17T13:22:07.851;599616780770086452;276.90445;15431
2024-05-17T13:22:07.859;599616780777778242;284.59622;16077
2024-05-17T13:22:07.867;599616780785470032;292.28802;16161
2024-05-17T13:22:07.874;599616780793161822;299.9798;15652
2024-05-17T13:22:07.882;599616780800853612;307.67163;15311
2024-05-17T13:22:07.890;599616780808545402;315.3634;15488
2024-05-17T13:22:07.898;599616780816237192;323.05518;15579
2024-05-17T13:22:07.905;599616780823928982;330.74698;15504
2024-05-17T13:22:07.913;599616780831620772;338.43875;15612
2024-05-17T13:22:07.921;599616780839312562;346.13055;15627
2024-05-17T13:22:07.928;599616780847004352;353.82233;15457
2024-05-17T13:22:07.936;599616780854696142;361.51413;15528
2024-05-17T13:22:07.944;599616780862387932;369.20593;15707
2024-05-17T13:22:07.951;599616780870079722;376.8977;15568
2024-05-17T13:22:07.959;599616780877771512;384.5895;15412
2024-05-17T13:22:07.967;599616780885463302;392.28128;15483
2024-05-17T13:22:07.974;599616780893155092;399.97308;15497
2024-05-17T13:22:07.982;599616780900846882;407.66486;15433
2024-05-17T13:22:07.990;599616780908538672;415.35666;15396
2024-05-17T13:22:07.998;599616780916230462;423.04846;15396
2024-05-17T13:22:08.005;599616780923922252;430.74023;15466
2024-05-17T13:22:08.013;599616780931614042;438.43204;15457
2024-05-17T13:22:08.021;599616780939305832;446.1238;15294
2024-05-17T13:22:08.028;599616780946997622;453.8156;15250
2024-05-17T13:22:08.036;599616780954689412;461.5074;15320
2024-05-17T13:22:08.044;599616780962381202;469.1992;15259
2024-05-17T13:22:08.051;599616780970072992;476.891;15153
2024-05-17T13:22:08.059;599616780977764782;484.5828;15134
2024-05-17T13:22:08.067;599616780985456572;492.27457;15075
2024-05-17T13:22:08.074;599616780993148362;499.96634;14939
2024-05-17T13:22:08.082;599616781000840152;507.65814;14823
2024-05-17T13:22:08.090;599616781008531942;515.3499;14783
2024-05-17T13:22:08.098;599616781016223732;523.04175;14793
2024-05-17T13:22:08.105;599616781023915522;530.7335;14689
2024-05-17T13:22:08.113;599616781031607312;538.4253;14500
2024-05-17T13:22:08.121;599616781039299102;546.1171;14449
2024-05-17T13:22:08.128;599616781046990892;553.8089;14439
2024-05-17T13:22:08.136;599616781054712790;561.53076;14328
2024-05-17T13:22:08.144;599616781062404162;569.22217;14371
2024-05-17T13:22:08.151;599616781070095534;576.9135;14397
2024-05-17T13:22:08.159;599616781077786906;584.60486;14017
2024-05-17T13:22:08.167;599616781085478278;592.29626;13699
2024-05-17T13:22:08.174;599616781093169650;599.9877;13714
2024-05-17T13:22:08.182;599616781100861022;607.679;13742
2024-05-17T13:22:08.190;599616781108552394;615.37036;13685
2024-05-17T13:22:08.198;599616781116243766;623.06177;13490
2024-05-17T13:22:08.205;599616781123935138;630.7532;13264
2024-05-17T13:22:08.213;599616781131626510;638.44446;13304
2024-05-17T13:22:08.221;599616781139317882;646.13586;13391
2024-05-17T13:22:08.228;599616781147009254;653.8273;13115
2024-05-17T13:22:08.236;599616781154700626;661.5186;12799
2024-05-17T13:22:08.244;599616781162391998;669.20996;12764
2024-05-17T13:22:08.251;599616781170083370;676.90137;12677
2024-05-17T13:22:08.259;599616781177774742;684.5927;12451
2024-05-17T13:22:08.267;599616781185466114;692.2841;12371
2024-05-17T13:22:08.274;599616781193157486;699.97546;12392
2024-05-17T13:22:08.282;599616781200848858;707.6668;12305
2024-05-17T13:22:08.290;599616781208540230;715.3582;12128
2024-05-17T13:22:08.298;599616781216231602;723.0496;12008
2024-05-17T13:22:08.305;599616781223922974;730.74097;11963
2024-05-17T13:22:08.313;599616781231614346;738.4323;11862
2024-05-17T13:22:08.321;599616781239305718;746.1237;11692
2024-05-17T13:22:08.328;599616781246997090;753.8151;11593
2024-05-17T13:22:08.336;599616781254688462;761.5064;11532
2024-05-17T13:22:08.344;599616781262379834;769.1978;11534
2024-05-17T13:22:08.351;599616781270071206;776.8892;11831
2024-05-17T13:22:08.359;599616781277762578;784.58057;12194
2024-05-17T13:22:08.367;599616781285453950;792.2719;11977
2024-05-17T13:22:08.374;599616781293145322;799.9633;11221
2024-05-17T13:22:08.382;599616781300836694;807.65466;10757
2024-05-17T13:22:08.390;599616781308528066;815.34607;10823
2024-05-17T13:22:08.398;599616781316219438;823.0374;10766
2024-05-17T13:22:08.405;599616781323910810;830.72876;10481
2024-05-17T13:22:08.413;599616781331602182;838.42017;10366
2024-05-17T13:22:08.421;599616781339293554;846.1116;10300
2024-05-17T13:22:08.428;599616781346984926;853.8029;10151
2024-05-17T13:22:08.436;599616781354676298;861.49426;10012
2024-05-17T13:22:08.444;599616781362367670;869.18567;9824
2024-05-17T13:22:08.451;599616781370059042;876.8771;9675
2024-05-17T13:22:08.459;599616781377750414;884.56836;9633
2024-05-17T13:22:08.467;599616781385441786;892.25977;9546
2024-05-17T13:22:08.474;599616781393133158;899.9512;9414
2024-05-17T13:22:08.482;599616781400824530;907.6425;9329
2024-05-17T13:22:08.490;599616781408515902;915.33386;9249
2024-05-17T13:22:08.498;599616781416207274;923.02527;9129
2024-05-17T13:22:08.505;599616781423898646;930.7166;9044
2024-05-17T13:22:08.513;599616781431590018;938.408;9025
2024-05-17T13:22:08.521;599616781439281390;946.09937;8950
2024-05-17T13:22:08.528;599616781446972762;953.7907;8787
2024-05-17T13:22:08.536;599616781454664134;961.4821;8695
2024-05-17T13:22:08.544;599616781462355506;969.1735;8667
2024-05-17T13:22:08.551;599616781470046878;976.86487;8575
2024-05-17T13:22:08.559;599616781477738250;984.5562;8448
2024-05-17T13:22:08.567;599616781485429622;992.2476;8354
2024-05-17T13:22:08.574;599616781493120994;999.939;8264
2024-05-17T13:22:08.582;599616781500812366;1007.6303;8142
2024-05-17T13:22:08.590;599616781508503738;1015.3217;8014
2024-05-17T13:22:08.598;599616781516195110;1023.0131;7944
2024-05-17T13:22:08.605;599616781523886482;1030.7045;7925
2024-05-17T13:22:08.613;599616781531577854;1038.3959;7831
2024-05-17T13:22:08.621;599616781539269226;1046.0873;7670
2024-05-17T13:22:08.628;599616781546960598;1053.7786;7600
2024-05-17T13:22:08.636;599616781554651970;1061.47;7583
2024-05-17T13:22:08.644;599616781562343342;1069.1614;7539
2024-05-17T13:22:08.651;599616781570034714;1076.8528;7468
2024-05-17T13:22:08.659;599616781577726086;1084.5441;7282
2024-05-17T13:22:08.667;599616781585417458;1092.2354;7082
2024-05-17T13:22:08.674;599616781593108830;1099.9268;7044
2024-05-17T13:22:08.682;599616781600800202;1107.6182;6983
2024-05-17T13:22:08.690;599616781608491574;1115.3096;6808
2024-05-17T13:22:08.697;599616781616152858;1122.9708;6726
2024-05-17T13:22:08.705;599616781623844648;1130.6626;6683
2024-05-17T13:22:08.713;599616781631536438;1138.3545;6563
2024-05-17T13:22:08.721;599616781639228228;1146.0463;6502
2024-05-17T13:22:08.728;599616781646920018;1153.738;6511
2024-05-17T13:22:08.736;599616781654611808;1161.4298;6427
2024-05-17T13:22:08.744;599616781662303598;1169.1216;6276
2024-05-17T13:22:08.751;599616781669995388;1176.8134;6215
2024-05-17T13:22:08.759;599616781677687178;1184.5052;6167
2024-05-17T13:22:08.767;599616781685378968;1192.197;5991
2024-05-17T13:22:08.774;599616781693070758;1199.8888;5849
2024-05-17T13:22:08.782;599616781700762548;1207.5806;5859
2024-05-17T13:22:08.790;599616781708454338;1215.2723;5835
2024-05-17T13:22:08.797;599616781716146128;1222.9641;5717
2024-05-17T13:22:08.805;599616781723837918;1230.6559;5630
2024-05-17T13:22:08.813;599616781731529708;1238.3477;5607
2024-05-17T13:22:08.821;599616781739221498;1246.0394;5545
2024-05-17T13:22:08.828;599616781746913288;1253.7313;5416
2024-05-17T13:22:08.836;599616781754605078;1261.4231;5423
2024-05-17T13:22:08.844;599616781762296868;1269.1149;5746
2024-05-17T13:22:08.851;599616781769988658;1276.8066;6182
2024-05-17T13:22:08.859;599616781777680448;1284.4984;6259
2024-05-17T13:22:08.867;599616781785372238;1292.1902;5746
2024-05-17T13:22:08.874;599616781793064028;1299.882;5140
2024-05-17T13:22:08.882;599616781800755818;1307.5737;5044
2024-05-17T13:22:08.890;599616781808447608;1315.2655;5114
2024-05-17T13:22:08.897;599616781816139398;1322.9574;4961
2024-05-17T13:22:08.905;599616781823831188;1330.6492;4857
2024-05-17T13:22:08.913;599616781831522978;1338.341;4848
2024-05-17T13:22:08.921;599616781839214768;1346.0327;4756
2024-05-17T13:22:08.928;599616781846906558;1353.7245;4624
2024-05-17T13:22:08.936;599616781854598348;1361.4163;4497
2024-05-17T13:22:08.944;599616781862290138;1369.1082;4393
2024-05-17T13:22:08.951;599616781869981928;1376.7999;4349
2024-05-17T13:22:08.959;599616781877673718;1384.4917;4342
2024-05-17T13:22:08.967;599616781885365508;1392.1836;4320
2024-05-17T13:22:08.974;599616781893057298;1399.8754;4273
2024-05-17T13:22:08.982;599616781900749088;1407.5671;4212
2024-05-17T13:22:08.990;599616781908440878;1415.2589;4172
2024-05-17T13:22:08.997;599616781916132668;1422.9507;4160
2024-05-17T13:22:09.005;599616781923824458;1430.6425;4127
2024-05-17T13:22:09.013;599616781931516248;1438.3342;4080
2024-05-17T13:22:09.021;599616781939208038;1446.026;4078
2024-05-17T13:22:09.028;599616781946899828;1453.7178;4056
2024-05-17T13:22:09.036;599616781954591618;1461.4097;3967
2024-05-17T13:22:09.044;599616781962283408;1469.1014;3908
2024-05-17T13:22:09.051;599616781969975198;1476.7932;3917
2024-05-17T13:22:09.059;599616781977666988;1484.485;3892
2024-05-17T13:22:09.067;599616781985358778;1492.1768;3826
2024-05-17T13:22:09.074;599616781993050568;1499.8685;3776
2024-05-17T13:22:09.082;599616782000742358;1507.5603;3743
2024-05-17T13:22:09.090;599616782008434148;1515.2521;3703
2024-05-17T13:22:09.097;599616782016125938;1522.9438;3665
2024-05-17T13:22:09.105;599616782023817728;1530.6357;3639
2024-05-17T13:22:09.113;599616782031509518;1538.3275;3632
2024-05-17T13:22:09.121;599616782039201308;1546.0193;3585
2024-05-17T13:22:09.128;599616782046893098;1553.711;3493
2024-05-17T13:22:09.136;599616782054584888;1561.4028;3465
2024-05-17T13:22:09.144;599616782062276678;1569.0946;3500
2024-05-17T13:22:09.151;599616782069968468;1576.7864;3463
2024-05-17T13:22:09.159;599616782077660258;1584.4781;3326
2024-05-17T13:22:09.167;599616782085352048;1592.17;3239
2024-05-17T13:22:09.174;599616782093043838;1599.8619;3220
2024-05-17T13:22:09.182;599616782100735628;1607.5537;3133
2024-05-17T13:22:09.190;599616782108427418;1615.2455;3046
2024-05-17T13:22:09.197;599616782116119208;1622.9373;3058
2024-05-17T13:22:09.205;599616782123810998;1630.629;3065
2024-05-17T13:22:09.213;599616782131502788;1638.3208;3008
2024-05-17T13:22:09.221;599616782139194578;1646.0126;2959
2024-05-17T13:22:09.228;599616782146886368;1653.7043;2956
2024-05-17T13:22:09.236;599616782154578158;1661.3961;2952
2024-05-17T13:22:09.244;599616782162269948;1669.088;2902
2024-05-17T13:22:09.251;599616782169961738;1676.7798;2822
2024-05-17T13:22:09.259;599616782177683636;1684.5016;2782
2024-05-17T13:22:09.267;599616782185375008;1692.193;2777
2024-05-17T13:22:09.274;599616782193066380;1699.8844;2747
2024-05-17T13:22:09.282;599616782200757752;1707.5757;2709
2024-05-17T13:22:09.290;599616782208449124;1715.2671;2702
2024-05-17T13:22:09.297;599616782216140496;1722.9585;2697
2024-05-17T13:22:09.305;599616782223831868;1730.6499;2652
2024-05-17T13:22:09.313;599616782231523240;1738.3413;2603
2024-05-17T13:22:09.321;599616782239214612;1746.0326;2570
2024-05-17T13:22:09.328;599616782246905984;1753.724;2485
2024-05-17T13:22:09.336;599616782254597356;1761.4153;2400
2024-05-17T13:22:09.344;599616782262288728;1769.1067;2612
2024-05-17T13:22:09.351;599616782269980100;1776.7981;3123
2024-05-17T13:22:09.359;599616782277671472;1784.4895;3392
2024-05-17T13:22:09.367;599616782285362844;1792.1809;3006
2024-05-17T13:22:09.374;599616782293054216;1799.8723;2370
2024-05-17T13:22:09.382;599616782300745588;1807.5635;2207
2024-05-17T13:22:09.390;599616782308436960;1815.2549;2341
2024-05-17T13:22:09.397;599616782316128332;1822.9463;2249
2024-05-17T13:22:09.405;599616782323819704;1830.6377;2132
2024-05-17T13:22:09.413;599616782331511076;1838.3291;2158
2024-05-17T13:22:09.421;599616782339202448;1846.0205;2103
2024-05-17T13:22:09.428;599616782346893820;1853.7119;1974
2024-05-17T13:22:09.436;599616782354585192;1861.4031;1927
2024-05-17T13:22:09.444;599616782362276564;1869.0945;1920
2024-05-17T13:22:09.451;599616782369967936;1876.7859;1875
2024-05-17T13:22:09.459;599616782377659308;1884.4773;1842
2024-05-17T13:22:09.467;599616782385350680;1892.1687;1854
2024-05-17T13:22:09.474;599616782393042052;1899.8601;1858
2024-05-17T13:22:09.482;599616782400733424;1907.5514;1835
2024-05-17T13:22:09.490;599616782408424796;1915.2428;1807
2024-05-17T13:22:09.497;599616782416116168;1922.9342;1807
2024-05-17T13:22:09.505;599616782423807540;1930.6255;1823
2024-05-17T13:22:09.513;599616782431498912;1938.3169;1809
2024-05-17T13:22:09.521;599616782439190284;1946.0083;1795
2024-05-17T13:22:09.528;599616782446881656;1953.6996;1804
2024-05-17T13:22:09.536;599616782454573028;1961.391;1783
2024-05-17T13:22:09.544;599616782462264400;1969.0824;1741
2024-05-17T13:22:09.551;599616782469955772;1976.7738;1741
2024-05-17T13:22:09.559;599616782477647144;1984.4652;1755
2024-05-17T13:22:09.567;599616782485338516;1992.1565;1738
2024-05-17T13:22:09.574;599616782493029888;1999.8479;1708
2024-05-17T13:22:09.582;599616782500721260;2007.5392;1689
2024-05-17T13:22:09.590;599616782508412632;2015.2306;1682
2024-05-17T13:22:09.597;599616782516104004;2022.922;1682
2024-05-17T13:22:09.605;599616782523795376;2030.6134;1668
2024-05-17T13:22:09.613;599616782531486748;2038.3048;1670
2024-05-17T13:22:09.620;599616782539178120;2045.9962;1686
2024-05-17T13:22:09.628;599616782546869492;2053.6875;1658
2024-05-17T13:22:09.636;599616782554560864;2061.379;1611
2024-05-17T13:22:09.644;599616782562252236;2069.0703;1625
2024-05-17T13:22:09.651;599616782569943608;2076.7617;1653
2024-05-17T13:22:09.659;599616782577634980;2084.453;1618
2024-05-17T13:22:09.667;599616782585326352;2092.1443;1510
2024-05-17T13:22:09.674;599616782593017724;2099.8357;1411
2024-05-17T13:22:09.682;599616782600709096;2107.527;1406
2024-05-17T13:22:09.690;599616782608400468;2115.2185;1425
2024-05-17T13:22:09.697;599616782616091840;2122.91;1411
2024-05-17T13:22:09.705;599616782623783212;2130.6013;1418
2024-05-17T13:22:09.713;599616782631474584;2138.2927;1430
2024-05-17T13:22:09.720;599616782639165956;2145.984;1399
2024-05-17T13:22:09.728;599616782646857328;2153.6753;1368
2024-05-17T13:22:09.736;599616782654548700;2161.3667;1373
2024-05-17T13:22:09.744;599616782662240072;2169.058;1366
2024-05-17T13:22:09.751;599616782669931444;2176.7493;1314
2024-05-17T13:22:09.759;599616782677622816;2184.441;1274
2024-05-17T13:22:09.767;599616782685314188;2192.132;1281
2024-05-17T13:22:09.774;599616782693005560;2199.8237;1288
2024-05-17T13:22:09.782;599616782700696932;2207.515;1267
2024-05-17T13:22:09.790;599616782708388304;2215.2063;1260
2024-05-17T13:22:09.797;599616782716079676;2222.8977;1274
2024-05-17T13:22:09.805;599616782723771048;2230.5889;1269
2024-05-17T13:22:09.813;599616782731462420;2238.2805;1234
2024-05-17T13:22:09.820;599616782739123704;2245.9417;1208
2024-05-17T13:22:09.828;599616782746815494;2253.6335;1182
2024-05-17T13:22:09.836;599616782754507284;2261.3252;1140
2024-05-17T13:22:09.844;599616782762199074;2269.017;1241
2024-05-17T13:22:09.851;599616782769890864;2276.709;1670
2024-05-17T13:22:09.859;599616782777582654;2284.4006;2127
2024-05-17T13:22:09.867;599616782785274444;2292.0925;2016
2024-05-17T13:22:09.874;599616782792966234;2299.7842;1333
2024-05-17T13:22:09.882;599616782800658024;2307.476;878
2024-05-17T13:22:09.890;599616782808349814;2315.1677;1013
2024-05-17T13:22:09.897;599616782816041604;2322.8596;1093
2024-05-17T13:22:09.905;599616782823733394;2330.5513;895
2024-05-17T13:22:09.913;599616782831425184;2338.2432;801
2024-05-17T13:22:09.920;599616782839116974;2345.9348;803
2024-05-17T13:22:09.928;599616782846808764;2353.6267;742
2024-05-17T13:22:09.936;599616782854500554;2361.3186;697
2024-05-17T13:22:09.944;599616782862192344;2369.0105;727
2024-05-17T13:22:09.951;599616782869884134;2376.7021;739
2024-05-17T13:22:09.959;599616782877575924;2384.394;713
2024-05-17T13:22:09.967;599616782885267714;2392.0857;711
2024-05-17T13:22:09.974;599616782892959504;2399.7776;735
2024-05-17T13:22:09.982;599616782900651294;2407.4692;756
2024-05-17T13:22:09.990;599616782908343084;2415.1611;760
2024-05-17T13:22:09.997;599616782916034874;2422.8528;749
2024-05-17T13:22:10.005;599616782923726664;2430.5447;760
2024-05-17T13:22:10.013;599616782931418454;2438.2363;798
2024-05-17T13:22:10.020;599616782939110244;2445.9282;808
2024-05-17T13:22:10.028;599616782946802034;2453.6199;808
2024-05-17T13:22:10.036;599616782954493824;2461.3118;824
2024-05-17T13:22:10.044;599616782962185614;2469.0034;822
2024-05-17T13:22:10.051;599616782969877404;2476.6953;793
2024-05-17T13:22:10.059;599616782977569194;2484.387;798
2024-05-17T13:22:10.067;599616782985260984;2492.0789;829
2024-05-17T13:22:10.074;599616782992952774;2499.771;836
2024-05-17T13:22:10.082;599616783000644564;2507.4626;819
2024-05-17T13:22:10.090;599616783008336354;2515.1545;808
2024-05-17T13:22:10.097;599616783016028144;2522.8462;812
2024-05-17T13:22:10.105;599616783023719934;2530.538;824
2024-05-17T13:22:10.113;599616783031411724;2538.2297;824
2024-05-17T13:22:10.120;599616783039103514;2545.9216;824
2024-05-17T13:22:10.128;599616783046795304;2553.6133;834
2024-05-17T13:22:10.136;599616783054487094;2561.3052;824
2024-05-17T13:22:10.143;599616783062178884;2568.9968;803
2024-05-17T13:22:10.151;599616783069870674;2576.6887;817
2024-05-17T13:22:10.159;599616783077562464;2584.3804;798
2024-05-17T13:22:10.167;599616783085254254;2592.0723;664
2024-05-17T13:22:10.174;599616783092946044;2599.764;563
2024-05-17T13:22:10.182;599616783100637834;2607.4558;598
2024-05-17T13:22:10.190;599616783108329624;2615.1475;640
2024-05-17T13:22:10.197;599616783116021414;2622.8394;629
2024-05-17T13:22:10.205;599616783123713204;2630.531;636
2024-05-17T13:22:10.213;599616783131404994;2638.2231;666
2024-05-17T13:22:10.220;599616783139096784;2645.9148;683
2024-05-17T13:22:10.228;599616783146788574;2653.6067;673
2024-05-17T13:22:10.236;599616783154480364;2661.2983;662
2024-05-17T13:22:10.243;599616783162172154;2668.9902;652
2024-05-17T13:22:10.251;599616783169863944;2676.682;629
2024-05-17T13:22:10.259;599616783177555734;2684.3738;619
2024-05-17T13:22:10.267;599616783185247524;2692.0654;624
2024-05-17T13:22:10.274;599616783192939314;2699.7573;629
2024-05-17T13:22:10.282;599616783200631104;2707.449;631
2024-05-17T13:22:10.290;599616783208322894;2715.1409;633
2024-05-17T13:22:10.297;599616783216014684;2722.8325;636
2024-05-17T13:22:10.305;599616783223706474;2730.5244;652
2024-05-17T13:22:10.313;599616783231398264;2738.2163;673
2024-05-17T13:22:10.320;599616783239090054;2745.908;662
2024-05-17T13:22:10.328;599616783246781844;2753.5999;631
2024-05-17T13:22:10.336;599616783254473634;2761.2915;614
2024-05-17T13:22:10.343;599616783262165424;2768.9834;600
2024-05-17T13:22:10.351;599616783269857214;2776.6753;695
2024-05-17T13:22:10.359;599616783277549004;2784.3672;1100
2024-05-17T13:22:10.367;599616783285240794;2792.0588;1587
2024-05-17T13:22:10.374;599616783292932584;2799.7507;1564
2024-05-17T13:22:10.382;599616783300649514;2807.4675;965
2024-05-17T13:22:10.390;599616783308340955;2815.159;518
2024-05-17T13:22:10.397;599616783316032396;2822.8503;612
2024-05-17T13:22:10.405;599616783323723837;2830.5417;664
2024-05-17T13:22:10.413;599616783331415278;2838.2334;435
2024-05-17T13:22:10.420;599616783339106719;2845.9246;372
2024-05-17T13:22:10.428;599616783346798160;2853.6162;452
2024-05-17T13:22:10.436;599616783354489601;2861.3076;384
2024-05-17T13:22:10.443;599616783362181042;2868.999;270
2024-05-17T13:22:10.451;599616783369872483;2876.6904;268
2024-05-17T13:22:10.459;599616783377563924;2884.3818;294
2024-05-17T13:22:10.467;599616783385255365;2892.0735;280
2024-05-17T13:22:10.474;599616783392946806;2899.7646;273
2024-05-17T13:22:10.482;599616783400638247;2907.4563;306
2024-05-17T13:22:10.490;599616783408329688;2915.1477;341
2024-05-17T13:22:10.497;599616783416021129;2922.839;343
2024-05-17T13:22:10.505;599616783423712570;2930.5305;332
2024-05-17T13:22:10.513;599616783431404011;2938.2222;360
2024-05-17T13:22:10.520;599616783439095452;2945.9133;409
2024-05-17T13:22:10.528;599616783446786893;2953.605;421
2024-05-17T13:22:10.536;599616783454478334;2961.2964;424
2024-05-17T13:22:10.543;599616783462169775;2968.9875;452
2024-05-17T13:22:10.551;599616783469861216;2976.6792;461
2024-05-17T13:22:10.559;599616783477552657;2984.3706;440
2024-05-17T13:22:10.567;599616783485244098;2992.0623;447
2024-05-17T13:22:10.574;599616783492935539;2999.7534;480
2024-05-17T13:22:10.582;599616783500626980;3007.445;497
2024-05-17T13:22:10.590;599616783508318421;3015.1365;478
2024-05-17T13:22:10.597;599616783516009862;3022.828;454
2024-05-17T13:22:10.605;599616783523701303;3030.5193;468
2024-05-17T13:22:10.613;599616783531392744;3038.211;497
2024-05-17T13:22:10.620;599616783539084185;3045.902;499
2024-05-17T13:22:10.628;599616783546775626;3053.5935;511
2024-05-17T13:22:10.636;599616783554467067;3061.2852;532
2024-05-17T13:22:10.643;599616783562158508;3068.9763;520
2024-05-17T13:22:10.651;599616783569849949;3076.668;490
2024-05-17T13:22:10.659;599616783577541390;3084.3594;475
2024-05-17T13:22:10.667;599616783585232831;3092.051;449
2024-05-17T13:22:10.674;599616783592924272;3099.7422;381
2024-05-17T13:22:10.682;599616783600615713;3107.4338;336
2024-05-17T13:22:10.690;599616783608307154;3115.1252;355
2024-05-17T13:22:10.697;599616783615998595;3122.8164;386
2024-05-17T13:22:10.705;599616783623690036;3130.508;402
2024-05-17T13:22:10.713;599616783631381477;3138.1995;405
2024-05-17T13:22:10.720;599616783639072918;3145.8909;424
2024-05-17T13:22:10.728;599616783646764359;3153.5823;457
2024-05-17T13:22:10.736;599616783654455800;3161.274;447
2024-05-17T13:22:10.743;599616783662147241;3168.965;398
2024-05-17T13:22:10.751;599616783669838682;3176.6567;367
2024-05-17T13:22:10.759;599616783677530123;3184.3481;384
2024-05-17T13:22:10.767;599616783685221564;3192.0393;405
2024-05-17T13:22:10.774;599616783692913005;3199.731;393
2024-05-17T13:22:10.782;599616783700604446;3207.4224;388
2024-05-17T13:22:10.790;599616783708295887;3215.114;417
2024-05-17T13:22:10.797;599616783715987328;3222.8052;431
2024-05-17T13:22:10.805;599616783723678769;3230.4968;426
2024-05-17T13:22:10.813;599616783731370210;3238.1882;445
2024-05-17T13:22:10.820;599616783739061651;3245.8796;461
2024-05-17T13:22:10.828;599616783746753092;3253.571;449
2024-05-17T13:22:10.836;599616783754444533;3261.2627;440
2024-05-17T13:22:10.843;599616783762135974;3268.9539;438
2024-05-17T13:22:10.851;599616783769827415;3276.6453;407
2024-05-17T13:22:10.859;599616783777518856;3284.337;426
2024-05-17T13:22:10.867;599616783785210297;3292.028;711
2024-05-17T13:22:10.874;599616783792901738;3299.7197;1213
2024-05-17T13:22:10.882;599616783800593179;3307.4111;1444
2024-05-17T13:22:10.890;599616783808284620;3315.1028;1043
2024-05-17T13:22:10.897;599616783815976061;3322.794;433
2024-05-17T13:22:10.905;599616783823667502;3330.4856;296
2024-05-17T13:22:10.913;599616783831358943;3338.177;409
2024-05-17T13:22:10.920;599616783839050384;3345.8684;296
2024-05-17T13:22:10.928;599616783846741825;3353.5598;186
2024-05-17T13:22:10.936;599616783854433266;3361.2512;226
2024-05-17T13:22:10.943;599616783862104676;3368.9226;223
2024-05-17T13:22:10.951;599616783869796396;3376.6145;188
2024-05-17T13:22:10.959;599616783877488116;3384.3062;200
2024-05-17T13:22:10.966;599616783885179836;3391.998;214
2024-05-17T13:22:10.974;599616783892871556;3399.6895;188
2024-05-17T13:22:10.982;599616783900563276;3407.3813;131
2024-05-17T13:22:10.990;599616783908254996;3415.073;101
2024-05-17T13:22:10.997;599616783915946716;3422.765;139
2024-05-17T13:22:11.005;599616783923638436;3430.4563;167
2024-05-17T13:22:11.013;599616783931330156;3438.1482;148
2024-05-17T13:22:11.020;599616783939021876;3445.8398;164
2024-05-17T13:22:11.028;599616783946713596;3453.5317;221
2024-05-17T13:22:11.036;599616783954405316;3461.2234;252
2024-05-17T13:22:11.043;599616783962097036;3468.915;259
2024-05-17T13:22:11.051;599616783969788756;3476.6067;270
2024-05-17T13:22:11.059;599616783977480476;3484.2986;282
2024-05-17T13:22:11.066;599616783985172196;3491.9902;289
2024-05-17T13:22:11.074;599616783992863916;3499.682;296
2024-05-17T13:22:11.082;599616784000555636;3507.3735;310
2024-05-17T13:22:11.090;599616784008247356;3515.0654;332
2024-05-17T13:22:11.097;599616784015939076;3522.757;336
2024-05-17T13:22:11.105;599616784023630796;3530.449;306
2024-05-17T13:22:11.113;599616784031322516;3538.1404;294
2024-05-17T13:22:11.120;599616784039014236;3545.8323;322
2024-05-17T13:22:11.128;599616784046705956;3553.524;334
2024-05-17T13:22:11.136;599616784054397676;3561.2158;310
2024-05-17T13:22:11.143;599616784062089396;3568.9072;278
2024-05-17T13:22:11.151;599616784069781116;3576.599;237
2024-05-17T13:22:11.159;599616784077472836;3584.2908;226
2024-05-17T13:22:11.166;599616784085164556;3591.9827;237
2024-05-17T13:22:11.174;599616784092856276;3599.6743;202
2024-05-17T13:22:11.182;599616784100547996;3607.366;141
2024-05-17T13:22:11.190;599616784108239716;3615.0576;136
2024-05-17T13:22:11.197;599616784115931436;3622.7495;153
2024-05-17T13:22:11.205;599616784123623156;3630.4412;167
2024-05-17T13:22:11.213;599616784131314876;3638.1328;202
2024-05-17T13:22:11.220;599616784139006596;3645.8245;219
2024-05-17T13:22:11.228;599616784146698316;3653.5164;223
2024-05-17T13:22:11.236;599616784154390036;3661.208;237
2024-05-17T13:22:11.243;599616784162081756;3668.9;214
2024-05-17T13:22:11.251;599616784169773476;3676.5913;150
2024-05-17T13:22:11.259;599616784177465196;3684.2832;148
2024-05-17T13:22:11.266;599616784185156916;3691.9749;202
2024-05-17T13:22:11.274;599616784192848636;3699.6667;214
2024-05-17T13:22:11.282;599616784200540356;3707.3584;200
2024-05-17T13:22:11.290;599616784208232076;3715.05;204
2024-05-17T13:22:11.297;599616784215923796;3722.7417;226
2024-05-17T13:22:11.305;599616784223615516;3730.4336;242
2024-05-17T13:22:11.313;599616784231307236;3738.1252;247
2024-05-17T13:22:11.320;599616784238998956;3745.817;256
2024-05-17T13:22:11.328;599616784246690676;3753.5085;270
2024-05-17T13:22:11.336;599616784254382396;3761.2004;259
2024-05-17T13:22:11.343;599616784262074116;3768.892;221
2024-05-17T13:22:11.351;599616784269765836;3776.584;183
2024-05-17T13:22:11.359;599616784277457556;3784.2754;268
2024-05-17T13:22:11.366;599616784285149276;3791.9673;636
2024-05-17T13:22:11.374;599616784292840996;3799.659;1119
2024-05-17T13:22:11.382;599616784300532716;3807.3508;1187
2024-05-17T13:22:11.390;599616784308224436;3815.0422;638
2024-05-17T13:22:11.397;599616784315916156;3822.7341;84
2024-05-17T13:22:11.405;599616784323607876;3830.4258;77
2024-05-17T13:22:11.413;599616784331299596;3838.1177;183
2024-05-17T13:22:11.420;599616784338991316;3845.8093;49
2024-05-17T13:22:11.428;599616784346683036;3853.501;-35
2024-05-17T13:22:11.436;599616784354374756;3861.1926;-11
2024-05-17T13:22:11.443;599616784362066476;3868.8845;-11
2024-05-17T13:22:11.451;599616784369758196;3876.5762;-7
2024-05-17T13:22:11.459;599616784377449916;3884.268;7
2024-05-17T13:22:11.466;599616784385141636;3891.9595;0
2024-05-17T13:22:11.474;599616784392833356;3899.6514;0
2024-05-17T13:22:11.482;599616784400525076;3907.343;21
2024-05-17T13:22:11.490;599616784408216796;3915.035;28
2024-05-17T13:22:11.497;599616784415908516;3922.7263;37
2024-05-17T13:22:11.505;599616784423625328;3930.4434;75
2024-05-17T13:22:11.513;599616784431316700;3938.1348;96
2024-05-17T13:22:11.520;599616784439008072;3945.826;82
2024-05-17T13:22:11.528;599616784446699444;3953.5173;94
2024-05-17T13:22:11.536;599616784454390816;3961.2087;141
2024-05-17T13:22:11.543;599616784462082188;3968.9001;174
2024-05-17T13:22:11.551;599616784469773560;3976.5916;174
2024-05-17T13:22:11.559;599616784477464932;3984.283;169
2024-05-17T13:22:11.566;599616784485156304;3991.9744;174
2024-05-17T13:22:11.574;599616784492847676;3999.6658;155
2024-05-17T13:22:11.582;599616784500539048;4007.357;98
2024-05-17T13:22:11.590;599616784508230420;4015.0483;70
2024-05-17T13:22:11.597;599616784515921792;4022.7397;98
2024-05-17T13:22:11.605;599616784523613164;4030.4312;103
2024-05-17T13:22:11.613;599616784531304536;4038.1226;56
2024-05-17T13:22:11.620;599616784538995908;4045.814;51
2024-05-17T13:22:11.628;599616784546687280;4053.5054;91
2024-05-17T13:22:11.636;599616784554378652;4061.1965;89
2024-05-17T13:22:11.643;599616784562070024;4068.8882;68
2024-05-17T13:22:11.651;599616784569761396;4076.5793;87
2024-05-17T13:22:11.659;599616784577452768;4084.2708;96
2024-05-17T13:22:11.666;599616784585144140;4091.9622;91
2024-05-17T13:22:11.674;599616784592835512;4099.6533;89
2024-05-17T13:22:11.682;599616784600526884;4107.3447;44
2024-05-17T13:22:11.690;599616784608218256;4115.036;18
2024-05-17T13:22:11.697;599616784615909628;4122.7275;44
2024-05-17T13:22:11.705;599616784623601000;4130.419;42
2024-05-17T13:22:11.713;599616784631292372;4138.1104;42
2024-05-17T13:22:11.720;599616784638983744;4145.802;84
2024-05-17T13:22:11.728;599616784646675116;4153.493;101
2024-05-17T13:22:11.736;599616784654366488;4161.1846;82
2024-05-17T13:22:11.743;599616784662057860;4168.876;56
2024-05-17T13:22:11.751;599616784669749232;4176.5674;32
2024-05-17T13:22:11.759;599616784677440604;4184.259;32
2024-05-17T13:22:11.766;599616784685131976;4191.95;35
2024-05-17T13:22:11.774;599616784692823348;4199.641;37
2024-05-17T13:22:11.782;599616784700514720;4207.3325;80
2024-05-17T13:22:11.790;599616784708206092;4215.024;98
2024-05-17T13:22:11.797;599616784715897464;4222.7153;70
2024-05-17T13:22:11.805;599616784723588836;4230.4067;77
2024-05-17T13:22:11.813;599616784731280208;4238.098;120
2024-05-17T13:22:11.820;599616784738971580;4245.7896;122
2024-05-17T13:22:11.828;599616784746662952;4253.481;110
2024-05-17T13:22:11.836;599616784754354324;4261.1724;101
2024-05-17T13:22:11.843;599616784762045696;4268.864;63
2024-05-17T13:22:11.851;599616784769737068;4276.555;124
2024-05-17T13:22:11.859;599616784777428440;4284.2466;511
2024-05-17T13:22:11.866;599616784785119812;4291.938;1022
2024-05-17T13:22:11.874;599616784792811184;4299.629;1064
2024-05-17T13:22:11.882;599616784800502556;4307.3203;464
2024-05-17T13:22:11.890;599616784808193928;4315.012;-75
2024-05-17T13:22:11.897;599616784815885300;4322.703;-7
2024-05-17T13:22:11.905;599616784823576672;4330.3945;134
2024-05-17T13:22:11.913;599616784831268044;4338.086;-28
2024-05-17T13:22:11.920;599616784838959416;4345.7773;-96
2024-05-17T13:22:11.928;599616784846650788;4353.4688;-35
2024-05-17T13:22:11.936;599616784854342160;4361.16;-91
2024-05-17T13:22:11.943;599616784862033532;4368.8516;-148
2024-05-17T13:22:11.951;599616784869724904;4376.5425;-98
2024-05-17T13:22:11.959;599616784877416276;4384.2344;-58
2024-05-17T13:22:11.966;599616784885107648;4391.926;-63
2024-05-17T13:22:11.974;599616784892799020;4399.617;-68
2024-05-17T13:22:11.982;599616784900490392;4407.308;-61
2024-05-17T13:22:11.989;599616784908181764;4414.9995;-37
2024-05-17T13:22:11.997;599616784915873136;4422.6914;-18
2024-05-17T13:22:12.005;599616784923564508;4430.383;-9
2024-05-17T13:22:12.013;599616784931255880;4438.0737;35
2024-05-17T13:22:12.020;599616784938947252;4445.765;77
2024-05-17T13:22:12.028;599616784946638624;4453.4565;68
2024-05-17T13:22:12.036;599616784954329996;4461.148;65
2024-05-17T13:22:12.043;599616784962021368;4468.8394;108
2024-05-17T13:22:12.051;599616784969712740;4476.531;141
2024-05-17T13:22:12.059;599616784977404112;4484.222;127
2024-05-17T13:22:12.066;599616784985075476;4491.893;113
2024-05-17T13:22:12.074;599616784992767126;4499.585;115
2024-05-17T13:22:12.082;599616785000458776;4507.277;115
2024-05-17T13:22:12.089;599616785008150426;4514.9688;103
2024-05-17T13:22:12.097;599616785015842076;4522.6597;94
2024-05-17T13:22:12.105;599616785023533726;4530.3516;103
2024-05-17T13:22:12.113;599616785031225376;4538.0435;113
2024-05-17T13:22:12.120;599616785038917026;4545.7354;96
2024-05-17T13:22:12.128;599616785046608676;4553.4263;65
2024-05-17T13:22:12.136;599616785054300326;4561.118;51
2024-05-17T13:22:12.143;599616785061991976;4568.81;40
2024-05-17T13:22:12.151;599616785069683626;4576.502;-18
2024-05-17T13:22:12.159;599616785077375276;4584.193;-82
2024-05-17T13:22:12.166;599616785085066926;4591.885;-61
2024-05-17T13:22:12.174;599616785092758576;4599.5767;-47
2024-05-17T13:22:12.182;599616785100450226;4607.2686;-103
2024-05-17T13:22:12.189;599616785108141876;4614.9595;-124
2024-05-17T13:22:12.197;599616785115833526;4622.6514;-75
2024-05-17T13:22:12.205;599616785123525176;4630.3433;-51
2024-05-17T13:22:12.213;599616785131216826;4638.035;-77
2024-05-17T13:22:12.220;599616785138908476;4645.726;-61
2024-05-17T13:22:12.228;599616785146600126;4653.418;-9
2024-05-17T13:22:12.236;599616785154291776;4661.11;-18
2024-05-17T13:22:12.243;599616785161983426;4668.802;-58
2024-05-17T13:22:12.251;599616785169675076;4676.493;-44
2024-05-17T13:22:12.259;599616785177366726;4684.1846;-18
2024-05-17T13:22:12.266;599616785185058376;4691.8765;-9
2024-05-17T13:22:12.274;599616785192750026;4699.5684;11
2024-05-17T13:22:12.282;599616785200441676;4707.26;40
2024-05-17T13:22:12.289;599616785208133326;4714.951;51
2024-05-17T13:22:12.297;599616785215824976;4722.643;54
2024-05-17T13:22:12.305;599616785223516626;4730.335;49
2024-05-17T13:22:12.313;599616785231208276;4738.0264;61
2024-05-17T13:22:12.320;599616785238899926;4745.718;89
2024-05-17T13:22:12.328;599616785246591576;4753.4097;77
2024-05-17T13:22:12.336;599616785254283226;4761.101;21
2024-05-17T13:22:12.343;599616785261974876;4768.793;58
2024-05-17T13:22:12.351;599616785269666526;4776.4844;374
2024-05-17T13:22:12.359;599616785277358176;4784.1763;883
2024-05-17T13:22:12.366;599616785285049826;4791.8677;1090
2024-05-17T13:22:12.374;599616785292741476;4799.5596;650
2024-05-17T13:22:12.382;599616785300433126;4807.251;37
2024-05-17T13:22:12.389;599616785308124776;4814.943;-58
2024-05-17T13:22:12.397;599616785315816426;4822.6343;65
2024-05-17T13:22:12.405;599616785323508076;4830.326;-44
2024-05-17T13:22:12.413;599616785331199726;4838.0176;-115
2024-05-17T13:22:12.420;599616785338891376;4845.7095;-70
2024-05-17T13:22:12.428;599616785346583026;4853.401;-108
2024-05-17T13:22:12.436;599616785354274676;4861.093;-141
2024-05-17T13:22:12.443;599616785361966326;4868.784;-110
2024-05-17T13:22:12.451;599616785369657976;4876.476;-108
2024-05-17T13:22:12.459;599616785377349626;4884.1675;-113
2024-05-17T13:22:12.466;599616785385041276;4891.8594;-75
2024-05-17T13:22:12.474;599616785392732926;4899.551;-47
2024-05-17T13:22:12.482;599616785400424576;4907.2427;-56
2024-05-17T13:22:12.489;599616785408116226;4914.934;-58
2024-05-17T13:22:12.497;599616785415807876;4922.626;-21
2024-05-17T13:22:12.505;599616785423499526;4930.3174;11
2024-05-17T13:22:12.513;599616785431191176;4938.0093;14
2024-05-17T13:22:12.520;599616785438882826;4945.7007;37
2024-05-17T13:22:12.528;599616785446574476;4953.3926;80
2024-05-17T13:22:12.536;599616785454266126;4961.084;75
2024-05-17T13:22:12.543;599616785461957776;4968.776;56
2024-05-17T13:22:12.551;599616785469649426;4976.4673;75
2024-05-17T13:22:12.559;599616785477341076;4984.159;108
2024-05-17T13:22:12.566;599616785485032726;4991.8506;117
2024-05-17T13:22:12.574;599616785492724376;4999.5425;113
2024-05-17T13:22:12.582;599616785500416026;5007.234;108
2024-05-17T13:22:12.589;599616785508107676;5014.926;117
2024-05-17T13:22:12.597;599616785515799326;5022.617;134
2024-05-17T13:22:12.605;599616785523490976;5030.309;155
2024-05-17T13:22:12.613;599616785531182626;5038.0005;176
2024-05-17T13:22:12.620;599616785538874276;5045.6924;153
2024-05-17T13:22:12.628;599616785546575992;5053.394;82
2024-05-17T13:22:12.636;599616785554267503;5061.086;61
2024-05-17T13:22:12.643;599616785561959014;5068.777;106
2024-05-17T13:22:12.651;599616785569650525;5076.4688;148
2024-05-17T13:22:12.659;599616785577342036;5084.16;157
2024-05-17T13:22:12.666;599616785585033547;5091.8516;146
2024-05-17T13:22:12.674;599616785592725058;5099.543;148
2024-05-17T13:22:12.682;599616785600416569;5107.2344;155
2024-05-17T13:22:12.689;599616785608108080;5114.9263;120
2024-05-17T13:22:12.697;599616785615799591;5122.617;68
2024-05-17T13:22:12.705;599616785623491102;5130.309;84
2024-05-17T13:22:12.713;599616785631182613;5138.0005;106
2024-05-17T13:22:12.720;599616785638874124;5145.6924;37
2024-05-17T13:22:12.728;599616785646565635;5153.3833;-23
2024-05-17T13:22:12.736;599616785654257146;5161.075;4
2024-05-17T13:22:12.743;599616785661948657;5168.7666;18
2024-05-17T13:22:12.751;599616785669640168;5176.458;-23
2024-05-17T13:22:12.759;599616785677331679;5184.1494;-18
2024-05-17T13:22:12.766;599616785685023190;5191.8413;28
2024-05-17T13:22:12.774;599616785692714701;5199.5327;40
2024-05-17T13:22:12.782;599616785700406212;5207.224;30
2024-05-17T13:22:12.789;599616785708097723;5214.9155;54
2024-05-17T13:22:12.797;599616785715789234;5222.6074;91
2024-05-17T13:22:12.805;599616785723480745;5230.299;101
2024-05-17T13:22:12.812;599616785731172256;5237.99;87
2024-05-17T13:22:12.820;599616785738863767;5245.6816;70
2024-05-17T13:22:12.828;599616785746555278;5253.3735;44
2024-05-17T13:22:12.836;599616785754246789;5261.065;91
2024-05-17T13:22:12.843;599616785761938300;5268.7563;414
2024-05-17T13:22:12.851;599616785769629811;5276.4478;930
2024-05-17T13:22:12.859;599616785777321322;5284.1396;1102
2024-05-17T13:22:12.866;599616785785012833;5291.8306;607
2024-05-17T13:22:12.874;599616785792704344;5299.5225;18
2024-05-17T13:22:12.882;599616785800395855;5307.214;0
2024-05-17T13:22:12.889;599616785808087366;5314.906;176
2024-05-17T13:22:12.897;599616785815778877;5322.5967;80
2024-05-17T13:22:12.905;599616785823470388;5330.288;-23
2024-05-17T13:22:12.912;599616785831161899;5337.98;7
2024-05-17T13:22:12.920;599616785838853410;5345.6714;-2
2024-05-17T13:22:12.928;599616785846544921;5353.363;-56
2024-05-17T13:22:12.936;599616785854236432;5361.054;-65
2024-05-17T13:22:12.943;599616785861927943;5368.746;-47
2024-05-17T13:22:12.951;599616785869619454;5376.437;-47
2024-05-17T13:22:12.959;599616785877310965;5384.129;-51
2024-05-17T13:22:12.966;599616785885002476;5391.8203;-37
2024-05-17T13:22:12.974;599616785892693987;5399.512;-7
2024-05-17T13:22:12.982;599616785900385498;5407.203;16
2024-05-17T13:22:12.989;599616785908077009;5414.895;16
2024-05-17T13:22:12.997;599616785915768520;5422.5864;18
2024-05-17T13:22:13.005;599616785923460031;5430.2783;49
2024-05-17T13:22:13.012;599616785931151542;5437.969;80
2024-05-17T13:22:13.020;599616785938843053;5445.661;89
2024-05-17T13:22:13.028;599616785946534564;5453.3525;106
2024-05-17T13:22:13.036;599616785954226075;5461.0444;122
2024-05-17T13:22:13.043;599616785961917586;5468.7354;110
2024-05-17T13:22:13.051;599616785969609097;5476.4272;91
2024-05-17T13:22:13.059;599616785977300608;5484.1187;106
2024-05-17T13:22:13.066;599616785984992119;5491.8105;139
2024-05-17T13:22:13.074;599616785992683630;5499.5015;155
2024-05-17T13:22:13.082;599616786000375141;5507.1934;141
2024-05-17T13:22:13.089;599616786008066652;5514.885;131
2024-05-17T13:22:13.097;599616786015758163;5522.576;155
2024-05-17T13:22:13.105;599616786023449674;5530.2676;181
2024-05-17T13:22:13.112;599616786031141185;5537.9595;167
2024-05-17T13:22:13.120;599616786038832696;5545.651;131
2024-05-17T13:22:13.128;599616786046524207;5553.342;129
2024-05-17T13:22:13.136;599616786054215718;5561.0337;139
2024-05-17T13:22:13.143;599616786061907229;5568.725;136
2024-05-17T13:22:13.151;599616786069598740;5576.417;155
2024-05-17T13:22:13.159;599616786077290251;5584.108;186
2024-05-17T13:22:13.166;599616786084981762;5591.8;195
2024-05-17T13:22:13.174;599616786092673273;5599.491;190
2024-05-17T13:22:13.182;599616786100364784;5607.1826;183
2024-05-17T13:22:13.189;599616786108066338;5614.8843;160
2024-05-17T13:22:13.197;599616786115757710;5622.5757;89
2024-05-17T13:22:13.205;599616786123449082;5630.267;44
2024-05-17T13:22:13.212;599616786131140454;5637.9585;77
2024-05-17T13:22:13.220;599616786138831826;5645.65;103
2024-05-17T13:22:13.228;599616786146523198;5653.3413;40
2024-05-17T13:22:13.236;599616786154214570;5661.032;-37
2024-05-17T13:22:13.243;599616786161905942;5668.7236;-51
2024-05-17T13:22:13.251;599616786169597314;5676.4155;-28
2024-05-17T13:22:13.259;599616786177288686;5684.107;-18
2024-05-17T13:22:13.266;599616786184980058;5691.798;-23
2024-05-17T13:22:13.274;599616786192671430;5699.4893;-16
2024-05-17T13:22:13.282;599616786200362802;5707.1807;9
2024-05-17T13:22:13.289;599616786208054174;5714.8726;23
2024-05-17T13:22:13.297;599616786215745546;5722.5635;25
2024-05-17T13:22:13.305;599616786223436918;5730.255;54
2024-05-17T13:22:13.312;599616786231128290;5737.9463;58
2024-05-17T13:22:13.320;599616786238819662;5745.6377;-7
2024-05-17T13:22:13.328;599616786246511034;5753.329;21
2024-05-17T13:22:13.336;599616786254202406;5761.0205;372
2024-05-17T13:22:13.343;599616786261893778;5768.712;904
2024-05-17T13:22:13.351;599616786269585150;5776.403;1071
2024-05-17T13:22:13.359;599616786277276522;5784.0947;584
2024-05-17T13:22:13.366;599616786284967894;5791.786;-16
2024-05-17T13:22:13.374;599616786292659266;5799.477;-65
2024-05-17T13:22:13.382;599616786300350638;5807.1685;101
2024-05-17T13:22:13.389;599616786308042010;5814.86;37
2024-05-17T13:22:13.397;599616786315733382;5822.552;9
2024-05-17T13:22:13.405;599616786323424754;5830.2427;65
2024-05-17T13:22:13.412;599616786331116126;5837.934;11
2024-05-17T13:22:13.420;599616786338807498;5845.6255;-28
2024-05-17T13:22:13.428;599616786346498870;5853.3164;2
2024-05-17T13:22:13.436;599616786354190242;5861.0083;-16
2024-05-17T13:22:13.443;599616786361881614;5868.6997;-44
2024-05-17T13:22:13.451;599616786369572986;5876.391;-23
2024-05-17T13:22:13.459;599616786377264358;5884.082;-9
2024-05-17T13:22:13.466;599616786384955730;5891.774;-11
2024-05-17T13:22:13.474;599616786392647102;5899.4653;4
2024-05-17T13:22:13.482;599616786400338474;5907.1562;32
2024-05-17T13:22:13.489;599616786408029846;5914.8477;65
2024-05-17T13:22:13.497;599616786415721218;5922.539;87
2024-05-17T13:22:13.505;599616786423412590;5930.231;75
2024-05-17T13:22:13.512;599616786431103962;5937.922;77
2024-05-17T13:22:13.520;599616786438795334;5945.6133;117
2024-05-17T13:22:13.528;599616786446486706;5953.3047;139
2024-05-17T13:22:13.535;599616786454178078;5960.9956;134
2024-05-17T13:22:13.543;599616786461869450;5968.6875;143
2024-05-17T13:22:13.551;599616786469560822;5976.379;150
2024-05-17T13:22:13.559;599616786477252194;5984.0703;136
2024-05-17T13:22:13.566;599616786484943566;5991.761;139
2024-05-17T13:22:13.574;599616786492634938;5999.4526;167
2024-05-17T13:22:13.582;599616786500326310;6007.1445;183
2024-05-17T13:22:13.589;599616786508017682;6014.836;179
2024-05-17T13:22:13.597;599616786515709054;6022.527;164
2024-05-17T13:22:13.605;599616786523400426;6030.2183;148
2024-05-17T13:22:13.612;599616786531091798;6037.91;117
2024-05-17T13:22:13.620;599616786538783170;6045.601;110
2024-05-17T13:22:13.628;599616786546474542;6053.2925;143
2024-05-17T13:22:13.635;599616786554165914;6060.984;169
2024-05-17T13:22:13.643;599616786561857286;6068.6753;162
2024-05-17T13:22:13.651;599616786569548658;6076.3667;160
2024-05-17T13:22:13.659;599616786577240030;6084.058;181
2024-05-17T13:22:13.666;599616786584931402;6091.7495;214
2024-05-17T13:22:13.674;599616786592622774;6099.4404;240
2024-05-17T13:22:13.682;599616786600314146;6107.132;240
2024-05-17T13:22:13.689;599616786608005518;6114.8237;207
2024-05-17T13:22:13.697;599616786615696890;6122.515;146
2024-05-17T13:22:13.705;599616786623388262;6130.206;89
2024-05-17T13:22:13.712;599616786631079634;6137.8975;91
2024-05-17T13:22:13.720;599616786638771006;6145.5894;122
2024-05-17T13:22:13.728;599616786646462378;6153.2803;139
2024-05-17T13:22:13.735;599616786654153750;6160.9717;143
2024-05-17T13:22:13.743;599616786661845122;6168.663;143
2024-05-17T13:22:13.751;599616786669506406;6176.3247;139
2024-05-17T13:22:13.759;599616786677198196;6184.0166;136
2024-05-17T13:22:13.766;599616786684889986;6191.708;139
2024-05-17T13:22:13.774;599616786692581776;6199.4;129
2024-05-17T13:22:13.782;599616786700273566;6207.092;117
2024-05-17T13:22:13.789;599616786707965356;6214.7837;129
2024-05-17T13:22:13.797;599616786715657146;6222.475;115
2024-05-17T13:22:13.805;599616786723348936;6230.167;42
2024-05-17T13:22:13.812;599616786731040726;6237.859;-21
2024-05-17T13:22:13.820;599616786738732516;6245.551;21
2024-05-17T13:22:13.828;599616786746424306;6253.242;296
2024-05-17T13:22:13.835;599616786754116096;6260.934;796
2024-05-17T13:22:13.843;599616786761807886;6268.626;1050
2024-05-17T13:22:13.851;599616786769499676;6276.318;631
2024-05-17T13:22:13.859;599616786777191466;6284.0093;-4
2024-05-17T13:22:13.866;599616786784883256;6291.701;-101
2024-05-17T13:22:13.874;599616786792575046;6299.393;84
2024-05-17T13:22:13.882;599616786800266836;6307.085;32
2024-05-17T13:22:13.889;599616786807958626;6314.7764;-28
2024-05-17T13:22:13.897;599616786815650416;6322.4683;49
2024-05-17T13:22:13.905;599616786823342206;6330.16;82
2024-05-17T13:22:13.912;599616786831033996;6337.852;58
2024-05-17T13:22:13.920;599616786838725786;6345.5435;30
2024-05-17T13:22:13.928;599616786846417576;6353.2354;11
2024-05-17T13:22:13.935;599616786854109366;6360.9272;7
2024-05-17T13:22:13.943;599616786861801156;6368.619;-9
2024-05-17T13:22:13.951;599616786869492946;6376.3105;-14
2024-05-17T13:22:13.959;599616786877184736;6384.0024;-2
2024-05-17T13:22:13.966;599616786884876526;6391.6943;4
2024-05-17T13:22:13.974;599616786892568316;6399.386;21
2024-05-17T13:22:13.982;599616786900260106;6407.078;40
2024-05-17T13:22:13.989;599616786907951896;6414.7695;61
2024-05-17T13:22:13.997;599616786915643686;6422.4614;98
2024-05-17T13:22:14.005;599616786923335476;6430.1533;124
2024-05-17T13:22:14.012;599616786931027266;6437.8457;106
2024-05-17T13:22:14.020;599616786938719056;6445.537;98
2024-05-17T13:22:14.028;599616786946410846;6453.229;131
2024-05-17T13:22:14.035;599616786954102636;6460.921;155
2024-05-17T13:22:14.043;599616786961794426;6468.613;150
2024-05-17T13:22:14.051;599616786969486216;6476.304;150
2024-05-17T13:22:14.058;599616786977178006;6483.996;153
2024-05-17T13:22:14.066;599616786984869796;6491.688;146
2024-05-17T13:22:14.074;599616786992561586;6499.38;146
2024-05-17T13:22:14.082;599616787000253376;6507.0713;164
2024-05-17T13:22:14.089;599616787007945166;6514.763;188
2024-05-17T13:22:14.097;599616787015636956;6522.455;176
2024-05-17T13:22:14.105;599616787023328746;6530.147;131
2024-05-17T13:22:14.112;599616787031020536;6537.8384;124
2024-05-17T13:22:14.120;599616787038712326;6545.5303;160
2024-05-17T13:22:14.128;599616787046404116;6553.222;174
2024-05-17T13:22:14.135;599616787054095906;6560.914;169
2024-05-17T13:22:14.143;599616787061787696;6568.6055;190
2024-05-17T13:22:14.151;599616787069479486;6576.2974;209
2024-05-17T13:22:14.158;599616787077171276;6583.9893;200
2024-05-17T13:22:14.166;599616787084863066;6591.681;197
2024-05-17T13:22:14.174;599616787092554856;6599.3726;233
2024-05-17T13:22:14.182;599616787100246646;6607.0645;263
2024-05-17T13:22:14.189;599616787107938436;6614.7563;242
2024-05-17T13:22:14.197;599616787115630226;6622.448;164
2024-05-17T13:22:14.205;599616787123322016;6630.14;94
2024-05-17T13:22:14.212;599616787131013806;6637.8315;84
2024-05-17T13:22:14.220;599616787138705596;6645.5234;113
2024-05-17T13:22:14.228;599616787146397386;6653.2153;141
2024-05-17T13:22:14.235;599616787154089176;6660.907;157
2024-05-17T13:22:14.243;599616787161780966;6668.5986;169
2024-05-17T13:22:14.251;599616787169472756;6676.2905;188
2024-05-17T13:22:14.258;599616787177164546;6683.9824;181
2024-05-17T13:22:14.266;599616787184856336;6691.6743;150
2024-05-17T13:22:14.274;599616787192548126;6699.3657;148
2024-05-17T13:22:14.282;599616787200239916;6707.0576;153
2024-05-17T13:22:14.289;599616787207931706;6714.7495;146
2024-05-17T13:22:14.297;599616787215623496;6722.442;146
2024-05-17T13:22:14.305;599616787223315286;6730.1333;122
2024-05-17T13:22:14.312;599616787231037184;6737.855;80
2024-05-17T13:22:14.320;599616787238728556;6745.547;202
2024-05-17T13:22:14.328;599616787246419928;6753.238;633
2024-05-17T13:22:14.335;599616787254111300;6760.929;1079
2024-05-17T13:22:14.343;599616787261802672;6768.6206;998
2024-05-17T13:22:14.351;599616787269494044;6776.312;384
2024-05-17T13:22:14.359;599616787277185416;6784.0034;-16
2024-05-17T13:22:14.366;599616787284876788;6791.695;77
2024-05-17T13:22:14.374;599616787292568160;6799.386;77
2024-05-17T13:22:14.382;599616787300259532;6807.077;-91
2024-05-17T13:22:14.389;599616787307950904;6814.7686;-44
2024-05-17T13:22:14.397;599616787315642276;6822.4604;49
2024-05-17T13:22:14.405;599616787323333648;6830.152;14
2024-05-17T13:22:14.412;599616787331025020;6837.843;23
2024-05-17T13:22:14.420;599616787338716392;6845.534;77
2024-05-17T13:22:14.428;599616787346407764;6853.226;44
2024-05-17T13:22:14.435;599616787354099136;6860.9175;0
2024-05-17T13:22:14.443;599616787361790508;6868.6084;16
2024-05-17T13:22:14.451;599616787369481880;6876.3;9
2024-05-17T13:22:14.458;599616787377173252;6883.991;-21
2024-05-17T13:22:14.466;599616787384864624;6891.6826;-16
2024-05-17T13:22:14.474;599616787392555996;6899.374;9
2024-05-17T13:22:14.482;599616787400247368;6907.0654;25
2024-05-17T13:22:14.489;599616787407938740;6914.757;35
2024-05-17T13:22:14.497;599616787415630112;6922.4478;56
2024-05-17T13:22:14.505;599616787423321484;6930.1396;91
2024-05-17T13:22:14.512;599616787431012856;6937.831;108
2024-05-17T13:22:14.520;599616787438704228;6945.522;84
2024-05-17T13:22:14.528;599616787446395600;6953.2134;80
2024-05-17T13:22:14.535;599616787454086972;6960.9053;115
2024-05-17T13:22:14.543;599616787461778344;6968.5967;129
2024-05-17T13:22:14.551;599616787469469716;6976.2876;117
2024-05-17T13:22:14.558;599616787477161088;6983.979;110
2024-05-17T13:22:14.566;599616787484852460;6991.6704;110
2024-05-17T13:22:14.574;599616787492543832;6999.362;117
2024-05-17T13:22:14.582;599616787500235204;7007.053;129
2024-05-17T13:22:14.589;599616787507926576;7014.7446;117
2024-05-17T13:22:14.597;599616787515617948;7022.436;89
2024-05-17T13:22:14.605;599616787523309320;7030.127;80
2024-05-17T13:22:14.612;599616787531000692;7037.819;84
2024-05-17T13:22:14.620;599616787538692064;7045.5103;91
2024-05-17T13:22:14.628;599616787546383436;7053.201;129
2024-05-17T13:22:14.635;599616787554074808;7060.8926;160
2024-05-17T13:22:14.643;599616787561766180;7068.584;164
2024-05-17T13:22:14.651;599616787569457552;7076.276;174
2024-05-17T13:22:14.658;599616787577148924;7083.967;188
2024-05-17T13:22:14.666;599616787584840296;7091.658;188
2024-05-17T13:22:14.674;599616787592531668;7099.3496;193
2024-05-17T13:22:14.682;599616787600223040;7107.0415;214
2024-05-17T13:22:14.689;599616787607914412;7114.7324;237
2024-05-17T13:22:14.697;599616787615605784;7122.424;214
2024-05-17T13:22:14.705;599616787623297156;7130.115;134
2024-05-17T13:22:14.712;599616787630988528;7137.806;101
2024-05-17T13:22:14.720;599616787638679900;7145.498;155
2024-05-17T13:22:14.728;599616787646371272;7153.1895;183
2024-05-17T13:22:14.735;599616787654062644;7160.881;176
2024-05-17T13:22:14.743;599616787661754016;7168.572;200
2024-05-17T13:22:14.751;599616787669445388;7176.263;219
2024-05-17T13:22:14.758;599616787677136760;7183.955;181
2024-05-17T13:22:14.766;599616787684828132;7191.646;148
2024-05-17T13:22:14.774;599616787692519504;7199.3374;171
2024-05-17T13:22:14.782;599616787700210876;7207.029;204
2024-05-17T13:22:14.789;599616787707902248;7214.72;193
2024-05-17T13:22:14.797;599616787715593620;7222.4116;146
2024-05-17T13:22:14.805;599616787723284992;7230.103;108
2024-05-17T13:22:14.812;599616787730976364;7237.7944;141
2024-05-17T13:22:14.820;599616787738667736;7245.4854;412
2024-05-17T13:22:14.828;599616787746359108;7253.1772;918
2024-05-17T13:22:14.835;599616787754050480;7260.8687;1156
2024-05-17T13:22:14.843;599616787761741852;7268.56;699
2024-05-17T13:22:14.851;599616787769433224;7276.251;56
2024-05-17T13:22:14.858;599616787777124596;7283.9424;-18
2024-05-17T13:22:14.866;599616787784815968;7291.6343;190
2024-05-17T13:22:14.874;599616787792507348;7299.3257;148
2024-05-17T13:22:14.882;599616787800198720;7307.0166;63
2024-05-17T13:22:14.889;599616787807890092;7314.708;113
2024-05-17T13:22:14.897;599616787815581464;7322.3994;148
2024-05-17T13:22:14.905;599616787823272836;7330.091;150
2024-05-17T13:22:14.912;599616787830964208;7337.782;167
2024-05-17T13:22:14.920;599616787838655580;7345.4736;171
2024-05-17T13:22:14.928;599616787846346952;7353.165;139
2024-05-17T13:22:14.935;599616787854038324;7360.856;75
2024-05-17T13:22:14.943;599616787861729696;7368.548;-9
2024-05-17T13:22:14.951;599616787869421068;7376.2393;-51
2024-05-17T13:22:14.958;599616787877112440;7383.93;-18
2024-05-17T13:22:14.966;599616787884803812;7391.6216;9
2024-05-17T13:22:14.974;599616787892495184;7399.3135;-4
2024-05-17T13:22:14.982;599616787900186556;7407.005;2
2024-05-17T13:22:14.989;599616787907877928;7414.696;35
2024-05-17T13:22:14.997;599616787915569300;7422.387;61
2024-05-17T13:22:15.005;599616787923260672;7430.0786;65
2024-05-17T13:22:15.012;599616787930952044;7437.77;84
2024-05-17T13:22:15.020;599616787938643416;7445.4614;110
2024-05-17T13:22:15.028;599616787946334788;7453.153;103
2024-05-17T13:22:15.035;599616787954026160;7460.844;87
2024-05-17T13:22:15.043;599616787961717532;7468.535;106
2024-05-17T13:22:15.051;599616787969408904;7476.227;131
2024-05-17T13:22:15.058;599616787977100276;7483.9185;127
2024-05-17T13:22:15.066;599616787984791648;7491.6094;113
2024-05-17T13:22:15.074;599616787992483020;7499.301;110
2024-05-17T13:22:15.081;599616788000174392;7506.992;91
2024-05-17T13:22:15.089;599616788007865764;7514.684;51
2024-05-17T13:22:15.097;599616788015557136;7522.375;51
2024-05-17T13:22:15.105;599616788023248508;7530.0664;98
2024-05-17T13:22:15.112;599616788030939880;7537.758;120
2024-05-17T13:22:15.120;599616788038631252;7545.4497;96
2024-05-17T13:22:15.128;599616788046322624;7553.1406;94
2024-05-17T13:22:15.135;599616788054013996;7560.832;131
2024-05-17T13:22:15.143;599616788061705368;7568.5234;167
2024-05-17T13:22:15.151;599616788069396740;7576.2144;171
2024-05-17T13:22:15.158;599616788077088112;7583.9062;171
2024-05-17T13:22:15.166;599616788084779484;7591.5977;186
2024-05-17T13:22:15.174;599616788092470856;7599.289;202
2024-05-17T13:22:15.181;599616788100162228;7606.98;209
2024-05-17T13:22:15.189;599616788107853600;7614.6714;216
2024-05-17T13:22:15.197;599616788115544972;7622.3633;221
2024-05-17T13:22:15.205;599616788123236344;7630.054;162
2024-05-17T13:22:15.212;599616788130927716;7637.7456;70
2024-05-17T13:22:15.220;599616788138619088;7645.437;75
2024-05-17T13:22:15.228;599616788146310460;7653.1284;141
2024-05-17T13:22:15.235;599616788154001832;7660.82;167
2024-05-17T13:22:15.243;599616788161693204;7668.511;174
2024-05-17T13:22:15.251;599616788169384576;7676.2026;171
2024-05-17T13:22:15.258;599616788177075948;7683.8936;139
2024-05-17T13:22:15.266;599616788184767320;7691.5854;117
2024-05-17T13:22:15.274;599616788192458692;7699.277;139
2024-05-17T13:22:15.281;599616788200150064;7706.9683;169
2024-05-17T13:22:15.289;599616788207841436;7714.659;181
2024-05-17T13:22:15.297;599616788215532808;7722.3506;162
2024-05-17T13:22:15.305;599616788223224180;7730.0425;94
2024-05-17T13:22:15.312;599616788230915552;7737.7334;89
2024-05-17T13:22:15.320;599616788238606924;7745.425;343
2024-05-17T13:22:15.328;599616788246298296;7753.116;836
2024-05-17T13:22:15.335;599616788253989668;7760.8076;1154
2024-05-17T13:22:15.343;599616788261681040;7768.499;883
2024-05-17T13:22:15.351;599616788269372412;7776.1904;259
2024-05-17T13:22:15.358;599616788277063784;7783.882;7
2024-05-17T13:22:15.366;599616788284755156;7791.5728;160
2024-05-17T13:22:15.374;599616788292446528;7799.2646;183
2024-05-17T13:22:15.381;599616788300137900;7806.956;110
2024-05-17T13:22:15.389;599616788307829272;7814.6475;146
2024-05-17T13:22:15.397;599616788315520644;7822.3384;157
2024-05-17T13:22:15.405;599616788323212016;7830.03;146
2024-05-17T13:22:15.412;599616788330903388;7837.7217;179
2024-05-17T13:22:15.420;599616788338594760;7845.413;169
2024-05-17T13:22:15.428;599616788346286132;7853.104;120
2024-05-17T13:22:15.435;599616788353947416;7860.765;103
2024-05-17T13:22:15.443;599616788361639206;7868.457;82
2024-05-17T13:22:15.451;599616788369330996;7876.149;58
2024-05-17T13:22:15.458;599616788377022786;7883.841;68
2024-05-17T13:22:15.466;599616788384714576;7891.5327;96
2024-05-17T13:22:15.474;599616788392406366;7899.2246;115
2024-05-17T13:22:15.481;599616788400098156;7906.9165;108
2024-05-17T13:22:15.489;599616788407789946;7914.608;101
2024-05-17T13:22:15.497;599616788415481736;7922.3;122
2024-05-17T13:22:15.504;599616788423173526;7929.9917;127
2024-05-17T13:22:15.512;599616788430865316;7937.6836;63
2024-05-17T13:22:15.520;599616788438557106;7945.375;16
2024-05-17T13:22:15.528;599616788446248896;7953.067;42
2024-05-17T13:22:15.535;599616788453940686;7960.759;47
2024-05-17T13:22:15.543;599616788461632476;7968.4507;25
2024-05-17T13:22:15.551;599616788469324266;7976.1426;47
2024-05-17T13:22:15.558;599616788477016056;7983.834;87
2024-05-17T13:22:15.566;599616788484707846;7991.526;108
2024-05-17T13:22:15.574;599616788492399636;7999.218;96
2024-05-17T13:22:15.581;599616788500091426;8006.9097;65
2024-05-17T13:22:15.589;599616788507783216;8014.601;68
2024-05-17T13:22:15.597;599616788515475006;8022.293;103
2024-05-17T13:22:15.604;599616788523166796;8029.985;120
2024-05-17T13:22:15.612;599616788530858586;8037.677;139
2024-05-17T13:22:15.620;599616788538550376;8045.368;169
2024-05-17T13:22:15.628;599616788546242166;8053.06;167
2024-05-17T13:22:15.635;599616788553933956;8060.752;155
2024-05-17T13:22:15.643;599616788561625746;8068.444;186
2024-05-17T13:22:15.651;599616788569317536;8076.1353;223
2024-05-17T13:22:15.658;599616788577009326;8083.827;233
2024-05-17T13:22:15.666;599616788584701116;8091.519;230
2024-05-17T13:22:15.674;599616788592392906;8099.211;235
2024-05-17T13:22:15.681;599616788600084696;8106.9023;249
2024-05-17T13:22:15.689;599616788607776486;8114.594;261
2024-05-17T13:22:15.697;599616788615468276;8122.286;261
2024-05-17T13:22:15.704;599616788623160066;8129.978;235
2024-05-17T13:22:15.712;599616788630851856;8137.6694;155
2024-05-17T13:22:15.720;599616788638543646;8145.3613;98
2024-05-17T13:22:15.728;599616788646235436;8153.053;122
2024-05-17T13:22:15.735;599616788653927226;8160.745;157
2024-05-17T13:22:15.743;599616788661619016;8168.437;167
2024-05-17T13:22:15.751;599616788669310806;8176.129;153
2024-05-17T13:22:15.758;599616788677002596;8183.821;141
2024-05-17T13:22:15.766;599616788684694386;8191.5127;143
2024-05-17T13:22:15.774;599616788692386176;8199.204;150
2024-05-17T13:22:15.781;599616788700077966;8206.896;153
2024-05-17T13:22:15.789;599616788707769756;8214.588;167
2024-05-17T13:22:15.797;599616788715461546;8222.279;188
2024-05-17T13:22:15.804;599616788723153336;8229.972;164
2024-05-17T13:22:15.812;599616788730845126;8237.663;82
2024-05-17T13:22:15.820;599616788738536916;8245.355;96
2024-05-17T13:22:15.828;599616788746228706;8253.047;417
2024-05-17T13:22:15.835;599616788753920496;8260.738;930
2024-05-17T13:22:15.843;599616788761612286;8268.431;1102
2024-05-17T13:22:15.851;599616788769304076;8276.122;636
2024-05-17T13:22:15.858;599616788776995866;8283.813;80
2024-05-17T13:22:15.866;599616788784687656;8291.506;42
2024-05-17T13:22:15.874;599616788792379446;8299.197;181
2024-05-17T13:22:15.881;599616788800071236;8306.89;115
2024-05-17T13:22:15.889;599616788807763026;8314.581;103
2024-05-17T13:22:15.897;599616788815454816;8322.272;169
2024-05-17T13:22:15.904;599616788823146606;8329.965;124
2024-05-17T13:22:15.912;599616788830838396;8337.656;82
2024-05-17T13:22:15.920;599616788838530186;8345.348;110
2024-05-17T13:22:15.928;599616788846221976;8353.04;94
2024-05-17T13:22:15.935;599616788853913766;8360.731;47
2024-05-17T13:22:15.943;599616788861605556;8368.424;49
2024-05-17T13:22:15.951;599616788869297346;8376.115;65
2024-05-17T13:22:15.958;599616788876989136;8383.807;56
2024-05-17T13:22:15.966;599616788884680926;8391.499;58
2024-05-17T13:22:15.974;599616788892372716;8399.19;94
2024-05-17T13:22:15.981;599616788900064506;8406.882;129
2024-05-17T13:22:15.989;599616788907756296;8414.574;139
2024-05-17T13:22:15.997;599616788915478194;8422.296;129
2024-05-17T13:22:16.004;599616788923169566;8429.987;141
2024-05-17T13:22:16.012;599616788930860938;8437.679;164
2024-05-17T13:22:16.020;599616788938552310;8445.37;171
2024-05-17T13:22:16.028;599616788946243682;8453.062;174
2024-05-17T13:22:16.035;599616788953935054;8460.753;181
2024-05-17T13:22:16.043;599616788961626426;8468.444;155
2024-05-17T13:22:16.051;599616788969317798;8476.136;96
2024-05-17T13:22:16.058;599616788977009170;8483.827;58
2024-05-17T13:22:16.066;599616788984700542;8491.519;49
2024-05-17T13:22:16.074;599616788992391914;8499.21;28
2024-05-17T13:22:16.081;599616789000083286;8506.901;2
2024-05-17T13:22:16.089;599616789007774658;8514.593;4
2024-05-17T13:22:16.097;599616789015466030;8522.284;35
2024-05-17T13:22:16.104;599616789023157402;8529.976;70
2024-05-17T13:22:16.112;599616789030848774;8537.667;87
2024-05-17T13:22:16.120;599616789038540146;8545.358;98
2024-05-17T13:22:16.128;599616789046231518;8553.05;115
2024-05-17T13:22:16.135;599616789053922890;8560.741;122
2024-05-17T13:22:16.143;599616789061614262;8568.432;124
2024-05-17T13:22:16.151;599616789069305634;8576.123;153
2024-05-17T13:22:16.158;599616789076997006;8583.815;190
2024-05-17T13:22:16.166;599616789084688378;8591.507;204
2024-05-17T13:22:16.174;599616789092379750;8599.197;202
2024-05-17T13:22:16.181;599616789100071122;8606.889;207
2024-05-17T13:22:16.189;599616789107762494;8614.58;223
2024-05-17T13:22:16.197;599616789115453866;8622.271;233
2024-05-17T13:22:16.204;599616789123145238;8629.963;200
2024-05-17T13:22:16.212;599616789130836610;8637.655;129
2024-05-17T13:22:16.220;599616789138527982;8645.347;94
2024-05-17T13:22:16.228;599616789146219354;8653.037;96
2024-05-17T13:22:16.235;599616789153910726;8660.729;75
2024-05-17T13:22:16.243;599616789161602098;8668.42;51
2024-05-17T13:22:16.251;599616789169293470;8676.111;77
2024-05-17T13:22:16.258;599616789176984842;8683.803;120
2024-05-17T13:22:16.266;599616789184676214;8691.494;120
2024-05-17T13:22:16.274;599616789192367586;8699.186;101
2024-05-17T13:22:16.281;599616789200058958;8706.877;115
2024-05-17T13:22:16.289;599616789207750330;8714.568;136
2024-05-17T13:22:16.297;599616789215441702;8722.26;141
2024-05-17T13:22:16.304;599616789223133074;8729.951;157
2024-05-17T13:22:16.312;599616789230824446;8737.643;134
2024-05-17T13:22:16.320;599616789238515818;8745.334;16
2024-05-17T13:22:16.328;599616789246207190;8753.025;-11
2024-05-17T13:22:16.335;599616789253898562;8760.716;303
2024-05-17T13:22:16.343;599616789261589934;8768.407;855
2024-05-17T13:22:16.351;599616789269281306;8776.099;1140
2024-05-17T13:22:16.358;599616789276972678;8783.791;777
2024-05-17T13:22:16.366;599616789284664050;8791.482;164
2024-05-17T13:22:16.374;599616789292355422;8799.174;21
2024-05-17T13:22:16.381;599616789300046794;8806.865;188
2024-05-17T13:22:16.389;599616789307738166;8814.557;157
2024-05-17T13:22:16.397;599616789315429538;8822.247;84
2024-05-17T13:22:16.404;599616789323120910;8829.938;108
2024-05-17T13:22:16.412;599616789330812282;8837.63;65
2024-05-17T13:22:16.420;599616789338503654;8845.321;7
2024-05-17T13:22:16.428;599616789346195026;8853.014;16
2024-05-17T13:22:16.435;599616789353886398;8860.705;30
2024-05-17T13:22:16.443;599616789361577770;8868.396;18
2024-05-17T13:22:16.451;599616789369269142;8876.087;18
2024-05-17T13:22:16.458;599616789376960514;8883.778;32
2024-05-17T13:22:16.466;599616789384651886;8891.47;35
2024-05-17T13:22:16.474;599616789392343258;8899.161;40
2024-05-17T13:22:16.481;599616789400034630;8906.853;73
2024-05-17T13:22:16.489;599616789407726002;8914.544;115
2024-05-17T13:22:16.497;599616789415417374;8922.235;129
2024-05-17T13:22:16.504;599616789423108746;8929.927;120
2024-05-17T13:22:16.512;599616789430800118;8937.618;129
2024-05-17T13:22:16.520;599616789438491490;8945.31;160
2024-05-17T13:22:16.528;599616789446182862;8953.001;171
2024-05-17T13:22:16.535;599616789453874234;8960.692;171
2024-05-17T13:22:16.543;599616789461565606;8968.384;174
2024-05-17T13:22:16.551;599616789469256978;8976.075;176
2024-05-17T13:22:16.558;599616789476948358;8983.766;171
2024-05-17T13:22:16.566;599616789484639730;8991.457;141
2024-05-17T13:22:16.574;599616789492331102;8999.149;127
2024-05-17T13:22:16.581;599616789500022474;9006.841;160
2024-05-17T13:22:16.589;599616789507713846;9014.532;171
2024-05-17T13:22:16.597;599616789515405218;9022.224;143
2024-05-17T13:22:16.604;599616789523096590;9029.915;153
2024-05-17T13:22:16.612;599616789530787962;9037.605;193
2024-05-17T13:22:16.620;599616789538479334;9045.297;153
2024-05-17T13:22:16.627;599616789546170706;9052.988;87
2024-05-17T13:22:16.635;599616789553862078;9060.68;113
2024-05-17T13:22:16.643;599616789561553450;9068.371;146
2024-05-17T13:22:16.651;599616789569244822;9076.063;124
2024-05-17T13:22:16.658;599616789576936194;9083.755;139
2024-05-17T13:22:16.666;599616789584627566;9091.445;188
2024-05-17T13:22:16.674;599616789592318938;9099.137;212
2024-05-17T13:22:16.681;599616789600010310;9106.828;204
2024-05-17T13:22:16.689;599616789607701682;9114.52;197
2024-05-17T13:22:16.697;599616789615393054;9122.211;214
2024-05-17T13:22:16.704;599616789623084426;9129.902;221
2024-05-17T13:22:16.712;599616789630775798;9137.594;162
2024-05-17T13:22:16.720;599616789638467170;9145.285;106
2024-05-17T13:22:16.727;599616789646158542;9152.977;96
2024-05-17T13:22:16.735;599616789653849914;9160.668;65
2024-05-17T13:22:16.743;599616789661541286;9168.359;35
2024-05-17T13:22:16.751;599616789669232658;9176.051;70
2024-05-17T13:22:16.758;599616789676924030;9183.742;113
2024-05-17T13:22:16.766;599616789684615402;9191.434;115
2024-05-17T13:22:16.774;599616789692306774;9199.124;110
2024-05-17T13:22:16.781;599616789699998146;9206.815;120
2024-05-17T13:22:16.789;599616789707689518;9214.507;143
2024-05-17T13:22:16.797;599616789715380890;9222.199;167
2024-05-17T13:22:16.804;599616789723072262;9229.891;167
2024-05-17T13:22:16.812;599616789730763634;9237.582;150
2024-05-17T13:22:16.820;599616789738455006;9245.273;148
2024-05-17T13:22:16.827;599616789746146378;9252.964;143
2024-05-17T13:22:16.835;599616789753837750;9260.655;91
2024-05-17T13:22:16.843;599616789761529122;9268.347;61
2024-05-17T13:22:16.851;599616789769220494;9276.038;226
2024-05-17T13:22:16.858;599616789776911866;9283.7295;678
2024-05-17T13:22:16.866;599616789784603238;9291.422;1140
2024-05-17T13:22:16.874;599616789792294610;9299.113;1079
2024-05-17T13:22:16.881;599616789799985982;9306.805;471
2024-05-17T13:22:16.889;599616789807677354;9314.495;42
2024-05-17T13:22:16.897;599616789815368726;9322.187;108
2024-05-17T13:22:16.904;599616789823060098;9329.878;160
2024-05-17T13:22:16.912;599616789830751470;9337.569;23
2024-05-17T13:22:16.920;599616789838442842;9345.261;-37
2024-05-17T13:22:16.927;599616789846134214;9352.952;-14
2024-05-17T13:22:16.935;599616789853825586;9360.644;0
2024-05-17T13:22:16.943;599616789861516958;9368.335;9
2024-05-17T13:22:16.951;599616789869208330;9376.026;21
2024-05-17T13:22:16.958;599616789876899702;9383.718;21
2024-05-17T13:22:16.966;599616789884591074;9391.409;21
2024-05-17T13:22:16.974;599616789892282446;9399.101;35
2024-05-17T13:22:16.981;599616789899973818;9406.792;49
2024-05-17T13:22:16.989;599616789907665190;9414.483;61
2024-05-17T13:22:16.997;599616789915356562;9422.174;91
2024-05-17T13:22:17.004;599616789923047934;9429.865;122
2024-05-17T13:22:17.012;599616789930739306;9437.558;113
2024-05-17T13:22:17.020;599616789938430678;9445.249;115
2024-05-17T13:22:17.027;599616789946122050;9452.94;167
2024-05-17T13:22:17.035;599616789953813422;9460.632;202
2024-05-17T13:22:17.043;599616789961504794;9468.323;190
2024-05-17T13:22:17.051;599616789969196166;9476.014;164
2024-05-17T13:22:17.058;599616789976887538;9483.705;117
2024-05-17T13:22:17.066;599616789984578910;9491.396;82
2024-05-17T13:22:17.074;599616789992270282;9499.088;98
2024-05-17T13:22:17.081;599616789999961654;9506.779;129
2024-05-17T13:22:17.089;599616790007653026;9514.472;148
2024-05-17T13:22:17.097;599616790015344398;9522.163;153
2024-05-17T13:22:17.104;599616790023035770;9529.854;134
2024-05-17T13:22:17.112;599616790030727142;9537.545;127
2024-05-17T13:22:17.120;599616790038413554;9545.231;157
2024-05-17T13:22:17.127;599616790046104995;9552.923;176
2024-05-17T13:22:17.135;599616790053796436;9560.615;171
2024-05-17T13:22:17.143;599616790061487877;9568.307;176
2024-05-17T13:22:17.150;599616790069179318;9575.997;179
2024-05-17T13:22:17.158;599616790076870759;9583.688;150
2024-05-17T13:22:17.166;599616790084562200;9591.38;101
2024-05-17T13:22:17.174;599616790092253641;9599.071;108
2024-05-17T13:22:17.181;599616790099945082;9606.764;143
2024-05-17T13:22:17.189;599616790107636523;9614.455;136
2024-05-17T13:22:17.197;599616790115327964;9622.146;122
2024-05-17T13:22:17.204;599616790123019405;9629.837;141
2024-05-17T13:22:17.212;599616790130710846;9637.528;127
2024-05-17T13:22:17.220;599616790138402287;9645.22;23
2024-05-17T13:22:17.227;599616790146093728;9652.912;-49
2024-05-17T13:22:17.235;599616790153785169;9660.604;-25
2024-05-17T13:22:17.243;599616790161476610;9668.295;-11
2024-05-17T13:22:17.250;599616790169168051;9675.986;-30
2024-05-17T13:22:17.258;599616790176859492;9683.677;-18
2024-05-17T13:22:17.266;599616790184550933;9691.368;11
2024-05-17T13:22:17.274;599616790192242374;9699.061;30
2024-05-17T13:22:17.281;599616790199933815;9706.752;30
2024-05-17T13:22:17.289;599616790207625256;9714.443;25
2024-05-17T13:22:17.297;599616790215316697;9722.135;37
2024-05-17T13:22:17.304;599616790223008138;9729.826;30
2024-05-17T13:22:17.312;599616790230699579;9737.517;11
2024-05-17T13:22:17.320;599616790238391020;9745.209;35
2024-05-17T13:22:17.327;599616790246082461;9752.9;70
2024-05-17T13:22:17.335;599616790253773902;9760.592;65
2024-05-17T13:22:17.343;599616790261465343;9768.283;61
2024-05-17T13:22:17.350;599616790269156784;9775.975;87
2024-05-17T13:22:17.358;599616790276848225;9783.667;108
2024-05-17T13:22:17.366;599616790284539666;9791.358;77
2024-05-17T13:22:17.374;599616790292231107;9799.049;89
2024-05-17T13:22:17.381;599616790299922548;9806.74;379
2024-05-17T13:22:17.389;599616790307613989;9814.432;885
2024-05-17T13:22:17.397;599616790315305430;9822.123;1076
2024-05-17T13:22:17.404;599616790322996871;9829.815;603
2024-05-17T13:22:17.412;599616790330688312;9837.507;-35
2024-05-17T13:22:17.420;599616790338379753;9845.198;-129
2024-05-17T13:22:17.427;599616790346071194;9852.889;21
2024-05-17T13:22:17.435;599616790353762635;9860.58;-68
2024-05-17T13:22:17.443;599616790361454076;9868.271;-124
2024-05-17T13:22:17.450;599616790369145517;9875.964;-28
2024-05-17T13:22:17.458;599616790376836958;9883.655;-21
2024-05-17T13:22:17.466;599616790384528399;9891.347;-65
2024-05-17T13:22:17.474;599616790392219840;9899.038;-42
2024-05-17T13:22:17.481;599616790399911281;9906.729;-4
2024-05-17T13:22:17.489;599616790407602722;9914.42;4
2024-05-17T13:22:17.497;599616790415294163;9922.112;18
2024-05-17T13:22:17.504;599616790422985604;9929.804;56
2024-05-17T13:22:17.512;599616790430677045;9937.495;87
2024-05-17T13:22:17.520;599616790438368486;9945.187;80
2024-05-17T13:22:17.527;599616790446059927;9952.878;77
2024-05-17T13:22:17.535;599616790453751368;9960.57;120
2024-05-17T13:22:17.543;599616790461442809;9968.261;148
2024-05-17T13:22:17.550;599616790469134250;9975.952;127
2024-05-17T13:22:17.558;599616790476825691;9983.644;129
2024-05-17T13:22:17.566;599616790484517132;9991.335;160
2024-05-17T13:22:17.574;599616790492208573;9999.026;171
2024-05-17T13:22:17.581;599616790499900014;10006.719;171
2024-05-17T13:22:17.589;599616790507591455;10014.41;186
2024-05-17T13:22:17.597;599616790515282896;10022.101;219
2024-05-17T13:22:17.604;599616790522974337;10029.792;226
2024-05-17T13:22:17.612;599616790530665778;10037.483;195
2024-05-17T13:22:17.620;599616790538357219;10045.175;181
2024-05-17T13:22:17.627;599616790546048660;10052.867;202
2024-05-17T13:22:17.635;599616790553740101;10060.559;212
2024-05-17T13:22:17.643;599616790561431542;10068.25;202
2024-05-17T13:22:17.650;599616790569122983;10075.94;207
2024-05-17T13:22:17.658;599616790576814424;10083.632;223
2024-05-17T13:22:17.666;599616790584505865;10091.323;228
2024-05-17T13:22:17.674;599616790592197306;10099.016;226
2024-05-17T13:22:17.681;599616790599888804;10106.707;242
2024-05-17T13:22:17.689;599616790607580245;10114.398;280
2024-05-17T13:22:17.697;599616790615271686;10122.09;299
2024-05-17T13:22:17.704;599616790622963127;10129.78;273
2024-05-17T13:22:17.712;599616790630654568;10137.473;230
2024-05-17T13:22:17.720;599616790638346009;10145.164;155
2024-05-17T13:22:17.727;599616790646037450;10152.855;21
2024-05-17T13:22:17.735;599616790653728891;10160.547;-51
2024-05-17T13:22:17.743;599616790661420332;10168.238;-30
2024-05-17T13:22:17.750;599616790669111773;10175.93;-18
2024-05-17T13:22:17.758;599616790676803214;10183.622;-40
2024-05-17T13:22:17.766;599616790684494655;10191.3125;-32
2024-05-17T13:22:17.774;599616790692186096;10199.004;-2
2024-05-17T13:22:17.781;599616790699877537;10206.695;25
2024-05-17T13:22:17.789;599616790707568978;10214.387;25
2024-05-17T13:22:17.797;599616790715260419;10222.078;-4
2024-05-17T13:22:17.804;599616790722951860;10229.7705;-16
2024-05-17T13:22:17.812;599616790730643301;10237.462;16
2024-05-17T13:22:17.820;599616790738334742;10245.152;58
2024-05-17T13:22:17.827;599616790746026183;10252.844;87
2024-05-17T13:22:17.835;599616790753717624;10260.535;106
2024-05-17T13:22:17.843;599616790761409065;10268.227;110
2024-05-17T13:22:17.850;599616790769100506;10275.919;115
2024-05-17T13:22:17.858;599616790776791947;10283.61;136
2024-05-17T13:22:17.866;599616790784483388;10291.302;176
2024-05-17T13:22:17.873;599616790792174829;10298.992;193
2024-05-17T13:22:17.881;599616790799866270;10306.684;120
2024-05-17T13:22:17.889;599616790807557711;10314.376;25
2024-05-17T13:22:17.897;599616790815249152;10322.067;164
2024-05-17T13:22:17.904;599616790822940593;10329.759;617
2024-05-17T13:22:17.912;599616790830632034;10337.45;1022
2024-05-17T13:22:17.920;599616790838323475;10345.142;883
2024-05-17T13:22:17.927;599616790846014916;10352.832;247
2024-05-17T13:22:17.935;599616790853706357;10360.524;-153
2024-05-17T13:22:17.943;599616790861397798;10368.216;-30
2024-05-17T13:22:17.950;599616790869089239;10375.907;61
2024-05-17T13:22:17.958;599616790876780680;10383.599;-37
2024-05-17T13:22:17.966;599616790884472121;10391.29;-28
2024-05-17T13:22:17.973;599616790892163562;10398.981;21
2024-05-17T13:22:17.981;599616790899855003;10406.674;-4
2024-05-17T13:22:17.989;599616790907546444;10414.364;7
2024-05-17T13:22:17.997;599616790915237885;10422.056;49
2024-05-17T13:22:18.004;599616790922929326;10429.747;56
2024-05-17T13:22:18.012;599616790930620767;10437.438;77
2024-05-17T13:22:18.020;599616790938312208;10445.13;115
2024-05-17T13:22:18.027;599616790946003649;10452.822;113
2024-05-17T13:22:18.035;599616790953695090;10460.514;91
2024-05-17T13:22:18.043;599616790961386531;10468.204;84
2024-05-17T13:22:18.050;599616790969077972;10475.8955;96
2024-05-17T13:22:18.058;599616790976769413;10483.587;122
2024-05-17T13:22:18.066;599616790984460854;10491.278;148
2024-05-17T13:22:18.073;599616790992152295;10498.971;169
2024-05-17T13:22:18.081;599616790999843736;10506.662;193
2024-05-17T13:22:18.089;599616791007535177;10514.354;204
2024-05-17T13:22:18.097;599616791015226618;10522.044;214
2024-05-17T13:22:18.104;599616791022918059;10529.735;240
2024-05-17T13:22:18.112;599616791030609500;10537.428;245
2024-05-17T13:22:18.120;599616791038300941;10545.119;216
2024-05-17T13:22:18.127;599616791045992382;10552.811;197
2024-05-17T13:22:18.135;599616791053683823;10560.502;216
2024-05-17T13:22:18.143;599616791061375264;10568.193;240
2024-05-17T13:22:18.150;599616791069066705;10575.885;240
2024-05-17T13:22:18.158;599616791076758146;10583.576;228
2024-05-17T13:22:18.166;599616791084449587;10591.268;235
2024-05-17T13:22:18.173;599616791092141028;10598.959;245
2024-05-17T13:22:18.181;599616791099832469;10606.65;249
2024-05-17T13:22:18.189;599616791107523910;10614.342;266
2024-05-17T13:22:18.197;599616791115215351;10622.033;301
2024-05-17T13:22:18.204;599616791122906792;10629.726;306
2024-05-17T13:22:18.212;599616791130598233;10637.416;259
2024-05-17T13:22:18.220;599616791138289674;10645.107;193
2024-05-17T13:22:18.227;599616791145981115;10652.799;122
2024-05-17T13:22:18.235;599616791153672556;10660.49;63
2024-05-17T13:22:18.243;599616791161349006;10668.167;63
2024-05-17T13:22:18.250;599616791169040656;10675.858;91
2024-05-17T13:22:18.258;599616791176732306;10683.551;89
2024-05-17T13:22:18.266;599616791184423956;10691.242;84
2024-05-17T13:22:18.273;599616791192115606;10698.934;96
2024-05-17T13:22:18.281;599616791199807256;10706.626;98
2024-05-17T13:22:18.289;599616791207498906;10714.316;68
2024-05-17T13:22:18.297;599616791215190556;10722.008;35
2024-05-17T13:22:18.304;599616791222882206;10729.7;21
2024-05-17T13:22:18.312;599616791230573856;10737.392;35
2024-05-17T13:22:18.320;599616791238265506;10745.084;61
2024-05-17T13:22:18.327;599616791245957156;10752.775;49
2024-05-17T13:22:18.335;599616791253648806;10760.467;7
2024-05-17T13:22:18.343;599616791261340456;10768.159;7
2024-05-17T13:22:18.350;599616791269032106;10775.85;44
2024-05-17T13:22:18.358;599616791276723756;10783.541;68
2024-05-17T13:22:18.366;599616791284415406;10791.233;70
2024-05-17T13:22:18.373;599616791292107056;10798.925;80
2024-05-17T13:22:18.381;599616791299798706;10806.617;82
2024-05-17T13:22:18.389;599616791307490356;10814.309;58
2024-05-17T13:22:18.396;599616791315182006;10822.0;9
2024-05-17T13:22:18.404;599616791322873656;10829.692;-32
2024-05-17T13:22:18.412;599616791330565306;10837.383;-70
2024-05-17T13:22:18.420;599616791338256956;10845.075;-87
2024-05-17T13:22:18.427;599616791345948606;10852.767;98
2024-05-17T13:22:18.435;599616791353640256;10860.458;612
2024-05-17T13:22:18.443;599616791361331906;10868.15;1053
2024-05-17T13:22:18.450;599616791369023556;10875.842;857
2024-05-17T13:22:18.458;599616791376715206;10883.533;186
2024-05-17T13:22:18.466;599616791384406856;10891.225;-141
2024-05-17T13:22:18.473;599616791392098506;10898.916;11
2024-05-17T13:22:18.481;599616791399790156;10906.608;32
2024-05-17T13:22:18.489;599616791407481806;10914.3;-89
2024-05-17T13:22:18.496;599616791415173456;10921.991;-32
2024-05-17T13:22:18.504;599616791422865106;10929.684;44
2024-05-17T13:22:18.512;599616791430556756;10937.375;14
2024-05-17T13:22:18.520;599616791438248406;10945.066;18
2024-05-17T13:22:18.527;599616791445940056;10952.758;58
2024-05-17T13:22:18.535;599616791453631706;10960.449;14
2024-05-17T13:22:18.543;599616791461323356;10968.142;-25
2024-05-17T13:22:18.550;599616791469015006;10975.833;28
2024-05-17T13:22:18.558;599616791476706656;10983.524;82
2024-05-17T13:22:18.566;599616791484398306;10991.217;89
2024-05-17T13:22:18.573;599616791492089956;10998.908;96
2024-05-17T13:22:18.581;599616791499781606;11006.6;115
2024-05-17T13:22:18.589;599616791507473256;11014.291;150
2024-05-17T13:22:18.596;599616791515164906;11021.982;193
2024-05-17T13:22:18.604;599616791522856556;11029.675;202
2024-05-17T13:22:18.612;599616791530548206;11037.366;214
2024-05-17T13:22:18.620;599616791538239856;11045.058;247
2024-05-17T13:22:18.627;599616791545931506;11052.75;247
2024-05-17T13:22:18.635;599616791553623156;11060.441;226
2024-05-17T13:22:18.643;599616791561314806;11068.133;242
2024-05-17T13:22:18.650;599616791569006456;11075.824;273
2024-05-17T13:22:18.658;599616791576698106;11083.516;270
2024-05-17T13:22:18.666;599616791584389756;11091.208;261
2024-05-17T13:22:18.673;599616791592081406;11098.899;268
2024-05-17T13:22:18.681;599616791599773056;11106.591;285
2024-05-17T13:22:18.689;599616791607464706;11114.283;292
2024-05-17T13:22:18.696;599616791615156356;11121.975;294
2024-05-17T13:22:18.704;599616791622848006;11129.666;313
2024-05-17T13:22:18.712;599616791630539656;11137.357;318
2024-05-17T13:22:18.720;599616791638231306;11145.049;263
2024-05-17T13:22:18.727;599616791645922956;11152.741;188
2024-05-17T13:22:18.735;599616791653614606;11160.433;122
2024-05-17T13:22:18.743;599616791661306256;11168.124;101
2024-05-17T13:22:18.750;599616791668997906;11175.816;122
2024-05-17T13:22:18.758;599616791676689556;11183.508;131
2024-05-17T13:22:18.766;599616791684381206;11191.198;122
2024-05-17T13:22:18.773;599616791692072856;11198.891;120
2024-05-17T13:22:18.781;599616791699764506;11206.582;106
2024-05-17T13:22:18.789;599616791707456156;11214.274;94
2024-05-17T13:22:18.796;599616791715147806;11221.966;117
2024-05-17T13:22:18.804;599616791722859532;11229.678;141
2024-05-17T13:22:18.812;599616791730550904;11237.369;127
2024-05-17T13:22:18.820;599616791738242276;11245.061;117
2024-05-17T13:22:18.827;599616791745933648;11252.751;148
2024-05-17T13:22:18.835;599616791753625020;11260.442;176
2024-05-17T13:22:18.843;599616791761316392;11268.134;171
2024-05-17T13:22:18.850;599616791769007764;11275.826;167
2024-05-17T13:22:18.858;599616791776699136;11283.518;179
2024-05-17T13:22:18.866;599616791784390508;11291.209;155
2024-05-17T13:22:18.873;599616791792081880;11298.9;89
2024-05-17T13:22:18.881;599616791799773252;11306.591;58
2024-05-17T13:22:18.889;599616791807464624;11314.282;68
2024-05-17T13:22:18.896;599616791815155996;11321.974;42
2024-05-17T13:22:18.904;599616791822847368;11329.665;-16
2024-05-17T13:22:18.912;599616791830538740;11337.356;-28
2024-05-17T13:22:18.920;599616791838230112;11345.049;16
2024-05-17T13:22:18.927;599616791845921484;11352.74;25
2024-05-17T13:22:18.935;599616791853612856;11360.431;-7
2024-05-17T13:22:18.943;599616791861304228;11368.122;-44
2024-05-17T13:22:18.950;599616791868995600;11375.813;-42
2024-05-17T13:22:18.958;599616791876686972;11383.505;197
2024-05-17T13:22:18.966;599616791884378344;11391.196;742
2024-05-17T13:22:18.973;599616791892069716;11398.888;1114
2024-05-17T13:22:18.981;599616791899761088;11406.579;801
2024-05-17T13:22:18.989;599616791907452460;11414.27;120
2024-05-17T13:22:18.996;599616791915143832;11421.962;-110
2024-05-17T13:22:19.004;599616791922835204;11429.653;68
2024-05-17T13:22:19.012;599616791930526576;11437.345;77
2024-05-17T13:22:19.020;599616791938217948;11445.036;-9
2024-05-17T13:22:19.027;599616791945909320;11452.728;14
2024-05-17T13:22:19.035;599616791953600692;11460.419;23
2024-05-17T13:22:19.043;599616791961292064;11468.109;9
2024-05-17T13:22:19.050;599616791968983436;11475.801;28
2024-05-17T13:22:19.058;599616791976674808;11483.492;56
2024-05-17T13:22:19.066;599616791984366180;11491.185;89
2024-05-17T13:22:19.073;599616791992057552;11498.876;120
2024-05-17T13:22:19.081;599616791999748924;11506.567;120
2024-05-17T13:22:19.089;599616792007440296;11514.259;120
2024-05-17T13:22:19.096;599616792015131668;11521.949;155
2024-05-17T13:22:19.104;599616792022823040;11529.641;195
2024-05-17T13:22:19.112;599616792030514412;11537.332;209
2024-05-17T13:22:19.120;599616792038205784;11545.023;226
2024-05-17T13:22:19.127;599616792045897156;11552.715;256
2024-05-17T13:22:19.135;599616792053588528;11560.406;261
2024-05-17T13:22:19.143;599616792061279900;11568.099;249
2024-05-17T13:22:19.150;599616792068971272;11575.79;259
2024-05-17T13:22:19.158;599616792076662644;11583.48;289
2024-05-17T13:22:19.166;599616792084354016;11591.172;299
2024-05-17T13:22:19.173;599616792092045388;11598.863;278
2024-05-17T13:22:19.181;599616792099736760;11606.555;263
2024-05-17T13:22:19.189;599616792107428132;11614.246;280
2024-05-17T13:22:19.196;599616792115119504;11621.9375;292
2024-05-17T13:22:19.204;599616792122810876;11629.628;287
2024-05-17T13:22:19.212;599616792130502248;11637.32;299
2024-05-17T13:22:19.220;599616792138193620;11645.012;292
2024-05-17T13:22:19.227;599616792145884992;11652.703;212
2024-05-17T13:22:19.235;599616792153576364;11660.395;115
2024-05-17T13:22:19.243;599616792161267736;11668.086;94
2024-05-17T13:22:19.250;599616792168959108;11675.777;129
2024-05-17T13:22:19.258;599616792176650480;11683.469;141
2024-05-17T13:22:19.266;599616792184341852;11691.159;108
2024-05-17T13:22:19.273;599616792192033224;11698.851;68
2024-05-17T13:22:19.281;599616792199724596;11706.542;49
2024-05-17T13:22:19.289;599616792207415968;11714.234;61
2024-05-17T13:22:19.296;599616792215107340;11721.926;80
2024-05-17T13:22:19.304;599616792222798712;11729.617;106
2024-05-17T13:22:19.312;599616792230490084;11737.309;122
2024-05-17T13:22:19.319;599616792238181456;11744.999;115
2024-05-17T13:22:19.327;599616792245872828;11752.69;113
2024-05-17T13:22:19.335;599616792253564200;11760.382;136
2024-05-17T13:22:19.343;599616792261255572;11768.073;155
2024-05-17T13:22:19.350;599616792268946944;11775.765;162
2024-05-17T13:22:19.358;599616792276638316;11783.457;167
2024-05-17T13:22:19.366;599616792284329696;11791.148;171
2024-05-17T13:22:19.373;599616792292021068;11798.839;176
2024-05-17T13:22:19.381;599616792299712440;11806.53;169
2024-05-17T13:22:19.389;599616792307403812;11814.222;139
2024-05-17T13:22:19.396;599616792315095184;11821.913;122
2024-05-17T13:22:19.404;599616792322786556;11829.6045;89
2024-05-17T13:22:19.412;599616792330477928;11837.296;-7
2024-05-17T13:22:19.419;599616792338169300;11844.987;-58
2024-05-17T13:22:19.427;599616792345860672;11852.679;-14
2024-05-17T13:22:19.435;599616792353552044;11860.37;9
2024-05-17T13:22:19.443;599616792361243416;11868.062;-18
2024-05-17T13:22:19.450;599616792368934788;11875.753;-23
2024-05-17T13:22:19.458;599616792376626160;11883.444;-2
2024-05-17T13:22:19.466;599616792384317532;11891.136;4
2024-05-17T13:22:19.473;599616792392008904;11898.827;-18
2024-05-17T13:22:19.481;599616792399700276;11906.518;-54
2024-05-17T13:22:19.489;599616792407391648;11914.209;14
2024-05-17T13:22:19.496;599616792415083020;11921.9;351
2024-05-17T13:22:19.504;599616792422774392;11929.593;871
2024-05-17T13:22:19.512;599616792430465764;11937.284;1074
2024-05-17T13:22:19.519;599616792438157136;11944.976;586
2024-05-17T13:22:19.527;599616792445848508;11952.667;-65
2024-05-17T13:22:19.535;599616792453539880;11960.357;-143
2024-05-17T13:22:19.543;599616792461231252;11968.049;35
2024-05-17T13:22:19.550;599616792468922624;11975.74;-32
2024-05-17T13:22:19.558;599616792476613996;11983.432;-94
2024-05-17T13:22:19.566;599616792484305368;11991.123;-11
2024-05-17T13:22:19.573;599616792491996740;11998.815;18
2024-05-17T13:22:19.581;599616792499688112;12006.507;21
2024-05-17T13:22:19.589;599616792507379484;12014.198;49
2024-05-17T13:22:19.596;599616792515070856;12021.889;58
2024-05-17T13:22:19.604;599616792522762228;12029.58;75
2024-05-17T13:22:19.612;599616792530453600;12037.271;115
2024-05-17T13:22:19.619;599616792538144972;12044.963;131
2024-05-17T13:22:19.627;599616792545836344;12052.654;139
2024-05-17T13:22:19.635;599616792553527716;12060.346;176
2024-05-17T13:22:19.643;599616792561219088;12068.036;202
2024-05-17T13:22:19.650;599616792568910460;12075.729;193
2024-05-17T13:22:19.658;599616792576601832;12083.42;204
2024-05-17T13:22:19.666;599616792584293204;12091.111;247
2024-05-17T13:22:19.673;599616792591984576;12098.803;278
2024-05-17T13:22:19.681;599616792599675948;12106.494;278
2024-05-17T13:22:19.689;599616792607367320;12114.186;273
2024-05-17T13:22:19.696;599616792615058692;12121.877;280
2024-05-17T13:22:19.704;599616792622750064;12129.567;294
2024-05-17T13:22:19.712;599616792630441436;12137.259;292
2024-05-17T13:22:19.719;599616792638132808;12144.951;287
2024-05-17T13:22:19.727;599616792645824180;12152.643;278
2024-05-17T13:22:19.735;599616792653515552;12160.334;221
2024-05-17T13:22:19.743;599616792661206924;12168.025;124
2024-05-17T13:22:19.750;599616792668898296;12175.717;65
2024-05-17T13:22:19.758;599616792676589668;12183.407;65
2024-05-17T13:22:19.766;599616792684281040;12191.099;40
2024-05-17T13:22:19.773;599616792691972412;12198.79;-16
2024-05-17T13:22:19.781;599616792699663784;12206.481;-14
2024-05-17T13:22:19.789;599616792707355156;12214.173;18
2024-05-17T13:22:19.796;599616792715046528;12221.865;35
2024-05-17T13:22:19.804;599616792722737900;12229.557;42
2024-05-17T13:22:19.812;599616792730429272;12237.247;63
2024-05-17T13:22:19.819;599616792738120644;12244.938;84
2024-05-17T13:22:19.827;599616792745812016;12252.63;87
2024-05-17T13:22:19.835;599616792753503388;12260.321;77
2024-05-17T13:22:19.843;599616792761194760;12268.013;108
2024-05-17T13:22:19.850;599616792768886132;12275.704;148
2024-05-17T13:22:19.858;599616792776577504;12283.3955;139
2024-05-17T13:22:19.866;599616792784268876;12291.087;131
2024-05-17T13:22:19.873;599616792791960248;12298.778;153
2024-05-17T13:22:19.881;599616792799651620;12306.47;162
2024-05-17T13:22:19.889;599616792807342992;12314.161;148
2024-05-17T13:22:19.896;599616792815034364;12321.853;127
2024-05-17T13:22:19.904;599616792822725736;12329.544;103
2024-05-17T13:22:19.912;599616792830417108;12337.235;75
2024-05-17T13:22:19.919;599616792838108480;12344.926;21
2024-05-17T13:22:19.927;599616792845799860;12352.617;-7
2024-05-17T13:22:19.935;599616792853491232;12360.309;16
2024-05-17T13:22:19.943;599616792861182604;12368.001;25
2024-05-17T13:22:19.950;599616792868873976;12375.692;23
2024-05-17T13:22:19.958;599616792876565348;12383.384;47
2024-05-17T13:22:19.966;599616792884256720;12391.075;49
2024-05-17T13:22:19.973;599616792891948092;12398.766;11
2024-05-17T13:22:19.981;599616792899639464;12406.457;-40
2024-05-17T13:22:19.989;599616792907330836;12414.148;-73
2024-05-17T13:22:19.996;599616792915022208;12421.84;-54
2024-05-17T13:22:20.004;599616792922713580;12429.531;-37
2024-05-17T13:22:20.012;599616792930404952;12437.224;-113
2024-05-17T13:22:20.019;599616792938096324;12444.915;-181
2024-05-17T13:22:20.027;599616792945787696;12452.605;-23
2024-05-17T13:22:20.035;599616792953479068;12460.297;438
2024-05-17T13:22:20.042;599616792961170440;12467.988;928
2024-05-17T13:22:20.050;599616792968861812;12475.68;921
2024-05-17T13:22:20.058;599616792976553184;12483.371;320
2024-05-17T13:22:20.066;599616792984244556;12491.0625;-160
2024-05-17T13:22:20.073;599616792991935928;12498.754;-75
2024-05-17T13:22:20.081;599616792999627300;12506.444;61
2024-05-17T13:22:20.089;599616793007318672;12514.137;-18
2024-05-17T13:22:20.096;599616793015010044;12521.828;-21
2024-05-17T13:22:20.104;599616793022701416;12529.52;32
2024-05-17T13:22:20.112;599616793030392788;12537.211;16
2024-05-17T13:22:20.119;599616793038084160;12544.902;18
2024-05-17T13:22:20.127;599616793045775532;12552.594;61
2024-05-17T13:22:20.135;599616793053466904;12560.285;84
2024-05-17T13:22:20.142;599616793061158276;12567.976;101
2024-05-17T13:22:20.150;599616793068849648;12575.667;124
2024-05-17T13:22:20.158;599616793076541020;12583.359;136
2024-05-17T13:22:20.166;599616793084232392;12591.051;143
2024-05-17T13:22:20.173;599616793091923764;12598.742;171
2024-05-17T13:22:20.181;599616793099615136;12606.434;212
2024-05-17T13:22:20.189;599616793107306508;12614.125;226
2024-05-17T13:22:20.196;599616793114997880;12621.815;230
2024-05-17T13:22:20.204;599616793122689252;12629.507;259
2024-05-17T13:22:20.212;599616793130380624;12637.198;301
2024-05-17T13:22:20.219;599616793138071996;12644.89;313
2024-05-17T13:22:20.227;599616793145763368;12652.581;301
2024-05-17T13:22:20.235;599616793153454740;12660.273;294
2024-05-17T13:22:20.242;599616793161146112;12667.965;233
2024-05-17T13:22:20.250;599616793168837484;12675.655;101
2024-05-17T13:22:20.258;599616793176528856;12683.347;9
2024-05-17T13:22:20.266;599616793184220228;12691.038;4
2024-05-17T13:22:20.273;599616793191911600;12698.7295;18
2024-05-17T13:22:20.281;599616793199602972;12706.421;0
2024-05-17T13:22:20.289;599616793207294344;12714.112;-23
2024-05-17T13:22:20.296;599616793214985716;12721.804;2
2024-05-17T13:22:20.304;599616793222677088;12729.495;35
2024-05-17T13:22:20.312;599616793230368460;12737.187;37
2024-05-17T13:22:20.319;599616793238059832;12744.878;47
2024-05-17T13:22:20.327;599616793245751204;12752.569;75
2024-05-17T13:22:20.335;599616793253442576;12760.261;84
2024-05-17T13:22:20.342;599616793261133948;12767.952;89
2024-05-17T13:22:20.350;599616793268825320;12775.644;115
2024-05-17T13:22:20.358;599616793276516692;12783.334;143
2024-05-17T13:22:20.366;599616793284208064;12791.025;155
2024-05-17T13:22:20.373;599616793291899436;12798.717;155
2024-05-17T13:22:20.381;599616793299590808;12806.409;153
2024-05-17T13:22:20.389;599616793307282180;12814.101;167
2024-05-17T13:22:20.396;599616793314973552;12821.792;183
2024-05-17T13:22:20.404;599616793322664924;12829.483;188
2024-05-17T13:22:20.412;599616793330356296;12837.174;181
2024-05-17T13:22:20.419;599616793338047668;12844.865;155
2024-05-17T13:22:20.427;599616793345739040;12852.557;110
2024-05-17T13:22:20.435;599616793353430412;12860.248;56
2024-05-17T13:22:20.442;599616793361121784;12867.939;23
2024-05-17T13:22:20.450;599616793368813156;12875.632;30
2024-05-17T13:22:20.458;599616793376504528;12883.323;42
2024-05-17T13:22:20.466;599616793384195900;12891.014;30
2024-05-17T13:22:20.473;599616793391887272;12898.705;23
2024-05-17T13:22:20.481;599616793399578644;12906.396;44
2024-05-17T13:22:20.489;599616793407265056;12914.083;68
2024-05-17T13:22:20.496;599616793414956497;12921.774;51
2024-05-17T13:22:20.504;599616793422647938;12929.467;14
2024-05-17T13:22:20.512;599616793430339379;12937.157;-21
2024-05-17T13:22:20.519;599616793438030820;12944.849;-75
2024-05-17T13:22:20.527;599616793445722261;12952.54;-120
2024-05-17T13:22:20.535;599616793453413702;12960.231;-101
2024-05-17T13:22:20.542;599616793461105143;12967.923;-89
2024-05-17T13:22:20.550;599616793468796584;12975.615;-127
2024-05-17T13:22:20.558;599616793476488025;12983.307;-32
2024-05-17T13:22:20.565;599616793484179466;12990.997;386
2024-05-17T13:22:20.573;599616793491870907;12998.688;916
2024-05-17T13:22:20.581;599616793499562348;13006.38;980
2024-05-17T13:22:20.589;599616793507253789;13014.071;414
2024-05-17T13:22:20.596;599616793514945230;13021.764;-87
2024-05-17T13:22:20.604;599616793522636671;13029.455;-30
2024-05-17T13:22:20.612;599616793530328112;13037.146;82
2024-05-17T13:22:20.619;599616793538019553;13044.837;-23
2024-05-17T13:22:20.627;599616793545710994;13052.528;-9
2024-05-17T13:22:20.635;599616793553402435;13060.221;96
2024-05-17T13:22:20.642;599616793561093876;13067.912;82
2024-05-17T13:22:20.650;599616793568785317;13075.604;70
2024-05-17T13:22:20.658;599616793576476758;13083.295;122
2024-05-17T13:22:20.665;599616793584168199;13090.986;134
2024-05-17T13:22:20.673;599616793591859640;13098.678;131
2024-05-17T13:22:20.681;599616793599551081;13106.369;164
2024-05-17T13:22:20.689;599616793607242522;13114.061;200
2024-05-17T13:22:20.696;599616793614933963;13121.752;214
2024-05-17T13:22:20.704;599616793622625404;13129.443;212
2024-05-17T13:22:20.712;599616793630316845;13137.135;230
2024-05-17T13:22:20.719;599616793638008286;13144.826;280
2024-05-17T13:22:20.727;599616793645699727;13152.519;310
2024-05-17T13:22:20.735;599616793653391168;13160.209;313
2024-05-17T13:22:20.742;599616793661082609;13167.9;308
2024-05-17T13:22:20.750;599616793668774050;13175.592;252
2024-05-17T13:22:20.758;599616793676465491;13183.283;169
2024-05-17T13:22:20.765;599616793684156932;13190.975;162
2024-05-17T13:22:20.773;599616793691848373;13198.667;176
2024-05-17T13:22:20.781;599616793699539814;13206.358;141
2024-05-17T13:22:20.789;599616793707231255;13214.049;108
2024-05-17T13:22:20.796;599616793714922696;13221.74;98
2024-05-17T13:22:20.804;599616793722614137;13229.432;98
2024-05-17T13:22:20.812;599616793730305578;13237.123;113
2024-05-17T13:22:20.819;599616793737997019;13244.815;122
2024-05-17T13:22:20.827;599616793745688460;13252.507;124
2024-05-17T13:22:20.835;599616793753379901;13260.198;131
2024-05-17T13:22:20.842;599616793761071342;13267.889;131
2024-05-17T13:22:20.850;599616793768762783;13275.58;127
2024-05-17T13:22:20.858;599616793776454224;13283.272;146
2024-05-17T13:22:20.865;599616793784145665;13290.964;179
2024-05-17T13:22:20.873;599616793791837106;13298.655;204
2024-05-17T13:22:20.881;599616793799528547;13306.347;209
2024-05-17T13:22:20.889;599616793807219988;13314.038;197
2024-05-17T13:22:20.896;599616793814911429;13321.7295;200
2024-05-17T13:22:20.904;599616793822602870;13329.421;228
2024-05-17T13:22:20.912;599616793830294311;13337.112;240
2024-05-17T13:22:20.919;599616793837985752;13344.804;240
2024-05-17T13:22:20.927;599616793845677193;13352.495;254
2024-05-17T13:22:20.935;599616793853368634;13360.187;245
2024-05-17T13:22:20.942;599616793861060075;13367.878;193
2024-05-17T13:22:20.950;599616793868751516;13375.57;162
2024-05-17T13:22:20.958;599616793876442957;13383.261;153
2024-05-17T13:22:20.965;599616793884134398;13390.952;110
2024-05-17T13:22:20.973;599616793891825839;13398.644;65
2024-05-17T13:22:20.981;599616793899517280;13406.335;58
2024-05-17T13:22:20.989;599616793907208721;13414.026;54
2024-05-17T13:22:20.996;599616793914900162;13421.719;11
2024-05-17T13:22:21.004;599616793922591603;13429.41;-30
2024-05-17T13:22:21.012;599616793930283044;13437.101;-7
2024-05-17T13:22:21.019;599616793937974485;13444.792;42
2024-05-17T13:22:21.027;599616793945665926;13452.483;35
2024-05-17T13:22:21.035;599616793953357367;13460.175;9
2024-05-17T13:22:21.042;599616793961048808;13467.867;35
2024-05-17T13:22:21.050;599616793968720218;13475.538;82
2024-05-17T13:22:21.058;599616793976411938;13483.23;98
2024-05-17T13:22:21.065;599616793984103658;13490.922;84
2024-05-17T13:22:21.073;599616793991795378;13498.613;54
2024-05-17T13:22:21.081;599616793999487098;13506.305;14
2024-05-17T13:22:21.088;599616794007178818;13513.997;37
2024-05-17T13:22:21.096;599616794014870538;13521.688;336
2024-05-17T13:22:21.104;599616794022562258;13529.38;876
2024-05-17T13:22:21.112;599616794030253978;13537.072;1062
2024-05-17T13:22:21.119;599616794037945698;13544.764;525
2024-05-17T13:22:21.127;599616794045637418;13552.456;-84
2024-05-17T13:22:21.135;599616794053329138;13560.146;-77
2024-05-17T13:22:21.142;599616794061020858;13567.839;94
2024-05-17T13:22:21.150;599616794068712578;13575.53;-2
2024-05-17T13:22:21.158;599616794076404298;13583.223;-51
2024-05-17T13:22:21.165;599616794084096018;13590.914;32
2024-05-17T13:22:21.173;599616794091787738;13598.605;47
2024-05-17T13:22:21.181;599616794099479458;13606.298;37
2024-05-17T13:22:21.188;599616794107171178;13613.989;77
2024-05-17T13:22:21.196;599616794114862898;13621.681;117
2024-05-17T13:22:21.204;599616794122554618;13629.372;127
2024-05-17T13:22:21.212;599616794130246338;13637.064;122
2024-05-17T13:22:21.219;599616794137938058;13644.756;134
2024-05-17T13:22:21.227;599616794145629778;13652.448;174
2024-05-17T13:22:21.235;599616794153321498;13660.14;207
2024-05-17T13:22:21.242;599616794161013218;13667.831;186
2024-05-17T13:22:21.250;599616794168704938;13675.523;103
2024-05-17T13:22:21.258;599616794176396658;13683.214;37
2024-05-17T13:22:21.265;599616794184088378;13690.906;54
2024-05-17T13:22:21.273;599616794191780098;13698.598;91
2024-05-17T13:22:21.281;599616794199471818;13706.29;103
2024-05-17T13:22:21.288;599616794207163538;13713.981;120
2024-05-17T13:22:21.296;599616794214855258;13721.674;110
2024-05-17T13:22:21.304;599616794222546978;13729.365;51
2024-05-17T13:22:21.312;599616794230238698;13737.057;37
2024-05-17T13:22:21.319;599616794237930418;13744.749;75
2024-05-17T13:22:21.327;599616794245622138;13752.439;77
2024-05-17T13:22:21.335;599616794253313858;13760.132;70
2024-05-17T13:22:21.342;599616794261005578;13767.823;91
2024-05-17T13:22:21.350;599616794268697298;13775.516;106
2024-05-17T13:22:21.358;599616794276389018;13783.207;91
2024-05-17T13:22:21.365;599616794284080738;13790.899;98
2024-05-17T13:22:21.373;599616794291772458;13798.591;136
2024-05-17T13:22:21.381;599616794299464178;13806.281;160
2024-05-17T13:22:21.388;599616794307155898;13813.974;160
2024-05-17T13:22:21.396;599616794314847618;13821.665;153
2024-05-17T13:22:21.404;599616794322539338;13829.357;164
2024-05-17T13:22:21.412;599616794330231058;13837.049;197
2024-05-17T13:22:21.419;599616794337922778;13844.741;214
2024-05-17T13:22:21.427;599616794345614498;13852.433;212
2024-05-17T13:22:21.435;599616794353306218;13860.125;221
2024-05-17T13:22:21.442;599616794360997938;13867.816;228
2024-05-17T13:22:21.450;599616794368689658;13875.507;219
2024-05-17T13:22:21.458;599616794376381378;13883.199;193
2024-05-17T13:22:21.465;599616794384073098;13890.891;164
2024-05-17T13:22:21.473;599616794391764818;13898.583;155
2024-05-17T13:22:21.481;599616794399456538;13906.274;115
2024-05-17T13:22:21.488;599616794407148258;13913.967;25
2024-05-17T13:22:21.496;599616794414839978;13921.658;-23
2024-05-17T13:22:21.504;599616794422531698;13929.351;-2
2024-05-17T13:22:21.512;599616794430223418;13937.041;-2
2024-05-17T13:22:21.519;599616794437915138;13944.732;-11
2024-05-17T13:22:21.527;599616794445606858;13952.425;14
2024-05-17T13:22:21.535;599616794453298578;13960.116;18
2024-05-17T13:22:21.542;599616794460990298;13967.809;9
2024-05-17T13:22:21.550;599616794468682018;13975.5;35
2024-05-17T13:22:21.558;599616794476373738;13983.192;70
2024-05-17T13:22:21.565;599616794484065458;13990.884;75
2024-05-17T13:22:21.573;599616794491757178;13998.575;70
2024-05-17T13:22:21.581;599616794499448898;14006.267;75
2024-05-17T13:22:21.588;599616794507140618;14013.958;91
2024-05-17T13:22:21.596;599616794514832338;14021.65;94
2024-05-17T13:22:21.604;599616794522524058;14029.342;63
2024-05-17T13:22:21.612;599616794530255918;14037.074;37
2024-05-17T13:22:21.619;599616794537947081;14044.766;179
2024-05-17T13:22:21.627;599616794545638244;14052.456;626
2024-05-17T13:22:21.635;599616794553329407;14060.147;1109
2024-05-17T13:22:21.642;599616794561020570;14067.839;1071
2024-05-17T13:22:21.650;599616794568711733;14075.529;468
2024-05-17T13:22:21.658;599616794576402896;14083.221;28
2024-05-17T13:22:21.665;599616794584094059;14090.912;106
2024-05-17T13:22:21.673;599616794591785222;14098.603;186
2024-05-17T13:22:21.681;599616794599476385;14106.294;80
2024-05-17T13:22:21.688;599616794607167548;14113.985;49
2024-05-17T13:22:21.696;599616794614858711;14121.677;54
2024-05-17T13:22:21.704;599616794622549874;14129.368;42
2024-05-17T13:22:21.712;599616794630241037;14137.06;70
2024-05-17T13:22:21.719;599616794637932200;14144.751;77
2024-05-17T13:22:21.727;599616794645623363;14152.441;54
2024-05-17T13:22:21.735;599616794653314526;14160.132;51
2024-05-17T13:22:21.742;599616794661005689;14167.823;58
2024-05-17T13:22:21.750;599616794668696852;14175.515;42
2024-05-17T13:22:21.758;599616794676388015;14183.206;-9
2024-05-17T13:22:21.765;599616794684079178;14190.897;-35
2024-05-17T13:22:21.773;599616794691770341;14198.589;7
2024-05-17T13:22:21.781;599616794699461504;14206.279;47
2024-05-17T13:22:21.788;599616794707152667;14213.971;68
2024-05-17T13:22:21.796;599616794714843830;14221.662;117
2024-05-17T13:22:21.804;599616794722534993;14229.354;153
2024-05-17T13:22:21.812;599616794730226156;14237.044;139
2024-05-17T13:22:21.819;599616794737917319;14244.735;122
2024-05-17T13:22:21.827;599616794745608482;14252.426;113
2024-05-17T13:22:21.835;599616794753299645;14260.117;96
2024-05-17T13:22:21.842;599616794760990808;14267.809;91
2024-05-17T13:22:21.850;599616794768681971;14275.5;91
2024-05-17T13:22:21.858;599616794776373134;14283.191;91
2024-05-17T13:22:21.865;599616794784064297;14290.883;94
2024-05-17T13:22:21.873;599616794791755460;14298.574;96
2024-05-17T13:22:21.881;599616794799446623;14306.265;101
2024-05-17T13:22:21.888;599616794807137786;14313.955;129
2024-05-17T13:22:21.896;599616794814828949;14321.646;143
2024-05-17T13:22:21.904;599616794822520112;14329.338;117
2024-05-17T13:22:21.912;599616794830211275;14337.029;113
2024-05-17T13:22:21.919;599616794837902438;14344.721;155
2024-05-17T13:22:21.927;599616794845593601;14352.412;176
2024-05-17T13:22:21.935;599616794853284764;14360.103;167
2024-05-17T13:22:21.942;599616794860975927;14367.794;186
2024-05-17T13:22:21.950;599616794868667090;14375.485;204
2024-05-17T13:22:21.958;599616794876358253;14383.177;195
2024-05-17T13:22:21.965;599616794884049416;14390.867;197
2024-05-17T13:22:21.973;599616794891740579;14398.559;209
2024-05-17T13:22:21.981;599616794899431742;14406.249;179
2024-05-17T13:22:21.988;599616794907122905;14413.94;110
2024-05-17T13:22:21.996;599616794914814068;14421.632;58
2024-05-17T13:22:22.004;599616794922505231;14429.323;40
2024-05-17T13:22:22.012;599616794930196394;14437.015;16
2024-05-17T13:22:22.019;599616794937887557;14444.706;-16
2024-05-17T13:22:22.027;599616794945578720;14452.397;-23
2024-05-17T13:22:22.035;599616794953269883;14460.088;-16
2024-05-17T13:22:22.042;599616794960961046;14467.778;-25
2024-05-17T13:22:22.050;599616794968652209;14475.47;-37
2024-05-17T13:22:22.058;599616794976343372;14483.161;-23
2024-05-17T13:22:22.065;599616794984034535;14490.853;14
2024-05-17T13:22:22.073;599616794991725698;14498.544;42
2024-05-17T13:22:22.081;599616794999416861;14506.235;42
2024-05-17T13:22:22.088;599616795007108024;14513.926;32
2024-05-17T13:22:22.096;599616795014799187;14521.617;42
2024-05-17T13:22:22.104;599616795022490350;14529.309;73
2024-05-17T13:22:22.111;599616795030181513;14537.0;82
2024-05-17T13:22:22.119;599616795037872676;14544.69;75
2024-05-17T13:22:22.127;599616795045563839;14552.382;75
2024-05-17T13:22:22.135;599616795053255002;14560.072;56
2024-05-17T13:22:22.142;599616795060946165;14567.764;7
2024-05-17T13:22:22.150;599616795068637328;14575.455;96
2024-05-17T13:22:22.158;599616795076328491;14583.146;513
2024-05-17T13:22:22.165;599616795084019654;14590.838;1038
2024-05-17T13:22:22.173;599616795091680726;14598.498;1095
2024-05-17T13:22:22.181;599616795099372307;14606.19;525
2024-05-17T13:22:22.188;599616795107063888;14613.882;11
2024-05-17T13:22:22.196;599616795114755469;14621.573;42
2024-05-17T13:22:22.204;599616795122447050;14629.266;160
2024-05-17T13:22:22.211;599616795130138631;14636.957;70
2024-05-17T13:22:22.219;599616795137830212;14644.647;47
2024-05-17T13:22:22.227;599616795145521793;14652.34;28
2024-05-17T13:22:22.235;599616795153213374;14660.031;-98
2024-05-17T13:22:22.242;599616795160904955;14667.723;-113
2024-05-17T13:22:22.250;599616795168596536;14675.414;-30
2024-05-17T13:22:22.258;599616795176288117;14683.106;-63
2024-05-17T13:22:22.265;599616795183979698;14690.798;-150
2024-05-17T13:22:22.273;599616795191671279;14698.489;-129
2024-05-17T13:22:22.281;599616795199362860;14706.181;-58
2024-05-17T13:22:22.288;599616795207054441;14713.872;-44
2024-05-17T13:22:22.296;599616795214746022;14721.563;-35
2024-05-17T13:22:22.304;599616795222437603;14729.256;14
2024-05-17T13:22:22.311;599616795230129184;14736.947;51
2024-05-17T13:22:22.319;599616795237820765;14744.639;56
2024-05-17T13:22:22.327;599616795245512346;14752.331;73
2024-05-17T13:22:22.335;599616795253203927;14760.022;115
2024-05-17T13:22:22.342;599616795260895508;14767.713;155
2024-05-17T13:22:22.350;599616795268587089;14775.405;153
2024-05-17T13:22:22.358;599616795276278670;14783.097;108
2024-05-17T13:22:22.365;599616795283970251;14790.788;82
2024-05-17T13:22:22.373;599616795291661832;14798.4795;91
2024-05-17T13:22:22.381;599616795299353413;14806.172;84
2024-05-17T13:22:22.388;599616795307044994;14813.863;73
2024-05-17T13:22:22.396;599616795314736575;14821.554;94
2024-05-17T13:22:22.404;599616795322428156;14829.246;106
2024-05-17T13:22:22.411;599616795330119737;14836.9375;80
2024-05-17T13:22:22.419;599616795337811318;14844.629;77
2024-05-17T13:22:22.427;599616795345502899;14852.321;108
2024-05-17T13:22:22.435;599616795353194480;14860.013;127
2024-05-17T13:22:22.442;599616795360886061;14867.704;131
2024-05-17T13:22:22.450;599616795368577642;14875.396;143
2024-05-17T13:22:22.458;599616795376269223;14883.087;139
2024-05-17T13:22:22.465;599616795383960804;14890.778;131
2024-05-17T13:22:22.473;599616795391652385;14898.47;127
2024-05-17T13:22:22.481;599616795399343966;14906.162;120
2024-05-17T13:22:22.488;599616795407035547;14913.854;136
2024-05-17T13:22:22.496;599616795414727128;14921.545;150
2024-05-17T13:22:22.504;599616795422418709;14929.237;129
2024-05-17T13:22:22.511;599616795430110290;14936.929;122
2024-05-17T13:22:22.519;599616795437801871;14944.619;117
2024-05-17T13:22:22.527;599616795445493452;14952.312;82
2024-05-17T13:22:22.535;599616795453185033;14960.003;42
2024-05-17T13:22:22.542;599616795460876614;14967.694;11
2024-05-17T13:22:22.550;599616795468568195;14975.387;-14
2024-05-17T13:22:22.558;599616795476259776;14983.078;-23
2024-05-17T13:22:22.565;599616795483951357;14990.77;-30
2024-05-17T13:22:22.573;599616795491642938;14998.46;-21
2024-05-17T13:22:22.581;599616795499334519;15006.152;7
2024-05-17T13:22:22.588;599616795507026100;15013.844;7
2024-05-17T13:22:22.596;599616795514717681;15021.535;-7
2024-05-17T13:22:22.604;599616795522409262;15029.228;14
2024-05-17T13:22:22.611;599616795530100843;15036.919;47
2024-05-17T13:22:22.619;599616795537792424;15044.61;51
2024-05-17T13:22:22.627;599616795545484005;15052.303;51
2024-05-17T13:22:22.634;599616795553175586;15059.993;65
2024-05-17T13:22:22.642;599616795560867167;15067.685;70
2024-05-17T13:22:22.650;599616795568558748;15075.377;54
2024-05-17T13:22:22.658;599616795576250329;15083.068;25
2024-05-17T13:22:22.665;599616795583941910;15090.76;14
2024-05-17T13:22:22.673;599616795591633491;15098.452;160
2024-05-17T13:22:22.681;599616795599325072;15106.144;581
2024-05-17T13:22:22.688;599616795607016653;15113.835;1036
2024-05-17T13:22:22.696;599616795614708234;15121.525;994
2024-05-17T13:22:22.704;599616795622399815;15129.218;402
2024-05-17T13:22:22.711;599616795630091396;15136.909;-28
2024-05-17T13:22:22.719;599616795637782977;15144.601;47
2024-05-17T13:22:22.727;599616795645474558;15152.293;115
2024-05-17T13:22:22.734;599616795653181198;15159.999;-2
2024-05-17T13:22:22.742;599616795660872570;15167.69;-14
2024-05-17T13:22:22.750;599616795668563942;15175.382;44
2024-05-17T13:22:22.758;599616795676255314;15183.073;42
2024-05-17T13:22:22.765;599616795683946686;15190.765;-2
2024-05-17T13:22:22.773;599616795691638058;15198.456;-68
2024-05-17T13:22:22.781;599616795699329430;15206.147;-89
2024-05-17T13:22:22.788;599616795707020802;15213.838;-44
2024-05-17T13:22:22.796;599616795714712174;15221.53;-37
2024-05-17T13:22:22.804;599616795722403546;15229.222;-84
2024-05-17T13:22:22.811;599616795730094918;15236.913;-68
2024-05-17T13:22:22.819;599616795737786290;15244.6045;-11
2024-05-17T13:22:22.827;599616795745477662;15252.296;-2
2024-05-17T13:22:22.834;599616795753169034;15259.987;2
2024-05-17T13:22:22.842;599616795760860406;15267.678;49
2024-05-17T13:22:22.850;599616795768551778;15275.369;96
2024-05-17T13:22:22.858;599616795776243150;15283.061;131
2024-05-17T13:22:22.865;599616795783934522;15290.752;157
2024-05-17T13:22:22.873;599616795791625894;15298.444;157
2024-05-17T13:22:22.881;599616795799317266;15306.136;153
2024-05-17T13:22:22.888;599616795807008638;15313.827;143
2024-05-17T13:22:22.896;599616795814700010;15321.519;113
2024-05-17T13:22:22.904;599616795822391382;15329.209;103
2024-05-17T13:22:22.911;599616795830082754;15336.9;110
2024-05-17T13:22:22.919;599616795837774126;15344.592;75
2024-05-17T13:22:22.927;599616795845465498;15352.283;47
2024-05-17T13:22:22.934;599616795853156870;15359.975;75
2024-05-17T13:22:22.942;599616795860848242;15367.667;101
2024-05-17T13:22:22.950;599616795868539614;15375.358;96
2024-05-17T13:22:22.958;599616795876230986;15383.049;84
2024-05-17T13:22:22.965;599616795883922358;15390.74;54
2024-05-17T13:22:22.973;599616795891613730;15398.432;14
2024-05-17T13:22:22.981;599616795899305102;15406.123;18
2024-05-17T13:22:22.988;599616795906996474;15413.814;54
2024-05-17T13:22:22.996;599616795914687846;15421.506;89
2024-05-17T13:22:23.004;599616795922379218;15429.197;96
2024-05-17T13:22:23.011;599616795930070590;15436.889;84
2024-05-17T13:22:23.019;599616795937761962;15444.58;96
2024-05-17T13:22:23.027;599616795945453334;15452.271;131
2024-05-17T13:22:23.034;599616795953144706;15459.963;150
2024-05-17T13:22:23.042;599616795960836078;15467.654;157
2024-05-17T13:22:23.050;599616795968527450;15475.346;153
2024-05-17T13:22:23.058;599616795976218822;15483.037;115
2024-05-17T13:22:23.065;599616795983910194;15490.728;73
2024-05-17T13:22:23.073;599616795991601566;15498.419;47
2024-05-17T13:22:23.081;599616795999292938;15506.11;18
2024-05-17T13:22:23.088;599616796006984310;15513.803;25
2024-05-17T13:22:23.096;599616796014675682;15521.494;35
2024-05-17T13:22:23.104;599616796022367054;15529.186;2
2024-05-17T13:22:23.111;599616796030058426;15536.877;2
2024-05-17T13:22:23.119;599616796037749798;15544.567;49
2024-05-17T13:22:23.127;599616796045441170;15552.259;51
2024-05-17T13:22:23.134;599616796053132542;15559.95;25
2024-05-17T13:22:23.142;599616796060823914;15567.642;40
2024-05-17T13:22:23.150;599616796068515286;15575.333;61
2024-05-17T13:22:23.158;599616796076206658;15583.025;54
2024-05-17T13:22:23.165;599616796083898030;15590.717;44
2024-05-17T13:22:23.173;599616796091589402;15598.407;30
2024-05-17T13:22:23.181;599616796099280774;15606.099;21
2024-05-17T13:22:23.188;599616796106972146;15613.79;183
2024-05-17T13:22:23.196;599616796114663518;15621.481;659
2024-05-17T13:22:23.204;599616796122354890;15629.173;1112
2024-05-17T13:22:23.211;599616796130046262;15636.864;930
2024-05-17T13:22:23.219;599616796137737634;15644.556;207
2024-05-17T13:22:23.227;599616796145429006;15652.246;-155
2024-05-17T13:22:23.234;599616796153120378;15659.938;35
2024-05-17T13:22:23.242;599616796160811750;15667.63;89
2024-05-17T13:22:23.250;599616796168503122;15675.321;-51
2024-05-17T13:22:23.258;599616796176194494;15683.013;-14
2024-05-17T13:22:23.265;599616796183885866;15690.704;47
2024-05-17T13:22:23.273;599616796191577238;15698.3955;-40
2024-05-17T13:22:23.281;599616796199268610;15706.086;-101
2024-05-17T13:22:23.288;599616796206959982;15713.777;-65
2024-05-17T13:22:23.296;599616796214651362;15721.469;-30
2024-05-17T13:22:23.304;599616796222342734;15729.161;-7
2024-05-17T13:22:23.311;599616796230034106;15736.853;25
2024-05-17T13:22:23.319;599616796237725478;15744.544;56
2024-05-17T13:22:23.327;599616796245416850;15752.235;89
2024-05-17T13:22:23.334;599616796253108222;15759.927;84
2024-05-17T13:22:23.342;599616796260799594;15767.617;23
2024-05-17T13:22:23.350;599616796268490966;15775.309;9
2024-05-17T13:22:23.358;599616796276182338;15783.0;80
2024-05-17T13:22:23.365;599616796283873710;15790.691;122
2024-05-17T13:22:23.373;599616796291565082;15798.383;120
2024-05-17T13:22:23.381;599616796299256454;15806.075;139
2024-05-17T13:22:23.388;599616796306947826;15813.767;169
2024-05-17T13:22:23.396;599616796314639198;15821.457;179
2024-05-17T13:22:23.404;599616796322330570;15829.148;181
2024-05-17T13:22:23.411;599616796330021942;15836.84;202
2024-05-17T13:22:23.419;599616796337713314;15844.531;214
2024-05-17T13:22:23.427;599616796345404686;15852.223;171
2024-05-17T13:22:23.434;599616796353096058;15859.914;113
2024-05-17T13:22:23.442;599616796360787430;15867.605;115
2024-05-17T13:22:23.450;599616796368478802;15875.297;139
2024-05-17T13:22:23.457;599616796376170174;15882.988;115
2024-05-17T13:22:23.465;599616796383861546;15890.68;80
2024-05-17T13:22:23.473;599616796391552918;15898.371;84
2024-05-17T13:22:23.481;599616796399244290;15906.0625;108
2024-05-17T13:22:23.488;599616796406935662;15913.754;110
2024-05-17T13:22:23.496;599616796414627034;15921.445;110
2024-05-17T13:22:23.504;599616796422318406;15929.136;146
2024-05-17T13:22:23.511;599616796430009778;15936.827;176
2024-05-17T13:22:23.519;599616796437701150;15944.519;164
2024-05-17T13:22:23.527;599616796445392522;15952.211;160
2024-05-17T13:22:23.534;599616796453083894;15959.902;186
2024-05-17T13:22:23.542;599616796460775266;15967.594;214
2024-05-17T13:22:23.550;599616796468466638;15975.285;216
2024-05-17T13:22:23.557;599616796476158010;15982.976;207
2024-05-17T13:22:23.565;599616796483849382;15990.667;207
2024-05-17T13:22:23.573;599616796491540754;15998.358;221
2024-05-17T13:22:23.581;599616796499232126;16006.05;219
2024-05-17T13:22:23.588;599616796506923498;16013.741;195
2024-05-17T13:22:23.596;599616796514614870;16021.434;164
