Phone timestamp;sensor timestamp [ns];timestamp [ms];ecg [uV]
2024-05-18T15:10:58.692;599616466014224918;0.0;6199
2024-05-18T15:10:58.699;599616466021916290;7.691372;7113
2024-05-18T15:10:58.707;599616466029607662;15.382744;8257
2024-05-18T15:10:58.715;599616466037299034;23.074116;9213
2024-05-18T15:10:58.722;599616466044990406;30.765488;9810
2024-05-18T15:10:58.730;599616466052681778;38.45686;10516
2024-05-18T15:10:58.738;599616466060373150;46.14823;11231
2024-05-18T15:10:58.745;599616466068064522;53.839603;11726
2024-05-18T15:10:58.753;599616466075755894;61.530975;12236
2024-05-18T15:10:58.761;599616466083447266;69.22235;12800
2024-05-18T15:10:58.768;599616466091138638;76.91372;13192
2024-05-18T15:10:58.776;599616466098830010;84.60509;13494
2024-05-18T15:10:58.784;599616466106521382;92.29646;13931
2024-05-18T15:10:58.791;599616466114212754;99.98784;14389
2024-05-18T15:10:58.799;599616466121904126;107.67921;14648
2024-05-18T15:10:58.807;599616466129595498;115.370575;14811
2024-05-18T15:10:58.815;599616466137286870;123.06195;15068
2024-05-18T15:10:58.822;599616466144978242;130.75333;15370
2024-05-18T15:10:58.830;599616466152669614;138.4447;15580
2024-05-18T15:10:58.838;599616466160360986;146.13606;15748
2024-05-18T15:10:58.845;599616466168052358;153.82744;16038
2024-05-18T15:10:58.853;599616466175743730;161.51881;16310
2024-05-18T15:10:58.861;599616466183435102;169.21017;16366
2024-05-18T15:10:58.868;599616466191126474;176.90155;16425
2024-05-18T15:10:58.876;599616466198817846;184.59293;16642
2024-05-18T15:10:58.884;599616466206509218;192.2843;16838
2024-05-18T15:10:58.891;599616466214200590;199.97568;16933
2024-05-18T15:10:58.899;599616466221891962;207.66704;17001
2024-05-18T15:10:58.907;599616466229583334;215.35841;17103
2024-05-18T15:10:58.915;599616466237274706;223.04979;17225
2024-05-18T15:10:58.922;599616466244966078;230.74115;17263
2024-05-18T15:10:58.930;599616466252657450;238.43253;17263
2024-05-18T15:10:58.938;599616466260348822;246.1239;17435
2024-05-18T15:10:58.945;599616466268040194;253.81528;17733
2024-05-18T15:10:58.953;599616466275731566;261.50665;18032
2024-05-18T15:10:58.961;599616466283422938;269.19803;18327
2024-05-18T15:10:58.968;599616466291114310;276.8894;18297
2024-05-18T15:10:58.976;599616466298805682;284.58078;17804
2024-05-18T15:10:58.984;599616466306497054;292.27213;17478
2024-05-18T15:10:58.991;599616466314188426;299.96353;17612
2024-05-18T15:10:58.999;599616466321879798;307.65488;17695
2024-05-18T15:10:59.007;599616466329571170;315.34625;17586
2024-05-18T15:10:59.015;599616466337262542;323.03763;17523
2024-05-18T15:10:59.022;599616466344953914;330.729;17544
2024-05-18T15:10:59.030;599616466352645286;338.42035;17671
2024-05-18T15:10:59.038;599616466360336658;346.11176;17761
2024-05-18T15:10:59.045;599616466368028030;353.8031;17553
2024-05-18T15:10:59.053;599616466375719402;361.4945;17357
2024-05-18T15:10:59.061;599616466383410774;369.18585;17459
2024-05-18T15:10:59.068;599616466391102146;376.87723;17485
2024-05-18T15:10:59.076;599616466398793518;384.5686;17350
2024-05-18T15:10:59.084;599616466406484890;392.25998;17332
2024-05-18T15:10:59.091;599616466414176262;399.95135;17332
2024-05-18T15:10:59.099;599616466421867634;407.64273;17221
2024-05-18T15:10:59.107;599616466429559006;415.33408;17107
2024-05-18T15:10:59.115;599616466437250378;423.02548;17098
2024-05-18T15:10:59.122;599616466444941750;430.71683;17155
2024-05-18T15:10:59.130;599616466452633122;438.4082;17074
2024-05-18T15:10:59.138;599616466460324494;446.09958;16860
2024-05-18T15:10:59.145;599616466468015866;453.79095;16822
2024-05-18T15:10:59.153;599616466475707238;461.4823;17013
2024-05-18T15:10:59.161;599616466483398610;469.1737;17015
2024-05-18T15:10:59.168;599616466491089982;476.86505;16725
2024-05-18T15:10:59.176;599616466498781354;484.55646;16529
2024-05-18T15:10:59.184;599616466506472726;492.2478;16428
2024-05-18T15:10:59.191;599616466514164098;499.93918;16246
2024-05-18T15:10:59.199;599616466521855470;507.63055;16109
2024-05-18T15:10:59.207;599616466529546842;515.3219;16085
2024-05-18T15:10:59.215;599616466537238214;523.0133;16062
2024-05-18T15:10:59.222;599616466544929586;530.70465;15882
2024-05-18T15:10:59.230;599616466552620958;538.39606;15637
2024-05-18T15:10:59.238;599616466560312330;546.0874;15545
2024-05-18T15:10:59.245;599616466568003702;553.7788;15493
2024-05-18T15:10:59.253;599616466575695082;561.47015;15302
2024-05-18T15:10:59.261;599616466583386454;569.16156;15177
2024-05-18T15:10:59.268;599616466591077826;576.8529;15167
2024-05-18T15:10:59.276;599616466598769198;584.54425;15075
2024-05-18T15:10:59.284;599616466606460570;592.23566;14922
2024-05-18T15:10:59.291;599616466614151942;599.92706;14738
2024-05-18T15:10:59.299;599616466621843314;607.61835;14573
2024-05-18T15:10:59.307;599616466629534686;615.30975;14525
2024-05-18T15:10:59.315;599616466637226058;623.00116;14403
2024-05-18T15:10:59.322;599616466644917430;630.6925;14200
2024-05-18T15:10:59.330;599616466652608802;638.38385;14247
2024-05-18T15:10:59.338;599616466660300174;646.07526;14297
2024-05-18T15:10:59.345;599616466667991546;653.76666;13933
2024-05-18T15:10:59.353;599616466675682918;661.458;13685
2024-05-18T15:10:59.361;599616466683374290;669.14935;13768
2024-05-18T15:10:59.368;599616466691065662;676.84076;13551
2024-05-18T15:10:59.376;599616466698757034;684.5321;13176
2024-05-18T15:10:59.384;599616466706448406;692.2235;13121
2024-05-18T15:10:59.391;599616466714139778;699.91486;13140
2024-05-18T15:10:59.399;599616466721831150;707.6062;13001
2024-05-18T15:10:59.407;599616466729522522;715.2976;12812
2024-05-18T15:10:59.414;599616466737213894;722.989;12680
2024-05-18T15:10:59.422;599616466744905266;730.6803;12614
2024-05-18T15:10:59.430;599616466752596638;738.3717;12508
2024-05-18T15:10:59.438;599616466760288010;746.0631;12352
2024-05-18T15:10:59.445;599616466767979382;753.7545;12298
2024-05-18T15:10:59.453;599616466775670754;761.4458;12255
2024-05-18T15:10:59.461;599616466783362126;769.1372;12057
2024-05-18T15:10:59.468;599616466791053498;776.8286;11880
2024-05-18T15:10:59.476;599616466798744870;784.51996;11842
2024-05-18T15:10:59.484;599616466806436242;792.2113;11788
2024-05-18T15:10:59.491;599616466814127614;799.9027;11653
2024-05-18T15:10:59.499;599616466821818986;807.59406;11519
2024-05-18T15:10:59.507;599616466829510358;815.28546;11420
2024-05-18T15:10:59.514;599616466837201730;822.9768;11342
2024-05-18T15:10:59.522;599616466844893102;830.66815;11247
2024-05-18T15:10:59.530;599616466852584474;838.35956;11162
2024-05-18T15:10:59.538;599616466860275846;846.05096;11059
2024-05-18T15:10:59.545;599616466867967218;853.74225;10874
2024-05-18T15:10:59.553;599616466875658590;861.43365;10679
2024-05-18T15:10:59.561;599616466883349962;869.12506;10575
2024-05-18T15:10:59.568;599616466891041334;876.8164;10542
2024-05-18T15:10:59.576;599616466898732706;884.50775;10471
2024-05-18T15:10:59.584;599616466906424078;892.19916;10360
2024-05-18T15:10:59.591;599616466914115450;899.89056;10247
2024-05-18T15:10:59.599;599616466921806822;907.5819;10138
2024-05-18T15:10:59.607;599616466929498194;915.27325;10039
2024-05-18T15:10:59.614;599616466937189566;922.96466;9933
2024-05-18T15:10:59.622;599616466944880938;930.656;9841
2024-05-18T15:10:59.630;599616466952572310;938.3474;9808
2024-05-18T15:10:59.638;599616466960263682;946.03876;9720
2024-05-18T15:10:59.645;599616466967955054;953.7301;9539
2024-05-18T15:10:59.653;599616466975646426;961.4215;9477
2024-05-18T15:10:59.661;599616466983337798;969.1129;9539
2024-05-18T15:10:59.668;599616466991029170;976.8042;9399
2024-05-18T15:10:59.676;599616466998720542;984.4956;9104
2024-05-18T15:10:59.684;599616467006411914;992.187;8994
2024-05-18T15:10:59.691;599616467014103286;999.8784;8968
2024-05-18T15:10:59.699;599616467021794658;1007.5697;8838
2024-05-18T15:10:59.707;599616467029486030;1015.2611;8717
2024-05-18T15:10:59.714;599616467037177402;1022.9525;8675
2024-05-18T15:10:59.722;599616467044868774;1030.6438;8632
2024-05-18T15:10:59.730;599616467052560146;1038.3352;8500
2024-05-18T15:10:59.738;599616467060251518;1046.0266;8314
2024-05-18T15:10:59.745;599616467067942890;1053.7179;8250
2024-05-18T15:10:59.753;599616467075634262;1061.4093;8418
2024-05-18T15:10:59.761;599616467083325634;1069.1007;8755
2024-05-18T15:10:59.768;599616467091017006;1076.7921;9045
2024-05-18T15:10:59.776;599616467098708378;1084.4834;8838
2024-05-18T15:10:59.784;599616467106399750;1092.1748;8040
2024-05-18T15:10:59.791;599616467114091122;1099.8662;7483
2024-05-18T15:10:59.799;599616467121782494;1107.5576;7573
2024-05-18T15:10:59.807;599616467129473866;1115.2489;7639
2024-05-18T15:10:59.814;599616467137195342;1122.9703;7457
2024-05-18T15:10:59.822;599616467144886296;1130.6614;7353
2024-05-18T15:10:59.830;599616467152577250;1138.3524;7294
2024-05-18T15:10:59.838;599616467160268204;1146.0432;7226
2024-05-18T15:10:59.845;599616467167959158;1153.7343;7179
2024-05-18T15:10:59.853;599616467175650112;1161.4252;7098
2024-05-18T15:10:59.861;599616467183341066;1169.1162;7032
2024-05-18T15:10:59.868;599616467191032020;1176.807;7025
2024-05-18T15:10:59.876;599616467198722974;1184.498;6936
2024-05-18T15:10:59.884;599616467206413928;1192.1891;6733
2024-05-18T15:10:59.891;599616467214104882;1199.8799;6624
2024-05-18T15:10:59.899;599616467221795836;1207.5709;6636
2024-05-18T15:10:59.907;599616467229486790;1215.2618;6591
2024-05-18T15:10:59.914;599616467237177744;1222.9529;6473
2024-05-18T15:10:59.922;599616467244868698;1230.6438;6400
2024-05-18T15:10:59.930;599616467252559652;1238.3347;6383
2024-05-18T15:10:59.938;599616467260250606;1246.0258;6331
2024-05-18T15:10:59.945;599616467267941560;1253.7166;6251
2024-05-18T15:10:59.953;599616467275632514;1261.4076;6230
2024-05-18T15:10:59.961;599616467283323468;1269.0985;6211
2024-05-18T15:10:59.968;599616467291014422;1276.7896;6110
2024-05-18T15:10:59.976;599616467298705376;1284.4805;6022
2024-05-18T15:10:59.984;599616467306396330;1292.1714;6006
2024-05-18T15:10:59.991;599616467314087284;1299.8624;5987
2024-05-18T15:10:59.999;599616467321778238;1307.5532;5921
2024-05-18T15:11:00.007;599616467329469192;1315.2443;5836
2024-05-18T15:11:00.014;599616467337160146;1322.9352;5798
2024-05-18T15:11:00.022;599616467344851100;1330.6262;5732
2024-05-18T15:11:00.030;599616467352542054;1338.3171;5534
2024-05-18T15:11:00.038;599616467360233008;1346.008;5361
2024-05-18T15:11:00.045;599616467367923962;1353.6991;5321
2024-05-18T15:11:00.053;599616467375614916;1361.3899;5253
2024-05-18T15:11:00.061;599616467383305870;1369.0809;5109
2024-05-18T15:11:00.068;599616467390996824;1376.772;5017
2024-05-18T15:11:00.076;599616467398687778;1384.4629;4998
2024-05-18T15:11:00.084;599616467406378732;1392.1538;4967
2024-05-18T15:11:00.091;599616467414069686;1399.8447;4897
2024-05-18T15:11:00.099;599616467421760640;1407.5358;4826
2024-05-18T15:11:00.107;599616467429451594;1415.2267;4788
2024-05-18T15:11:00.114;599616467437142548;1422.9176;4755
2024-05-18T15:11:00.122;599616467444833502;1430.6086;4691
2024-05-18T15:11:00.130;599616467452524456;1438.2996;4630
2024-05-18T15:11:00.137;599616467460215410;1445.9905;4618
2024-05-18T15:11:00.145;599616467467906364;1453.6814;4580
2024-05-18T15:11:00.153;599616467475597318;1461.3724;4491
2024-05-18T15:11:00.161;599616467483288272;1469.0634;4458
2024-05-18T15:11:00.168;599616467490979226;1476.7543;4408
2024-05-18T15:11:00.176;599616467498670180;1484.4453;4245
2024-05-18T15:11:00.184;599616467506361134;1492.1362;4158
2024-05-18T15:11:00.191;599616467514052088;1499.8271;4146
2024-05-18T15:11:00.199;599616467521743042;1507.5181;4047
2024-05-18T15:11:00.207;599616467529433996;1515.2091;3953
2024-05-18T15:11:00.214;599616467537124950;1522.9;3901
2024-05-18T15:11:00.222;599616467544815904;1530.591;3823
2024-05-18T15:11:00.230;599616467552506858;1538.282;3778
2024-05-18T15:11:00.237;599616467560197812;1545.9729;3738
2024-05-18T15:11:00.245;599616467567888766;1553.6638;3648
2024-05-18T15:11:00.253;599616467575579720;1561.3547;3606
2024-05-18T15:11:00.261;599616467583270674;1569.0458;3622
2024-05-18T15:11:00.268;599616467590961628;1576.7368;3594
2024-05-18T15:11:00.276;599616467598652582;1584.4276;3499
2024-05-18T15:11:00.284;599616467606343536;1592.1187;3422
2024-05-18T15:11:00.291;599616467614034490;1599.8096;3391
2024-05-18T15:11:00.299;599616467621725444;1607.5005;3358
2024-05-18T15:11:00.307;599616467629416398;1615.1914;3322
2024-05-18T15:11:00.314;599616467637107352;1622.8824;3320
2024-05-18T15:11:00.322;599616467644798306;1630.5735;3318
2024-05-18T15:11:00.330;599616467652489260;1638.2643;3261
2024-05-18T15:11:00.337;599616467660180214;1645.9553;3195
2024-05-18T15:11:00.345;599616467667871168;1653.6462;3193
2024-05-18T15:11:00.353;599616467675562122;1661.3372;3197
2024-05-18T15:11:00.361;599616467683253076;1669.0281;3155
2024-05-18T15:11:00.368;599616467690944030;1676.7191;3122
2024-05-18T15:11:00.376;599616467698634988;1684.4102;3103
2024-05-18T15:11:00.384;599616467706325942;1692.101;3068
2024-05-18T15:11:00.391;599616467714016896;1699.792;3027
2024-05-18T15:11:00.399;599616467721707850;1707.4829;3001
2024-05-18T15:11:00.407;599616467729398804;1715.1738;3006
2024-05-18T15:11:00.414;599616467737089758;1722.8649;3016
2024-05-18T15:11:00.422;599616467744780712;1730.5558;2968
2024-05-18T15:11:00.430;599616467752471666;1738.2468;2907
2024-05-18T15:11:00.437;599616467760162620;1745.9376;2909
2024-05-18T15:11:00.445;599616467767853574;1753.6287;2874
2024-05-18T15:11:00.453;599616467775544528;1761.3196;2751
2024-05-18T15:11:00.461;599616467783235482;1769.0106;2697
2024-05-18T15:11:00.468;599616467790926436;1776.7015;2714
2024-05-18T15:11:00.476;599616467798617390;1784.3925;2671
2024-05-18T15:11:00.484;599616467806308344;1792.0835;2621
2024-05-18T15:11:00.491;599616467813999298;1799.7743;2619
2024-05-18T15:11:00.499;599616467821690252;1807.4653;2596
2024-05-18T15:11:00.507;599616467829381206;1815.1562;2558
2024-05-18T15:11:00.514;599616467837072160;1822.8473;2673
2024-05-18T15:11:00.522;599616467844763114;1830.5382;3046
2024-05-18T15:11:00.530;599616467852454068;1838.2291;3407
2024-05-18T15:11:00.537;599616467860145022;1845.9202;3237
2024-05-18T15:11:00.545;599616467867835976;1853.611;2562
2024-05-18T15:11:00.553;599616467875526930;1861.302;2178
2024-05-18T15:11:00.560;599616467883217884;1868.993;2326
2024-05-18T15:11:00.568;599616467890908838;1876.684;2381
2024-05-18T15:11:00.576;599616467898599792;1884.3749;2237
2024-05-18T15:11:00.584;599616467906290746;1892.0658;2244
2024-05-18T15:11:00.591;599616467913981700;1899.7568;2296
2024-05-18T15:11:00.599;599616467921672654;1907.4476;2244
2024-05-18T15:11:00.607;599616467929363608;1915.1387;2206
2024-05-18T15:11:00.614;599616467937054562;1922.8297;2216
2024-05-18T15:11:00.622;599616467944745516;1930.5206;2211
2024-05-18T15:11:00.630;599616467952436470;1938.2115;2194
2024-05-18T15:11:00.637;599616467960127424;1945.9025;2194
2024-05-18T15:11:00.645;599616467967818378;1953.5935;2204
2024-05-18T15:11:00.653;599616467975509332;1961.2843;2187
2024-05-18T15:11:00.660;599616467983200286;1968.9753;2138
2024-05-18T15:11:00.668;599616467990891240;1976.6664;2062
2024-05-18T15:11:00.676;599616467998582194;1984.3573;1984
2024-05-18T15:11:00.684;599616468006273148;1992.0482;1965
2024-05-18T15:11:00.691;599616468013964102;1999.7391;1975
2024-05-18T15:11:00.699;599616468021655056;2007.4302;1963
2024-05-18T15:11:00.707;599616468029346010;2015.1211;1963
2024-05-18T15:11:00.714;599616468037036964;2022.812;1963
2024-05-18T15:11:00.722;599616468044727918;2030.503;1942
2024-05-18T15:11:00.730;599616468052418872;2038.194;1947
2024-05-18T15:11:00.737;599616468060109826;2045.8849;1965
2024-05-18T15:11:00.745;599616468067800780;2053.576;1949
2024-05-18T15:11:00.753;599616468075491734;2061.2668;1923
2024-05-18T15:11:00.760;599616468083182688;2068.9578;1904
2024-05-18T15:11:00.768;599616468090873642;2076.6487;1852
2024-05-18T15:11:00.776;599616468098564596;2084.3396;1793
2024-05-18T15:11:00.784;599616468106255550;2092.0305;1774
2024-05-18T15:11:00.791;599616468113946504;2099.7217;1748
2024-05-18T15:11:00.799;599616468121637458;2107.4126;1694
2024-05-18T15:11:00.807;599616468129328412;2115.1035;1659
2024-05-18T15:11:00.814;599616468137019366;2122.7944;1630
2024-05-18T15:11:00.822;599616468144710320;2130.4854;1609
2024-05-18T15:11:00.830;599616468152401274;2138.1763;1607
2024-05-18T15:11:00.837;599616468160092228;2145.8672;1581
2024-05-18T15:11:00.845;599616468167783182;2153.5583;1534
2024-05-18T15:11:00.853;599616468175474136;2161.2493;1536
2024-05-18T15:11:00.860;599616468183165090;2168.9402;1562
2024-05-18T15:11:00.868;599616468190856044;2176.631;1548
2024-05-18T15:11:00.876;599616468198546998;2184.322;1515
2024-05-18T15:11:00.884;599616468206237952;2192.013;1479
2024-05-18T15:11:00.891;599616468213928906;2199.704;1439
2024-05-18T15:11:00.899;599616468221619860;2207.3948;1411
2024-05-18T15:11:00.907;599616468229310814;2215.086;1418
2024-05-18T15:11:00.914;599616468237001768;2222.7769;1430
2024-05-18T15:11:00.922;599616468244692722;2230.4678;1394
2024-05-18T15:11:00.930;599616468252383676;2238.159;1345
2024-05-18T15:11:00.937;599616468260044538;2245.8196;1340
2024-05-18T15:11:00.945;599616468267735910;2253.511;1364
2024-05-18T15:11:00.953;599616468275427282;2261.2024;1352
2024-05-18T15:11:00.960;599616468283118654;2268.8938;1323
2024-05-18T15:11:00.968;599616468290810026;2276.5852;1319
2024-05-18T15:11:00.976;599616468298501398;2284.2764;1305
2024-05-18T15:11:00.983;599616468306192770;2291.9678;1243
2024-05-18T15:11:00.991;599616468313884142;2299.6592;1177
2024-05-18T15:11:00.999;599616468321575514;2307.3506;1161
2024-05-18T15:11:01.007;599616468329266886;2315.042;1149
2024-05-18T15:11:01.014;599616468336958258;2322.7334;1085
2024-05-18T15:11:01.022;599616468344649630;2330.4248;1028
2024-05-18T15:11:01.030;599616468352341002;2338.1162;1036
2024-05-18T15:11:01.037;599616468360032374;2345.8074;1064
2024-05-18T15:11:01.045;599616468367723746;2353.4988;1064
2024-05-18T15:11:01.053;599616468375415118;2361.1902;1026
2024-05-18T15:11:01.060;599616468383106490;2368.8816;986
2024-05-18T15:11:01.068;599616468390797862;2376.573;958
2024-05-18T15:11:01.076;599616468398489234;2384.2642;901
2024-05-18T15:11:01.083;599616468406180606;2391.9558;851
2024-05-18T15:11:01.091;599616468413871978;2399.647;873
2024-05-18T15:11:01.099;599616468421563350;2407.3384;892
2024-05-18T15:11:01.107;599616468429254722;2415.0298;861
2024-05-18T15:11:01.114;599616468436946094;2422.7212;828
2024-05-18T15:11:01.122;599616468444637466;2430.4126;830
2024-05-18T15:11:01.130;599616468452328838;2438.1038;847
2024-05-18T15:11:01.137;599616468460020210;2445.7954;849
2024-05-18T15:11:01.145;599616468467711582;2453.4866;868
2024-05-18T15:11:01.153;599616468475402954;2461.1782;885
2024-05-18T15:11:01.160;599616468483094326;2468.8694;861
2024-05-18T15:11:01.168;599616468490785698;2476.5608;792
2024-05-18T15:11:01.176;599616468498477070;2484.2522;719
2024-05-18T15:11:01.183;599616468506168442;2491.9434;719
2024-05-18T15:11:01.191;599616468513859814;2499.635;755
2024-05-18T15:11:01.199;599616468521551186;2507.3262;743
2024-05-18T15:11:01.207;599616468529242558;2515.0178;729
2024-05-18T15:11:01.214;599616468536933930;2522.709;750
2024-05-18T15:11:01.222;599616468544625302;2530.4001;752
2024-05-18T15:11:01.230;599616468552316674;2538.0918;710
2024-05-18T15:11:01.237;599616468560008046;2545.783;745
2024-05-18T15:11:01.245;599616468567699418;2553.4746;1019
2024-05-18T15:11:01.253;599616468575390790;2561.1658;1470
2024-05-18T15:11:01.260;599616468583082162;2568.8574;1701
2024-05-18T15:11:01.268;599616468590773534;2576.5486;1352
2024-05-18T15:11:01.276;599616468598464906;2584.24;733
2024-05-18T15:11:01.283;599616468606156278;2591.9314;552
2024-05-18T15:11:01.291;599616468613847650;2599.6226;738
2024-05-18T15:11:01.299;599616468621539022;2607.3142;743
2024-05-18T15:11:01.307;599616468629230394;2615.0054;651
2024-05-18T15:11:01.314;599616468636921766;2622.697;693
2024-05-18T15:11:01.322;599616468644613138;2630.3882;729
2024-05-18T15:11:01.330;599616468652304510;2638.0796;722
2024-05-18T15:11:01.337;599616468659995882;2645.771;750
2024-05-18T15:11:01.345;599616468667687254;2653.4622;752
2024-05-18T15:11:01.353;599616468675378626;2661.1538;733
2024-05-18T15:11:01.360;599616468683069998;2668.845;764
2024-05-18T15:11:01.368;599616468690761370;2676.5366;804
2024-05-18T15:11:01.376;599616468698452742;2684.2278;800
2024-05-18T15:11:01.383;599616468706144114;2691.9192;792
2024-05-18T15:11:01.391;599616468713835486;2699.6106;802
2024-05-18T15:11:01.399;599616468721526858;2707.302;814
2024-05-18T15:11:01.406;599616468729218230;2714.9934;833
2024-05-18T15:11:01.414;599616468736909602;2722.6846;866
2024-05-18T15:11:01.422;599616468744600974;2730.376;887
2024-05-18T15:11:01.430;599616468752292346;2738.0674;882
2024-05-18T15:11:01.437;599616468759983718;2745.7588;880
2024-05-18T15:11:01.445;599616468767675090;2753.4502;877
2024-05-18T15:11:01.453;599616468775366462;2761.1416;889
2024-05-18T15:11:01.460;599616468783057834;2768.833;929
2024-05-18T15:11:01.468;599616468790749206;2776.5242;953
2024-05-18T15:11:01.476;599616468798440578;2784.2156;951
2024-05-18T15:11:01.483;599616468806131950;2791.907;946
2024-05-18T15:11:01.491;599616468813823322;2799.5984;948
2024-05-18T15:11:01.499;599616468821539830;2807.315;934
2024-05-18T15:11:01.507;599616468829230853;2815.0059;885
2024-05-18T15:11:01.514;599616468836921876;2822.697;840
2024-05-18T15:11:01.522;599616468844612899;2830.388;818
2024-05-18T15:11:01.530;599616468852303922;2838.0789;764
2024-05-18T15:11:01.537;599616468859994945;2845.77;722
2024-05-18T15:11:01.545;599616468867685968;2853.461;724
2024-05-18T15:11:01.553;599616468875376991;2861.152;696
2024-05-18T15:11:01.560;599616468883068014;2868.843;625
2024-05-18T15:11:01.568;599616468890759037;2876.534;592
2024-05-18T15:11:01.576;599616468898450060;2884.225;606
2024-05-18T15:11:01.583;599616468906141083;2891.9163;611
2024-05-18T15:11:01.591;599616468913832106;2899.6072;604
2024-05-18T15:11:01.599;599616468921523129;2907.2983;625
2024-05-18T15:11:01.606;599616468929214152;2914.9893;651
2024-05-18T15:11:01.614;599616468936905175;2922.6804;649
2024-05-18T15:11:01.622;599616468944596198;2930.3713;625
2024-05-18T15:11:01.630;599616468952287221;2938.0623;630
2024-05-18T15:11:01.637;599616468959978244;2945.7534;665
2024-05-18T15:11:01.645;599616468967669267;2953.4443;677
2024-05-18T15:11:01.653;599616468975360290;2961.1353;667
2024-05-18T15:11:01.660;599616468983051313;2968.8264;679
2024-05-18T15:11:01.668;599616468990742336;2976.5173;682
2024-05-18T15:11:01.676;599616468998433359;2984.2085;613
2024-05-18T15:11:01.683;599616469006124382;2991.8994;535
2024-05-18T15:11:01.691;599616469013815405;2999.5903;540
2024-05-18T15:11:01.699;599616469021506428;3007.2815;585
2024-05-18T15:11:01.706;599616469029197451;3014.9724;582
2024-05-18T15:11:01.714;599616469036888474;3022.6636;559
2024-05-18T15:11:01.722;599616469044579497;3030.3547;568
2024-05-18T15:11:01.730;599616469052270520;3038.0457;592
2024-05-18T15:11:01.737;599616469059961543;3045.7368;582
2024-05-18T15:11:01.745;599616469067652566;3053.4277;542
2024-05-18T15:11:01.753;599616469075343589;3061.1187;488
2024-05-18T15:11:01.760;599616469083034612;3068.8098;431
2024-05-18T15:11:01.768;599616469090725635;3076.5007;413
2024-05-18T15:11:01.776;599616469098416658;3084.1917;431
2024-05-18T15:11:01.783;599616469106107681;3091.8828;450
2024-05-18T15:11:01.791;599616469113798704;3099.5737;457
2024-05-18T15:11:01.799;599616469121489727;3107.2646;448
2024-05-18T15:11:01.806;599616469129180750;3114.9558;438
2024-05-18T15:11:01.814;599616469136871773;3122.6467;455
2024-05-18T15:11:01.822;599616469144562796;3130.338;467
2024-05-18T15:11:01.830;599616469152253819;3138.0288;460
2024-05-18T15:11:01.837;599616469159944842;3145.7197;472
2024-05-18T15:11:01.845;599616469167635865;3153.4111;495
2024-05-18T15:11:01.853;599616469175326888;3161.102;486
2024-05-18T15:11:01.860;599616469183017911;3168.793;460
2024-05-18T15:11:01.868;599616469190708934;3176.4841;472
2024-05-18T15:11:01.876;599616469198399957;3184.175;495
2024-05-18T15:11:01.883;599616469206090980;3191.8662;507
2024-05-18T15:11:01.891;599616469213782003;3199.5571;516
2024-05-18T15:11:01.899;599616469221473026;3207.248;523
2024-05-18T15:11:01.906;599616469229164049;3214.9392;528
2024-05-18T15:11:01.914;599616469236855072;3222.6301;540
2024-05-18T15:11:01.922;599616469244546095;3230.321;519
2024-05-18T15:11:01.930;599616469252237118;3238.0122;476
2024-05-18T15:11:01.937;599616469259928141;3245.7031;453
2024-05-18T15:11:01.945;599616469267619164;3253.3943;403
2024-05-18T15:11:01.953;599616469275310187;3261.0852;344
2024-05-18T15:11:01.960;599616469283001210;3268.7761;351
2024-05-18T15:11:01.968;599616469290692233;3276.4673;372
2024-05-18T15:11:01.976;599616469298383256;3284.1584;330
2024-05-18T15:11:01.983;599616469306074279;3291.8494;276
2024-05-18T15:11:01.991;599616469313765302;3299.5405;339
2024-05-18T15:11:01.999;599616469321456325;3307.2314;641
2024-05-18T15:11:02.006;599616469329147348;3314.9226;1085
2024-05-18T15:11:02.014;599616469336838371;3322.6135;1213
2024-05-18T15:11:02.022;599616469344529394;3330.3044;745
2024-05-18T15:11:02.029;599616469352220417;3337.9956;186
2024-05-18T15:11:02.037;599616469359911440;3345.6865;143
2024-05-18T15:11:02.045;599616469367602463;3353.3774;306
2024-05-18T15:11:02.053;599616469375293486;3361.0686;254
2024-05-18T15:11:02.060;599616469382964474;3368.7395;214
2024-05-18T15:11:02.068;599616469390655776;3376.431;283
2024-05-18T15:11:02.076;599616469398347078;3384.122;290
2024-05-18T15:11:02.083;599616469406038380;3391.8135;269
2024-05-18T15:11:02.091;599616469413729682;3399.5046;257
2024-05-18T15:11:02.099;599616469421420984;3407.196;214
2024-05-18T15:11:02.106;599616469429112286;3414.8875;202
2024-05-18T15:11:02.114;599616469436803588;3422.5786;254
2024-05-18T15:11:02.122;599616469444494890;3430.27;271
2024-05-18T15:11:02.129;599616469452186192;3437.9612;250
2024-05-18T15:11:02.137;599616469459877494;3445.6526;273
2024-05-18T15:11:02.145;599616469467568796;3453.344;318
2024-05-18T15:11:02.153;599616469475260098;3461.0352;335
2024-05-18T15:11:02.160;599616469482951400;3468.7266;346
2024-05-18T15:11:02.168;599616469490642702;3476.4177;365
2024-05-18T15:11:02.176;599616469498334004;3484.1091;368
2024-05-18T15:11:02.183;599616469506025306;3491.8003;328
2024-05-18T15:11:02.191;599616469513716608;3499.4917;283
2024-05-18T15:11:02.199;599616469521407910;3507.183;309
2024-05-18T15:11:02.206;599616469529099212;3514.8743;370
2024-05-18T15:11:02.214;599616469536790514;3522.5657;377
2024-05-18T15:11:02.222;599616469544481816;3530.2568;365
2024-05-18T15:11:02.229;599616469552173118;3537.9482;391
2024-05-18T15:11:02.237;599616469559864420;3545.6394;401
2024-05-18T15:11:02.245;599616469567555722;3553.3306;349
2024-05-18T15:11:02.253;599616469575247024;3561.0222;332
2024-05-18T15:11:02.260;599616469582938326;3568.7134;375
2024-05-18T15:11:02.268;599616469590629628;3576.4048;372
2024-05-18T15:11:02.276;599616469598320930;3584.096;323
2024-05-18T15:11:02.283;599616469606012232;3591.7874;316
2024-05-18T15:11:02.291;599616469613703534;3599.4785;344
2024-05-18T15:11:02.299;599616469621394836;3607.1697;349
2024-05-18T15:11:02.306;599616469629086138;3614.8613;328
2024-05-18T15:11:02.314;599616469636777440;3622.5525;313
2024-05-18T15:11:02.322;599616469644468742;3630.244;332
2024-05-18T15:11:02.329;599616469652160044;3637.935;358
2024-05-18T15:11:02.337;599616469659851346;3645.6265;361
2024-05-18T15:11:02.345;599616469667542648;3653.3176;370
2024-05-18T15:11:02.353;599616469675233950;3661.009;396
2024-05-18T15:11:02.360;599616469682925252;3668.7004;401
2024-05-18T15:11:02.368;599616469690616554;3676.3916;387
2024-05-18T15:11:02.376;599616469698307856;3684.083;405
2024-05-18T15:11:02.383;599616469705999158;3691.7742;443
2024-05-18T15:11:02.391;599616469713690460;3699.4656;453
2024-05-18T15:11:02.399;599616469721381762;3707.1567;441
2024-05-18T15:11:02.406;599616469729073064;3714.8481;446
2024-05-18T15:11:02.414;599616469736764366;3722.5396;460
2024-05-18T15:11:02.422;599616469744455668;3730.2307;467
2024-05-18T15:11:02.429;599616469752146970;3737.922;467
2024-05-18T15:11:02.437;599616469759838272;3745.6133;486
2024-05-18T15:11:02.445;599616469767529574;3753.3047;507
2024-05-18T15:11:02.452;599616469775220876;3760.9958;490
2024-05-18T15:11:02.460;599616469782912178;3768.6873;469
2024-05-18T15:11:02.468;599616469790603480;3776.3787;483
2024-05-18T15:11:02.476;599616469798294782;3784.0698;514
2024-05-18T15:11:02.483;599616469805986084;3791.7612;507
2024-05-18T15:11:02.491;599616469813677386;3799.4524;462
2024-05-18T15:11:02.499;599616469821368688;3807.1438;441
2024-05-18T15:11:02.506;599616469829059990;3814.8352;460
2024-05-18T15:11:02.514;599616469836751292;3822.5264;467
2024-05-18T15:11:02.522;599616469844442594;3830.2178;467
2024-05-18T15:11:02.529;599616469852133896;3837.909;495
2024-05-18T15:11:02.537;599616469859825198;3845.6003;512
2024-05-18T15:11:02.545;599616469867516500;3853.2915;483
2024-05-18T15:11:02.552;599616469875207802;3860.9827;472
2024-05-18T15:11:02.560;599616469882899104;3868.6743;500
2024-05-18T15:11:02.568;599616469890590406;3876.3655;519
2024-05-18T15:11:02.576;599616469898281708;3884.057;512
2024-05-18T15:11:02.583;599616469905973010;3891.748;505
2024-05-18T15:11:02.591;599616469913664312;3899.4395;509
2024-05-18T15:11:02.599;599616469921355614;3907.1306;512
2024-05-18T15:11:02.606;599616469929046916;3914.8218;505
2024-05-18T15:11:02.614;599616469936738218;3922.5134;495
2024-05-18T15:11:02.622;599616469944424512;3930.1995;514
2024-05-18T15:11:02.629;599616469952115884;3937.891;523
2024-05-18T15:11:02.637;599616469959807256;3945.5823;457
2024-05-18T15:11:02.645;599616469967498628;3953.2737;401
2024-05-18T15:11:02.652;599616469975190000;3960.965;438
2024-05-18T15:11:02.660;599616469982881372;3968.6565;469
2024-05-18T15:11:02.668;599616469990572744;3976.348;441
2024-05-18T15:11:02.676;599616469998264116;3984.039;427
2024-05-18T15:11:02.683;599616470005955488;3991.7307;415
2024-05-18T15:11:02.691;599616470013646860;3999.4219;306
2024-05-18T15:11:02.699;599616470021338232;4007.1133;155
2024-05-18T15:11:02.706;599616470029029604;4014.8047;122
2024-05-18T15:11:02.714;599616470036720976;4022.496;181
2024-05-18T15:11:02.722;599616470044412348;4030.1875;202
2024-05-18T15:11:02.729;599616470052103720;4037.8787;165
2024-05-18T15:11:02.737;599616470059795092;4045.57;110
2024-05-18T15:11:02.745;599616470067486464;4053.2615;101
2024-05-18T15:11:02.752;599616470075177836;4060.953;198
2024-05-18T15:11:02.760;599616470082869208;4068.6443;507
2024-05-18T15:11:02.768;599616470090560580;4076.3357;946
2024-05-18T15:11:02.776;599616470098251952;4084.027;1071
2024-05-18T15:11:02.783;599616470105943324;4091.7185;608
2024-05-18T15:11:02.791;599616470113634696;4099.4097;84
2024-05-18T15:11:02.799;599616470121326068;4107.101;89
2024-05-18T15:11:02.806;599616470129017440;4114.7925;245
2024-05-18T15:11:02.814;599616470136708812;4122.484;113
2024-05-18T15:11:02.822;599616470144400184;4130.1753;7
2024-05-18T15:11:02.829;599616470152091556;4137.8667;59
2024-05-18T15:11:02.837;599616470159782928;4145.558;44
2024-05-18T15:11:02.845;599616470167474300;4153.2495;7
2024-05-18T15:11:02.852;599616470175165672;4160.941;33
2024-05-18T15:11:02.860;599616470182857044;4168.632;59
2024-05-18T15:11:02.868;599616470190548416;4176.3237;51
2024-05-18T15:11:02.876;599616470198239788;4184.0146;49
2024-05-18T15:11:02.883;599616470205931160;4191.7065;70
2024-05-18T15:11:02.891;599616470213622532;4199.3975;113
2024-05-18T15:11:02.899;599616470221313904;4207.089;143
2024-05-18T15:11:02.906;599616470229005276;4214.7803;132
2024-05-18T15:11:02.914;599616470236696648;4222.4717;120
2024-05-18T15:11:02.922;599616470244388020;4230.163;155
2024-05-18T15:11:02.929;599616470252079392;4237.8545;188
2024-05-18T15:11:02.937;599616470259770764;4245.546;198
2024-05-18T15:11:02.945;599616470267462136;4253.2373;217
2024-05-18T15:11:02.952;599616470275153508;4260.9287;247
2024-05-18T15:11:02.960;599616470282844880;4268.62;257
2024-05-18T15:11:02.968;599616470290536252;4276.3115;252
2024-05-18T15:11:02.976;599616470298227624;4284.003;252
2024-05-18T15:11:02.983;599616470305918996;4291.694;243
2024-05-18T15:11:02.991;599616470313610368;4299.3853;240
2024-05-18T15:11:02.999;599616470321301740;4307.0767;257
2024-05-18T15:11:03.006;599616470328993112;4314.7686;261
2024-05-18T15:11:03.014;599616470336684484;4322.4595;269
2024-05-18T15:11:03.022;599616470344375856;4330.151;287
2024-05-18T15:11:03.029;599616470352067228;4337.8423;280
2024-05-18T15:11:03.037;599616470359758600;4345.533;269
2024-05-18T15:11:03.045;599616470367449972;4353.225;271
2024-05-18T15:11:03.052;599616470375141344;4360.9165;247
2024-05-18T15:11:03.060;599616470382832716;4368.608;221
2024-05-18T15:11:03.068;599616470390524088;4376.299;236
2024-05-18T15:11:03.075;599616470398215460;4383.9907;259
2024-05-18T15:11:03.083;599616470405906832;4391.682;264
2024-05-18T15:11:03.091;599616470413598204;4399.3735;266
2024-05-18T15:11:03.099;599616470421289576;4407.0645;278
2024-05-18T15:11:03.106;599616470428980948;4414.756;304
2024-05-18T15:11:03.114;599616470436672320;4422.4478;313
2024-05-18T15:11:03.122;599616470444363692;4430.1387;313
2024-05-18T15:11:03.129;599616470452055064;4437.83;337
2024-05-18T15:11:03.137;599616470459746436;4445.5215;361
2024-05-18T15:11:03.145;599616470467437808;4453.213;346
2024-05-18T15:11:03.152;599616470475129180;4460.9043;335
2024-05-18T15:11:03.160;599616470482820552;4468.5957;361
2024-05-18T15:11:03.168;599616470490511924;4476.287;387
2024-05-18T15:11:03.175;599616470498203296;4483.978;387
2024-05-18T15:11:03.183;599616470505894676;4491.6694;382
2024-05-18T15:11:03.191;599616470513586048;4499.3613;382
2024-05-18T15:11:03.199;599616470521277420;4507.0527;342
2024-05-18T15:11:03.206;599616470528968792;4514.7437;252
2024-05-18T15:11:03.214;599616470536660164;4522.435;219
2024-05-18T15:11:03.222;599616470544351536;4530.127;245
2024-05-18T15:11:03.229;599616470552042908;4537.818;198
2024-05-18T15:11:03.237;599616470559734280;4545.5093;94
2024-05-18T15:11:03.245;599616470567425652;4553.2007;75
2024-05-18T15:11:03.252;599616470575117024;4560.892;134
2024-05-18T15:11:03.260;599616470582808396;4568.5835;165
2024-05-18T15:11:03.268;599616470590499768;4576.275;165
2024-05-18T15:11:03.275;599616470598191140;4583.9663;186
2024-05-18T15:11:03.283;599616470605882512;4591.6577;200
2024-05-18T15:11:03.291;599616470613573884;4599.3486;202
2024-05-18T15:11:03.299;599616470621265256;4607.0405;219
2024-05-18T15:11:03.306;599616470628956628;4614.732;250
2024-05-18T15:11:03.314;599616470636648000;4622.423;278
2024-05-18T15:11:03.322;599616470644339372;4630.1143;280
2024-05-18T15:11:03.329;599616470652030744;4637.806;269
2024-05-18T15:11:03.337;599616470659722116;4645.4976;276
2024-05-18T15:11:03.345;599616470667413488;4653.1885;316
2024-05-18T15:11:03.352;599616470675104860;4660.88;339
2024-05-18T15:11:03.360;599616470682796232;4668.5713;332
2024-05-18T15:11:03.368;599616470690487604;4676.2627;335
2024-05-18T15:11:03.375;599616470698178976;4683.954;344
2024-05-18T15:11:03.383;599616470705870348;4691.6455;337
2024-05-18T15:11:03.391;599616470713561720;4699.337;342
2024-05-18T15:11:03.399;599616470721253092;4707.028;375
2024-05-18T15:11:03.406;599616470728944464;4714.7197;405
2024-05-18T15:11:03.414;599616470736635836;4722.411;384
2024-05-18T15:11:03.422;599616470744327208;4730.102;349
2024-05-18T15:11:03.429;599616470752018580;4737.7935;370
2024-05-18T15:11:03.437;599616470759709952;4745.485;401
2024-05-18T15:11:03.445;599616470767401324;4753.177;379
2024-05-18T15:11:03.452;599616470775092696;4760.8677;349
2024-05-18T15:11:03.460;599616470782784068;4768.559;356
2024-05-18T15:11:03.468;599616470790475440;4776.2505;332
2024-05-18T15:11:03.475;599616470798166812;4783.9424;243
2024-05-18T15:11:03.483;599616470805858184;4791.6333;207
2024-05-18T15:11:03.491;599616470813549556;4799.3247;254
2024-05-18T15:11:03.499;599616470821240928;4807.016;271
2024-05-18T15:11:03.506;599616470828932300;4814.707;243
2024-05-18T15:11:03.514;599616470836623672;4822.399;240
2024-05-18T15:11:03.522;599616470844315044;4830.0903;254
2024-05-18T15:11:03.529;599616470852006416;4837.7817;238
2024-05-18T15:11:03.537;599616470859697788;4845.4727;221
2024-05-18T15:11:03.545;599616470867389160;4853.164;311
2024-05-18T15:11:03.552;599616470875080532;4860.856;627
2024-05-18T15:11:03.560;599616470882771904;4868.547;1045
2024-05-18T15:11:03.568;599616470890463276;4876.2383;1135
2024-05-18T15:11:03.575;599616470898154648;4883.9297;691
2024-05-18T15:11:03.583;599616470905846020;4891.621;212
2024-05-18T15:11:03.591;599616470913537392;4899.3125;195
2024-05-18T15:11:03.599;599616470921228764;4907.004;320
2024-05-18T15:11:03.606;599616470928920136;4914.6953;233
2024-05-18T15:11:03.614;599616470936611508;4922.386;165
2024-05-18T15:11:03.622;599616470944302880;4930.078;191
2024-05-18T15:11:03.629;599616470951994252;4937.7695;158
2024-05-18T15:11:03.637;599616470959685624;4945.461;101
2024-05-18T15:11:03.645;599616470967376996;4953.152;94
2024-05-18T15:11:03.652;599616470975068368;4960.8433;87
2024-05-18T15:11:03.660;599616470982759740;4968.535;63
2024-05-18T15:11:03.668;599616470990451112;4976.226;70
2024-05-18T15:11:03.675;599616470998142484;4983.9175;99
2024-05-18T15:11:03.683;599616471005833856;4991.609;115
2024-05-18T15:11:03.691;599616471013525228;4999.3003;110
2024-05-18T15:11:03.698;599616471021216600;5006.9917;103
2024-05-18T15:11:03.706;599616471028907972;5014.683;73
2024-05-18T15:11:03.714;599616471036599344;5022.3745;-18
2024-05-18T15:11:03.722;599616471044290716;5030.0654;-94
2024-05-18T15:11:03.729;599616471051982088;5037.757;-51
2024-05-18T15:11:03.737;599616471059673460;5045.4487;18
2024-05-18T15:11:03.745;599616471067364840;5053.14;4
2024-05-18T15:11:03.752;599616471075056212;5060.831;-9
2024-05-18T15:11:03.760;599616471082747584;5068.5225;42
2024-05-18T15:11:03.768;599616471090438956;5076.2144;92
2024-05-18T15:11:03.775;599616471098130328;5083.906;110
2024-05-18T15:11:03.783;599616471105821700;5091.5967;118
2024-05-18T15:11:03.791;599616471113513072;5099.288;127
2024-05-18T15:11:03.798;599616471121204444;5106.9795;132
2024-05-18T15:11:03.806;599616471128895816;5114.671;84
2024-05-18T15:11:03.814;599616471136587188;5122.3623;30
2024-05-18T15:11:03.822;599616471144278560;5130.0537;54
2024-05-18T15:11:03.829;599616471151969932;5137.745;73
2024-05-18T15:11:03.837;599616471159661304;5145.436;33
2024-05-18T15:11:03.845;599616471167352676;5153.128;18
2024-05-18T15:11:03.852;599616471175044048;5160.8193;42
2024-05-18T15:11:03.860;599616471182735420;5168.5103;51
2024-05-18T15:11:03.868;599616471190426792;5176.2017;63
2024-05-18T15:11:03.875;599616471198118164;5183.893;82
2024-05-18T15:11:03.883;599616471205809536;5191.585;84
2024-05-18T15:11:03.891;599616471213500908;5199.276;92
2024-05-18T15:11:03.898;599616471221192280;5206.9673;129
2024-05-18T15:11:03.906;599616471228883652;5214.6587;162
2024-05-18T15:11:03.914;599616471236575024;5222.35;181
2024-05-18T15:11:03.922;599616471244266396;5230.0415;188
2024-05-18T15:11:03.929;599616471251957768;5237.733;177
2024-05-18T15:11:03.937;599616471259649140;5245.4243;184
2024-05-18T15:11:03.945;599616471267340512;5253.115;217
2024-05-18T15:11:03.952;599616471275031884;5260.807;245
2024-05-18T15:11:03.960;599616471282723256;5268.4985;252
2024-05-18T15:11:03.968;599616471290414628;5276.1895;219
2024-05-18T15:11:03.975;599616471298106000;5283.881;184
2024-05-18T15:11:03.983;599616471305797372;5291.5723;188
2024-05-18T15:11:03.991;599616471313488744;5299.264;205
2024-05-18T15:11:03.998;599616471321180116;5306.955;231
2024-05-18T15:11:04.006;599616471328871488;5314.6465;269
2024-05-18T15:11:04.014;599616471336562860;5322.338;269
2024-05-18T15:11:04.022;599616471344254232;5330.03;238
2024-05-18T15:11:04.029;599616471351945604;5337.7207;247
2024-05-18T15:11:04.037;599616471359636976;5345.412;290
2024-05-18T15:11:04.045;599616471367328348;5353.1035;302
2024-05-18T15:11:04.052;599616471375019720;5360.7944;295
2024-05-18T15:11:04.060;599616471382711092;5368.4863;306
2024-05-18T15:11:04.068;599616471390402464;5376.1777;309
2024-05-18T15:11:04.075;599616471398093836;5383.869;297
2024-05-18T15:11:04.083;599616471405785208;5391.56;304
2024-05-18T15:11:04.091;599616471413476580;5399.2515;335
2024-05-18T15:11:04.098;599616471421167952;5406.9434;351
2024-05-18T15:11:04.106;599616471428859324;5414.6343;339
2024-05-18T15:11:04.114;599616471436550696;5422.3257;328
2024-05-18T15:11:04.122;599616471444242068;5430.017;346
2024-05-18T15:11:04.129;599616471451933440;5437.7085;358
2024-05-18T15:11:04.137;599616471459624812;5445.4;349
2024-05-18T15:11:04.145;599616471467316184;5453.0913;361
2024-05-18T15:11:04.152;599616471475007556;5460.7827;375
2024-05-18T15:11:04.160;599616471482698928;5468.4736;363
2024-05-18T15:11:04.168;599616471490390300;5476.1655;351
2024-05-18T15:11:04.175;599616471498081672;5483.857;358
2024-05-18T15:11:04.183;599616471505773044;5491.5483;382
2024-05-18T15:11:04.191;599616471513464416;5499.2393;391
2024-05-18T15:11:04.198;599616471521155788;5506.9307;356
2024-05-18T15:11:04.206;599616471528847160;5514.6226;283
2024-05-18T15:11:04.214;599616471536538532;5522.314;195
2024-05-18T15:11:04.222;599616471544229904;5530.005;94
2024-05-18T15:11:04.229;599616471551921276;5537.6963;14
2024-05-18T15:11:04.237;599616471559612648;5545.3877;33
2024-05-18T15:11:04.245;599616471567304020;5553.079;96
2024-05-18T15:11:04.252;599616471574995392;5560.7705;103
2024-05-18T15:11:04.260;599616471582686764;5568.462;82
2024-05-18T15:11:04.268;599616471590378136;5576.1533;108
2024-05-18T15:11:04.275;599616471598069508;5583.844;143
2024-05-18T15:11:04.283;599616471605760880;5591.536;134
2024-05-18T15:11:04.291;599616471613452252;5599.2275;118
2024-05-18T15:11:04.298;599616471621143624;5606.9185;127
2024-05-18T15:11:04.306;599616471628835004;5614.61;143
2024-05-18T15:11:04.314;599616471636526376;5622.302;153
2024-05-18T15:11:04.321;599616471644217748;5629.993;155
2024-05-18T15:11:04.329;599616471651909120;5637.684;155
2024-05-18T15:11:04.337;599616471659600492;5645.3755;139
2024-05-18T15:11:04.345;599616471667291864;5653.067;136
2024-05-18T15:11:04.352;599616471674983236;5660.7583;358
2024-05-18T15:11:04.360;599616471682674608;5668.4497;818
2024-05-18T15:11:04.368;599616471690365980;5676.141;1003
2024-05-18T15:11:04.375;599616471698057352;5683.8325;545
2024-05-18T15:11:04.383;599616471705748724;5691.5234;-35
2024-05-18T15:11:04.391;599616471713440096;5699.2153;-118
2024-05-18T15:11:04.398;599616471721131468;5706.9067;9
2024-05-18T15:11:04.406;599616471728822840;5714.5977;-75
2024-05-18T15:11:04.414;599616471736514212;5722.289;-134
2024-05-18T15:11:04.421;599616471744205584;5729.9805;-54
2024-05-18T15:11:04.429;599616471751896956;5737.6724;-40
2024-05-18T15:11:04.437;599616471759588328;5745.3633;-84
2024-05-18T15:11:04.445;599616471767279700;5753.0547;-73
2024-05-18T15:11:04.452;599616471774971072;5760.746;-49
2024-05-18T15:11:04.460;599616471782662444;5768.438;-87
2024-05-18T15:11:04.468;599616471790353816;5776.129;-110
2024-05-18T15:11:04.475;599616471798045188;5783.8203;-70
2024-05-18T15:11:04.483;599616471805736560;5791.5117;-51
2024-05-18T15:11:04.491;599616471813427932;5799.2026;-54
2024-05-18T15:11:04.498;599616471821119304;5806.8945;-21
2024-05-18T15:11:04.506;599616471828810676;5814.586;30
2024-05-18T15:11:04.514;599616471836502048;5822.2773;56
2024-05-18T15:11:04.521;599616471844193420;5829.9683;63
2024-05-18T15:11:04.529;599616471851884792;5837.6597;61
2024-05-18T15:11:04.537;599616471859576164;5845.3516;77
2024-05-18T15:11:04.545;599616471867267536;5853.0425;122
2024-05-18T15:11:04.552;599616471874958908;5860.734;153
2024-05-18T15:11:04.560;599616471882650280;5868.4253;160
2024-05-18T15:11:04.568;599616471890341652;5876.1167;184
2024-05-18T15:11:04.575;599616471898033024;5883.808;198
2024-05-18T15:11:04.583;599616471905724396;5891.4995;193
2024-05-18T15:11:04.591;599616471913415768;5899.191;217
2024-05-18T15:11:04.598;599616471921107140;5906.882;261
2024-05-18T15:11:04.606;599616471928798512;5914.5737;271
2024-05-18T15:11:04.614;599616471936489884;5922.265;243
2024-05-18T15:11:04.621;599616471944181256;5929.9565;228
2024-05-18T15:11:04.629;599616471951872628;5937.6475;233
2024-05-18T15:11:04.637;599616471959564000;5945.339;228
2024-05-18T15:11:04.645;599616471967255372;5953.031;214
2024-05-18T15:11:04.652;599616471974946744;5960.7217;205
2024-05-18T15:11:04.660;599616471982638116;5968.413;202
2024-05-18T15:11:04.668;599616471990329488;5976.1045;195
2024-05-18T15:11:04.675;599616471998020860;5983.796;181
2024-05-18T15:11:04.683;599616472005712232;5991.4873;184
2024-05-18T15:11:04.691;599616472013403604;5999.1787;214
2024-05-18T15:11:04.698;599616472021094976;6006.87;228
2024-05-18T15:11:04.706;599616472028786348;6014.5615;184
2024-05-18T15:11:04.714;599616472036477720;6022.253;151
2024-05-18T15:11:04.721;599616472044169092;6029.9443;162
2024-05-18T15:11:04.729;599616472051860464;6037.6357;115
2024-05-18T15:11:04.737;599616472059551836;6045.3267;33
2024-05-18T15:11:04.745;599616472067243208;6053.018;42
2024-05-18T15:11:04.752;599616472074934580;6060.71;92
2024-05-18T15:11:04.760;599616472082625952;6068.4014;84
2024-05-18T15:11:04.768;599616472090317324;6076.0923;82
2024-05-18T15:11:04.775;599616472098008696;6083.7837;115
2024-05-18T15:11:04.783;599616472105700068;6091.475;153
2024-05-18T15:11:04.791;599616472113391440;6099.1665;165
2024-05-18T15:11:04.798;599616472121082812;6106.858;158
2024-05-18T15:11:04.806;599616472128774184;6114.5493;162
2024-05-18T15:11:04.814;599616472136465556;6122.2407;184
2024-05-18T15:11:04.821;599616472144156928;6129.9316;198
2024-05-18T15:11:04.829;599616472151848300;6137.6235;205
2024-05-18T15:11:04.837;599616472159539672;6145.315;226
2024-05-18T15:11:04.845;599616472167231044;6153.006;247
2024-05-18T15:11:04.852;599616472174922416;6160.6973;240
2024-05-18T15:11:04.860;599616472182613788;6168.389;226
2024-05-18T15:11:04.868;599616472190335262;6176.1104;247
2024-05-18T15:11:04.875;599616472198026216;6183.8013;278
2024-05-18T15:11:04.883;599616472205717170;6191.492;285
2024-05-18T15:11:04.891;599616472213408124;6199.1836;271
2024-05-18T15:11:04.898;599616472221099078;6206.874;264
2024-05-18T15:11:04.906;599616472228790032;6214.565;276
2024-05-18T15:11:04.914;599616472236480986;6222.2563;247
2024-05-18T15:11:04.921;599616472244171940;6229.947;188
2024-05-18T15:11:04.929;599616472251862894;6237.638;169
2024-05-18T15:11:04.937;599616472259553848;6245.329;153
2024-05-18T15:11:04.945;599616472267244802;6253.0195;108
2024-05-18T15:11:04.952;599616472274935756;6260.711;80
2024-05-18T15:11:04.960;599616472282626710;6268.402;80
2024-05-18T15:11:04.968;599616472290317664;6276.093;94
2024-05-18T15:11:04.975;599616472298008618;6283.7837;92
2024-05-18T15:11:04.983;599616472305699572;6291.4746;89
2024-05-18T15:11:04.991;599616472313390526;6299.1655;103
2024-05-18T15:11:04.998;599616472321081480;6306.8564;118
2024-05-18T15:11:05.006;599616472328772434;6314.548;115
2024-05-18T15:11:05.014;599616472336463388;6322.2383;122
2024-05-18T15:11:05.021;599616472344154342;6329.929;151
2024-05-18T15:11:05.029;599616472351845296;6337.6206;158
2024-05-18T15:11:05.037;599616472359536250;6345.311;139
2024-05-18T15:11:05.045;599616472367227204;6353.0024;155
2024-05-18T15:11:05.052;599616472374918158;6360.6934;202
2024-05-18T15:11:05.060;599616472382609112;6368.384;224
2024-05-18T15:11:05.068;599616472390300066;6376.075;221
2024-05-18T15:11:05.075;599616472397991020;6383.766;214
2024-05-18T15:11:05.083;599616472405681974;6391.4575;212
2024-05-18T15:11:05.091;599616472413372928;6399.148;217
2024-05-18T15:11:05.098;599616472421063882;6406.839;200
2024-05-18T15:11:05.106;599616472428754836;6414.5303;167
2024-05-18T15:11:05.114;599616472436445790;6422.2207;153
2024-05-18T15:11:05.121;599616472444136744;6429.912;129
2024-05-18T15:11:05.129;599616472451827698;6437.603;49
2024-05-18T15:11:05.137;599616472459518652;6445.2935;2
2024-05-18T15:11:05.144;599616472467209606;6452.985;106
2024-05-18T15:11:05.152;599616472474900560;6460.676;382
2024-05-18T15:11:05.160;599616472482591514;6468.3667;774
2024-05-18T15:11:05.168;599616472490282468;6476.0576;918
2024-05-18T15:11:05.175;599616472497973422;6483.7485;490
2024-05-18T15:11:05.183;599616472505664376;6491.4395;-42
2024-05-18T15:11:05.191;599616472513355330;6499.1304;-87
2024-05-18T15:11:05.198;599616472521046284;6506.8213;37
2024-05-18T15:11:05.206;599616472528737238;6514.512;-42
2024-05-18T15:11:05.214;599616472536428192;6522.203;-103
2024-05-18T15:11:05.221;599616472544119146;6529.8945;-59
2024-05-18T15:11:05.229;599616472551810100;6537.585;-68
2024-05-18T15:11:05.237;599616472559501054;6545.276;-125
2024-05-18T15:11:05.244;599616472567192008;6552.9673;-158
2024-05-18T15:11:05.252;599616472574882962;6560.6577;-146
2024-05-18T15:11:05.260;599616472582573916;6568.349;-106
2024-05-18T15:11:05.268;599616472590264870;6576.04;-84
2024-05-18T15:11:05.275;599616472597955824;6583.7305;-70
2024-05-18T15:11:05.283;599616472605646778;6591.422;-37
2024-05-18T15:11:05.291;599616472613337732;6599.113;-2
2024-05-18T15:11:05.298;599616472621028686;6606.804;23
2024-05-18T15:11:05.306;599616472628719640;6614.4946;37
2024-05-18T15:11:05.314;599616472636410594;6622.1855;44
2024-05-18T15:11:05.321;599616472644101548;6629.877;75
2024-05-18T15:11:05.329;599616472651792502;6637.5674;120
2024-05-18T15:11:05.337;599616472659483456;6645.259;139
2024-05-18T15:11:05.344;599616472667174410;6652.9497;153
2024-05-18T15:11:05.352;599616472674865364;6660.64;174
2024-05-18T15:11:05.360;599616472682556318;6668.3315;186
2024-05-18T15:11:05.368;599616472690247272;6676.0225;193
2024-05-18T15:11:05.375;599616472697938226;6683.7134;214
2024-05-18T15:11:05.383;599616472705629180;6691.4043;247
2024-05-18T15:11:05.391;599616472713320134;6699.095;269
2024-05-18T15:11:05.398;599616472721011088;6706.786;259
2024-05-18T15:11:05.406;599616472728702042;6714.477;245
2024-05-18T15:11:05.414;599616472736392996;6722.1685;257
2024-05-18T15:11:05.421;599616472744083950;6729.859;266
2024-05-18T15:11:05.429;599616472751744814;6737.52;247
2024-05-18T15:11:05.437;599616472759436186;6745.2114;219
2024-05-18T15:11:05.444;599616472767127558;6752.903;162
2024-05-18T15:11:05.452;599616472774818930;6760.5938;63
2024-05-18T15:11:05.460;599616472782510302;6768.285;-14
2024-05-18T15:11:05.467;599616472790201674;6775.977;0
2024-05-18T15:11:05.475;599616472797893046;6783.6685;47
2024-05-18T15:11:05.483;599616472805584418;6791.3594;47
2024-05-18T15:11:05.491;599616472813275790;6799.051;33
2024-05-18T15:11:05.498;599616472820967162;6806.742;61
2024-05-18T15:11:05.506;599616472828658534;6814.4336;92
2024-05-18T15:11:05.514;599616472836349906;6822.125;103
2024-05-18T15:11:05.521;599616472844041278;6829.8164;118
2024-05-18T15:11:05.529;599616472851732650;6837.508;151
2024-05-18T15:11:05.537;599616472859424022;6845.199;169
2024-05-18T15:11:05.544;599616472867115394;6852.8906;155
2024-05-18T15:11:05.552;599616472874806766;6860.582;148
2024-05-18T15:11:05.560;599616472882498138;6868.273;167
2024-05-18T15:11:05.567;599616472890189510;6875.9644;186
2024-05-18T15:11:05.575;599616472897880882;6883.6562;200
2024-05-18T15:11:05.583;599616472905572254;6891.3477;200
2024-05-18T15:11:05.591;599616472913263626;6899.0386;205
2024-05-18T15:11:05.598;599616472920954998;6906.73;214
2024-05-18T15:11:05.606;599616472928646370;6914.4214;205
2024-05-18T15:11:05.614;599616472936337742;6922.113;207
2024-05-18T15:11:05.621;599616472944029114;6929.804;245
2024-05-18T15:11:05.629;599616472951720486;6937.4956;257
2024-05-18T15:11:05.637;599616472959411858;6945.187;226
2024-05-18T15:11:05.644;599616472967103230;6952.878;221
2024-05-18T15:11:05.652;599616472974794602;6960.57;257
2024-05-18T15:11:05.660;599616472982485974;6968.261;261
2024-05-18T15:11:05.667;599616472990177346;6975.952;238
2024-05-18T15:11:05.675;599616472997868718;6983.6436;240
2024-05-18T15:11:05.683;599616473005560090;6991.3354;226
2024-05-18T15:11:05.691;599616473013251462;6999.027;129
2024-05-18T15:11:05.698;599616473020942834;7006.718;63
2024-05-18T15:11:05.706;599616473028634206;7014.409;89
2024-05-18T15:11:05.714;599616473036325578;7022.1006;110
2024-05-18T15:11:05.721;599616473044016950;7029.7925;89
2024-05-18T15:11:05.729;599616473051708322;7037.4834;63
2024-05-18T15:11:05.737;599616473059399694;7045.175;25
2024-05-18T15:11:05.744;599616473067091066;7052.866;-33
2024-05-18T15:11:05.752;599616473074782438;7060.557;-56
2024-05-18T15:11:05.760;599616473082473810;7068.249;-37
2024-05-18T15:11:05.767;599616473090165182;7075.9404;-21
2024-05-18T15:11:05.775;599616473097856554;7083.632;-16
2024-05-18T15:11:05.783;599616473105547926;7091.3228;-11
2024-05-18T15:11:05.791;599616473113239298;7099.014;2
2024-05-18T15:11:05.798;599616473120930670;7106.706;44
2024-05-18T15:11:05.806;599616473128622042;7114.397;77
2024-05-18T15:11:05.814;599616473136313414;7122.0884;66
2024-05-18T15:11:05.821;599616473144004786;7129.78;42
2024-05-18T15:11:05.829;599616473151696158;7137.4717;56
2024-05-18T15:11:05.837;599616473159387530;7145.1626;113
2024-05-18T15:11:05.844;599616473167078902;7152.854;151
2024-05-18T15:11:05.852;599616473174770274;7160.5454;125
2024-05-18T15:11:05.860;599616473182461646;7168.2363;84
2024-05-18T15:11:05.867;599616473190153018;7175.928;61
2024-05-18T15:11:05.875;599616473197844390;7183.6196;14
2024-05-18T15:11:05.883;599616473205535762;7191.311;-33
2024-05-18T15:11:05.891;599616473213227134;7199.002;-14
2024-05-18T15:11:05.898;599616473220918506;7206.6934;7
2024-05-18T15:11:05.906;599616473228609878;7214.3853;-21
2024-05-18T15:11:05.914;599616473236301250;7222.076;-40
2024-05-18T15:11:05.921;599616473243992622;7229.7676;-28
2024-05-18T15:11:05.929;599616473251683994;7237.459;-54
2024-05-18T15:11:05.937;599616473259375366;7245.1504;-75
2024-05-18T15:11:05.944;599616473267066738;7252.842;108
2024-05-18T15:11:05.952;599616473274758110;7260.533;531
2024-05-18T15:11:05.960;599616473282449482;7268.2246;823
2024-05-18T15:11:05.967;599616473290140854;7275.916;573
2024-05-18T15:11:05.975;599616473297832226;7283.6074;35
2024-05-18T15:11:05.983;599616473305523598;7291.299;-141
2024-05-18T15:11:05.990;599616473313214978;7298.99;14
2024-05-18T15:11:05.998;599616473320906350;7306.681;23
2024-05-18T15:11:06.006;599616473328597722;7314.3726;-70
2024-05-18T15:11:06.014;599616473336289094;7322.0645;-25
2024-05-18T15:11:06.021;599616473343980466;7329.756;35
2024-05-18T15:11:06.029;599616473351671838;7337.447;21
2024-05-18T15:11:06.037;599616473359363210;7345.138;44
2024-05-18T15:11:06.044;599616473367054582;7352.8296;84
2024-05-18T15:11:06.052;599616473374745954;7360.521;35
2024-05-18T15:11:06.060;599616473382437326;7368.2124;-33
2024-05-18T15:11:06.067;599616473390128698;7375.904;-9
2024-05-18T15:11:06.075;599616473397820070;7383.595;44
2024-05-18T15:11:06.083;599616473405511442;7391.286;63
2024-05-18T15:11:06.090;599616473413202814;7398.978;70
2024-05-18T15:11:06.098;599616473420894186;7406.6694;92
2024-05-18T15:11:06.106;599616473428585558;7414.3604;103
2024-05-18T15:11:06.114;599616473436276930;7422.052;120
2024-05-18T15:11:06.121;599616473443968302;7429.7437;153
2024-05-18T15:11:06.129;599616473451659674;7437.435;186
2024-05-18T15:11:06.137;599616473459351046;7445.126;202
2024-05-18T15:11:06.144;599616473467042418;7452.8174;200
2024-05-18T15:11:06.152;599616473474733790;7460.509;200
2024-05-18T15:11:06.160;599616473482425162;7468.2007;236
2024-05-18T15:11:06.167;599616473490116534;7475.8916;280
2024-05-18T15:11:06.175;599616473497807906;7483.583;285
2024-05-18T15:11:06.183;599616473505499278;7491.2744;243
2024-05-18T15:11:06.190;599616473513190650;7498.9653;210
2024-05-18T15:11:06.198;599616473520882022;7506.657;233
2024-05-18T15:11:06.206;599616473528573394;7514.3486;243
2024-05-18T15:11:06.214;599616473536264766;7522.04;231
2024-05-18T15:11:06.221;599616473543956138;7529.731;247
2024-05-18T15:11:06.229;599616473551647510;7537.4224;245
2024-05-18T15:11:06.237;599616473559338882;7545.1143;198
2024-05-18T15:11:06.244;599616473567030254;7552.805;146
2024-05-18T15:11:06.252;599616473574721626;7560.4966;84
2024-05-18T15:11:06.260;599616473582412998;7568.188;40
2024-05-18T15:11:06.267;599616473590104370;7575.88;49
2024-05-18T15:11:06.275;599616473597795742;7583.571;70
2024-05-18T15:11:06.283;599616473605487114;7591.262;70
2024-05-18T15:11:06.290;599616473613178486;7598.9536;87
2024-05-18T15:11:06.298;599616473620869858;7606.6445;110
2024-05-18T15:11:06.306;599616473628561230;7614.3364;132
2024-05-18T15:11:06.314;599616473636252602;7622.028;158
2024-05-18T15:11:06.321;599616473643943974;7629.719;169
2024-05-18T15:11:06.329;599616473651635346;7637.41;155
2024-05-18T15:11:06.337;599616473659326718;7645.1016;162
2024-05-18T15:11:06.344;599616473667018090;7652.7935;202
2024-05-18T15:11:06.352;599616473674709462;7660.4844;207
2024-05-18T15:11:06.360;599616473682400834;7668.176;193
2024-05-18T15:11:06.367;599616473690092206;7675.867;217
2024-05-18T15:11:06.375;599616473697783578;7683.559;240
2024-05-18T15:11:06.383;599616473705474950;7691.25;226
2024-05-18T15:11:06.390;599616473713166322;7698.9414;221
2024-05-18T15:11:06.398;599616473720857694;7706.633;247
2024-05-18T15:11:06.406;599616473728549066;7714.3237;273
2024-05-18T15:11:06.414;599616473736240438;7722.0156;269
2024-05-18T15:11:06.421;599616473743931810;7729.707;228
2024-05-18T15:11:06.429;599616473751623182;7737.3984;193
2024-05-18T15:11:06.437;599616473759314554;7745.0894;179
2024-05-18T15:11:06.444;599616473767005926;7752.781;155
2024-05-18T15:11:06.452;599616473774697298;7760.4727;122
2024-05-18T15:11:06.460;599616473782388670;7768.164;118
2024-05-18T15:11:06.467;599616473790080042;7775.855;125
2024-05-18T15:11:06.475;599616473797771414;7783.5464;108
2024-05-18T15:11:06.483;599616473805462786;7791.238;120
2024-05-18T15:11:06.490;599616473813154158;7798.929;155
2024-05-18T15:11:06.498;599616473820845530;7806.6206;165
2024-05-18T15:11:06.506;599616473828536902;7814.312;148
2024-05-18T15:11:06.514;599616473836228274;7822.0034;139
2024-05-18T15:11:06.521;599616473843919646;7829.695;151
2024-05-18T15:11:06.529;599616473851611018;7837.386;174
2024-05-18T15:11:06.537;599616473859302390;7845.0776;174
2024-05-18T15:11:06.544;599616473866993762;7852.7686;167
2024-05-18T15:11:06.552;599616473874715238;7860.49;186
2024-05-18T15:11:06.560;599616473882406192;7868.1816;195
2024-05-18T15:11:06.567;599616473890097146;7875.872;179
2024-05-18T15:11:06.575;599616473897788100;7883.563;186
2024-05-18T15:11:06.583;599616473905479054;7891.2544;219
2024-05-18T15:11:06.590;599616473913170008;7898.945;219
2024-05-18T15:11:06.598;599616473920860962;7906.636;193
2024-05-18T15:11:06.606;599616473928551916;7914.327;184
2024-05-18T15:11:06.614;599616473936242870;7922.0176;174
2024-05-18T15:11:06.621;599616473943933824;7929.709;132
2024-05-18T15:11:06.629;599616473951624778;7937.4;56
2024-05-18T15:11:06.637;599616473959315732;7945.0903;0
2024-05-18T15:11:06.644;599616473967006686;7952.7817;-16
2024-05-18T15:11:06.652;599616473974697640;7960.4727;-33
2024-05-18T15:11:06.660;599616473982388594;7968.164;-66
2024-05-18T15:11:06.667;599616473990079548;7975.8545;-80
2024-05-18T15:11:06.675;599616473997770502;7983.5454;-99
2024-05-18T15:11:06.683;599616474005461456;7991.237;-125
2024-05-18T15:11:06.690;599616474013152410;7998.9272;-129
2024-05-18T15:11:06.698;599616474020843364;8006.6187;-120
2024-05-18T15:11:06.706;599616474028534318;8014.3096;-115
2024-05-18T15:11:06.714;599616474036225272;8022.0;-134
2024-05-18T15:11:06.721;599616474043916226;8029.6914;-84
2024-05-18T15:11:06.729;599616474051607180;8037.3823;186
2024-05-18T15:11:06.737;599616474059298134;8045.073;608
2024-05-18T15:11:06.744;599616474066989088;8052.764;759
2024-05-18T15:11:06.752;599616474074680042;8060.455;337
2024-05-18T15:11:06.760;599616474082370996;8068.146;-210
2024-05-18T15:11:06.767;599616474090061950;8075.837;-259
2024-05-18T15:11:06.775;599616474097752904;8083.5283;-87
2024-05-18T15:11:06.783;599616474105443858;8091.2188;-129
2024-05-18T15:11:06.790;599616474113134812;8098.9097;-177
2024-05-18T15:11:06.798;599616474120825766;8106.601;-103
2024-05-18T15:11:06.806;599616474128516720;8114.2915;-80
2024-05-18T15:11:06.813;599616474136207674;8121.983;-87
2024-05-18T15:11:06.821;599616474143898628;8129.674;-35
2024-05-18T15:11:06.829;599616474151589582;8137.3643;4
2024-05-18T15:11:06.837;599616474159280536;8145.0557;-4
2024-05-18T15:11:06.844;599616474166971490;8152.7466;4
2024-05-18T15:11:06.852;599616474174662444;8160.438;56
2024-05-18T15:11:06.860;599616474182353398;8168.1284;92
2024-05-18T15:11:06.867;599616474190044352;8175.8193;94
2024-05-18T15:11:06.875;599616474197735306;8183.5107;108
2024-05-18T15:11:06.883;599616474205426260;8191.201;136
2024-05-18T15:11:06.890;599616474213117214;8198.893;151
2024-05-18T15:11:06.898;599616474220808168;8206.583;155
2024-05-18T15:11:06.906;599616474228499122;8214.274;186
2024-05-18T15:11:06.913;599616474236190076;8221.965;214
2024-05-18T15:11:06.921;599616474243881030;8229.656;179
2024-05-18T15:11:06.929;599616474251571984;8237.347;134
2024-05-18T15:11:06.937;599616474259262938;8245.038;153
2024-05-18T15:11:06.944;599616474266953892;8252.729;202
2024-05-18T15:11:06.952;599616474274644846;8260.42;221
2024-05-18T15:11:06.960;599616474282335800;8268.111;226
2024-05-18T15:11:06.967;599616474290026754;8275.802;238
2024-05-18T15:11:06.975;599616474297717708;8283.493;250
2024-05-18T15:11:06.983;599616474305408662;8291.184;252
2024-05-18T15:11:06.990;599616474313099616;8298.875;257
2024-05-18T15:11:06.998;599616474320790570;8306.565;266
2024-05-18T15:11:07.006;599616474328481524;8314.257;266
2024-05-18T15:11:07.013;599616474336172478;8321.947;243
2024-05-18T15:11:07.021;599616474343863432;8329.639;205
2024-05-18T15:11:07.029;599616474351554386;8337.33;198
2024-05-18T15:11:07.037;599616474359245340;8345.0205;217
2024-05-18T15:11:07.044;599616474366936294;8352.711;214
2024-05-18T15:11:07.052;599616474374627248;8360.402;202
2024-05-18T15:11:07.060;599616474382318202;8368.093;217
2024-05-18T15:11:07.067;599616474390009156;8375.784;233
2024-05-18T15:11:07.075;599616474397700110;8383.476;228
2024-05-18T15:11:07.083;599616474405391064;8391.166;231
2024-05-18T15:11:07.090;599616474413082018;8398.857;254
2024-05-18T15:11:07.098;599616474420772972;8406.548;273
2024-05-18T15:11:07.106;599616474428463926;8414.239;271
2024-05-18T15:11:07.113;599616474436124788;8421.899;259
2024-05-18T15:11:07.121;599616474443816160;8429.591;266
2024-05-18T15:11:07.129;599616474451507532;8437.283;283
2024-05-18T15:11:07.136;599616474459198904;8444.974;283
2024-05-18T15:11:07.144;599616474466890276;8452.665;278
2024-05-18T15:11:07.152;599616474474581648;8460.356;287
2024-05-18T15:11:07.160;599616474482273020;8468.048;285
2024-05-18T15:11:07.167;599616474489964392;8475.739;243
2024-05-18T15:11:07.175;599616474497655764;8483.431;217
2024-05-18T15:11:07.183;599616474505347136;8491.122;247
2024-05-18T15:11:07.190;599616474513038508;8498.813;245
2024-05-18T15:11:07.198;599616474520729880;8506.505;174
2024-05-18T15:11:07.206;599616474528421252;8514.196;127
2024-05-18T15:11:07.213;599616474536112624;8521.888;151
2024-05-18T15:11:07.221;599616474543803996;8529.579;174
2024-05-18T15:11:07.229;599616474551495368;8537.2705;162
2024-05-18T15:11:07.236;599616474559186740;8544.962;143
2024-05-18T15:11:07.244;599616474566878112;8552.653;122
2024-05-18T15:11:07.252;599616474574569484;8560.345;89
2024-05-18T15:11:07.260;599616474582260856;8568.036;21
2024-05-18T15:11:07.267;599616474589952228;8575.728;-25
2024-05-18T15:11:07.275;599616474597643600;8583.419;-2
2024-05-18T15:11:07.283;599616474605334972;8591.11;18
2024-05-18T15:11:07.290;599616474613026344;8598.802;7
2024-05-18T15:11:07.298;599616474620717716;8606.492;14
2024-05-18T15:11:07.306;599616474628409088;8614.184;44
2024-05-18T15:11:07.313;599616474636100460;8621.875;51
2024-05-18T15:11:07.321;599616474643791832;8629.566;49
2024-05-18T15:11:07.329;599616474651483204;8637.259;84
2024-05-18T15:11:07.336;599616474659174576;8644.95;110
2024-05-18T15:11:07.344;599616474666865948;8652.642;92
2024-05-18T15:11:07.352;599616474674557320;8660.333;80
2024-05-18T15:11:07.360;599616474682248692;8668.023;106
2024-05-18T15:11:07.367;599616474689940064;8675.715;136
2024-05-18T15:11:07.375;599616474697631436;8683.406;141
2024-05-18T15:11:07.383;599616474705322808;8691.098;148
2024-05-18T15:11:07.390;599616474713014180;8698.789;167
2024-05-18T15:11:07.398;599616474720705552;8706.48;184
2024-05-18T15:11:07.406;599616474728396924;8714.173;169
2024-05-18T15:11:07.413;599616474736088296;8721.863;101
2024-05-18T15:11:07.421;599616474743779668;8729.555;37
2024-05-18T15:11:07.429;599616474751471040;8737.246;7
2024-05-18T15:11:07.436;599616474759162412;8744.9375;-37
2024-05-18T15:11:07.444;599616474766853784;8752.629;-59
2024-05-18T15:11:07.452;599616474774545156;8760.32;-28
2024-05-18T15:11:07.460;599616474782236528;8768.012;-21
2024-05-18T15:11:07.467;599616474789927900;8775.702;-47
2024-05-18T15:11:07.475;599616474797619272;8783.395;-73
2024-05-18T15:11:07.483;599616474805310644;8791.086;-42
2024-05-18T15:11:07.490;599616474813002016;8798.777;177
2024-05-18T15:11:07.498;599616474820693388;8806.469;601
2024-05-18T15:11:07.506;599616474828384760;8814.16;875
2024-05-18T15:11:07.513;599616474836076132;8821.852;582
2024-05-18T15:11:07.521;599616474843767504;8829.542;25
2024-05-18T15:11:07.529;599616474851458876;8837.233;-139
2024-05-18T15:11:07.536;599616474859150248;8844.925;18
2024-05-18T15:11:07.544;599616474866841620;8852.616;44
2024-05-18T15:11:07.552;599616474874532992;8860.309;-16
2024-05-18T15:11:07.559;599616474882224364;8868.0;14
2024-05-18T15:11:07.567;599616474889915736;8875.691;47
2024-05-18T15:11:07.575;599616474897607108;8883.382;37
2024-05-18T15:11:07.583;599616474905298480;8891.073;49
2024-05-18T15:11:07.590;599616474912989852;8898.765;73
2024-05-18T15:11:07.598;599616474920681224;8906.456;92
2024-05-18T15:11:07.606;599616474928372596;8914.147;120
2024-05-18T15:11:07.613;599616474936063968;8921.839;136
2024-05-18T15:11:07.621;599616474943755340;8929.531;125
2024-05-18T15:11:07.629;599616474951446712;8937.222;127
2024-05-18T15:11:07.636;599616474959138084;8944.913;162
2024-05-18T15:11:07.644;599616474966829456;8952.6045;186
2024-05-18T15:11:07.652;599616474974520828;8960.296;177
2024-05-18T15:11:07.659;599616474982212200;8967.987;148
2024-05-18T15:11:07.667;599616474989903572;8975.679;127
2024-05-18T15:11:07.675;599616474997594952;8983.37;132
2024-05-18T15:11:07.683;599616475005286324;8991.061;158
2024-05-18T15:11:07.690;599616475012977696;8998.753;188
2024-05-18T15:11:07.698;599616475020669068;9006.444;214
2024-05-18T15:11:07.706;599616475028360440;9014.136;217
2024-05-18T15:11:07.713;599616475036051812;9021.827;200
2024-05-18T15:11:07.721;599616475043743184;9029.519;214
2024-05-18T15:11:07.729;599616475051434556;9037.21;231
2024-05-18T15:11:07.736;599616475059125928;9044.9;169
2024-05-18T15:11:07.744;599616475066817300;9052.592;108
2024-05-18T15:11:07.752;599616475074508672;9060.283;115
2024-05-18T15:11:07.759;599616475082200044;9067.975;63
2024-05-18T15:11:07.767;599616475089891416;9075.667;-51
2024-05-18T15:11:07.775;599616475097582788;9083.358;-61
2024-05-18T15:11:07.783;599616475105274160;9091.05;-4
2024-05-18T15:11:07.790;599616475112965532;9098.741;-4
2024-05-18T15:11:07.798;599616475120656904;9106.432;-21
2024-05-18T15:11:07.806;599616475128348276;9114.123;-14
2024-05-18T15:11:07.813;599616475136039648;9121.814;2
2024-05-18T15:11:07.821;599616475143731020;9129.506;23
2024-05-18T15:11:07.829;599616475151422392;9137.197;44
2024-05-18T15:11:07.836;599616475159113764;9144.89;68
2024-05-18T15:11:07.844;599616475166805136;9152.581;89
2024-05-18T15:11:07.852;599616475174496508;9160.271;94
2024-05-18T15:11:07.859;599616475182187880;9167.963;103
2024-05-18T15:11:07.867;599616475189879252;9175.654;125
2024-05-18T15:11:07.875;599616475197570624;9183.346;148
2024-05-18T15:11:07.883;599616475205261996;9191.037;162
2024-05-18T15:11:07.890;599616475212953368;9198.729;167
2024-05-18T15:11:07.898;599616475220644740;9206.42;155
2024-05-18T15:11:07.906;599616475228336112;9214.11;118
2024-05-18T15:11:07.913;599616475236027484;9221.803;92
2024-05-18T15:11:07.921;599616475243718856;9229.494;108
2024-05-18T15:11:07.929;599616475251410228;9237.186;136
2024-05-18T15:11:07.936;599616475259101600;9244.877;148
2024-05-18T15:11:07.944;599616475266792972;9252.568;141
2024-05-18T15:11:07.952;599616475274484344;9260.26;141
2024-05-18T15:11:07.959;599616475282175716;9267.95;172
2024-05-18T15:11:07.967;599616475289867088;9275.642;202
2024-05-18T15:11:07.975;599616475297558460;9283.333;205
2024-05-18T15:11:07.983;599616475305249832;9291.025;195
2024-05-18T15:11:07.990;599616475312941204;9298.717;202
2024-05-18T15:11:07.998;599616475320632576;9306.408;217
2024-05-18T15:11:08.006;599616475328323948;9314.1;224
2024-05-18T15:11:08.013;599616475336015320;9321.79;240
2024-05-18T15:11:08.021;599616475343706692;9329.481;266
2024-05-18T15:11:08.029;599616475351398064;9337.173;259
2024-05-18T15:11:08.036;599616475359089436;9344.864;202
2024-05-18T15:11:08.044;599616475366780808;9352.556;158
2024-05-18T15:11:08.052;599616475374472180;9360.247;172
2024-05-18T15:11:08.059;599616475382163552;9367.939;188
2024-05-18T15:11:08.067;599616475389854924;9375.63;167
2024-05-18T15:11:08.075;599616475397546296;9383.321;165
2024-05-18T15:11:08.083;599616475405237668;9391.013;177
2024-05-18T15:11:08.090;599616475412929040;9398.704;165
2024-05-18T15:11:08.098;599616475420620412;9406.3955;146
2024-05-18T15:11:08.106;599616475428311784;9414.087;167
2024-05-18T15:11:08.113;599616475436003156;9421.778;219
2024-05-18T15:11:08.121;599616475443694528;9429.469;236
2024-05-18T15:11:08.129;599616475451385900;9437.161;205
2024-05-18T15:11:08.136;599616475459077272;9444.853;200
2024-05-18T15:11:08.144;599616475466768644;9452.544;212
2024-05-18T15:11:08.152;599616475474460016;9460.235;162
2024-05-18T15:11:08.159;599616475482151388;9467.927;106
2024-05-18T15:11:08.167;599616475489842760;9475.618;120
2024-05-18T15:11:08.175;599616475497534132;9483.309;143
2024-05-18T15:11:08.183;599616475505225504;9491.0;122
2024-05-18T15:11:08.190;599616475512916876;9498.691;120
2024-05-18T15:11:08.198;599616475520608248;9506.383;136
2024-05-18T15:11:08.206;599616475528299620;9514.075;110
2024-05-18T15:11:08.213;599616475535990992;9521.767;110
2024-05-18T15:11:08.221;599616475543682364;9529.458;346
2024-05-18T15:11:08.229;599616475551373736;9537.149;755
2024-05-18T15:11:08.236;599616475559095210;9544.87;870
2024-05-18T15:11:08.244;599616475566786164;9552.562;422
2024-05-18T15:11:08.252;599616475574477118;9560.252;-113
2024-05-18T15:11:08.259;599616475582168072;9567.942;-186
2024-05-18T15:11:08.267;599616475589859026;9575.634;-120
2024-05-18T15:11:08.275;599616475597549980;9583.325;-280
2024-05-18T15:11:08.283;599616475605240934;9591.017;-365
2024-05-18T15:11:08.290;599616475612931888;9598.707;-273
2024-05-18T15:11:08.298;599616475620622842;9606.398;-236
2024-05-18T15:11:08.306;599616475628313796;9614.089;-257
2024-05-18T15:11:08.313;599616475636004750;9621.779;-240
2024-05-18T15:11:08.321;599616475643695704;9629.471;-198
2024-05-18T15:11:08.329;599616475651386658;9637.162;-162
2024-05-18T15:11:08.336;599616475659077612;9644.853;-141
2024-05-18T15:11:08.344;599616475666768566;9652.544;-113
2024-05-18T15:11:08.352;599616475674459520;9660.234;-82
2024-05-18T15:11:08.359;599616475682150474;9667.926;-61
2024-05-18T15:11:08.367;599616475689841428;9675.616;-44
2024-05-18T15:11:08.375;599616475697532382;9683.308;-25
2024-05-18T15:11:08.382;599616475705223336;9690.999;11
2024-05-18T15:11:08.390;599616475712914290;9698.689;42
2024-05-18T15:11:08.398;599616475720605244;9706.38;30
2024-05-18T15:11:08.406;599616475728296198;9714.071;11
2024-05-18T15:11:08.413;599616475735987152;9721.762;35
2024-05-18T15:11:08.421;599616475743678106;9729.453;68
2024-05-18T15:11:08.429;599616475751369060;9737.145;80
2024-05-18T15:11:08.436;599616475759060014;9744.836;110
2024-05-18T15:11:08.444;599616475766750968;9752.525;155
2024-05-18T15:11:08.452;599616475774441922;9760.217;153
2024-05-18T15:11:08.459;599616475782132876;9767.908;139
2024-05-18T15:11:08.467;599616475789823830;9775.599;167
2024-05-18T15:11:08.475;599616475797514784;9783.29;195
2024-05-18T15:11:08.482;599616475805205738;9790.981;195
2024-05-18T15:11:08.490;599616475812896692;9798.671;181
2024-05-18T15:11:08.498;599616475820587646;9806.362;162
2024-05-18T15:11:08.506;599616475828278600;9814.054;158
2024-05-18T15:11:08.513;599616475835969554;9821.744;153
2024-05-18T15:11:08.521;599616475843660508;9829.436;139
2024-05-18T15:11:08.529;599616475851351462;9837.127;141
2024-05-18T15:11:08.536;599616475859042416;9844.818;167
2024-05-18T15:11:08.544;599616475866733370;9852.508;162
2024-05-18T15:11:08.552;599616475874424324;9860.199;143
2024-05-18T15:11:08.559;599616475882115278;9867.891;172
2024-05-18T15:11:08.567;599616475889806232;9875.581;210
2024-05-18T15:11:08.575;599616475897497186;9883.272;205
2024-05-18T15:11:08.582;599616475905188140;9890.964;200
2024-05-18T15:11:08.590;599616475912879094;9898.653;219
2024-05-18T15:11:08.598;599616475920570048;9906.345;233
2024-05-18T15:11:08.606;599616475928261002;9914.036;231
2024-05-18T15:11:08.613;599616475935951956;9921.728;231
2024-05-18T15:11:08.621;599616475943642910;9929.418;250
2024-05-18T15:11:08.629;599616475951333864;9937.109;266
2024-05-18T15:11:08.636;599616475959024818;9944.8;261
2024-05-18T15:11:08.644;599616475966715772;9952.49;228
2024-05-18T15:11:08.652;599616475974406726;9960.182;200
2024-05-18T15:11:08.659;599616475982097680;9967.873;214
2024-05-18T15:11:08.667;599616475989788634;9975.563;231
2024-05-18T15:11:08.675;599616475997479588;9983.255;214
2024-05-18T15:11:08.682;599616476005170542;9990.945;214
2024-05-18T15:11:08.690;599616476012861496;9998.637;233
2024-05-18T15:11:08.698;599616476020552450;10006.327;231
2024-05-18T15:11:08.706;599616476028243404;10014.019;228
2024-05-18T15:11:08.713;599616476035934358;10021.71;252
2024-05-18T15:11:08.721;599616476043625312;10029.4;261
2024-05-18T15:11:08.729;599616476051316266;10037.092;231
2024-05-18T15:11:08.736;599616476059007220;10044.782;221
2024-05-18T15:11:08.744;599616476066698174;10052.473;257
2024-05-18T15:11:08.752;599616476074389128;10060.164;271
2024-05-18T15:11:08.759;599616476082080082;10067.855;259
2024-05-18T15:11:08.767;599616476089771036;10075.547;221
2024-05-18T15:11:08.775;599616476097461990;10083.237;143
2024-05-18T15:11:08.782;599616476105152944;10090.928;94
2024-05-18T15:11:08.790;599616476112843898;10098.619;118
2024-05-18T15:11:08.798;599616476120524850;10106.301;146
2024-05-18T15:11:08.805;599616476128215943;10113.99;158
2024-05-18T15:11:08.813;599616476135907036;10121.682;155
2024-05-18T15:11:08.821;599616476143598129;10129.373;139
2024-05-18T15:11:08.829;599616476151289222;10137.064;153
2024-05-18T15:11:08.836;599616476158980315;10144.756;172
2024-05-18T15:11:08.844;599616476166671408;10152.447;101
2024-05-18T15:11:08.852;599616476174362501;10160.138;14
2024-05-18T15:11:08.859;599616476182053594;10167.828;23
2024-05-18T15:11:08.867;599616476189744687;10175.52;40
2024-05-18T15:11:08.875;599616476197435780;10183.211;9
2024-05-18T15:11:08.882;599616476205126873;10190.902;-9
2024-05-18T15:11:08.890;599616476212817966;10198.594;-18
2024-05-18T15:11:08.898;599616476220509059;10206.284;-37
2024-05-18T15:11:08.905;599616476228200152;10213.975;-42
2024-05-18T15:11:08.913;599616476235891245;10221.666;-44
2024-05-18T15:11:08.921;599616476243582338;10229.357;-51
2024-05-18T15:11:08.929;599616476251273431;10237.049;-35
2024-05-18T15:11:08.936;599616476258964524;10244.74;89
2024-05-18T15:11:08.944;599616476266655617;10252.431;450
2024-05-18T15:11:08.952;599616476274346710;10260.122;866
2024-05-18T15:11:08.959;599616476282037803;10267.8125;837
2024-05-18T15:11:08.967;599616476289728896;10275.504;292
2024-05-18T15:11:08.975;599616476297419989;10283.195;-94
2024-05-18T15:11:08.982;599616476305111082;10290.887;23
2024-05-18T15:11:08.990;599616476312802175;10298.577;136
2024-05-18T15:11:08.998;599616476320493268;10306.269;25
2024-05-18T15:11:09.005;599616476328184361;10313.959;-11
2024-05-18T15:11:09.013;599616476335875454;10321.65;11
2024-05-18T15:11:09.021;599616476343566547;10329.342;-25
2024-05-18T15:11:09.029;599616476351257640;10337.033;-66
2024-05-18T15:11:09.036;599616476358948733;10344.724;-73
2024-05-18T15:11:09.044;599616476366639826;10352.415;-66
2024-05-18T15:11:09.052;599616476374330919;10360.106;-75
2024-05-18T15:11:09.059;599616476382022012;10367.797;-82
2024-05-18T15:11:09.067;599616476389713105;10375.488;-61
2024-05-18T15:11:09.075;599616476397404198;10383.18;-28
2024-05-18T15:11:09.082;599616476405095291;10390.87;-16
2024-05-18T15:11:09.090;599616476412786384;10398.562;-21
2024-05-18T15:11:09.098;599616476420477477;10406.253;-16
2024-05-18T15:11:09.105;599616476428168570;10413.943;7
2024-05-18T15:11:09.113;599616476435859663;10421.635;28
2024-05-18T15:11:09.121;599616476443550756;10429.326;35
2024-05-18T15:11:09.129;599616476451241849;10437.017;47
2024-05-18T15:11:09.136;599616476458932942;10444.708;42
2024-05-18T15:11:09.144;599616476466624035;10452.399;-4
2024-05-18T15:11:09.152;599616476474315128;10460.091;-21
2024-05-18T15:11:09.159;599616476482006221;10467.781;28
2024-05-18T15:11:09.167;599616476489697314;10475.473;75
2024-05-18T15:11:09.175;599616476497388407;10483.163;80
2024-05-18T15:11:09.182;599616476505079500;10490.8545;82
2024-05-18T15:11:09.190;599616476512770593;10498.546;94
2024-05-18T15:11:09.198;599616476520461686;10506.237;101
2024-05-18T15:11:09.205;599616476528152779;10513.928;103
2024-05-18T15:11:09.213;599616476535843872;10521.619;106
2024-05-18T15:11:09.221;599616476543534965;10529.31;103
2024-05-18T15:11:09.229;599616476551226058;10537.001;94
2024-05-18T15:11:09.236;599616476558917151;10544.692;68
2024-05-18T15:11:09.244;599616476566608244;10552.384;56
2024-05-18T15:11:09.252;599616476574299337;10560.075;77
2024-05-18T15:11:09.259;599616476581990430;10567.766;101
2024-05-18T15:11:09.267;599616476589681523;10575.456;92
2024-05-18T15:11:09.275;599616476597372616;10583.147;28
2024-05-18T15:11:09.282;599616476605063709;10590.839;-42
2024-05-18T15:11:09.290;599616476612754802;10598.53;-42
2024-05-18T15:11:09.298;599616476620445895;10606.222;-4
2024-05-18T15:11:09.305;599616476628136988;10613.912;16
2024-05-18T15:11:09.313;599616476635828081;10621.603;49
2024-05-18T15:11:09.321;599616476643519174;10629.294;75
2024-05-18T15:11:09.328;599616476651210267;10636.985;63
2024-05-18T15:11:09.336;599616476658901360;10644.677;70
2024-05-18T15:11:09.344;599616476666592453;10652.368;120
2024-05-18T15:11:09.352;599616476674283546;10660.06;139
2024-05-18T15:11:09.359;599616476681964660;10667.74;129
2024-05-18T15:11:09.367;599616476689655892;10675.432;143
2024-05-18T15:11:09.375;599616476697347124;10683.123;153
2024-05-18T15:11:09.382;599616476705038356;10690.8125;127
2024-05-18T15:11:09.390;599616476712729588;10698.504;115
2024-05-18T15:11:09.398;599616476720420820;10706.195;148
2024-05-18T15:11:09.405;599616476728112052;10713.887;177
2024-05-18T15:11:09.413;599616476735803284;10721.578;167
2024-05-18T15:11:09.421;599616476743494516;10729.27;151
2024-05-18T15:11:09.428;599616476751185748;10736.961;165
2024-05-18T15:11:09.436;599616476758876980;10744.651;191
2024-05-18T15:11:09.444;599616476766568212;10752.343;160
2024-05-18T15:11:09.452;599616476774259444;10760.034;99
2024-05-18T15:11:09.459;599616476781950676;10767.726;103
2024-05-18T15:11:09.467;599616476789641908;10775.417;136
2024-05-18T15:11:09.475;599616476797333140;10783.108;125
2024-05-18T15:11:09.482;599616476805024372;10790.8;125
2024-05-18T15:11:09.490;599616476812715604;10798.49;165
2024-05-18T15:11:09.498;599616476820406836;10806.182;191
2024-05-18T15:11:09.505;599616476828098068;10813.873;179
2024-05-18T15:11:09.513;599616476835789300;10821.564;167
2024-05-18T15:11:09.521;599616476843480532;10829.256;188
2024-05-18T15:11:09.528;599616476851171764;10836.947;212
2024-05-18T15:11:09.536;599616476858862996;10844.639;210
2024-05-18T15:11:09.544;599616476866554228;10852.329;210
2024-05-18T15:11:09.552;599616476874245460;10860.0205;224
2024-05-18T15:11:09.559;599616476881936692;10867.712;228
2024-05-18T15:11:09.567;599616476889627924;10875.403;236
2024-05-18T15:11:09.575;599616476897319156;10883.095;264
2024-05-18T15:11:09.582;599616476905010388;10890.786;287
2024-05-18T15:11:09.590;599616476912701620;10898.478;297
2024-05-18T15:11:09.598;599616476920392852;10906.168;283
2024-05-18T15:11:09.605;599616476928084084;10913.859;259
2024-05-18T15:11:09.613;599616476935775316;10921.551;261
2024-05-18T15:11:09.621;599616476943466548;10929.242;278
2024-05-18T15:11:09.628;599616476951157780;10936.933;236
2024-05-18T15:11:09.636;599616476958849012;10944.624;155
2024-05-18T15:11:09.644;599616476966540244;10952.314;127
2024-05-18T15:11:09.652;599616476974231476;10960.006;113
2024-05-18T15:11:09.659;599616476981922708;10967.697;70
2024-05-18T15:11:09.667;599616476989613940;10975.389;129
2024-05-18T15:11:09.675;599616476997305172;10983.08;436
2024-05-18T15:11:09.682;599616477004996404;10990.771;866
2024-05-18T15:11:09.690;599616477012687636;10998.463;998
2024-05-18T15:11:09.698;599616477020378868;11006.153;573
2024-05-18T15:11:09.705;599616477028070100;11013.845;51
2024-05-18T15:11:09.713;599616477035761332;11021.536;-9
2024-05-18T15:11:09.721;599616477043452564;11029.228;132
2024-05-18T15:11:09.728;599616477051143796;11036.919;99
2024-05-18T15:11:09.736;599616477058835028;11044.61;56
2024-05-18T15:11:09.744;599616477066526260;11052.302;80
2024-05-18T15:11:09.751;599616477074217492;11059.992;70
2024-05-18T15:11:09.759;599616477081908724;11067.684;84
2024-05-18T15:11:09.767;599616477089599956;11075.375;134
2024-05-18T15:11:09.775;599616477097291188;11083.066;136
2024-05-18T15:11:09.782;599616477104982420;11090.758;66
2024-05-18T15:11:09.790;599616477112673652;11098.449;2
2024-05-18T15:11:09.798;599616477120364884;11106.141;9
2024-05-18T15:11:09.805;599616477128056116;11113.831;9
2024-05-18T15:11:09.813;599616477135747348;11121.522;-21
2024-05-18T15:11:09.821;599616477143438580;11129.214;-21
2024-05-18T15:11:09.828;599616477151129812;11136.905;-37
2024-05-18T15:11:09.836;599616477158821044;11144.597;-84
2024-05-18T15:11:09.844;599616477166512276;11152.288;-82
2024-05-18T15:11:09.851;599616477174203508;11159.9795;-35
2024-05-18T15:11:09.859;599616477181894740;11167.67;-4
2024-05-18T15:11:09.867;599616477189585972;11175.361;4
2024-05-18T15:11:09.875;599616477197277204;11183.052;-16
2024-05-18T15:11:09.882;599616477204968436;11190.743;-51
2024-05-18T15:11:09.890;599616477212659668;11198.435;-47
2024-05-18T15:11:09.898;599616477220350900;11206.126;-14
2024-05-18T15:11:09.905;599616477228042132;11213.816;7
2024-05-18T15:11:09.913;599616477235733364;11221.508;23
2024-05-18T15:11:09.921;599616477243444668;11229.22;35
2024-05-18T15:11:09.928;599616477251135622;11236.911;16
2024-05-18T15:11:09.936;599616477258826576;11244.602;7
2024-05-18T15:11:09.944;599616477266517530;11252.293;35
2024-05-18T15:11:09.951;599616477274208484;11259.983;40
2024-05-18T15:11:09.959;599616477281899438;11267.674;11
2024-05-18T15:11:09.967;599616477289590392;11275.365;0
2024-05-18T15:11:09.975;599616477297281346;11283.057;-7
2024-05-18T15:11:09.982;599616477304972300;11290.747;-47
2024-05-18T15:11:09.990;599616477312663254;11298.438;-99
2024-05-18T15:11:09.998;599616477320354208;11306.13;-92
2024-05-18T15:11:10.005;599616477328045162;11313.82;-44
2024-05-18T15:11:10.013;599616477335736116;11321.511;-35
2024-05-18T15:11:10.021;599616477343427070;11329.202;-51
2024-05-18T15:11:10.028;599616477351118024;11336.894;-33
2024-05-18T15:11:10.036;599616477358808978;11344.584;9
2024-05-18T15:11:10.044;599616477366499932;11352.275;33
2024-05-18T15:11:10.051;599616477374190886;11359.966;40
2024-05-18T15:11:10.059;599616477381881840;11367.656;59
2024-05-18T15:11:10.067;599616477389572794;11375.348;75
2024-05-18T15:11:10.075;599616477397263748;11383.039;70
2024-05-18T15:11:10.082;599616477404954702;11390.73;77
2024-05-18T15:11:10.090;599616477412645656;11398.421;110
2024-05-18T15:11:10.098;599616477420336610;11406.111;134
2024-05-18T15:11:10.105;599616477428027564;11413.803;129
2024-05-18T15:11:10.113;599616477435718518;11421.493;108
2024-05-18T15:11:10.121;599616477443409472;11429.185;80
2024-05-18T15:11:10.128;599616477451100426;11436.876;66
2024-05-18T15:11:10.136;599616477458791380;11444.566;70
2024-05-18T15:11:10.144;599616477466482334;11452.257;89
2024-05-18T15:11:10.151;599616477474173288;11459.948;103
2024-05-18T15:11:10.159;599616477481864242;11467.64;103
2024-05-18T15:11:10.167;599616477489555196;11475.33;99
2024-05-18T15:11:10.175;599616477497246150;11483.021;122
2024-05-18T15:11:10.182;599616477504937104;11490.713;162
2024-05-18T15:11:10.190;599616477512628058;11498.402;179
2024-05-18T15:11:10.198;599616477520319012;11506.094;165
2024-05-18T15:11:10.205;599616477528009966;11513.785;158
2024-05-18T15:11:10.213;599616477535700920;11521.476;179
2024-05-18T15:11:10.221;599616477543391874;11529.167;200
2024-05-18T15:11:10.228;599616477551082828;11536.858;202
2024-05-18T15:11:10.236;599616477558773782;11544.55;210
2024-05-18T15:11:10.244;599616477566464736;11552.239;228
2024-05-18T15:11:10.251;599616477574155690;11559.931;226
2024-05-18T15:11:10.259;599616477581846644;11567.622;207
2024-05-18T15:11:10.267;599616477589537598;11575.3125;219
2024-05-18T15:11:10.275;599616477597228552;11583.004;245
2024-05-18T15:11:10.282;599616477604919506;11590.695;205
2024-05-18T15:11:10.290;599616477612610460;11598.385;120
2024-05-18T15:11:10.298;599616477620301414;11606.076;94
2024-05-18T15:11:10.305;599616477627992368;11613.768;132
2024-05-18T15:11:10.313;599616477635683322;11621.458;162
2024-05-18T15:11:10.321;599616477643374276;11629.149;179
2024-05-18T15:11:10.328;599616477651065230;11636.841;207
2024-05-18T15:11:10.336;599616477658756184;11644.531;219
2024-05-18T15:11:10.344;599616477666447138;11652.222;205
2024-05-18T15:11:10.351;599616477674138092;11659.913;193
2024-05-18T15:11:10.359;599616477681829046;11667.6045;198
2024-05-18T15:11:10.367;599616477689520000;11675.295;181
2024-05-18T15:11:10.374;599616477697210954;11682.986;132
2024-05-18T15:11:10.382;599616477704901908;11690.678;118
2024-05-18T15:11:10.390;599616477712592862;11698.367;139
2024-05-18T15:11:10.398;599616477720283816;11706.059;143
2024-05-18T15:11:10.405;599616477727974770;11713.75;118
2024-05-18T15:11:10.413;599616477735665724;11721.441;84
2024-05-18T15:11:10.421;599616477743356678;11729.132;174
2024-05-18T15:11:10.428;599616477751047632;11736.823;516
2024-05-18T15:11:10.436;599616477758738586;11744.514;901
2024-05-18T15:11:10.444;599616477766429540;11752.204;859
2024-05-18T15:11:10.451;599616477774120494;11759.8955;335
2024-05-18T15:11:10.459;599616477781811448;11767.587;-54
2024-05-18T15:11:10.467;599616477789502402;11775.277;25
2024-05-18T15:11:10.474;599616477797193356;11782.969;122
2024-05-18T15:11:10.482;599616477804854218;11790.629;28
2024-05-18T15:11:10.490;599616477812545590;11798.321;14
2024-05-18T15:11:10.498;599616477820236962;11806.013;68
2024-05-18T15:11:10.505;599616477827928334;11813.704;66
2024-05-18T15:11:10.513;599616477835619706;11821.395;80
2024-05-18T15:11:10.521;599616477843311078;11829.086;106
2024-05-18T15:11:10.528;599616477851002450;11836.777;87
2024-05-18T15:11:10.536;599616477858693822;11844.469;84
2024-05-18T15:11:10.544;599616477866385194;11852.16;125
2024-05-18T15:11:10.551;599616477874076566;11859.852;120
2024-05-18T15:11:10.559;599616477881767938;11867.543;59
2024-05-18T15:11:10.567;599616477889459310;11875.234;51
2024-05-18T15:11:10.574;599616477897150682;11882.926;82
2024-05-18T15:11:10.582;599616477904842054;11890.617;61
2024-05-18T15:11:10.590;599616477912533426;11898.309;21
2024-05-18T15:11:10.597;599616477920224798;11906.0;28
2024-05-18T15:11:10.605;599616477927916170;11913.691;23
2024-05-18T15:11:10.613;599616477935607542;11921.383;-51
2024-05-18T15:11:10.621;599616477943298914;11929.073;-106
2024-05-18T15:11:10.628;599616477950990286;11936.765;-73
2024-05-18T15:11:10.636;599616477958681658;11944.457;-35
2024-05-18T15:11:10.644;599616477966373030;11952.148;-35
2024-05-18T15:11:10.651;599616477974064402;11959.84;-21
2024-05-18T15:11:10.659;599616477981755774;11967.531;0
2024-05-18T15:11:10.667;599616477989447146;11975.223;-4
2024-05-18T15:11:10.674;599616477997138518;11982.913;-14
2024-05-18T15:11:10.682;599616478004829890;11990.6045;-4
2024-05-18T15:11:10.690;599616478012521262;11998.296;11
2024-05-18T15:11:10.697;599616478020212634;12005.987;9
2024-05-18T15:11:10.705;599616478027904006;12013.679;-16
2024-05-18T15:11:10.713;599616478035595378;12021.371;-59
2024-05-18T15:11:10.721;599616478043286750;12029.0625;-66
2024-05-18T15:11:10.728;599616478050978122;12036.753;-40
2024-05-18T15:11:10.736;599616478058669494;12044.444;-40
2024-05-18T15:11:10.744;599616478066360866;12052.136;-44
2024-05-18T15:11:10.751;599616478074052238;12059.827;-25
2024-05-18T15:11:10.759;599616478081743610;12067.519;-18
2024-05-18T15:11:10.767;599616478089434982;12075.21;-18
2024-05-18T15:11:10.774;599616478097126354;12082.901;-4
2024-05-18T15:11:10.782;599616478104817726;12090.594;-18
2024-05-18T15:11:10.790;599616478112509098;12098.284;-89
2024-05-18T15:11:10.797;599616478120200470;12105.976;-125
2024-05-18T15:11:10.805;599616478127891842;12113.667;-94
2024-05-18T15:11:10.813;599616478135583214;12121.358;-59
2024-05-18T15:11:10.821;599616478143274586;12129.05;-44
2024-05-18T15:11:10.828;599616478150965958;12136.741;-33
2024-05-18T15:11:10.836;599616478158657330;12144.432;-2
2024-05-18T15:11:10.844;599616478166348702;12152.123;28
2024-05-18T15:11:10.851;599616478174040074;12159.814;30
2024-05-18T15:11:10.859;599616478181731446;12167.507;7
2024-05-18T15:11:10.867;599616478189422818;12175.198;-2
2024-05-18T15:11:10.874;599616478197114190;12182.89;21
2024-05-18T15:11:10.882;599616478204805562;12190.581;44
2024-05-18T15:11:10.890;599616478212496934;12198.272;42
2024-05-18T15:11:10.897;599616478220188306;12205.963;49
2024-05-18T15:11:10.905;599616478227879678;12213.654;73
2024-05-18T15:11:10.913;599616478235571050;12221.346;84
2024-05-18T15:11:10.921;599616478243262422;12229.037;87
2024-05-18T15:11:10.928;599616478250953794;12236.7295;118
2024-05-18T15:11:10.936;599616478258645166;12244.421;146
2024-05-18T15:11:10.944;599616478266336538;12252.112;129
2024-05-18T15:11:10.951;599616478274027910;12259.803;120
2024-05-18T15:11:10.959;599616478281719282;12267.494;158
2024-05-18T15:11:10.967;599616478289410654;12275.186;191
2024-05-18T15:11:10.974;599616478297102026;12282.877;188
2024-05-18T15:11:10.982;599616478304793398;12290.568;181
2024-05-18T15:11:10.990;599616478312484770;12298.26;188
2024-05-18T15:11:10.997;599616478320176142;12305.951;200
2024-05-18T15:11:11.005;599616478327867514;12313.643;205
2024-05-18T15:11:11.013;599616478335558886;12321.334;212
2024-05-18T15:11:11.021;599616478343250258;12329.025;240
2024-05-18T15:11:11.028;599616478350941630;12336.717;243
2024-05-18T15:11:11.036;599616478358633002;12344.408;217
2024-05-18T15:11:11.044;599616478366354478;12352.13;217
2024-05-18T15:11:11.051;599616478374045432;12359.82;247
2024-05-18T15:11:11.059;599616478381736386;12367.512;259
2024-05-18T15:11:11.067;599616478389427340;12375.203;250
2024-05-18T15:11:11.074;599616478397118294;12382.893;238
2024-05-18T15:11:11.082;599616478404809248;12390.584;231
2024-05-18T15:11:11.090;599616478412500202;12398.275;219
2024-05-18T15:11:11.097;599616478420191156;12405.966;184
2024-05-18T15:11:11.105;599616478427882110;12413.657;132
2024-05-18T15:11:11.113;599616478435573064;12421.349;108
2024-05-18T15:11:11.121;599616478443264018;12429.039;118
2024-05-18T15:11:11.128;599616478450954972;12436.7295;101
2024-05-18T15:11:11.136;599616478458645926;12444.421;87
2024-05-18T15:11:11.144;599616478466336880;12452.112;120
2024-05-18T15:11:11.151;599616478474027834;12459.803;148
2024-05-18T15:11:11.159;599616478481718788;12467.494;148
2024-05-18T15:11:11.167;599616478489409742;12475.186;153
2024-05-18T15:11:11.174;599616478497100696;12482.875;134
2024-05-18T15:11:11.182;599616478504791650;12490.566;68
2024-05-18T15:11:11.190;599616478512482604;12498.258;25
2024-05-18T15:11:11.197;599616478520173558;12505.948;120
2024-05-18T15:11:11.205;599616478527864512;12513.64;446
2024-05-18T15:11:11.213;599616478535555466;12521.331;863
2024-05-18T15:11:11.221;599616478543246420;12529.021;922
2024-05-18T15:11:11.228;599616478550937374;12536.712;443
2024-05-18T15:11:11.236;599616478558628328;12544.403;-23
2024-05-18T15:11:11.244;599616478566319282;12552.095;-7
2024-05-18T15:11:11.251;599616478574010236;12559.785;129
2024-05-18T15:11:11.259;599616478581701190;12567.477;66
2024-05-18T15:11:11.267;599616478589392144;12575.168;18
2024-05-18T15:11:11.274;599616478597083098;12582.857;63
2024-05-18T15:11:11.282;599616478604774052;12590.549;70
2024-05-18T15:11:11.290;599616478612465006;12598.24;37
2024-05-18T15:11:11.297;599616478620155960;12605.932;-11
2024-05-18T15:11:11.305;599616478627846914;12613.622;-61
2024-05-18T15:11:11.313;599616478635537868;12621.313;-63
2024-05-18T15:11:11.321;599616478643228822;12629.004;-21
2024-05-18T15:11:11.328;599616478650919776;12636.694;16
2024-05-18T15:11:11.336;599616478658610730;12644.386;25
2024-05-18T15:11:11.344;599616478666301684;12652.077;14
2024-05-18T15:11:11.351;599616478673992638;12659.768;-37
2024-05-18T15:11:11.359;599616478681683592;12667.459;-113
2024-05-18T15:11:11.367;599616478689374546;12675.149;-151
2024-05-18T15:11:11.374;599616478697065500;12682.841;-151
2024-05-18T15:11:11.382;599616478704756454;12690.531;-132
2024-05-18T15:11:11.390;599616478712447408;12698.223;-110
2024-05-18T15:11:11.397;599616478720138362;12705.914;-108
2024-05-18T15:11:11.405;599616478727829316;12713.6045;-110
2024-05-18T15:11:11.413;599616478735520270;12721.295;-80
2024-05-18T15:11:11.420;599616478743211224;12728.986;-42
2024-05-18T15:11:11.428;599616478750902178;12736.677;-33
2024-05-18T15:11:11.436;599616478758593132;12744.368;-25
2024-05-18T15:11:11.444;599616478766284086;12752.06;-2
2024-05-18T15:11:11.451;599616478773975040;12759.75;-4
2024-05-18T15:11:11.459;599616478781665994;12767.44;-14
2024-05-18T15:11:11.467;599616478789356948;12775.132;4
2024-05-18T15:11:11.474;599616478797047902;12782.823;25
2024-05-18T15:11:11.482;599616478804738856;12790.514;9
2024-05-18T15:11:11.490;599616478812429810;12798.205;-21
2024-05-18T15:11:11.497;599616478820120764;12805.896;-35
2024-05-18T15:11:11.505;599616478827811718;12813.587;-30
2024-05-18T15:11:11.513;599616478835502672;12821.277;-18
2024-05-18T15:11:11.520;599616478843193626;12828.969;-11
2024-05-18T15:11:11.528;599616478850884580;12836.659;7
2024-05-18T15:11:11.536;599616478858575534;12844.351;25
2024-05-18T15:11:11.544;599616478866266488;12852.042;21
2024-05-18T15:11:11.551;599616478873957442;12859.733;25
2024-05-18T15:11:11.559;599616478881648396;12867.423;61
2024-05-18T15:11:11.567;599616478889339350;12875.114;84
2024-05-18T15:11:11.574;599616478897030304;12882.806;92
2024-05-18T15:11:11.582;599616478904721258;12890.496;96
2024-05-18T15:11:11.590;599616478912412212;12898.1875;96
2024-05-18T15:11:11.597;599616478920103166;12905.879;68
2024-05-18T15:11:11.605;599616478927789156;12913.564;30
2024-05-18T15:11:11.613;599616478935480179;12921.255;35
2024-05-18T15:11:11.620;599616478943171202;12928.946;73
2024-05-18T15:11:11.628;599616478950862225;12936.638;75
2024-05-18T15:11:11.636;599616478958553248;12944.329;11
2024-05-18T15:11:11.644;599616478966244271;12952.019;-35
2024-05-18T15:11:11.651;599616478973935294;12959.71;2
2024-05-18T15:11:11.659;599616478981626317;12967.401;40
2024-05-18T15:11:11.667;599616478989317340;12975.093;42
2024-05-18T15:11:11.674;599616478997008363;12982.783;51
2024-05-18T15:11:11.682;599616479004699386;12990.475;68
2024-05-18T15:11:11.690;599616479012390409;12998.165;75
2024-05-18T15:11:11.697;599616479020081432;13005.856;87
2024-05-18T15:11:11.705;599616479027772455;13013.548;110
2024-05-18T15:11:11.713;599616479035463478;13021.238;132
2024-05-18T15:11:11.720;599616479043154501;13028.93;134
2024-05-18T15:11:11.728;599616479050845524;13036.621;120
2024-05-18T15:11:11.736;599616479058536547;13044.3125;127
2024-05-18T15:11:11.744;599616479066227570;13052.002;158
2024-05-18T15:11:11.751;599616479073918593;13059.693;174
2024-05-18T15:11:11.759;599616479081609616;13067.385;172
2024-05-18T15:11:11.767;599616479089300639;13075.076;181
2024-05-18T15:11:11.774;599616479096991662;13082.767;188
2024-05-18T15:11:11.782;599616479104682685;13090.458;191
2024-05-18T15:11:11.790;599616479112373708;13098.148;181
2024-05-18T15:11:11.797;599616479120064731;13105.84;132
2024-05-18T15:11:11.805;599616479127755754;13113.53;73
2024-05-18T15:11:11.813;599616479135446777;13121.222;66
2024-05-18T15:11:11.820;599616479143137800;13128.913;70
2024-05-18T15:11:11.828;599616479150828823;13136.6045;70
2024-05-18T15:11:11.836;599616479158519846;13144.296;103
2024-05-18T15:11:11.843;599616479166210869;13151.985;108
2024-05-18T15:11:11.851;599616479173901892;13159.677;92
2024-05-18T15:11:11.859;599616479181592915;13167.368;120
2024-05-18T15:11:11.867;599616479189283938;13175.06;143
2024-05-18T15:11:11.874;599616479196974961;13182.75;132
2024-05-18T15:11:11.882;599616479204665984;13190.441;136
2024-05-18T15:11:11.890;599616479212357007;13198.132;158
2024-05-18T15:11:11.897;599616479220048030;13205.823;172
2024-05-18T15:11:11.905;599616479227739053;13213.514;143
2024-05-18T15:11:11.913;599616479235430076;13221.205;94
2024-05-18T15:11:11.920;599616479243121099;13228.896;89
2024-05-18T15:11:11.928;599616479250812122;13236.588;115
2024-05-18T15:11:11.936;599616479258503145;13244.277;96
2024-05-18T15:11:11.943;599616479266194168;13251.969;66
2024-05-18T15:11:11.951;599616479273885191;13259.66;148
2024-05-18T15:11:11.959;599616479281576214;13267.352;453
2024-05-18T15:11:11.967;599616479289267237;13275.043;859
2024-05-18T15:11:11.974;599616479296958260;13282.733;960
2024-05-18T15:11:11.982;599616479304649283;13290.425;523
2024-05-18T15:11:11.990;599616479312340306;13298.115;30
2024-05-18T15:11:11.997;599616479320031329;13305.807;14
2024-05-18T15:11:12.005;599616479327722352;13313.497;151
2024-05-18T15:11:12.013;599616479335413375;13321.188;96
2024-05-18T15:11:12.020;599616479343104398;13328.88;61
2024-05-18T15:11:12.028;599616479350795421;13336.571;118
2024-05-18T15:11:12.036;599616479358486444;13344.261;134
2024-05-18T15:11:12.043;599616479366177467;13351.952;134
2024-05-18T15:11:12.051;599616479373868490;13359.644;136
2024-05-18T15:11:12.059;599616479381559513;13367.335;127
2024-05-18T15:11:12.067;599616479389250536;13375.025;139
2024-05-18T15:11:12.074;599616479396941559;13382.717;162
2024-05-18T15:11:12.082;599616479404632582;13390.407;139
2024-05-18T15:11:12.090;599616479412323605;13398.099;73
2024-05-18T15:11:12.097;599616479420014628;13405.79;-7
2024-05-18T15:11:12.105;599616479427705651;13413.48;-40
2024-05-18T15:11:12.113;599616479435396674;13421.172;-25
2024-05-18T15:11:12.120;599616479443087697;13428.863;-21
2024-05-18T15:11:12.128;599616479450778720;13436.555;-11
2024-05-18T15:11:12.136;599616479458469743;13444.244;23
2024-05-18T15:11:12.143;599616479466160766;13451.936;28
2024-05-18T15:11:12.151;599616479473851789;13459.627;11
2024-05-18T15:11:12.159;599616479481542812;13467.318;35
2024-05-18T15:11:12.166;599616479489213800;13474.989;75
2024-05-18T15:11:12.174;599616479496905102;13482.681;80
2024-05-18T15:11:12.182;599616479504596404;13490.372;75
2024-05-18T15:11:12.190;599616479512287706;13498.0625;82
2024-05-18T15:11:12.197;599616479519979008;13505.754;77
2024-05-18T15:11:12.205;599616479527670310;13513.445;40
2024-05-18T15:11:12.213;599616479535361612;13521.137;-4
2024-05-18T15:11:12.220;599616479543052914;13528.828;4
2024-05-18T15:11:12.228;599616479550744216;13536.52;16
2024-05-18T15:11:12.236;599616479558435518;13544.21;-30
2024-05-18T15:11:12.243;599616479566126820;13551.901;-61
2024-05-18T15:11:12.251;599616479573818122;13559.593;-30
2024-05-18T15:11:12.259;599616479581509424;13567.284;-7
2024-05-18T15:11:12.266;599616479589200726;13574.976;-23
2024-05-18T15:11:12.274;599616479596892028;13582.667;-30
2024-05-18T15:11:12.282;599616479604583330;13590.358;-7
2024-05-18T15:11:12.290;599616479612274632;13598.049;14
2024-05-18T15:11:12.297;599616479619965934;13605.74;-9
2024-05-18T15:11:12.305;599616479627657236;13613.432;-66
2024-05-18T15:11:12.313;599616479635348538;13621.124;-63
2024-05-18T15:11:12.320;599616479643039840;13628.815;-18
2024-05-18T15:11:12.328;599616479650731142;13636.507;-28
2024-05-18T15:11:12.336;599616479658422444;13644.198;-66
2024-05-18T15:11:12.343;599616479666113746;13651.889;-70
2024-05-18T15:11:12.351;599616479673805048;13659.58;-44
2024-05-18T15:11:12.359;599616479681496350;13667.271;-21
2024-05-18T15:11:12.366;599616479689187652;13674.963;-7
2024-05-18T15:11:12.374;599616479696878954;13682.654;7
2024-05-18T15:11:12.382;599616479704570256;13690.346;23
2024-05-18T15:11:12.390;599616479712261558;13698.037;33
2024-05-18T15:11:12.397;599616479719952860;13705.728;51
2024-05-18T15:11:12.405;599616479727644162;13713.419;84
2024-05-18T15:11:12.413;599616479735335464;13721.11;99
2024-05-18T15:11:12.420;599616479743026766;13728.802;87
2024-05-18T15:11:12.428;599616479750718068;13736.493;94
2024-05-18T15:11:12.436;599616479758409370;13744.185;122
2024-05-18T15:11:12.443;599616479766100672;13751.876;141
2024-05-18T15:11:12.451;599616479773791974;13759.566;151
2024-05-18T15:11:12.459;599616479781483276;13767.258;165
2024-05-18T15:11:12.466;599616479789174578;13774.949;167
2024-05-18T15:11:12.474;599616479796865880;13782.641;167
2024-05-18T15:11:12.482;599616479804557182;13790.332;181
2024-05-18T15:11:12.490;599616479812248484;13798.023;202
2024-05-18T15:11:12.497;599616479819939786;13805.715;224
2024-05-18T15:11:12.505;599616479827631088;13813.405;224
2024-05-18T15:11:12.513;599616479835322390;13821.098;207
2024-05-18T15:11:12.520;599616479843013692;13828.789;212
2024-05-18T15:11:12.528;599616479850704994;13836.48;238
2024-05-18T15:11:12.536;599616479858396296;13844.172;243
2024-05-18T15:11:12.543;599616479866087598;13851.863;236
2024-05-18T15:11:12.551;599616479873778900;13859.555;240
2024-05-18T15:11:12.559;599616479881470202;13867.245;240
2024-05-18T15:11:12.566;599616479889161504;13874.937;247
2024-05-18T15:11:12.574;599616479896852806;13882.628;273
2024-05-18T15:11:12.582;599616479904544108;13890.319;266
2024-05-18T15:11:12.590;599616479912235410;13898.011;221
2024-05-18T15:11:12.597;599616479919926712;13905.702;198
2024-05-18T15:11:12.605;599616479927618014;13913.394;193
2024-05-18T15:11:12.613;599616479935309316;13921.084;191
2024-05-18T15:11:12.620;599616479943000618;13928.775;193
2024-05-18T15:11:12.628;599616479950691920;13936.467;167
2024-05-18T15:11:12.636;599616479958383222;13944.158;141
2024-05-18T15:11:12.643;599616479966074524;13951.85;151
2024-05-18T15:11:12.651;599616479973765826;13959.541;141
2024-05-18T15:11:12.659;599616479981457128;13967.232;94
2024-05-18T15:11:12.666;599616479989148430;13974.923;87
2024-05-18T15:11:12.674;599616479996839732;13982.614;221
2024-05-18T15:11:12.682;599616480004531034;13990.306;575
2024-05-18T15:11:12.689;599616480012222336;13997.997;969
2024-05-18T15:11:12.697;599616480019913638;14005.688;951
2024-05-18T15:11:12.705;599616480027604940;14013.38;417
2024-05-18T15:11:12.713;599616480035296242;14021.071;-9
2024-05-18T15:11:12.720;599616480042987544;14028.763;56
2024-05-18T15:11:12.728;599616480050673838;14036.449;172
2024-05-18T15:11:12.736;599616480058365210;14044.141;89
2024-05-18T15:11:12.743;599616480066056582;14051.832;59
2024-05-18T15:11:12.751;599616480073747954;14059.523;96
2024-05-18T15:11:12.759;599616480081439326;14067.214;106
2024-05-18T15:11:12.766;599616480089130698;14074.905;122
2024-05-18T15:11:12.774;599616480096822070;14082.597;141
2024-05-18T15:11:12.782;599616480104513442;14090.288;134
2024-05-18T15:11:12.789;599616480112204814;14097.9795;120
2024-05-18T15:11:12.797;599616480119896186;14105.672;103
2024-05-18T15:11:12.805;599616480127587558;14113.363;37
2024-05-18T15:11:12.813;599616480135278930;14121.055;-66
2024-05-18T15:11:12.820;599616480142970302;14128.745;-120
2024-05-18T15:11:12.828;599616480150661674;14136.437;-155
2024-05-18T15:11:12.836;599616480158353046;14144.128;-269
2024-05-18T15:11:12.843;599616480166044418;14151.819;-332
2024-05-18T15:11:12.851;599616480173735790;14159.511;-269
2024-05-18T15:11:12.859;599616480181427162;14167.202;-214
2024-05-18T15:11:12.866;599616480189118534;14174.895;-217
2024-05-18T15:11:12.874;599616480196809906;14182.585;-205
2024-05-18T15:11:12.882;599616480204501278;14190.276;-167
2024-05-18T15:11:12.889;599616480212192650;14197.968;-143
2024-05-18T15:11:12.897;599616480219884022;14205.659;-125
2024-05-18T15:11:12.905;599616480227575394;14213.351;-89
2024-05-18T15:11:12.913;599616480235266766;14221.042;-49
2024-05-18T15:11:12.920;599616480242958138;14228.733;-35
2024-05-18T15:11:12.928;599616480250649510;14236.424;-47
2024-05-18T15:11:12.936;599616480258340882;14244.115;-42
2024-05-18T15:11:12.943;599616480266032254;14251.808;-11
2024-05-18T15:11:12.951;599616480273723626;14259.499;-11
2024-05-18T15:11:12.959;599616480281414998;14267.19;-37
2024-05-18T15:11:12.966;599616480289106370;14274.882;-44
2024-05-18T15:11:12.974;599616480296797742;14282.573;-49
2024-05-18T15:11:12.982;599616480304489114;14290.264;-59
2024-05-18T15:11:12.989;599616480312180486;14297.955;-51
2024-05-18T15:11:12.997;599616480319871858;14305.646;-21
2024-05-18T15:11:13.005;599616480327563230;14313.338;7
2024-05-18T15:11:13.013;599616480335254602;14321.03;7
2024-05-18T15:11:13.020;599616480342945974;14328.722;2
2024-05-18T15:11:13.028;599616480350637346;14336.413;23
2024-05-18T15:11:13.036;599616480358328718;14344.104;61
2024-05-18T15:11:13.043;599616480366020090;14351.795;75
2024-05-18T15:11:13.051;599616480373711462;14359.486;80
2024-05-18T15:11:13.059;599616480381402834;14367.178;96
2024-05-18T15:11:13.066;599616480389094206;14374.869;108
2024-05-18T15:11:13.074;599616480396785578;14382.561;89
2024-05-18T15:11:13.082;599616480404476950;14390.252;66
2024-05-18T15:11:13.089;599616480412168322;14397.943;84
2024-05-18T15:11:13.097;599616480419859694;14405.635;122
2024-05-18T15:11:13.105;599616480427551066;14413.326;118
2024-05-18T15:11:13.113;599616480435242438;14421.018;101
2024-05-18T15:11:13.120;599616480442933810;14428.709;125
2024-05-18T15:11:13.128;599616480450625182;14436.4;153
2024-05-18T15:11:13.136;599616480458316554;14444.092;155
2024-05-18T15:11:13.143;599616480466007926;14451.782;160
2024-05-18T15:11:13.151;599616480473699298;14459.474;177
2024-05-18T15:11:13.159;599616480481390670;14467.166;177
2024-05-18T15:11:13.166;599616480489082042;14474.857;169
2024-05-18T15:11:13.174;599616480496773414;14482.549;181
2024-05-18T15:11:13.182;599616480504464786;14490.24;212
2024-05-18T15:11:13.189;599616480512156158;14497.932;228
2024-05-18T15:11:13.197;599616480519847530;14505.622;219
2024-05-18T15:11:13.205;599616480527538902;14513.313;210
2024-05-18T15:11:13.213;599616480535230274;14521.005;224
2024-05-18T15:11:13.220;599616480542921646;14528.696;236
2024-05-18T15:11:13.228;599616480550613018;14536.389;233
2024-05-18T15:11:13.236;599616480558304390;14544.08;245
2024-05-18T15:11:13.243;599616480565995762;14551.771;264
2024-05-18T15:11:13.251;599616480573687134;14559.462;252
2024-05-18T15:11:13.259;599616480581378506;14567.153;226
2024-05-18T15:11:13.266;599616480589069878;14574.845;240
2024-05-18T15:11:13.274;599616480596761250;14582.536;273
2024-05-18T15:11:13.282;599616480604452622;14590.228;278
2024-05-18T15:11:13.289;599616480612154082;14597.929;266
2024-05-18T15:11:13.297;599616480619845314;14605.62;252
2024-05-18T15:11:13.305;599616480627536546;14613.312;236
2024-05-18T15:11:13.313;599616480635227778;14621.003;174
2024-05-18T15:11:13.320;599616480642919010;14628.694;89
2024-05-18T15:11:13.328;599616480650610242;14636.386;68
2024-05-18T15:11:13.336;599616480658301474;14644.076;101
2024-05-18T15:11:13.343;599616480665992706;14651.768;73
2024-05-18T15:11:13.351;599616480673683938;14659.459;-7
2024-05-18T15:11:13.359;599616480681375170;14667.15;-30
2024-05-18T15:11:13.366;599616480689066402;14674.842;-21
2024-05-18T15:11:13.374;599616480696757634;14682.533;-40
2024-05-18T15:11:13.382;599616480704448866;14690.225;-51
2024-05-18T15:11:13.389;599616480712140098;14697.915;-47
2024-05-18T15:11:13.397;599616480719831330;14705.606;-37
2024-05-18T15:11:13.405;599616480727522562;14713.298;-23
2024-05-18T15:11:13.412;599616480735213794;14720.989;-9
2024-05-18T15:11:13.420;599616480742905026;14728.681;-11
2024-05-18T15:11:13.428;599616480750596258;14736.372;-30
2024-05-18T15:11:13.436;599616480758287490;14744.0625;21
2024-05-18T15:11:13.443;599616480765978722;14751.754;330
2024-05-18T15:11:13.451;599616480773669954;14759.445;811
2024-05-18T15:11:13.459;599616480781361186;14767.137;955
2024-05-18T15:11:13.466;599616480789052418;14774.827;483
2024-05-18T15:11:13.474;599616480796743650;14782.519;-54
2024-05-18T15:11:13.482;599616480804434882;14790.21;-63
2024-05-18T15:11:13.489;599616480812126114;14797.9;110
2024-05-18T15:11:13.497;599616480819817346;14805.592;44
2024-05-18T15:11:13.505;599616480827508578;14813.283;-7
2024-05-18T15:11:13.512;599616480835199810;14820.975;77
2024-05-18T15:11:13.520;599616480842891042;14828.666;89
2024-05-18T15:11:13.528;599616480850582274;14836.357;18
2024-05-18T15:11:13.536;599616480858273506;14844.049;-2
2024-05-18T15:11:13.543;599616480865964738;14851.739;7
2024-05-18T15:11:13.551;599616480873655970;14859.431;-28
2024-05-18T15:11:13.559;599616480881347202;14867.122;-75
2024-05-18T15:11:13.566;599616480889038434;14874.813;-99
2024-05-18T15:11:13.574;599616480896729666;14882.505;-136
2024-05-18T15:11:13.582;599616480904420898;14890.196;-162
2024-05-18T15:11:13.589;599616480912112130;14897.888;-146
2024-05-18T15:11:13.597;599616480919803362;14905.578;-118
2024-05-18T15:11:13.605;599616480927494594;14913.27;-87
2024-05-18T15:11:13.612;599616480935185826;14920.961;-73
2024-05-18T15:11:13.620;599616480942877058;14928.652;-75
2024-05-18T15:11:13.628;599616480950568290;14936.344;-49
2024-05-18T15:11:13.636;599616480958259522;14944.035;-11
2024-05-18T15:11:13.643;599616480965950754;14951.727;2
2024-05-18T15:11:13.651;599616480973641986;14959.417;18
2024-05-18T15:11:13.659;599616480981333218;14967.108;42
2024-05-18T15:11:13.666;599616480989024450;14974.8;49
2024-05-18T15:11:13.674;599616480996715682;14982.491;56
2024-05-18T15:11:13.682;599616481004406914;14990.183;77
2024-05-18T15:11:13.689;599616481012098146;14997.874;99
2024-05-18T15:11:13.697;599616481019789378;15005.564;118
2024-05-18T15:11:13.705;599616481027480610;15013.256;101
2024-05-18T15:11:13.712;599616481035171842;15020.946;21
2024-05-18T15:11:13.720;599616481042863074;15028.638;-68
2024-05-18T15:11:13.728;599616481050554306;15036.329;-143
2024-05-18T15:11:13.736;599616481058245538;15044.0205;-200
2024-05-18T15:11:13.743;599616481065936770;15051.712;-207
2024-05-18T15:11:13.751;599616481073628002;15059.402;-169
2024-05-18T15:11:13.759;599616481081319234;15067.094;-160
2024-05-18T15:11:13.766;599616481089010466;15074.785;-169
2024-05-18T15:11:13.774;599616481096701698;15082.477;-141
2024-05-18T15:11:13.782;599616481104392930;15090.168;-87
2024-05-18T15:11:13.789;599616481112084162;15097.859;-56
2024-05-18T15:11:13.797;599616481119775394;15105.551;-49
2024-05-18T15:11:13.805;599616481127466626;15113.241;-49
2024-05-18T15:11:13.812;599616481135157858;15120.933;-80
2024-05-18T15:11:13.820;599616481142849090;15128.624;-136
2024-05-18T15:11:13.828;599616481150540322;15136.315;-143
2024-05-18T15:11:13.836;599616481158231554;15144.007;-94
2024-05-18T15:11:13.843;599616481165922786;15151.698;-59
2024-05-18T15:11:13.851;599616481173624080;15159.399;-56
2024-05-18T15:11:13.859;599616481181315173;15167.091;-49
2024-05-18T15:11:13.866;599616481189006266;15174.781;-9
2024-05-18T15:11:13.874;599616481196697359;15182.473;28
2024-05-18T15:11:13.882;599616481204388452;15190.163;44
2024-05-18T15:11:13.889;599616481212079545;15197.8545;42
2024-05-18T15:11:13.897;599616481219770638;15205.546;44
2024-05-18T15:11:13.905;599616481227461731;15213.237;66
2024-05-18T15:11:13.912;599616481235152824;15220.928;61
2024-05-18T15:11:13.920;599616481242843917;15228.619;14
2024-05-18T15:11:13.928;599616481250535010;15236.31;16
2024-05-18T15:11:13.936;599616481258226103;15244.001;56
2024-05-18T15:11:13.943;599616481265917196;15251.692;54
2024-05-18T15:11:13.951;599616481273608289;15259.384;44
2024-05-18T15:11:13.959;599616481281299382;15267.074;84
2024-05-18T15:11:13.966;599616481288990475;15274.766;127
2024-05-18T15:11:13.974;599616481296681568;15282.457;125
2024-05-18T15:11:13.982;599616481304372661;15290.147;122
2024-05-18T15:11:13.989;599616481312063754;15297.839;139
2024-05-18T15:11:13.997;599616481319754847;15305.53;155
2024-05-18T15:11:14.005;599616481327445940;15313.221;169
2024-05-18T15:11:14.012;599616481335137033;15320.912;181
2024-05-18T15:11:14.020;599616481342828126;15328.604;205
2024-05-18T15:11:14.028;599616481350519219;15336.294;224
2024-05-18T15:11:14.035;599616481358210312;15343.985;210
2024-05-18T15:11:14.043;599616481365901405;15351.677;200
2024-05-18T15:11:14.051;599616481373592498;15359.367;224
2024-05-18T15:11:14.059;599616481381283591;15367.059;219
2024-05-18T15:11:14.066;599616481388974684;15374.75;172
2024-05-18T15:11:14.074;599616481396665777;15382.441;148
2024-05-18T15:11:14.082;599616481404356870;15390.132;169
2024-05-18T15:11:14.089;599616481412047963;15397.823;191
2024-05-18T15:11:14.097;599616481419739056;15405.514;184
2024-05-18T15:11:14.105;599616481427430149;15413.205;174
2024-05-18T15:11:14.112;599616481435121242;15420.896;165
2024-05-18T15:11:14.120;599616481442812335;15428.588;136
2024-05-18T15:11:14.128;599616481450503428;15436.278;113
2024-05-18T15:11:14.135;599616481458194521;15443.97;134
2024-05-18T15:11:14.143;599616481465885614;15451.66;177
2024-05-18T15:11:14.151;599616481473576707;15459.352;184
2024-05-18T15:11:14.159;599616481481267800;15467.043;177
2024-05-18T15:11:14.166;599616481488958893;15474.734;177
2024-05-18T15:11:14.174;599616481496649986;15482.426;160
2024-05-18T15:11:14.182;599616481504341079;15490.116;146
2024-05-18T15:11:14.189;599616481512032172;15497.807;158
2024-05-18T15:11:14.197;599616481519723265;15505.498;177
2024-05-18T15:11:14.205;599616481527414358;15513.189;188
2024-05-18T15:11:14.212;599616481535105451;15520.881;179
2024-05-18T15:11:14.220;599616481542796544;15528.572;141
2024-05-18T15:11:14.228;599616481550487637;15536.263;122
2024-05-18T15:11:14.235;599616481558178730;15543.953;221
2024-05-18T15:11:14.243;599616481565869823;15551.645;538
2024-05-18T15:11:14.251;599616481573560916;15559.336;972
2024-05-18T15:11:14.259;599616481581252009;15567.027;1085
2024-05-18T15:11:14.266;599616481588943102;15574.719;611
2024-05-18T15:11:14.274;599616481596634195;15582.41;68
2024-05-18T15:11:14.282;599616481604325288;15590.1;30
2024-05-18T15:11:14.289;599616481612016381;15597.791;158
2024-05-18T15:11:14.297;599616481619707474;15605.482;68
2024-05-18T15:11:14.305;599616481627398567;15613.174;-44
2024-05-18T15:11:14.312;599616481635089660;15620.865;-77
2024-05-18T15:11:14.320;599616481642780753;15628.557;-129
2024-05-18T15:11:14.328;599616481650471846;15636.246;-200
2024-05-18T15:11:14.335;599616481658162939;15643.9375;-231
2024-05-18T15:11:14.343;599616481665854032;15651.629;-200
2024-05-18T15:11:14.351;599616481673545125;15659.32;-172
2024-05-18T15:11:14.359;599616481681236218;15667.012;-167
2024-05-18T15:11:14.366;599616481688927311;15674.703;-162
2024-05-18T15:11:14.374;599616481696618404;15682.394;-136
2024-05-18T15:11:14.382;599616481704309497;15690.084;-101
2024-05-18T15:11:14.389;599616481712000590;15697.775;-77
2024-05-18T15:11:14.397;599616481719691683;15705.467;-68
2024-05-18T15:11:14.405;599616481727382776;15713.158;-59
2024-05-18T15:11:14.412;599616481735053812;15720.829;-30
2024-05-18T15:11:14.420;599616481742745184;15728.5205;0
2024-05-18T15:11:14.428;599616481750436556;15736.212;16
2024-05-18T15:11:14.435;599616481758127928;15743.902;44
2024-05-18T15:11:14.443;599616481765819300;15751.594;82
2024-05-18T15:11:14.451;599616481773510672;15759.285;70
2024-05-18T15:11:14.458;599616481781202044;15766.978;7
2024-05-18T15:11:14.466;599616481788893416;15774.669;0
2024-05-18T15:11:14.474;599616481796584788;15782.36;59
2024-05-18T15:11:14.482;599616481804276160;15790.052;84
2024-05-18T15:11:14.489;599616481811967532;15797.742;63
2024-05-18T15:11:14.497;599616481819658904;15805.434;63
2024-05-18T15:11:14.505;599616481827350276;15813.125;87
2024-05-18T15:11:14.512;599616481835041648;15820.816;94
2024-05-18T15:11:14.520;599616481842733020;15828.508;80
2024-05-18T15:11:14.528;599616481850424392;15836.2;82
2024-05-18T15:11:14.535;599616481858115764;15843.892;92
2024-05-18T15:11:14.543;599616481865807136;15851.582;77
2024-05-18T15:11:14.551;599616481873498508;15859.273;47
2024-05-18T15:11:14.558;599616481881189880;15866.965;21
2024-05-18T15:11:14.566;599616481888881252;15874.656;33
2024-05-18T15:11:14.574;599616481896572624;15882.348;61
2024-05-18T15:11:14.582;599616481904263996;15890.039;66
2024-05-18T15:11:14.589;599616481911955368;15897.73;70
2024-05-18T15:11:14.597;599616481919646740;15905.421;94
2024-05-18T15:11:14.605;599616481927338112;15913.113;108
2024-05-18T15:11:14.612;599616481935029484;15920.805;113
2024-05-18T15:11:14.620;599616481942720856;15928.496;143
2024-05-18T15:11:14.628;599616481950412228;15936.1875;174
2024-05-18T15:11:14.635;599616481958103600;15943.879;155
2024-05-18T15:11:14.643;599616481965794972;15951.57;139
2024-05-18T15:11:14.651;599616481973486344;15959.261;174
2024-05-18T15:11:14.658;599616481981177716;15966.952;205
2024-05-18T15:11:14.666;599616481988869088;15974.644;202
2024-05-18T15:11:14.674;599616481996560460;15982.336;205
2024-05-18T15:11:14.682;599616482004251832;15990.027;217
