Phone timestamp;sensor timestamp [ns];timestamp [ms];ecg [uV]
2024-05-20T22:35:43.727;599617075053772094;0.0;3208
2024-05-20T22:35:43.734;599617075061463466;7.691372;3906
2024-05-20T22:35:43.742;599617075069154838;15.382744;4722
2024-05-20T22:35:43.750;599617075076846210;23.074116;5448
2024-05-20T22:35:43.757;599617075084537582;30.765488;5950
2024-05-20T22:35:43.765;599617075092228954;38.45686;6519
2024-05-20T22:35:43.773;599617075099920326;46.14823;7167
2024-05-20T22:35:43.780;599617075107611698;53.839603;7881
2024-05-20T22:35:43.788;599617075115303070;61.530975;8819
2024-05-20T22:35:43.796;599617075122994442;69.22235;9597
2024-05-20T22:35:43.803;599617075130685814;76.91372;9654
2024-05-20T22:35:43.811;599617075138377186;84.60509;9445
2024-05-20T22:35:43.819;599617075146068558;92.29646;9752
2024-05-20T22:35:43.826;599617075153759930;99.98784;10318
2024-05-20T22:35:43.834;599617075161451302;107.67921;10706
2024-05-20T22:35:43.842;599617075169142674;115.370575;10990
2024-05-20T22:35:43.850;599617075176834046;123.06195;11240
2024-05-20T22:35:43.857;599617075184525418;130.75333;11549
2024-05-20T22:35:43.865;599617075192216790;138.4447;11892
2024-05-20T22:35:43.873;599617075199908162;146.13606;12161
2024-05-20T22:35:43.880;599617075207599534;153.82744;12451
2024-05-20T22:35:43.888;599617075215290906;161.51881;12765
2024-05-20T22:35:43.896;599617075222982278;169.21017;12968
2024-05-20T22:35:43.903;599617075230673650;176.90155;13122
2024-05-20T22:35:43.911;599617075238365022;184.59293;13356
2024-05-20T22:35:43.919;599617075246056394;192.2843;13646
2024-05-20T22:35:43.926;599617075253747766;199.97568;13877
2024-05-20T22:35:43.934;599617075261439138;207.66704;13984
2024-05-20T22:35:43.942;599617075269130510;215.35841;14079
2024-05-20T22:35:43.950;599617075276821882;223.04979;14267
2024-05-20T22:35:43.957;599617075284513254;230.74115;14413
2024-05-20T22:35:43.965;599617075292204626;238.43253;14501
2024-05-20T22:35:43.973;599617075299895998;246.1239;14689
2024-05-20T22:35:43.980;599617075307587370;253.81528;14846
2024-05-20T22:35:43.988;599617075315278742;261.50665;14834
2024-05-20T22:35:43.996;599617075322970114;269.19803;14884
2024-05-20T22:35:44.003;599617075330661486;276.8894;15084
2024-05-20T22:35:44.011;599617075338352858;284.58078;15255
2024-05-20T22:35:44.019;599617075346044230;292.27213;15286
2024-05-20T22:35:44.026;599617075353735602;299.96353;15201
2024-05-20T22:35:44.034;599617075361426974;307.65488;15186
2024-05-20T22:35:44.042;599617075369118346;315.34625;15327
2024-05-20T22:35:44.050;599617075376809718;323.03763;15398
2024-05-20T22:35:44.057;599617075384501090;330.729;15331
2024-05-20T22:35:44.065;599617075392192462;338.42035;15389
2024-05-20T22:35:44.073;599617075399883834;346.11176;15484
2024-05-20T22:35:44.080;599617075407575206;353.8031;15389
2024-05-20T22:35:44.088;599617075415266578;361.4945;15289
2024-05-20T22:35:44.096;599617075422957950;369.18585;15234
2024-05-20T22:35:44.103;599617075430649322;376.87723;15177
2024-05-20T22:35:44.111;599617075438340694;384.5686;15162
2024-05-20T22:35:44.119;599617075446032066;392.25998;15160
2024-05-20T22:35:44.126;599617075453723438;399.95135;15117
2024-05-20T22:35:44.134;599617075461414810;407.64273;14989
2024-05-20T22:35:44.142;599617075469106182;415.33408;14853
2024-05-20T22:35:44.150;599617075476797554;423.02548;15005
2024-05-20T22:35:44.157;599617075484488926;430.71683;15493
2024-05-20T22:35:44.165;599617075492180298;438.4082;15765
2024-05-20T22:35:44.173;599617075499871670;446.09958;15427
2024-05-20T22:35:44.180;599617075507563042;453.79095;14874
2024-05-20T22:35:44.188;599617075515254414;461.4823;14636
2024-05-20T22:35:44.196;599617075522945786;469.1737;14625
2024-05-20T22:35:44.203;599617075530637158;476.86505;14565
2024-05-20T22:35:44.211;599617075538328530;484.55646;14501
2024-05-20T22:35:44.219;599617075546019902;492.2478;14448
2024-05-20T22:35:44.226;599617075553711274;499.93918;14332
2024-05-20T22:35:44.234;599617075561402646;507.63055;14227
2024-05-20T22:35:44.242;599617075569094018;515.3219;14220
2024-05-20T22:35:44.250;599617075576785390;523.0133;14322
2024-05-20T22:35:44.257;599617075584476762;530.70465;14253
2024-05-20T22:35:44.265;599617075592168134;538.39606;13891
2024-05-20T22:35:44.273;599617075599859506;546.0874;13760
2024-05-20T22:35:44.280;599617075607550878;553.7788;13858
2024-05-20T22:35:44.288;599617075615212162;561.44006;13737
2024-05-20T22:35:44.296;599617075622903952;569.13184;13587
2024-05-20T22:35:44.303;599617075630595742;576.82367;13580
2024-05-20T22:35:44.311;599617075638287532;584.51544;13470
2024-05-20T22:35:44.319;599617075645979322;592.2072;13291
2024-05-20T22:35:44.326;599617075653671112;599.899;13275
2024-05-20T22:35:44.334;599617075661362902;607.59076;13246
2024-05-20T22:35:44.342;599617075669054692;615.28265;13027
2024-05-20T22:35:44.349;599617075676746482;622.9744;12827
2024-05-20T22:35:44.357;599617075684438272;630.6662;12751
2024-05-20T22:35:44.365;599617075692130062;638.358;12761
2024-05-20T22:35:44.373;599617075699821852;646.04974;12739
2024-05-20T22:35:44.380;599617075707513642;653.7416;12496
2024-05-20T22:35:44.388;599617075715205432;661.43335;12270
2024-05-20T22:35:44.396;599617075722897222;669.1251;12282
2024-05-20T22:35:44.403;599617075730589012;676.8169;12182
2024-05-20T22:35:44.411;599617075738280802;684.5087;11878
2024-05-20T22:35:44.419;599617075745972592;692.2005;11723
2024-05-20T22:35:44.426;599617075753664382;699.8923;11718
2024-05-20T22:35:44.434;599617075761356172;707.58405;11635
2024-05-20T22:35:44.442;599617075769047962;715.2758;11411
2024-05-20T22:35:44.449;599617075776739752;722.96765;11213
2024-05-20T22:35:44.457;599617075784431542;730.6595;11149
2024-05-20T22:35:44.465;599617075792123332;738.35126;11054
2024-05-20T22:35:44.473;599617075799815122;746.043;10914
2024-05-20T22:35:44.480;599617075807506912;753.73486;10878
2024-05-20T22:35:44.488;599617075815198702;761.42664;10823
2024-05-20T22:35:44.496;599617075822890492;769.1184;10635
2024-05-20T22:35:44.503;599617075830582282;776.8102;10454
2024-05-20T22:35:44.511;599617075838274072;784.50195;10352
2024-05-20T22:35:44.519;599617075845965862;792.1938;10330
2024-05-20T22:35:44.526;599617075853657652;799.88556;10537
2024-05-20T22:35:44.534;599617075861349442;807.57733;10864
2024-05-20T22:35:44.542;599617075869041232;815.2691;10878
2024-05-20T22:35:44.549;599617075876733022;822.9609;10392
2024-05-20T22:35:44.557;599617075884424812;830.6527;9809
2024-05-20T22:35:44.565;599617075892116602;838.3445;9664
2024-05-20T22:35:44.573;599617075899808392;846.0363;9778
2024-05-20T22:35:44.580;599617075907500182;853.7281;9640
2024-05-20T22:35:44.588;599617075915191972;861.4199;9366
2024-05-20T22:35:44.596;599617075922883762;869.1117;9295
2024-05-20T22:35:44.603;599617075930575552;876.80347;9300
2024-05-20T22:35:44.611;599617075938267342;884.49524;9200
2024-05-20T22:35:44.619;599617075945959132;892.187;9097
2024-05-20T22:35:44.626;599617075953650922;899.87885;9043
2024-05-20T22:35:44.634;599617075961342712;907.5706;8983
2024-05-20T22:35:44.642;599617075969034502;915.2624;8904
2024-05-20T22:35:44.649;599617075976726292;922.95416;8804
2024-05-20T22:35:44.657;599617075984418082;930.646;8726
2024-05-20T22:35:44.665;599617075992109872;938.33777;8709
2024-05-20T22:35:44.673;599617075999801662;946.02954;8635
2024-05-20T22:35:44.680;599617076007493452;953.7214;8457
2024-05-20T22:35:44.688;599617076015185242;961.41315;8347
2024-05-20T22:35:44.696;599617076022877032;969.105;8343
2024-05-20T22:35:44.703;599617076030568822;976.79675;8283
2024-05-20T22:35:44.711;599617076038260612;984.4885;8167
2024-05-20T22:35:44.719;599617076045952402;992.1803;8078
2024-05-20T22:35:44.726;599617076053644192;999.87213;8000
2024-05-20T22:35:44.734;599617076061335982;1007.5639;7905
2024-05-20T22:35:44.742;599617076069027772;1015.2557;7824
2024-05-20T22:35:44.749;599617076076719562;1022.94745;7743
2024-05-20T22:35:44.757;599617076084411352;1030.6393;7679
2024-05-20T22:35:44.765;599617076092103142;1038.331;7569
2024-05-20T22:35:44.773;599617076099794932;1046.0228;7338
2024-05-20T22:35:44.780;599617076107486722;1053.7146;7195
2024-05-20T22:35:44.788;599617076115178512;1061.4064;7155
2024-05-20T22:35:44.796;599617076122870302;1069.0983;7029
2024-05-20T22:35:44.803;599617076130562092;1076.79;6907
2024-05-20T22:35:44.811;599617076138253882;1084.4818;6800
2024-05-20T22:35:44.819;599617076145945672;1092.1736;6686
2024-05-20T22:35:44.826;599617076153637462;1099.8654;6591
2024-05-20T22:35:44.834;599617076161329252;1107.5571;6469
2024-05-20T22:35:44.842;599617076169021042;1115.2489;6396
2024-05-20T22:35:44.849;599617076176722924;1122.9508;6386
2024-05-20T22:35:44.857;599617076184414574;1130.6425;6298
2024-05-20T22:35:44.865;599617076192106224;1138.3341;6172
2024-05-20T22:35:44.873;599617076199797874;1146.0258;6136
2024-05-20T22:35:44.880;599617076207489524;1153.7174;6065
2024-05-20T22:35:44.888;599617076215181174;1161.409;5886
2024-05-20T22:35:44.896;599617076222872824;1169.1007;5881
2024-05-20T22:35:44.903;599617076230564474;1176.7924;6224
2024-05-20T22:35:44.911;599617076238256124;1184.484;6617
2024-05-20T22:35:44.919;599617076245947774;1192.1757;6576
2024-05-20T22:35:44.926;599617076253639424;1199.8674;6010
2024-05-20T22:35:44.934;599617076261331074;1207.5591;5470
2024-05-20T22:35:44.942;599617076269022724;1215.2507;5420
2024-05-20T22:35:44.949;599617076276714374;1222.9424;5443
2024-05-20T22:35:44.957;599617076284406024;1230.634;5274
2024-05-20T22:35:44.965;599617076292097674;1238.3257;5243
2024-05-20T22:35:44.973;599617076299789324;1246.0173;5293
2024-05-20T22:35:44.980;599617076307480974;1253.709;5205
2024-05-20T22:35:44.988;599617076315172624;1261.4006;5136
2024-05-20T22:35:44.996;599617076322864274;1269.0922;5136
2024-05-20T22:35:45.003;599617076330555924;1276.7838;5070
2024-05-20T22:35:45.011;599617076338247574;1284.4755;4989
2024-05-20T22:35:45.019;599617076345939224;1292.1671;4979
2024-05-20T22:35:45.026;599617076353630874;1299.8588;4996
2024-05-20T22:35:45.034;599617076361322524;1307.5504;4970
2024-05-20T22:35:45.042;599617076369014174;1315.2421;4886
2024-05-20T22:35:45.049;599617076376705824;1322.9337;4813
2024-05-20T22:35:45.057;599617076384397474;1330.6254;4763
2024-05-20T22:35:45.065;599617076392089124;1338.317;4715
2024-05-20T22:35:45.073;599617076399780774;1346.0087;4670
2024-05-20T22:35:45.080;599617076407472424;1353.7003;4620
2024-05-20T22:35:45.088;599617076415164074;1361.392;4567
2024-05-20T22:35:45.096;599617076422855724;1369.0836;4508
2024-05-20T22:35:45.103;599617076430547374;1376.7753;4463
2024-05-20T22:35:45.111;599617076438239024;1384.4669;4441
2024-05-20T22:35:45.119;599617076445930674;1392.1586;4382
2024-05-20T22:35:45.126;599617076453622324;1399.8502;4275
2024-05-20T22:35:45.134;599617076461313974;1407.5419;4198
2024-05-20T22:35:45.142;599617076469005624;1415.2335;4165
2024-05-20T22:35:45.149;599617076476697274;1422.9252;4122
2024-05-20T22:35:45.157;599617076484388924;1430.6168;4044
2024-05-20T22:35:45.165;599617076492080574;1438.3085;3979
2024-05-20T22:35:45.173;599617076499772224;1446.0001;3922
2024-05-20T22:35:45.180;599617076507463874;1453.6918;3803
2024-05-20T22:35:45.188;599617076515155524;1461.3834;3703
2024-05-20T22:35:45.196;599617076522847174;1469.0751;3696
2024-05-20T22:35:45.203;599617076530538824;1476.7667;3684
2024-05-20T22:35:45.211;599617076538230474;1484.4584;3625
2024-05-20T22:35:45.219;599617076545922124;1492.15;3577
2024-05-20T22:35:45.226;599617076553613774;1499.8417;3549
2024-05-20T22:35:45.234;599617076561305424;1507.5333;3525
2024-05-20T22:35:45.242;599617076568997074;1515.225;3494
2024-05-20T22:35:45.249;599617076576688724;1522.9166;3437
2024-05-20T22:35:45.257;599617076584380374;1530.6083;3365
2024-05-20T22:35:45.265;599617076592072024;1538.2999;3292
2024-05-20T22:35:45.272;599617076599763674;1545.9916;3294
2024-05-20T22:35:45.280;599617076607455324;1553.6832;3558
2024-05-20T22:35:45.288;599617076615146974;1561.3749;3999
2024-05-20T22:35:45.296;599617076622838624;1569.0665;4046
2024-05-20T22:35:45.303;599617076630530274;1576.7582;3468
2024-05-20T22:35:45.311;599617076638221924;1584.4498;2949
2024-05-20T22:35:45.319;599617076645913574;1592.1415;2968
2024-05-20T22:35:45.326;599617076653605224;1599.8331;3037
2024-05-20T22:35:45.334;599617076661296874;1607.5248;2889
2024-05-20T22:35:45.342;599617076668988524;1615.2164;2837
2024-05-20T22:35:45.349;599617076676680174;1622.9081;2904
2024-05-20T22:35:45.357;599617076684371824;1630.5997;2896
2024-05-20T22:35:45.365;599617076692063474;1638.2914;2842
2024-05-20T22:35:45.372;599617076699755124;1645.983;2832
2024-05-20T22:35:45.380;599617076707446774;1653.6747;2844
2024-05-20T22:35:45.388;599617076715138424;1661.3663;2849
2024-05-20T22:35:45.396;599617076722830074;1669.0579;2846
2024-05-20T22:35:45.403;599617076730521724;1676.7495;2827
2024-05-20T22:35:45.411;599617076738223440;1684.4513;2804
2024-05-20T22:35:45.419;599617076745914951;1692.1428;2785
2024-05-20T22:35:45.426;599617076753606462;1699.8344;2761
2024-05-20T22:35:45.434;599617076761297973;1707.5259;2732
2024-05-20T22:35:45.442;599617076768989484;1715.2174;2713
2024-05-20T22:35:45.449;599617076776680995;1722.9089;2699
2024-05-20T22:35:45.457;599617076784372506;1730.6005;2658
2024-05-20T22:35:45.465;599617076792064017;1738.292;2616
2024-05-20T22:35:45.472;599617076799755528;1745.9835;2618
2024-05-20T22:35:45.480;599617076807447039;1753.675;2582
2024-05-20T22:35:45.488;599617076815138550;1761.3665;2456
2024-05-20T22:35:45.496;599617076822830061;1769.0579;2399
2024-05-20T22:35:45.503;599617076830521572;1776.7494;2418
2024-05-20T22:35:45.511;599617076838213083;1784.4409;2370
2024-05-20T22:35:45.519;599617076845904594;1792.1324;2280
2024-05-20T22:35:45.526;599617076853596105;1799.824;2239
2024-05-20T22:35:45.534;599617076861287616;1807.5155;2211
2024-05-20T22:35:45.542;599617076868979127;1815.207;2132
2024-05-20T22:35:45.549;599617076876670638;1822.8986;2059
2024-05-20T22:35:45.557;599617076884362149;1830.5901;2028
2024-05-20T22:35:45.565;599617076892053660;1838.2816;1975
2024-05-20T22:35:45.572;599617076899745171;1845.9731;1913
2024-05-20T22:35:45.580;599617076907436682;1853.6647;1925
2024-05-20T22:35:45.588;599617076915128193;1861.3562;1954
2024-05-20T22:35:45.596;599617076922819704;1869.0476;1906
2024-05-20T22:35:45.603;599617076930511215;1876.739;1847
2024-05-20T22:35:45.611;599617076938202726;1884.4305;1849
2024-05-20T22:35:45.619;599617076945894237;1892.1221;1878
2024-05-20T22:35:45.626;599617076953585748;1899.8136;1856
2024-05-20T22:35:45.634;599617076961277259;1907.5051;1761
2024-05-20T22:35:45.642;599617076968968770;1915.1967;1699
2024-05-20T22:35:45.649;599617076976660281;1922.8882;1890
2024-05-20T22:35:45.657;599617076984351792;1930.5797;2316
2024-05-20T22:35:45.665;599617076992043303;1938.2712;2632
2024-05-20T22:35:45.672;599617076999734814;1945.9628;2468
2024-05-20T22:35:45.680;599617077007426325;1953.6543;1942
2024-05-20T22:35:45.688;599617077015117836;1961.3458;1671
2024-05-20T22:35:45.696;599617077022809347;1969.0374;1754
2024-05-20T22:35:45.703;599617077030500858;1976.7288;1756
2024-05-20T22:35:45.711;599617077038192369;1984.4202;1673
2024-05-20T22:35:45.719;599617077045883880;1992.1117;1690
2024-05-20T22:35:45.726;599617077053575391;1999.8032;1701
2024-05-20T22:35:45.734;599617077061266902;2007.4948;1668
2024-05-20T22:35:45.742;599617077068958413;2015.1863;1673
2024-05-20T22:35:45.749;599617077076649924;2022.8778;1701
2024-05-20T22:35:45.757;599617077084341435;2030.5693;1701
2024-05-20T22:35:45.765;599617077092032946;2038.2609;1711
2024-05-20T22:35:45.772;599617077099724457;2045.9524;1685
2024-05-20T22:35:45.780;599617077107415968;2053.6438;1571
2024-05-20T22:35:45.788;599617077115107479;2061.3354;1506
2024-05-20T22:35:45.796;599617077122798990;2069.0269;1552
2024-05-20T22:35:45.803;599617077130490501;2076.7185;1573
2024-05-20T22:35:45.811;599617077138182012;2084.41;1511
2024-05-20T22:35:45.819;599617077145873523;2092.1013;1463
2024-05-20T22:35:45.826;599617077153565034;2099.793;1461
2024-05-20T22:35:45.834;599617077161256545;2107.4844;1468
2024-05-20T22:35:45.842;599617077168948056;2115.176;1459
2024-05-20T22:35:45.849;599617077176639567;2122.8674;1428
2024-05-20T22:35:45.857;599617077184331078;2130.559;1402
2024-05-20T22:35:45.865;599617077192022589;2138.2505;1399
2024-05-20T22:35:45.872;599617077199714100;2145.942;1380
2024-05-20T22:35:45.880;599617077207405611;2153.6335;1328
2024-05-20T22:35:45.888;599617077215097122;2161.325;1292
2024-05-20T22:35:45.896;599617077222788633;2169.0166;1266
2024-05-20T22:35:45.903;599617077230480144;2176.708;1202
2024-05-20T22:35:45.911;599617077238171655;2184.3997;1140
2024-05-20T22:35:45.919;599617077245863166;2192.091;1130
2024-05-20T22:35:45.926;599617077253554677;2199.7827;1130
2024-05-20T22:35:45.934;599617077261246188;2207.474;1111
2024-05-20T22:35:45.942;599617077268937699;2215.1658;1102
2024-05-20T22:35:45.949;599617077276629210;2222.8572;1121
2024-05-20T22:35:45.957;599617077284320721;2230.5488;1125
2024-05-20T22:35:45.965;599617077292012232;2238.2402;1083
2024-05-20T22:35:45.972;599617077299683690;2245.9116;1061
2024-05-20T22:35:45.980;599617077307375480;2253.6033;1092
2024-05-20T22:35:45.988;599617077315067270;2261.2952;1109
2024-05-20T22:35:45.995;599617077322759060;2268.9868;1090
2024-05-20T22:35:46.003;599617077330450850;2276.6787;1061
2024-05-20T22:35:46.011;599617077338142640;2284.3704;1004
2024-05-20T22:35:46.019;599617077345834430;2292.0623;914
2024-05-20T22:35:46.026;599617077353526220;2299.7542;980
2024-05-20T22:35:46.034;599617077361218010;2307.446;1356
2024-05-20T22:35:46.042;599617077368909800;2315.1377;1740
2024-05-20T22:35:46.049;599617077376601590;2322.8296;1640
2024-05-20T22:35:46.057;599617077384293380;2330.5212;1111
2024-05-20T22:35:46.065;599617077391985170;2338.2131;795
2024-05-20T22:35:46.072;599617077399676960;2345.9048;897
2024-05-20T22:35:46.080;599617077407368750;2353.5967;947
2024-05-20T22:35:46.088;599617077415060540;2361.2883;852
2024-05-20T22:35:46.095;599617077422752330;2368.9802;873
2024-05-20T22:35:46.103;599617077430444120;2376.672;928
2024-05-20T22:35:46.111;599617077438135910;2384.3638;909
2024-05-20T22:35:46.119;599617077445827700;2392.0557;914
2024-05-20T22:35:46.126;599617077453519490;2399.7473;964
2024-05-20T22:35:46.134;599617077461211280;2407.4392;990
2024-05-20T22:35:46.142;599617077468903070;2415.1309;990
2024-05-20T22:35:46.149;599617077476594860;2422.8228;987
2024-05-20T22:35:46.157;599617077484286650;2430.5144;992
2024-05-20T22:35:46.165;599617077491978440;2438.2065;1018
2024-05-20T22:35:46.172;599617077499670230;2445.8982;1037
2024-05-20T22:35:46.180;599617077507362020;2453.59;1042
2024-05-20T22:35:46.188;599617077515053810;2461.2817;1040
2024-05-20T22:35:46.195;599617077522745600;2468.9736;1016
2024-05-20T22:35:46.203;599617077530437390;2476.6653;985
2024-05-20T22:35:46.211;599617077538129180;2484.3572;987
2024-05-20T22:35:46.219;599617077545820970;2492.0488;971
2024-05-20T22:35:46.226;599617077553512760;2499.7407;930
2024-05-20T22:35:46.234;599617077561204550;2507.4324;925
2024-05-20T22:35:46.242;599617077568896340;2515.1243;902
2024-05-20T22:35:46.249;599617077576588130;2522.816;837
2024-05-20T22:35:46.257;599617077584279920;2530.5078;795
2024-05-20T22:35:46.265;599617077591971710;2538.1995;773
2024-05-20T22:35:46.272;599617077599663500;2545.8914;747
2024-05-20T22:35:46.280;599617077607355290;2553.583;687
2024-05-20T22:35:46.288;599617077615047080;2561.275;578
2024-05-20T22:35:46.295;599617077622738870;2568.9666;478
2024-05-20T22:35:46.303;599617077630430660;2576.6587;454
2024-05-20T22:35:46.311;599617077638122450;2584.3506;471
2024-05-20T22:35:46.319;599617077645814240;2592.0422;478
2024-05-20T22:35:46.326;599617077653506030;2599.7341;480
2024-05-20T22:35:46.334;599617077661197820;2607.4258;490
2024-05-20T22:35:46.342;599617077668889610;2615.1177;497
2024-05-20T22:35:46.349;599617077676581400;2622.8093;507
2024-05-20T22:35:46.357;599617077684273190;2630.5012;521
2024-05-20T22:35:46.365;599617077691964980;2638.1929;530
2024-05-20T22:35:46.372;599617077699656770;2645.8848;561
2024-05-20T22:35:46.380;599617077707348560;2653.5764;566
2024-05-20T22:35:46.388;599617077715040350;2661.2683;499
2024-05-20T22:35:46.395;599617077722732140;2668.96;433
2024-05-20T22:35:46.403;599617077730423930;2676.6519;518
2024-05-20T22:35:46.411;599617077738115720;2684.3435;849
2024-05-20T22:35:46.419;599617077745807510;2692.0354;1261
2024-05-20T22:35:46.426;599617077753499300;2699.727;1325
2024-05-20T22:35:46.434;599617077761191090;2707.419;911
2024-05-20T22:35:46.442;599617077768882880;2715.1108;528
2024-05-20T22:35:46.449;599617077776574670;2722.8027;552
2024-05-20T22:35:46.457;599617077784266460;2730.4944;649
2024-05-20T22:35:46.465;599617077791958250;2738.1863;597
2024-05-20T22:35:46.472;599617077799650040;2745.878;576
2024-05-20T22:35:46.480;599617077807341830;2753.5698;616
2024-05-20T22:35:46.488;599617077815033620;2761.2615;637
2024-05-20T22:35:46.495;599617077822725410;2768.9534;659
2024-05-20T22:35:46.503;599617077830417200;2776.645;680
2024-05-20T22:35:46.511;599617077838108990;2784.337;702
2024-05-20T22:35:46.519;599617077845800780;2792.0286;723
2024-05-20T22:35:46.526;599617077853492570;2799.7205;733
2024-05-20T22:35:46.534;599617077861209500;2807.4373;742
2024-05-20T22:35:46.542;599617077868900941;2815.129;754
2024-05-20T22:35:46.549;599617077876592382;2822.8203;737
2024-05-20T22:35:46.557;599617077884283823;2830.5117;706
2024-05-20T22:35:46.565;599617077891975264;2838.2031;683
2024-05-20T22:35:46.572;599617077899666705;2845.8948;678
2024-05-20T22:35:46.580;599617077907358146;2853.5862;683
2024-05-20T22:35:46.588;599617077915049587;2861.2773;656
2024-05-20T22:35:46.595;599617077922741028;2868.969;585
2024-05-20T22:35:46.603;599617077930432469;2876.6604;547
2024-05-20T22:35:46.611;599617077938123910;2884.3518;561
2024-05-20T22:35:46.619;599617077945815351;2892.0432;542
2024-05-20T22:35:46.626;599617077953506792;2899.7349;490
2024-05-20T22:35:46.634;599617077961198233;2907.426;468
2024-05-20T22:35:46.642;599617077968889674;2915.1177;457
2024-05-20T22:35:46.649;599617077976581115;2922.809;399
2024-05-20T22:35:46.657;599617077984272556;2930.5002;349
2024-05-20T22:35:46.665;599617077991963997;2938.192;354
2024-05-20T22:35:46.672;599617077999655438;2945.8833;359
2024-05-20T22:35:46.680;599617078007346879;2953.575;342
2024-05-20T22:35:46.688;599617078015038320;2961.266;359
2024-05-20T22:35:46.695;599617078022729761;2968.9578;378
2024-05-20T22:35:46.703;599617078030421202;2976.6492;359
2024-05-20T22:35:46.711;599617078038112643;2984.3406;342
2024-05-20T22:35:46.719;599617078045804084;2992.032;359
2024-05-20T22:35:46.726;599617078053495525;2999.7236;385
2024-05-20T22:35:46.734;599617078061186966;3007.4148;402
2024-05-20T22:35:46.742;599617078068878407;3015.1062;397
2024-05-20T22:35:46.749;599617078076569848;3022.7979;383
2024-05-20T22:35:46.757;599617078084261289;3030.489;383
2024-05-20T22:35:46.765;599617078091952730;3038.1807;364
2024-05-20T22:35:46.772;599617078099644171;3045.872;299
2024-05-20T22:35:46.780;599617078107335612;3053.5635;318
2024-05-20T22:35:46.788;599617078115027053;3061.255;552
2024-05-20T22:35:46.795;599617078122718494;3068.9465;873
2024-05-20T22:35:46.803;599617078130409935;3076.638;935
2024-05-20T22:35:46.811;599617078138101376;3084.329;583
2024-05-20T22:35:46.819;599617078145792817;3092.0208;209
2024-05-20T22:35:46.826;599617078153484258;3099.7122;209
2024-05-20T22:35:46.834;599617078161175699;3107.4036;297
2024-05-20T22:35:46.842;599617078168867140;3115.095;233
2024-05-20T22:35:46.849;599617078176558581;3122.7866;235
2024-05-20T22:35:46.857;599617078184250022;3130.4778;304
2024-05-20T22:35:46.865;599617078191941463;3138.1694;316
2024-05-20T22:35:46.872;599617078199632904;3145.8608;338
2024-05-20T22:35:46.880;599617078207324345;3153.5522;397
2024-05-20T22:35:46.888;599617078215015786;3161.2437;411
2024-05-20T22:35:46.895;599617078222707227;3168.935;404
2024-05-20T22:35:46.903;599617078230398668;3176.6267;445
2024-05-20T22:35:46.911;599617078238090109;3184.3179;499
2024-05-20T22:35:46.919;599617078245781550;3192.0095;514
2024-05-20T22:35:46.926;599617078253472991;3199.701;521
2024-05-20T22:35:46.934;599617078261164432;3207.3923;535
2024-05-20T22:35:46.942;599617078268855873;3215.0837;545
2024-05-20T22:35:46.949;599617078276547314;3222.7754;564
2024-05-20T22:35:46.957;599617078284238755;3230.4666;568
2024-05-20T22:35:46.965;599617078291930196;3238.158;535
2024-05-20T22:35:46.972;599617078299621637;3245.8496;490
2024-05-20T22:35:46.980;599617078307313078;3253.5408;461
2024-05-20T22:35:46.988;599617078315004519;3261.2324;471
2024-05-20T22:35:46.995;599617078322695960;3268.9238;468
2024-05-20T22:35:47.003;599617078330387401;3276.6155;416
2024-05-20T22:35:47.011;599617078338078842;3284.3066;368
2024-05-20T22:35:47.018;599617078345770283;3291.9983;347
2024-05-20T22:35:47.026;599617078353461724;3299.6897;326
2024-05-20T22:35:47.034;599617078361153165;3307.381;297
2024-05-20T22:35:47.042;599617078368844606;3315.0725;266
2024-05-20T22:35:47.049;599617078376536047;3322.764;257
2024-05-20T22:35:47.057;599617078384227488;3330.4553;273
2024-05-20T22:35:47.065;599617078391918929;3338.1467;264
2024-05-20T22:35:47.072;599617078399610370;3345.8384;226
2024-05-20T22:35:47.080;599617078407301811;3353.5295;235
2024-05-20T22:35:47.088;599617078414993252;3361.2212;285
2024-05-20T22:35:47.095;599617078422654654;3368.8826;309
2024-05-20T22:35:47.103;599617078430346513;3376.5745;295
2024-05-20T22:35:47.111;599617078438038372;3384.2664;290
2024-05-20T22:35:47.118;599617078445730231;3391.958;311
2024-05-20T22:35:47.126;599617078453422090;3399.6501;297
2024-05-20T22:35:47.134;599617078461113949;3407.3418;230
2024-05-20T22:35:47.142;599617078468805808;3415.0337;192
2024-05-20T22:35:47.149;599617078476497667;3422.7256;169
2024-05-20T22:35:47.157;599617078484189526;3430.4175;197
2024-05-20T22:35:47.165;599617078491881385;3438.1091;509
2024-05-20T22:35:47.172;599617078499573244;3445.8013;1025
2024-05-20T22:35:47.180;599617078507265103;3453.493;1192
2024-05-20T22:35:47.188;599617078514956962;3461.1848;742
2024-05-20T22:35:47.195;599617078522648821;3468.8767;228
2024-05-20T22:35:47.203;599617078530340680;3476.5686;240
2024-05-20T22:35:47.211;599617078538032539;3484.2603;407
2024-05-20T22:35:47.218;599617078545724398;3491.9524;304
2024-05-20T22:35:47.226;599617078553416257;3499.644;264
2024-05-20T22:35:47.234;599617078561108116;3507.336;388
2024-05-20T22:35:47.242;599617078568799975;3515.028;407
2024-05-20T22:35:47.249;599617078576491834;3522.7197;357
2024-05-20T22:35:47.257;599617078584183693;3530.4116;368
2024-05-20T22:35:47.265;599617078591875552;3538.1035;414
2024-05-20T22:35:47.272;599617078599567411;3545.7954;452
2024-05-20T22:35:47.280;599617078607259270;3553.487;473
2024-05-20T22:35:47.288;599617078614951129;3561.1792;447
2024-05-20T22:35:47.295;599617078622642988;3568.8708;354
2024-05-20T22:35:47.303;599617078630334847;3576.5627;295
2024-05-20T22:35:47.311;599617078638026706;3584.2546;311
2024-05-20T22:35:47.318;599617078645718565;3591.9465;328
2024-05-20T22:35:47.326;599617078653410424;3599.6382;357
2024-05-20T22:35:47.334;599617078661102283;3607.3303;347
2024-05-20T22:35:47.342;599617078668794142;3615.022;292
2024-05-20T22:35:47.349;599617078676486001;3622.7139;290
2024-05-20T22:35:47.357;599617078684177860;3630.406;304
2024-05-20T22:35:47.365;599617078691869719;3638.0977;257
2024-05-20T22:35:47.372;599617078699561578;3645.7896;223
2024-05-20T22:35:47.380;599617078707253437;3653.4812;259
2024-05-20T22:35:47.388;599617078714945296;3661.1733;235
2024-05-20T22:35:47.395;599617078722637155;3668.865;99
2024-05-20T22:35:47.403;599617078730329014;3676.557;28
2024-05-20T22:35:47.411;599617078738020873;3684.2488;95
2024-05-20T22:35:47.418;599617078745712732;3691.9407;154
2024-05-20T22:35:47.426;599617078753404591;3699.6323;152
2024-05-20T22:35:47.434;599617078761096450;3707.3245;161
2024-05-20T22:35:47.442;599617078768788309;3715.016;185
2024-05-20T22:35:47.449;599617078776480168;3722.708;173
2024-05-20T22:35:47.457;599617078784172027;3730.4;164
2024-05-20T22:35:47.465;599617078791863886;3738.0918;195
2024-05-20T22:35:47.472;599617078799555745;3745.7834;192
2024-05-20T22:35:47.480;599617078807247604;3753.4756;192
2024-05-20T22:35:47.488;599617078814939463;3761.1675;247
2024-05-20T22:35:47.495;599617078822631322;3768.8591;278
2024-05-20T22:35:47.503;599617078830323181;3776.5513;271
2024-05-20T22:35:47.511;599617078838015040;3784.243;278
2024-05-20T22:35:47.518;599617078845706899;3791.9348;249
2024-05-20T22:35:47.526;599617078853398758;3799.6267;164
2024-05-20T22:35:47.534;599617078861090617;3807.3186;169
2024-05-20T22:35:47.542;599617078868782476;3815.0103;509
2024-05-20T22:35:47.549;599617078876474335;3822.7024;1047
2024-05-20T22:35:47.557;599617078884166194;3830.394;1199
2024-05-20T22:35:47.565;599617078891858053;3838.086;709
2024-05-20T22:35:47.572;599617078899549912;3845.7778;173
2024-05-20T22:35:47.580;599617078907241771;3853.4697;154
2024-05-20T22:35:47.588;599617078914933630;3861.1614;307
2024-05-20T22:35:47.595;599617078922625489;3868.8535;257
2024-05-20T22:35:47.603;599617078930317348;3876.5452;221
2024-05-20T22:35:47.611;599617078938009207;3884.237;299
2024-05-20T22:35:47.618;599617078945701066;3891.9292;330
2024-05-20T22:35:47.626;599617078953392925;3899.6208;318
2024-05-20T22:35:47.634;599617078961084784;3907.3127;352
2024-05-20T22:35:47.642;599617078968776643;3915.0046;407
2024-05-20T22:35:47.649;599617078976468502;3922.6965;416
2024-05-20T22:35:47.657;599617078984175470;3930.4033;402
2024-05-20T22:35:47.665;599617078991867120;3938.0952;435
2024-05-20T22:35:47.672;599617078999558770;3945.7866;483
2024-05-20T22:35:47.680;599617079007250420;3953.4785;485
2024-05-20T22:35:47.688;599617079014942070;3961.17;485
2024-05-20T22:35:47.695;599617079022633720;3968.8618;480
2024-05-20T22:35:47.703;599617079030325370;3976.5532;449
2024-05-20T22:35:47.711;599617079038017020;3984.2449;435
2024-05-20T22:35:47.718;599617079045708670;3991.9365;426
2024-05-20T22:35:47.726;599617079053400320;3999.6282;366
2024-05-20T22:35:47.734;599617079061091970;4007.3198;268
2024-05-20T22:35:47.742;599617079068783620;4015.0115;221
2024-05-20T22:35:47.749;599617079076475270;4022.7031;221
2024-05-20T22:35:47.757;599617079084166920;4030.3948;157
2024-05-20T22:35:47.765;599617079091858570;4038.0864;90
2024-05-20T22:35:47.772;599617079099550220;4045.778;99
2024-05-20T22:35:47.780;599617079107241870;4053.4697;99
2024-05-20T22:35:47.788;599617079114933520;4061.1614;59
2024-05-20T22:35:47.795;599617079122625170;4068.853;30
2024-05-20T22:35:47.803;599617079130316820;4076.5447;-16
2024-05-20T22:35:47.811;599617079138008470;4084.2363;-76
2024-05-20T22:35:47.818;599617079145700120;4091.928;-69
2024-05-20T22:35:47.826;599617079153391770;4099.6196;-23
2024-05-20T22:35:47.834;599617079161083420;4107.3115;16
2024-05-20T22:35:47.842;599617079168775070;4115.003;52
2024-05-20T22:35:47.849;599617079176466720;4122.695;54
2024-05-20T22:35:47.857;599617079184158370;4130.386;64
2024-05-20T22:35:47.865;599617079191850020;4138.078;107
2024-05-20T22:35:47.872;599617079199541670;4145.7695;116
2024-05-20T22:35:47.880;599617079207233320;4153.4614;111
2024-05-20T22:35:47.888;599617079214924970;4161.153;119
2024-05-20T22:35:47.895;599617079222616620;4168.8447;80
2024-05-20T22:35:47.903;599617079230308270;4176.536;97
2024-05-20T22:35:47.911;599617079237999920;4184.228;376
2024-05-20T22:35:47.918;599617079245691570;4191.9194;861
2024-05-20T22:35:47.926;599617079253383220;4199.6113;1142
2024-05-20T22:35:47.934;599617079261074870;4207.3027;868
2024-05-20T22:35:47.941;599617079268766520;4214.9946;299
2024-05-20T22:35:47.949;599617079276458170;4222.686;107
2024-05-20T22:35:47.957;599617079284149820;4230.378;273
2024-05-20T22:35:47.965;599617079291841470;4238.0693;299
2024-05-20T22:35:47.972;599617079299533120;4245.761;242
2024-05-20T22:35:47.980;599617079307224770;4253.4526;288
2024-05-20T22:35:47.988;599617079314916420;4261.1445;314
2024-05-20T22:35:47.995;599617079322608070;4268.836;314
2024-05-20T22:35:48.003;599617079330299720;4276.528;359
2024-05-20T22:35:48.011;599617079337991370;4284.219;383
2024-05-20T22:35:48.018;599617079345683020;4291.911;390
2024-05-20T22:35:48.026;599617079353374670;4299.6025;392
2024-05-20T22:35:48.034;599617079361066320;4307.2944;338
2024-05-20T22:35:48.041;599617079368757970;4314.986;295
2024-05-20T22:35:48.049;599617079376449620;4322.6777;354
2024-05-20T22:35:48.057;599617079384141270;4330.369;428
2024-05-20T22:35:48.065;599617079391832920;4338.061;421
2024-05-20T22:35:48.072;599617079399524570;4345.7524;380
2024-05-20T22:35:48.080;599617079407216220;4353.4443;380
2024-05-20T22:35:48.088;599617079414907870;4361.1357;399
2024-05-20T22:35:48.095;599617079422599520;4368.827;359
2024-05-20T22:35:48.103;599617079430291170;4376.519;297
2024-05-20T22:35:48.111;599617079437982820;4384.211;285
2024-05-20T22:35:48.118;599617079445674470;4391.9023;285
2024-05-20T22:35:48.126;599617079453366120;4399.5938;254
2024-05-20T22:35:48.134;599617079461057770;4407.2856;211
2024-05-20T22:35:48.141;599617079468749420;4414.9775;190
2024-05-20T22:35:48.149;599617079476441070;4422.669;188
2024-05-20T22:35:48.157;599617079484132720;4430.3604;176
2024-05-20T22:35:48.165;599617079491824370;4438.0522;183
2024-05-20T22:35:48.172;599617079499516020;4445.744;209
2024-05-20T22:35:48.180;599617079507207670;4453.4355;192
2024-05-20T22:35:48.188;599617079514899320;4461.127;178
2024-05-20T22:35:48.195;599617079522590970;4468.819;197
2024-05-20T22:35:48.203;599617079530282620;4476.5107;199
2024-05-20T22:35:48.211;599617079537974270;4484.202;214
2024-05-20T22:35:48.218;599617079545655900;4491.884;257
2024-05-20T22:35:48.226;599617079553347690;4499.5757;252
2024-05-20T22:35:48.234;599617079561039480;4507.2676;230
2024-05-20T22:35:48.241;599617079568731270;4514.9595;245
2024-05-20T22:35:48.249;599617079576423060;4522.6514;264
2024-05-20T22:35:48.257;599617079584114850;4530.343;268
2024-05-20T22:35:48.265;599617079591806640;4538.0347;209
2024-05-20T22:35:48.272;599617079599498430;4545.7266;99
2024-05-20T22:35:48.280;599617079607190220;4553.4185;190
2024-05-20T22:35:48.288;599617079614882010;4561.11;628
2024-05-20T22:35:48.295;599617079622573800;4568.802;1049
2024-05-20T22:35:48.303;599617079630265590;4576.4937;949
2024-05-20T22:35:48.311;599617079637957380;4584.1855;352
2024-05-20T22:35:48.318;599617079645649170;4591.877;-99
2024-05-20T22:35:48.326;599617079653340960;4599.569;-35
2024-05-20T22:35:48.334;599617079661032750;4607.2607;114
2024-05-20T22:35:48.341;599617079668724540;4614.9526;69
2024-05-20T22:35:48.349;599617079676416330;4622.644;54
2024-05-20T22:35:48.357;599617079684108120;4630.336;99
2024-05-20T22:35:48.365;599617079691799910;4638.028;99
2024-05-20T22:35:48.372;599617079699491700;4645.7197;116
2024-05-20T22:35:48.380;599617079707183490;4653.411;166
2024-05-20T22:35:48.388;599617079714875280;4661.103;211
2024-05-20T22:35:48.395;599617079722567070;4668.795;245
2024-05-20T22:35:48.403;599617079730258860;4676.487;278
2024-05-20T22:35:48.411;599617079737950650;4684.178;314
2024-05-20T22:35:48.418;599617079745642440;4691.87;323
2024-05-20T22:35:48.426;599617079753334230;4699.562;307
2024-05-20T22:35:48.434;599617079761026020;4707.254;314
2024-05-20T22:35:48.441;599617079768717810;4714.9453;366
2024-05-20T22:35:48.449;599617079776409600;4722.637;359
2024-05-20T22:35:48.457;599617079784101390;4730.329;271
2024-05-20T22:35:48.465;599617079791793180;4738.021;254
2024-05-20T22:35:48.472;599617079799484970;4745.7124;307
2024-05-20T22:35:48.480;599617079807176760;4753.4043;288
2024-05-20T22:35:48.488;599617079814868550;4761.0967;230
2024-05-20T22:35:48.495;599617079822560340;4768.7886;214
2024-05-20T22:35:48.503;599617079830252130;4776.4805;183
2024-05-20T22:35:48.511;599617079837943920;4784.172;133
2024-05-20T22:35:48.518;599617079845635710;4791.864;99
2024-05-20T22:35:48.526;599617079853327500;4799.5557;88
2024-05-20T22:35:48.534;599617079861019290;4807.2476;92
2024-05-20T22:35:48.541;599617079868711080;4814.939;69
2024-05-20T22:35:48.549;599617079876402870;4822.631;35
2024-05-20T22:35:48.557;599617079884094660;4830.3228;57
2024-05-20T22:35:48.565;599617079891786450;4838.0146;102
2024-05-20T22:35:48.572;599617079899478240;4845.706;123
2024-05-20T22:35:48.580;599617079907170030;4853.398;147
2024-05-20T22:35:48.588;599617079914861820;4861.09;149
2024-05-20T22:35:48.595;599617079922553610;4868.7817;121
2024-05-20T22:35:48.603;599617079930245400;4876.473;126
2024-05-20T22:35:48.611;599617079937937190;4884.165;159
2024-05-20T22:35:48.618;599617079945628980;4891.857;183
2024-05-20T22:35:48.626;599617079953320770;4899.549;190
2024-05-20T22:35:48.634;599617079961012560;4907.24;173
2024-05-20T22:35:48.641;599617079968704350;4914.932;99
2024-05-20T22:35:48.649;599617079976396140;4922.624;109
2024-05-20T22:35:48.657;599617079984087930;4930.316;440
2024-05-20T22:35:48.665;599617079991779720;4938.0073;937
2024-05-20T22:35:48.672;599617079999471510;4945.699;1085
2024-05-20T22:35:48.680;599617080007163300;4953.391;659
2024-05-20T22:35:48.688;599617080014855090;4961.083;152
2024-05-20T22:35:48.695;599617080022546880;4968.7744;114
2024-05-20T22:35:48.703;599617080030238670;4976.4663;288
2024-05-20T22:35:48.711;599617080037930460;4984.158;257
2024-05-20T22:35:48.718;599617080045622250;4991.85;197
2024-05-20T22:35:48.726;599617080053314040;4999.542;235
2024-05-20T22:35:48.734;599617080061005830;5007.2334;254
2024-05-20T22:35:48.741;599617080068697620;5014.9253;259
2024-05-20T22:35:48.749;599617080076389410;5022.617;285
2024-05-20T22:35:48.757;599617080084081200;5030.309;295
2024-05-20T22:35:48.765;599617080091772990;5038.001;290
2024-05-20T22:35:48.772;599617080099464780;5045.693;283
2024-05-20T22:35:48.780;599617080107156582;5053.385;276
2024-05-20T22:35:48.788;599617080114848372;5061.0767;290
2024-05-20T22:35:48.795;599617080122540162;5068.768;323
2024-05-20T22:35:48.803;599617080130231952;5076.46;340
2024-05-20T22:35:48.811;599617080137923742;5084.152;371
2024-05-20T22:35:48.818;599617080145615532;5091.8438;364
2024-05-20T22:35:48.826;599617080153307322;5099.535;257
2024-05-20T22:35:48.834;599617080160999112;5107.227;157
2024-05-20T22:35:48.841;599617080168690902;5114.919;123
2024-05-20T22:35:48.849;599617080176382692;5122.611;99
2024-05-20T22:35:48.857;599617080184074482;5130.3022;88
2024-05-20T22:35:48.864;599617080191766272;5137.994;52
2024-05-20T22:35:48.872;599617080199458062;5145.686;0
2024-05-20T22:35:48.880;599617080207149852;5153.378;-4
2024-05-20T22:35:48.888;599617080214841642;5161.0693;-4
2024-05-20T22:35:48.895;599617080222533432;5168.761;-26
2024-05-20T22:35:48.903;599617080230225222;5176.453;-30
2024-05-20T22:35:48.911;599617080237917012;5184.145;-16
2024-05-20T22:35:48.918;599617080245608802;5191.837;-11
2024-05-20T22:35:48.926;599617080253300592;5199.5283;-19
2024-05-20T22:35:48.934;599617080260992382;5207.22;-21
2024-05-20T22:35:48.941;599617080268684172;5214.912;16
2024-05-20T22:35:48.949;599617080276375962;5222.604;64
2024-05-20T22:35:48.957;599617080284067752;5230.2954;80
2024-05-20T22:35:48.964;599617080291759542;5237.9873;64
2024-05-20T22:35:48.972;599617080299451332;5245.679;61
2024-05-20T22:35:48.980;599617080307143122;5253.371;80
2024-05-20T22:35:48.988;599617080314834912;5261.0625;104
2024-05-20T22:35:48.995;599617080322526702;5268.7544;140
2024-05-20T22:35:49.003;599617080330218492;5276.4463;130
2024-05-20T22:35:49.011;599617080337910282;5284.138;35
2024-05-20T22:35:49.018;599617080345602072;5291.8296;-30
2024-05-20T22:35:49.026;599617080353293862;5299.5215;78
2024-05-20T22:35:49.034;599617080360985652;5307.2134;483
2024-05-20T22:35:49.041;599617080368677442;5314.906;990
2024-05-20T22:35:49.049;599617080376369232;5322.597;1044
2024-05-20T22:35:49.057;599617080384061022;5330.289;476
2024-05-20T22:35:49.064;599617080391752812;5337.981;-33
2024-05-20T22:35:49.072;599617080399444602;5345.673;54
2024-05-20T22:35:49.080;599617080407136392;5353.3643;223
2024-05-20T22:35:49.088;599617080414828182;5361.056;119
2024-05-20T22:35:49.095;599617080422519972;5368.748;119
2024-05-20T22:35:49.103;599617080430211762;5376.44;223
2024-05-20T22:35:49.111;599617080437903552;5384.1313;190
2024-05-20T22:35:49.118;599617080445595342;5391.823;173
2024-05-20T22:35:49.126;599617080453287132;5399.515;271
2024-05-20T22:35:49.134;599617080460978922;5407.207;290
2024-05-20T22:35:49.141;599617080468670712;5414.899;245
2024-05-20T22:35:49.149;599617080476362502;5422.5903;271
2024-05-20T22:35:49.157;599617080484054292;5430.282;326
2024-05-20T22:35:49.164;599617080491746082;5437.974;357
2024-05-20T22:35:49.172;599617080499437872;5445.666;354
2024-05-20T22:35:49.180;599617080507129662;5453.3574;342
2024-05-20T22:35:49.188;599617080514821452;5461.0493;364
2024-05-20T22:35:49.195;599617080522513242;5468.741;385
2024-05-20T22:35:49.203;599617080530205032;5476.433;357
2024-05-20T22:35:49.211;599617080537896822;5484.1245;307
2024-05-20T22:35:49.218;599617080545588612;5491.8164;288
2024-05-20T22:35:49.226;599617080553280402;5499.5083;297
2024-05-20T22:35:49.234;599617080560972192;5507.2;280
2024-05-20T22:35:49.241;599617080568663982;5514.8916;209
2024-05-20T22:35:49.249;599617080576355772;5522.5835;161
2024-05-20T22:35:49.257;599617080584047562;5530.2754;135
2024-05-20T22:35:49.264;599617080591739352;5537.9673;95
2024-05-20T22:35:49.272;599617080599431142;5545.6587;90
2024-05-20T22:35:49.280;599617080607122932;5553.3506;83
2024-05-20T22:35:49.288;599617080614814722;5561.0425;26
2024-05-20T22:35:49.295;599617080622506512;5568.7344;11
2024-05-20T22:35:49.303;599617080630198302;5576.426;54
2024-05-20T22:35:49.311;599617080637890092;5584.1177;78
2024-05-20T22:35:49.318;599617080645581882;5591.8096;80
2024-05-20T22:35:49.326;599617080653273672;5599.502;47
2024-05-20T22:35:49.334;599617080660965462;5607.1934;4
2024-05-20T22:35:49.341;599617080668657264;5614.8853;7
2024-05-20T22:35:49.349;599617080676349054;5622.577;-9
2024-05-20T22:35:49.357;599617080684040844;5630.269;-23
2024-05-20T22:35:49.364;599617080691732634;5637.961;38
2024-05-20T22:35:49.372;599617080699424424;5645.6523;73
2024-05-20T22:35:49.380;599617080707116214;5653.344;9
2024-05-20T22:35:49.388;599617080714808004;5661.036;-64
2024-05-20T22:35:49.395;599617080722499794;5668.728;-76
2024-05-20T22:35:49.403;599617080730191584;5676.4194;97
2024-05-20T22:35:49.411;599617080737883374;5684.1113;561
2024-05-20T22:35:49.418;599617080745575164;5691.803;975
2024-05-20T22:35:49.426;599617080753266954;5699.495;833
2024-05-20T22:35:49.434;599617080760958744;5707.1865;254
2024-05-20T22:35:49.441;599617080768650534;5714.8784;-45
2024-05-20T22:35:49.449;599617080776342324;5722.5703;99
2024-05-20T22:35:49.457;599617080784034114;5730.262;166
2024-05-20T22:35:49.464;599617080791725904;5737.9536;73
2024-05-20T22:35:49.472;599617080799417694;5745.6455;90
2024-05-20T22:35:49.480;599617080807109484;5753.3374;149
2024-05-20T22:35:49.488;599617080814801274;5761.0293;145
2024-05-20T22:35:49.495;599617080822493064;5768.7207;154
2024-05-20T22:35:49.503;599617080830184854;5776.4126;188
2024-05-20T22:35:49.511;599617080837876644;5784.1045;209
2024-05-20T22:35:49.518;599617080845568434;5791.7964;228
2024-05-20T22:35:49.526;599617080853260224;5799.488;242
2024-05-20T22:35:49.534;599617080860952014;5807.1797;257
2024-05-20T22:35:49.541;599617080868643804;5814.8716;299
2024-05-20T22:35:49.549;599617080876335594;5822.5635;323
2024-05-20T22:35:49.557;599617080884027384;5830.255;297
2024-05-20T22:35:49.564;599617080891719174;5837.947;285
2024-05-20T22:35:49.572;599617080899410964;5845.6387;299
2024-05-20T22:35:49.580;599617080907102754;5853.3306;271
2024-05-20T22:35:49.588;599617080914794544;5861.022;233
2024-05-20T22:35:49.595;599617080922486334;5868.714;238
2024-05-20T22:35:49.603;599617080930178124;5876.4062;249
2024-05-20T22:35:49.611;599617080937869914;5884.098;226
2024-05-20T22:35:49.618;599617080945561704;5891.79;183
2024-05-20T22:35:49.626;599617080953253494;5899.4814;142
2024-05-20T22:35:49.634;599617080960945284;5907.1733;126
2024-05-20T22:35:49.641;599617080968637074;5914.865;111
2024-05-20T22:35:49.649;599617080976328864;5922.557;85
2024-05-20T22:35:49.657;599617080984020654;5930.2485;61
2024-05-20T22:35:49.664;599617080991712444;5937.9404;54
2024-05-20T22:35:49.672;599617080999404234;5945.6323;59
2024-05-20T22:35:49.680;599617081007096024;5953.324;66
2024-05-20T22:35:49.688;599617081014787814;5961.0156;61
2024-05-20T22:35:49.695;599617081022479604;5968.7075;61
2024-05-20T22:35:49.703;599617081030171394;5976.3994;99
2024-05-20T22:35:49.711;599617081037863184;5984.0913;104
2024-05-20T22:35:49.718;599617081045554974;5991.7827;71
2024-05-20T22:35:49.726;599617081053246764;5999.4746;78
2024-05-20T22:35:49.734;599617081060938554;6007.1665;109
2024-05-20T22:35:49.741;599617081068630344;6014.8584;121
2024-05-20T22:35:49.749;599617081076322134;6022.55;104
2024-05-20T22:35:49.757;599617081084013924;6030.2417;42
2024-05-20T22:35:49.764;599617081091705714;6037.9336;-28
2024-05-20T22:35:49.772;599617081099397504;6045.6255;7
2024-05-20T22:35:49.780;599617081107089294;6053.317;333
2024-05-20T22:35:49.788;599617081114781084;6061.009;818
2024-05-20T22:35:49.795;599617081122472874;6068.7007;985
2024-05-20T22:35:49.803;599617081130164664;6076.3926;597
2024-05-20T22:35:49.811;599617081137856454;6084.084;83
2024-05-20T22:35:49.818;599617081145548244;6091.776;14
2024-05-20T22:35:49.826;599617081153240034;6099.468;154
2024-05-20T22:35:49.834;599617081160931824;6107.1597;57
2024-05-20T22:35:49.841;599617081168623614;6114.8516;-45
2024-05-20T22:35:49.849;599617081176315404;6122.543;30
2024-05-20T22:35:49.857;599617081184007194;6130.235;64
2024-05-20T22:35:49.864;599617081191698984;6137.927;42
2024-05-20T22:35:49.872;599617081199390774;6145.6187;104
2024-05-20T22:35:49.880;599617081207082564;6153.3105;166
2024-05-20T22:35:49.888;599617081214774354;6161.0024;145
2024-05-20T22:35:49.895;599617081222466144;6168.6943;147
2024-05-20T22:35:49.903;599617081230183072;6176.411;209
2024-05-20T22:35:49.911;599617081237874513;6184.1025;247
2024-05-20T22:35:49.918;599617081245565954;6191.7935;245
2024-05-20T22:35:49.926;599617081253257395;6199.4854;249
2024-05-20T22:35:49.934;599617081260948836;6207.177;271
2024-05-20T22:35:49.941;599617081268640277;6214.868;264
2024-05-20T22:35:49.949;599617081276331718;6222.5596;197
2024-05-20T22:35:49.957;599617081284023159;6230.251;107
2024-05-20T22:35:49.964;599617081291714600;6237.9424;73
2024-05-20T22:35:49.972;599617081299406041;6245.6343;78
2024-05-20T22:35:49.980;599617081307097482;6253.325;47
2024-05-20T22:35:49.988;599617081314788923;6261.0166;21
2024-05-20T22:35:49.995;599617081322480364;6268.7085;2
2024-05-20T22:35:50.003;599617081330171805;6276.3994;-57
2024-05-20T22:35:50.011;599617081337863246;6284.0913;-104
2024-05-20T22:35:50.018;599617081345554687;6291.7827;-126
2024-05-20T22:35:50.026;599617081353246128;6299.474;-147
2024-05-20T22:35:50.034;599617081360937569;6307.1655;-157
2024-05-20T22:35:50.041;599617081368629010;6314.857;-152
2024-05-20T22:35:50.049;599617081376320451;6322.5483;-157
2024-05-20T22:35:50.057;599617081384011892;6330.24;-140
2024-05-20T22:35:50.064;599617081391703333;6337.931;-111
2024-05-20T22:35:50.072;599617081399394774;6345.6226;-119
2024-05-20T22:35:50.080;599617081407086215;6353.3145;-114
2024-05-20T22:35:50.088;599617081414777656;6361.0054;-88
2024-05-20T22:35:50.095;599617081422469097;6368.697;-92
2024-05-20T22:35:50.103;599617081430160538;6376.3887;-102
2024-05-20T22:35:50.111;599617081437851979;6384.08;-69
2024-05-20T22:35:50.118;599617081445543420;6391.771;-38
2024-05-20T22:35:50.126;599617081453234861;6399.463;-38
2024-05-20T22:35:50.134;599617081460926302;6407.1543;-64
2024-05-20T22:35:50.141;599617081468617743;6414.845;-121
2024-05-20T22:35:50.149;599617081476309184;6422.537;-116
2024-05-20T22:35:50.157;599617081484000625;6430.2285;102
2024-05-20T22:35:50.164;599617081491692066;6437.92;516
2024-05-20T22:35:50.172;599617081499383507;6445.6113;806
2024-05-20T22:35:50.180;599617081507074948;6453.3027;623
2024-05-20T22:35:50.187;599617081514766389;6460.994;119
2024-05-20T22:35:50.195;599617081522457830;6468.686;-121
2024-05-20T22:35:50.203;599617081530149271;6476.377;-19
2024-05-20T22:35:50.211;599617081537840712;6484.069;4
2024-05-20T22:35:50.218;599617081545532153;6491.7603;-54
2024-05-20T22:35:50.226;599617081553223594;6499.451;-26
2024-05-20T22:35:50.234;599617081560915035;6507.143;-9
2024-05-20T22:35:50.241;599617081568606476;6514.8345;-45
2024-05-20T22:35:50.249;599617081576297917;6522.526;-69
2024-05-20T22:35:50.257;599617081583989358;6530.2173;-61
2024-05-20T22:35:50.264;599617081591680799;6537.9087;-16
2024-05-20T22:35:50.272;599617081599372240;6545.6;26
2024-05-20T22:35:50.280;599617081607063681;6553.292;42
2024-05-20T22:35:50.287;599617081614755122;6560.983;59
2024-05-20T22:35:50.295;599617081622446563;6568.6743;88
2024-05-20T22:35:50.303;599617081630138004;6576.366;92
2024-05-20T22:35:50.311;599617081637829445;6584.057;73
2024-05-20T22:35:50.318;599617081645520886;6591.7485;73
2024-05-20T22:35:50.326;599617081653212327;6599.4404;80
2024-05-20T22:35:50.334;599617081660903768;6607.132;26
2024-05-20T22:35:50.341;599617081668595209;6614.8228;-78
2024-05-20T22:35:50.349;599617081676286650;6622.5146;-116
2024-05-20T22:35:50.357;599617081683978091;6630.206;-92
2024-05-20T22:35:50.364;599617081691669532;6637.897;-99
2024-05-20T22:35:50.372;599617081699360973;6645.589;-130
2024-05-20T22:35:50.380;599617081707052414;6653.2803;-135
2024-05-20T22:35:50.387;599617081714743855;6660.9717;-145
2024-05-20T22:35:50.395;599617081722435296;6668.663;-190
2024-05-20T22:35:50.403;599617081730126737;6676.3545;-223
2024-05-20T22:35:50.411;599617081737818178;6684.0464;-228
2024-05-20T22:35:50.418;599617081745509619;6691.738;-223
2024-05-20T22:35:50.426;599617081753201060;6699.4287;-209
2024-05-20T22:35:50.434;599617081760892501;6707.1206;-195
2024-05-20T22:35:50.441;599617081768583942;6714.812;-207
2024-05-20T22:35:50.449;599617081776275383;6722.503;-211
2024-05-20T22:35:50.457;599617081783966824;6730.195;-188
2024-05-20T22:35:50.464;599617081791638236;6737.866;-157
2024-05-20T22:35:50.472;599617081799329956;6745.558;-152
2024-05-20T22:35:50.480;599617081807021676;6753.25;-178
2024-05-20T22:35:50.487;599617081814713396;6760.941;-202
2024-05-20T22:35:50.495;599617081822405116;6768.633;-197
2024-05-20T22:35:50.503;599617081830096836;6776.3247;-159
2024-05-20T22:35:50.511;599617081837788556;6784.0166;-135
2024-05-20T22:35:50.518;599617081845480276;6791.708;-195
2024-05-20T22:35:50.526;599617081853171996;6799.4;-321
2024-05-20T22:35:50.534;599617081860863716;6807.092;-316
2024-05-20T22:35:50.541;599617081868555436;6814.7837;30
2024-05-20T22:35:50.549;599617081876247156;6822.475;535
2024-05-20T22:35:50.557;599617081883938876;6830.1665;697
2024-05-20T22:35:50.564;599617081891630596;6837.8584;290
2024-05-20T22:35:50.572;599617081899322316;6845.5503;-223
2024-05-20T22:35:50.580;599617081907014036;6853.2417;-290
2024-05-20T22:35:50.587;599617081914705756;6860.9336;-126
2024-05-20T22:35:50.595;599617081922397476;6868.6255;-111
2024-05-20T22:35:50.603;599617081930089196;6876.3174;-152
2024-05-20T22:35:50.611;599617081937780916;6884.009;-130
2024-05-20T22:35:50.618;599617081945472636;6891.7007;-92
2024-05-20T22:35:50.626;599617081953164356;6899.3926;-64
2024-05-20T22:35:50.634;599617081960856076;6907.084;-66
2024-05-20T22:35:50.641;599617081968547796;6914.7754;-52
2024-05-20T22:35:50.649;599617081976239516;6922.4673;-11
2024-05-20T22:35:50.657;599617081983931236;6930.159;28
2024-05-20T22:35:50.664;599617081991622956;6937.851;57
2024-05-20T22:35:50.672;599617081999314676;6945.5425;57
2024-05-20T22:35:50.680;599617082007006396;6953.2344;59
2024-05-20T22:35:50.687;599617082014698116;6960.9263;95
2024-05-20T22:35:50.695;599617082022389836;6968.618;104
2024-05-20T22:35:50.703;599617082030081556;6976.309;85
2024-05-20T22:35:50.711;599617082037773276;6984.001;71
2024-05-20T22:35:50.718;599617082045464996;6991.693;21
2024-05-20T22:35:50.726;599617082053156716;6999.385;-11
2024-05-20T22:35:50.734;599617082060848436;7007.076;11
2024-05-20T22:35:50.741;599617082068540156;7014.768;-26
2024-05-20T22:35:50.749;599617082076231876;7022.46;-85
2024-05-20T22:35:50.757;599617082083923596;7030.152;-88
2024-05-20T22:35:50.764;599617082091615316;7037.8433;-133
2024-05-20T22:35:50.772;599617082099307036;7045.5347;-207
2024-05-20T22:35:50.780;599617082106998756;7053.2266;-207
2024-05-20T22:35:50.787;599617082114690476;7060.9185;-180
2024-05-20T22:35:50.795;599617082122382196;7068.61;-195
2024-05-20T22:35:50.803;599617082130073916;7076.302;-218
2024-05-20T22:35:50.810;599617082137765636;7083.9937;-249
2024-05-20T22:35:50.818;599617082145457356;7091.6855;-261
2024-05-20T22:35:50.826;599617082153149076;7099.377;-202
2024-05-20T22:35:50.834;599617082160840796;7107.069;-149
2024-05-20T22:35:50.841;599617082168532516;7114.7603;-202
2024-05-20T22:35:50.849;599617082176224236;7122.452;-261
2024-05-20T22:35:50.857;599617082183915956;7130.1436;-273
2024-05-20T22:35:50.864;599617082191607676;7137.8354;-278
2024-05-20T22:35:50.872;599617082199299396;7145.5273;-259
2024-05-20T22:35:50.880;599617082206991116;7153.219;-230
2024-05-20T22:35:50.887;599617082214682836;7160.9106;-199
2024-05-20T22:35:50.895;599617082222374556;7168.6025;-154
2024-05-20T22:35:50.903;599617082230066276;7176.2944;-173
2024-05-20T22:35:50.910;599617082237757996;7183.986;-261
2024-05-20T22:35:50.918;599617082245449716;7191.6772;-204
2024-05-20T22:35:50.926;599617082253141436;7199.369;199
2024-05-20T22:35:50.934;599617082260833156;7207.061;745
2024-05-20T22:35:50.941;599617082268524876;7214.753;845
2024-05-20T22:35:50.949;599617082276216596;7222.4443;309
2024-05-20T22:35:50.957;599617082283908316;7230.136;-197
2024-05-20T22:35:50.964;599617082291600036;7237.828;-147
2024-05-20T22:35:50.972;599617082299291756;7245.52;7
2024-05-20T22:35:50.980;599617082306983476;7253.211;-114
2024-05-20T22:35:50.987;599617082314675196;7260.903;-188
2024-05-20T22:35:50.995;599617082322366916;7268.5947;-92
2024-05-20T22:35:51.003;599617082330058636;7276.2866;-69
2024-05-20T22:35:51.010;599617082337750356;7283.978;-102
2024-05-20T22:35:51.018;599617082345442076;7291.67;-61
2024-05-20T22:35:51.026;599617082353128792;7299.3564;-9
2024-05-20T22:35:51.034;599617082360820582;7307.0483;11
2024-05-20T22:35:51.041;599617082368512372;7314.74;59
2024-05-20T22:35:51.049;599617082376204162;7322.432;97
2024-05-20T22:35:51.057;599617082383895952;7330.1235;92
2024-05-20T22:35:51.064;599617082391587742;7337.8154;88
2024-05-20T22:35:51.072;599617082399279532;7345.5073;121
2024-05-20T22:35:51.080;599617082406971322;7353.199;149
2024-05-20T22:35:51.087;599617082414663112;7360.891;85
2024-05-20T22:35:51.095;599617082422354902;7368.5825;-26
2024-05-20T22:35:51.103;599617082430046692;7376.2744;2
2024-05-20T22:35:51.110;599617082437738482;7383.9663;59
2024-05-20T22:35:51.118;599617082445430272;7391.658;-21
2024-05-20T22:35:51.126;599617082453122062;7399.3496;-97
2024-05-20T22:35:51.134;599617082460813852;7407.0415;-78
2024-05-20T22:35:51.141;599617082468505642;7414.7334;-73
2024-05-20T22:35:51.149;599617082476197432;7422.4253;-114
2024-05-20T22:35:51.157;599617082483889222;7430.117;-116
2024-05-20T22:35:51.164;599617082491581012;7437.809;-114
2024-05-20T22:35:51.172;599617082499272802;7445.501;-161
2024-05-20T22:35:51.180;599617082506964592;7453.193;-180
2024-05-20T22:35:51.187;599617082514656382;7460.8843;-154
2024-05-20T22:35:51.195;599617082522348172;7468.576;-126
2024-05-20T22:35:51.203;599617082530039962;7476.268;-102
2024-05-20T22:35:51.210;599617082537731752;7483.96;-80
2024-05-20T22:35:51.218;599617082545423542;7491.6514;-99
2024-05-20T22:35:51.226;599617082553115332;7499.3433;-157
2024-05-20T22:35:51.234;599617082560807122;7507.035;-173
2024-05-20T22:35:51.241;599617082568498912;7514.727;-130
2024-05-20T22:35:51.249;599617082576190702;7522.4185;-90
2024-05-20T22:35:51.257;599617082583882492;7530.1104;-64
2024-05-20T22:35:51.264;599617082591574282;7537.8022;-45
2024-05-20T22:35:51.272;599617082599266072;7545.494;-64
2024-05-20T22:35:51.280;599617082606957862;7553.186;-78
2024-05-20T22:35:51.287;599617082614649652;7560.8774;-57
2024-05-20T22:35:51.295;599617082622341442;7568.5693;-78
2024-05-20T22:35:51.303;599617082630033232;7576.261;-23
2024-05-20T22:35:51.310;599617082637725022;7583.953;376
2024-05-20T22:35:51.318;599617082645416812;7591.6445;899
2024-05-20T22:35:51.326;599617082653108602;7599.3364;949
2024-05-20T22:35:51.334;599617082660800392;7607.0283;423
2024-05-20T22:35:51.341;599617082668492182;7614.72;-61
2024-05-20T22:35:51.349;599617082676183972;7622.4116;-64
2024-05-20T22:35:51.357;599617082683875762;7630.1035;-4
2024-05-20T22:35:51.364;599617082691567552;7637.7954;-142
2024-05-20T22:35:51.372;599617082699259342;7645.4873;-145
2024-05-20T22:35:51.380;599617082706951132;7653.1787;-21
2024-05-20T22:35:51.387;599617082714642922;7660.8706;4
2024-05-20T22:35:51.395;599617082722334712;7668.5625;7
2024-05-20T22:35:51.403;599617082730026502;7676.2544;42
2024-05-20T22:35:51.410;599617082737718292;7683.946;57
2024-05-20T22:35:51.418;599617082745410082;7691.6377;69
2024-05-20T22:35:51.426;599617082753101872;7699.3296;111
2024-05-20T22:35:51.434;599617082760793662;7707.0215;154
2024-05-20T22:35:51.441;599617082768485452;7714.7134;183
2024-05-20T22:35:51.449;599617082776177242;7722.4053;190
2024-05-20T22:35:51.457;599617082783869032;7730.097;171
2024-05-20T22:35:51.464;599617082791560822;7737.789;140
2024-05-20T22:35:51.472;599617082799252612;7745.4805;97
2024-05-20T22:35:51.480;599617082806944402;7753.1724;47
2024-05-20T22:35:51.487;599617082814636192;7760.8643;21
2024-05-20T22:35:51.495;599617082822327982;7768.556;23
2024-05-20T22:35:51.503;599617082830019772;7776.248;4
2024-05-20T22:35:51.510;599617082837711562;7783.9395;-59
2024-05-20T22:35:51.518;599617082845403352;7791.6313;-90
2024-05-20T22:35:51.526;599617082853095142;7799.323;-54
2024-05-20T22:35:51.534;599617082860786932;7807.015;-42
2024-05-20T22:35:51.541;599617082868478722;7814.7065;-73
2024-05-20T22:35:51.549;599617082876170512;7822.3984;-88
2024-05-20T22:35:51.557;599617082883862302;7830.0903;-80
2024-05-20T22:35:51.564;599617082891554092;7837.782;-71
2024-05-20T22:35:51.572;599617082899245882;7845.4736;-61
2024-05-20T22:35:51.580;599617082906937672;7853.1655;-64
2024-05-20T22:35:51.587;599617082914629474;7860.8574;-54
2024-05-20T22:35:51.595;599617082922321264;7868.5493;-57
2024-05-20T22:35:51.603;599617082930013054;7876.2407;-78
2024-05-20T22:35:51.610;599617082937704844;7883.9326;-54
2024-05-20T22:35:51.618;599617082945396634;7891.6245;-9
2024-05-20T22:35:51.626;599617082953088424;7899.3164;11
2024-05-20T22:35:51.634;599617082960780214;7907.008;14
2024-05-20T22:35:51.641;599617082968472004;7914.6997;14
2024-05-20T22:35:51.649;599617082976163794;7922.3916;40
2024-05-20T22:35:51.657;599617082983855584;7930.0835;57
2024-05-20T22:35:51.664;599617082991547374;7937.775;21
2024-05-20T22:35:51.672;599617082999239164;7945.467;-38
2024-05-20T22:35:51.680;599617083006930954;7953.1587;-80
2024-05-20T22:35:51.687;599617083014622744;7960.8506;11
2024-05-20T22:35:51.695;599617083022314534;7968.542;407
2024-05-20T22:35:51.703;599617083030006324;7976.234;902
2024-05-20T22:35:51.710;599617083037698114;7983.9263;945
2024-05-20T22:35:51.718;599617083045389904;7991.618;385
2024-05-20T22:35:51.726;599617083053081694;7999.31;-99
2024-05-20T22:35:51.734;599617083060773484;8007.0015;-38
2024-05-20T22:35:51.741;599617083068465274;8014.6934;80
2024-05-20T22:35:51.749;599617083076157064;8022.3853;-9
2024-05-20T22:35:51.757;599617083083848854;8030.077;-14
2024-05-20T22:35:51.764;599617083091540644;8037.7686;83
2024-05-20T22:35:51.772;599617083099232434;8045.4604;121
2024-05-20T22:35:51.780;599617083106924224;8053.1523;119
2024-05-20T22:35:51.787;599617083114616014;8060.844;133
2024-05-20T22:35:51.795;599617083122307804;8068.5356;166
2024-05-20T22:35:51.803;599617083129999594;8076.2275;195
2024-05-20T22:35:51.810;599617083137691384;8083.9194;216
2024-05-20T22:35:51.818;599617083145383174;8091.6113;233
2024-05-20T22:35:51.826;599617083153074964;8099.3027;259
2024-05-20T22:35:51.833;599617083160766754;8106.9946;278
2024-05-20T22:35:51.841;599617083168458544;8114.6865;254
2024-05-20T22:35:51.849;599617083176150334;8122.3784;221
2024-05-20T22:35:51.857;599617083183842124;8130.07;176
2024-05-20T22:35:51.864;599617083191533914;8137.7617;88
2024-05-20T22:35:51.872;599617083199225704;8145.4536;14
2024-05-20T22:35:51.880;599617083206917494;8153.1455;-2
2024-05-20T22:35:51.887;599617083214609284;8160.837;-16
2024-05-20T22:35:51.895;599617083222301074;8168.529;-52
2024-05-20T22:35:51.903;599617083229992864;8176.2207;-52
2024-05-20T22:35:51.910;599617083237684654;8183.9126;-16
2024-05-20T22:35:51.918;599617083245376444;8191.604;-14
2024-05-20T22:35:51.926;599617083253068234;8199.296;-52
2024-05-20T22:35:51.933;599617083260760024;8206.987;-59
2024-05-20T22:35:51.941;599617083268451814;8214.68;-16
2024-05-20T22:35:51.949;599617083276143604;8222.371;7
2024-05-20T22:35:51.957;599617083283835394;8230.063;14
2024-05-20T22:35:51.964;599617083291527184;8237.755;-4
2024-05-20T22:35:51.972;599617083299218974;8245.446;-57
2024-05-20T22:35:51.980;599617083306910764;8253.139;-66
2024-05-20T22:35:51.987;599617083314602554;8260.83;-23
2024-05-20T22:35:51.995;599617083322294344;8268.522;16
2024-05-20T22:35:52.003;599617083329986134;8276.214;30
2024-05-20T22:35:52.010;599617083337677924;8283.906;40
2024-05-20T22:35:52.018;599617083345369714;8291.598;57
2024-05-20T22:35:52.026;599617083353061504;8299.29;71
2024-05-20T22:35:52.033;599617083360753294;8306.981;92
2024-05-20T22:35:52.041;599617083368445084;8314.673;123
2024-05-20T22:35:52.049;599617083376136874;8322.365;123
2024-05-20T22:35:52.057;599617083383828664;8330.057;88
2024-05-20T22:35:52.064;599617083391520454;8337.748;57
2024-05-20T22:35:52.072;599617083399212244;8345.44;85
2024-05-20T22:35:52.080;599617083406904034;8353.132;316
2024-05-20T22:35:52.087;599617083414595824;8360.824;766
2024-05-20T22:35:52.095;599617083422287614;8368.516;1068
2024-05-20T22:35:52.103;599617083429979404;8376.207;818
2024-05-20T22:35:52.110;599617083437671194;8383.899;252
2024-05-20T22:35:52.118;599617083445362984;8391.591;49
2024-05-20T22:35:52.126;599617083453054774;8399.282;209
2024-05-20T22:35:52.133;599617083460746564;8406.975;238
2024-05-20T22:35:52.141;599617083468438354;8414.666;147
2024-05-20T22:35:52.149;599617083476160252;8422.389;161
2024-05-20T22:35:52.157;599617083483851624;8430.079;207
2024-05-20T22:35:52.164;599617083491542996;8437.7705;218
2024-05-20T22:35:52.172;599617083499234368;8445.463;235
2024-05-20T22:35:52.180;599617083506925740;8453.153;266
2024-05-20T22:35:52.187;599617083514617112;8460.845;292
2024-05-20T22:35:52.195;599617083522308484;8468.536;278
2024-05-20T22:35:52.203;599617083529999856;8476.228;204
2024-05-20T22:35:52.210;599617083537691228;8483.919;121
2024-05-20T22:35:52.218;599617083545382600;8491.61;104
2024-05-20T22:35:52.226;599617083553073972;8499.302;135
2024-05-20T22:35:52.233;599617083560765344;8506.993;123
2024-05-20T22:35:52.241;599617083568456716;8514.685;54
2024-05-20T22:35:52.249;599617083576148088;8522.376;7
2024-05-20T22:35:52.257;599617083583839460;8530.067;4
2024-05-20T22:35:52.264;599617083591530832;8537.759;-11
2024-05-20T22:35:52.272;599617083599222204;8545.45;-38
2024-05-20T22:35:52.280;599617083606913576;8553.142;-42
2024-05-20T22:35:52.287;599617083614604948;8560.833;-76
2024-05-20T22:35:52.295;599617083622296320;8568.524;-114
2024-05-20T22:35:52.303;599617083629987692;8576.216;-90
2024-05-20T22:35:52.310;599617083637679064;8583.907;-54
2024-05-20T22:35:52.318;599617083645370436;8591.599;-52
2024-05-20T22:35:52.326;599617083653061808;8599.29;-57
2024-05-20T22:35:52.333;599617083660753180;8606.981;-38
2024-05-20T22:35:52.341;599617083668444552;8614.673;-21
2024-05-20T22:35:52.349;599617083676135924;8622.363;-38
2024-05-20T22:35:52.357;599617083683827296;8630.055;-71
2024-05-20T22:35:52.364;599617083691518668;8637.746;-126
2024-05-20T22:35:52.372;599617083699210040;8645.4375;-173
2024-05-20T22:35:52.380;599617083706901412;8653.13;-157
2024-05-20T22:35:52.387;599617083714592784;8660.821;-123
2024-05-20T22:35:52.395;599617083722284156;8668.513;-114
2024-05-20T22:35:52.403;599617083729975528;8676.203;-80
2024-05-20T22:35:52.410;599617083737666900;8683.895;-33
2024-05-20T22:35:52.418;599617083745358272;8691.586;-19
2024-05-20T22:35:52.426;599617083753049644;8699.277;-26
2024-05-20T22:35:52.433;599617083760741016;8706.969;-16
2024-05-20T22:35:52.441;599617083768432388;8714.66;19
2024-05-20T22:35:52.449;599617083776123760;8722.353;38
2024-05-20T22:35:52.457;599617083783815132;8730.043;-19
2024-05-20T22:35:52.464;599617083791506504;8737.734;-92
2024-05-20T22:35:52.472;599617083799197876;8745.426;54
2024-05-20T22:35:52.480;599617083806889248;8753.117;523
2024-05-20T22:35:52.487;599617083814580620;8760.809;918
2024-05-20T22:35:52.495;599617083822271992;8768.5;756
2024-05-20T22:35:52.503;599617083829963364;8776.191;195
2024-05-20T22:35:52.510;599617083837654736;8783.882;-92
2024-05-20T22:35:52.518;599617083845346108;8791.573;42
2024-05-20T22:35:52.526;599617083853037480;8799.266;128
2024-05-20T22:35:52.533;599617083860728852;8806.957;40
2024-05-20T22:35:52.541;599617083868420224;8814.648;45
2024-05-20T22:35:52.549;599617083876111596;8822.34;130
2024-05-20T22:35:52.557;599617083883802968;8830.031;149
2024-05-20T22:35:52.564;599617083891494340;8837.722;142
2024-05-20T22:35:52.572;599617083899185712;8845.413;183
2024-05-20T22:35:52.580;599617083906877084;8853.1045;197
2024-05-20T22:35:52.587;599617083914568456;8860.796;161
2024-05-20T22:35:52.595;599617083922259828;8868.488;157
2024-05-20T22:35:52.603;599617083929951200;8876.18;188
2024-05-20T22:35:52.610;599617083937642572;8883.871;183
2024-05-20T22:35:52.618;599617083945333944;8891.562;152
2024-05-20T22:35:52.626;599617083953025316;8899.253;130
2024-05-20T22:35:52.633;599617083960716688;8906.944;116
2024-05-20T22:35:52.641;599617083968408060;8914.636;90
2024-05-20T22:35:52.649;599617083976099432;8922.327;57
2024-05-20T22:35:52.657;599617083983790804;8930.019;28
2024-05-20T22:35:52.664;599617083991482176;8937.711;30
2024-05-20T22:35:52.672;599617083999173548;8945.402;42
2024-05-20T22:35:52.680;599617084006864920;8953.093;35
2024-05-20T22:35:52.687;599617084014556292;8960.784;28
2024-05-20T22:35:52.695;599617084022247664;8968.476;26
2024-05-20T22:35:52.703;599617084029939036;8976.167;-7
2024-05-20T22:35:52.710;599617084037600320;8983.828;-42
2024-05-20T22:35:52.718;599617084045292110;8991.52;-42
2024-05-20T22:35:52.726;599617084052983900;8999.212;-30
2024-05-20T22:35:52.733;599617084060675690;9006.903;-21
2024-05-20T22:35:52.741;599617084068367480;9014.596;-2
2024-05-20T22:35:52.749;599617084076059270;9022.287;-9
2024-05-20T22:35:52.756;599617084083751060;9029.9795;-19
2024-05-20T22:35:52.764;599617084091442850;9037.67;-9
2024-05-20T22:35:52.772;599617084099134640;9045.362;-28
2024-05-20T22:35:52.780;599617084106826430;9053.054;-42
2024-05-20T22:35:52.787;599617084114518220;9060.746;-9
2024-05-20T22:35:52.795;599617084122210010;9068.4375;7
2024-05-20T22:35:52.803;599617084129901800;9076.13;7
2024-05-20T22:35:52.810;599617084137593590;9083.821;33
2024-05-20T22:35:52.818;599617084145285380;9091.514;69
2024-05-20T22:35:52.826;599617084152977170;9099.205;85
2024-05-20T22:35:52.833;599617084160668960;9106.896;76
2024-05-20T22:35:52.841;599617084168360750;9114.588;80
2024-05-20T22:35:52.849;599617084176052540;9122.28;90
2024-05-20T22:35:52.856;599617084183744330;9129.973;47
2024-05-20T22:35:52.864;599617084191436120;9137.664;126
2024-05-20T22:35:52.872;599617084199127910;9145.356;511
2024-05-20T22:35:52.880;599617084206819700;9153.048;942
2024-05-20T22:35:52.887;599617084214511490;9160.74;914
2024-05-20T22:35:52.895;599617084222203280;9168.431;333
2024-05-20T22:35:52.903;599617084229895070;9176.123;-130
2024-05-20T22:35:52.910;599617084237586860;9183.814;-7
2024-05-20T22:35:52.918;599617084245278650;9191.507;166
2024-05-20T22:35:52.926;599617084252970440;9199.198;69
2024-05-20T22:35:52.933;599617084260662230;9206.891;33
2024-05-20T22:35:52.941;599617084268354020;9214.582;114
2024-05-20T22:35:52.949;599617084276045810;9222.274;111
2024-05-20T22:35:52.956;599617084283737600;9229.965;38
2024-05-20T22:35:52.964;599617084291429390;9237.657;21
2024-05-20T22:35:52.972;599617084299121180;9245.349;88
2024-05-20T22:35:52.980;599617084306812970;9253.041;123
2024-05-20T22:35:52.987;599617084314504760;9260.732;95
2024-05-20T22:35:52.995;599617084322196550;9268.425;95
2024-05-20T22:35:53.003;599617084329888340;9276.116;99
2024-05-20T22:35:53.010;599617084337580130;9283.809;54
2024-05-20T22:35:53.018;599617084345271920;9291.5;28
2024-05-20T22:35:53.026;599617084352963710;9299.191;38
2024-05-20T22:35:53.033;599617084360655500;9306.883;19
2024-05-20T22:35:53.041;599617084368347290;9314.575;-7
2024-05-20T22:35:53.049;599617084376039080;9322.267;9
2024-05-20T22:35:53.056;599617084383730870;9329.959;45
2024-05-20T22:35:53.064;599617084391422660;9337.65;57
2024-05-20T22:35:53.072;599617084399114450;9345.343;52
2024-05-20T22:35:53.080;599617084406806240;9353.034;73
2024-05-20T22:35:53.087;599617084414498030;9360.726;95
2024-05-20T22:35:53.095;599617084422189820;9368.417;88
2024-05-20T22:35:53.103;599617084429881610;9376.109;90
2024-05-20T22:35:53.110;599617084437573400;9383.801;92
2024-05-20T22:35:53.118;599617084445265190;9391.493;104
2024-05-20T22:35:53.126;599617084452956980;9399.185;152
2024-05-20T22:35:53.133;599617084460648770;9406.877;166
2024-05-20T22:35:53.141;599617084468340560;9414.569;133
2024-05-20T22:35:53.149;599617084476032350;9422.26;142
2024-05-20T22:35:53.156;599617084483724140;9429.952;166
2024-05-20T22:35:53.164;599617084491415930;9437.644;154
2024-05-20T22:35:53.172;599617084499107720;9445.336;173
2024-05-20T22:35:53.180;599617084506799510;9453.027;226
2024-05-20T22:35:53.187;599617084514491300;9460.72;257
2024-05-20T22:35:53.195;599617084522183090;9468.411;259
2024-05-20T22:35:53.203;599617084529874880;9476.104;221
2024-05-20T22:35:53.210;599617084537566670;9483.794;190
2024-05-20T22:35:53.218;599617084545258460;9491.486;223
2024-05-20T22:35:53.226;599617084552950250;9499.178;285
2024-05-20T22:35:53.233;599617084560642040;9506.87;302
2024-05-20T22:35:53.241;599617084568333830;9514.562;257
2024-05-20T22:35:53.249;599617084576025620;9522.254;199
2024-05-20T22:35:53.256;599617084583717410;9529.945;223
2024-05-20T22:35:53.264;599617084591409200;9537.638;504
2024-05-20T22:35:53.272;599617084599101002;9545.329;1006
2024-05-20T22:35:53.280;599617084606792792;9553.0205;1256
2024-05-20T22:35:53.287;599617084614484582;9560.712;892
2024-05-20T22:35:53.295;599617084622176372;9568.404;283
2024-05-20T22:35:53.303;599617084629868162;9576.096;104
2024-05-20T22:35:53.310;599617084637559952;9583.788;235
2024-05-20T22:35:53.318;599617084645251742;9591.4795;188
2024-05-20T22:35:53.326;599617084652943532;9599.172;111
2024-05-20T22:35:53.333;599617084660635322;9606.863;157
2024-05-20T22:35:53.341;599617084668327112;9614.555;157
2024-05-20T22:35:53.349;599617084676018902;9622.246;107
2024-05-20T22:35:53.356;599617084683710692;9629.938;111
2024-05-20T22:35:53.364;599617084691402482;9637.63;133
2024-05-20T22:35:53.372;599617084699094272;9645.322;88
2024-05-20T22:35:53.380;599617084706786062;9653.014;9
2024-05-20T22:35:53.387;599617084714477852;9660.706;-16
2024-05-20T22:35:53.395;599617084722169642;9668.397;-16
2024-05-20T22:35:53.403;599617084729861432;9676.089;-16
2024-05-20T22:35:53.410;599617084737553222;9683.781;-7
2024-05-20T22:35:53.418;599617084745245012;9691.473;21
2024-05-20T22:35:53.426;599617084752936802;9699.165;40
2024-05-20T22:35:53.433;599617084760628592;9706.856;7
2024-05-20T22:35:53.441;599617084768320382;9714.549;-42
2024-05-20T22:35:53.449;599617084776012172;9722.24;-59
2024-05-20T22:35:53.456;599617084783703962;9729.933;-61
2024-05-20T22:35:53.464;599617084791395752;9737.624;-61
2024-05-20T22:35:53.472;599617084799087542;9745.315;-9
2024-05-20T22:35:53.480;599617084806779332;9753.007;23
2024-05-20T22:35:53.487;599617084814471122;9760.699;-9
2024-05-20T22:35:53.495;599617084822162912;9768.391;-11
2024-05-20T22:35:53.503;599617084829854702;9776.083;40
2024-05-20T22:35:53.510;599617084837546492;9783.774;83
2024-05-20T22:35:53.518;599617084845238282;9791.467;95
2024-05-20T22:35:53.526;599617084852930072;9799.158;73
2024-05-20T22:35:53.533;599617084860621862;9806.85;49
2024-05-20T22:35:53.541;599617084868313652;9814.541;95
2024-05-20T22:35:53.549;599617084876005442;9822.233;147
2024-05-20T22:35:53.556;599617084883697232;9829.925;121
2024-05-20T22:35:53.564;599617084891389022;9837.617;121
2024-05-20T22:35:53.572;599617084899080812;9845.309;176
2024-05-20T22:35:53.580;599617084906772602;9853.001;183
2024-05-20T22:35:53.587;599617084914464392;9860.692;183
2024-05-20T22:35:53.595;599617084922156182;9868.384;230
2024-05-20T22:35:53.603;599617084929847972;9876.075;247
2024-05-20T22:35:53.610;599617084937539762;9883.768;252
2024-05-20T22:35:53.618;599617084945231552;9891.459;288
2024-05-20T22:35:53.626;599617084952923342;9899.151;264
2024-05-20T22:35:53.633;599617084960615132;9906.843;195
2024-05-20T22:35:53.641;599617084968306922;9914.535;178
2024-05-20T22:35:53.649;599617084975998712;9922.227;221
2024-05-20T22:35:53.656;599617084983690502;9929.919;416
2024-05-20T22:35:53.664;599617084991382292;9937.609;837
2024-05-20T22:35:53.672;599617084999074082;9945.302;1192
2024-05-20T22:35:53.679;599617085006765872;9952.993;1030
2024-05-20T22:35:53.687;599617085014457662;9960.686;461
2024-05-20T22:35:53.695;599617085022149452;9968.378;164
2024-05-20T22:35:53.703;599617085029841242;9976.069;240
2024-05-20T22:35:53.710;599617085037533032;9983.762;185
2024-05-20T22:35:53.718;599617085045224822;9991.453;61
2024-05-20T22:35:53.726;599617085052916612;9999.145;104
2024-05-20T22:35:53.733;599617085060608402;10006.836;116
2024-05-20T22:35:53.741;599617085068300192;10014.528;88
2024-05-20T22:35:53.749;599617085075991982;10022.22;121
2024-05-20T22:35:53.756;599617085083683772;10029.912;114
2024-05-20T22:35:53.764;599617085091375562;10037.604;59
2024-05-20T22:35:53.772;599617085099067352;10045.296;61
2024-05-20T22:35:53.779;599617085106759142;10052.987;85
2024-05-20T22:35:53.787;599617085114450932;10060.679;80
2024-05-20T22:35:53.795;599617085122142722;10068.37;90
2024-05-20T22:35:53.803;599617085129834512;10076.0625;128
2024-05-20T22:35:53.810;599617085137526302;10083.754;114
2024-05-20T22:35:53.818;599617085145218092;10091.446;61
2024-05-20T22:35:53.826;599617085152909882;10099.138;73
2024-05-20T22:35:53.833;599617085160601684;10106.83;133
2024-05-20T22:35:53.841;599617085168293474;10114.521;152
2024-05-20T22:35:53.849;599617085175985264;10122.213;128
2024-05-20T22:35:53.856;599617085183677054;10129.904;111
2024-05-20T22:35:53.864;599617085191368844;10137.597;97
2024-05-20T22:35:53.872;599617085199060634;10145.288;64
2024-05-20T22:35:53.879;599617085206752424;10152.98;-2
2024-05-20T22:35:53.887;599617085214444214;10160.672;-76
2024-05-20T22:35:53.895;599617085222136004;10168.364;-107
2024-05-20T22:35:53.903;599617085229827794;10176.056;-111
2024-05-20T22:35:53.910;599617085237519584;10183.748;-97
2024-05-20T22:35:53.918;599617085245211374;10191.438;-38
2024-05-20T22:35:53.926;599617085252903164;10199.131;16
2024-05-20T22:35:53.933;599617085260594954;10206.822;-30
2024-05-20T22:35:53.941;599617085268286744;10214.515;-104
2024-05-20T22:35:53.949;599617085275978534;10222.206;-73
2024-05-20T22:35:53.956;599617085283670324;10229.898;-30
2024-05-20T22:35:53.964;599617085291362114;10237.591;-42
2024-05-20T22:35:53.972;599617085299053904;10245.282;-30
2024-05-20T22:35:53.979;599617085306745694;10252.974;19
2024-05-20T22:35:53.987;599617085314437484;10260.665;99
2024-05-20T22:35:53.995;599617085322129274;10268.357;128
2024-05-20T22:35:54.003;599617085329821064;10276.049;71
2024-05-20T22:35:54.010;599617085337512854;10283.741;85
2024-05-20T22:35:54.018;599617085345204644;10291.433;185
2024-05-20T22:35:54.026;599617085352896434;10299.125;199
2024-05-20T22:35:54.033;599617085360588224;10306.816;133
2024-05-20T22:35:54.041;599617085368280014;10314.508;114
2024-05-20T22:35:54.049;599617085375971804;10322.199;183
2024-05-20T22:35:54.056;599617085383663594;10329.892;402
2024-05-20T22:35:54.064;599617085391355384;10337.583;792
2024-05-20T22:35:54.072;599617085399047174;10345.275;1097
2024-05-20T22:35:54.079;599617085406738964;10352.967;911
2024-05-20T22:35:54.087;599617085414430754;10360.659;352
2024-05-20T22:35:54.095;599617085422122544;10368.351;66
2024-05-20T22:35:54.103;599617085429814334;10376.043;161
2024-05-20T22:35:54.110;599617085437506124;10383.733;188
2024-05-20T22:35:54.118;599617085445197914;10391.426;130
2024-05-20T22:35:54.126;599617085452889704;10399.117;159
2024-05-20T22:35:54.133;599617085460581494;10406.81;152
2024-05-20T22:35:54.141;599617085468273284;10414.501;83
2024-05-20T22:35:54.149;599617085475965074;10422.193;54
2024-05-20T22:35:54.156;599617085483656864;10429.885;69
2024-05-20T22:35:54.164;599617085491348654;10437.577;95
2024-05-20T22:35:54.172;599617085499040444;10445.268;121
2024-05-20T22:35:54.179;599617085506732234;10452.96;119
2024-05-20T22:35:54.187;599617085514424024;10460.651;90
2024-05-20T22:35:54.195;599617085522115814;10468.344;80
2024-05-20T22:35:54.203;599617085529807604;10476.035;104
2024-05-20T22:35:54.210;599617085537499394;10483.728;128
2024-05-20T22:35:54.218;599617085545191184;10491.419;138
2024-05-20T22:35:54.226;599617085552882974;10499.111;121
2024-05-20T22:35:54.233;599617085560574764;10506.802;97
2024-05-20T22:35:54.241;599617085568266554;10514.494;95
2024-05-20T22:35:54.249;599617085575958344;10522.187;119
2024-05-20T22:35:54.256;599617085583650134;10529.878;135
2024-05-20T22:35:54.264;599617085591341924;10537.57;130
2024-05-20T22:35:54.272;599617085599033714;10545.262;109
2024-05-20T22:35:54.279;599617085606725504;10552.954;116
2024-05-20T22:35:54.287;599617085614417294;10560.6455;157
2024-05-20T22:35:54.295;599617085622109084;10568.338;133
2024-05-20T22:35:54.303;599617085629800874;10576.028;78
2024-05-20T22:35:54.310;599617085637492664;10583.721;121
2024-05-20T22:35:54.318;599617085645184454;10591.412;164
2024-05-20T22:35:54.326;599617085652876244;10599.1045;130
2024-05-20T22:35:54.333;599617085660568034;10606.796;111
2024-05-20T22:35:54.341;599617085668259824;10614.488;140
2024-05-20T22:35:54.349;599617085675951614;10622.18;171
2024-05-20T22:35:54.356;599617085683643404;10629.872;171
2024-05-20T22:35:54.364;599617085691335194;10637.5625;149
2024-05-20T22:35:54.372;599617085699026984;10645.255;152
2024-05-20T22:35:54.379;599617085706718774;10652.946;149
2024-05-20T22:35:54.387;599617085714410564;10660.639;85
2024-05-20T22:35:54.395;599617085722132462;10668.36;47
2024-05-20T22:35:54.403;599617085729823834;10676.052;95
2024-05-20T22:35:54.410;599617085737515206;10683.743;128
2024-05-20T22:35:54.418;599617085745206578;10691.435;128
2024-05-20T22:35:54.426;599617085752897950;10699.126;140
2024-05-20T22:35:54.433;599617085760589322;10706.817;111
2024-05-20T22:35:54.441;599617085768280694;10714.508;49
2024-05-20T22:35:54.449;599617085775972066;10722.199;61
2024-05-20T22:35:54.456;599617085783663438;10729.892;307
2024-05-20T22:35:54.464;599617085791354810;10737.583;792
2024-05-20T22:35:54.472;599617085799046182;10745.274;1106
2024-05-20T22:35:54.479;599617085806737554;10752.966;721
2024-05-20T22:35:54.487;599617085814428926;10760.657;-33
2024-05-20T22:35:54.495;599617085822120298;10768.349;-235
2024-05-20T22:35:54.503;599617085829811670;10776.039;-4
2024-05-20T22:35:54.510;599617085837503042;10783.73;-33
2024-05-20T22:35:54.518;599617085845194414;10791.422;-171
2024-05-20T22:35:54.526;599617085852885786;10799.113;-133
2024-05-20T22:35:54.533;599617085860577158;10806.806;-109
2024-05-20T22:35:54.541;599617085868268530;10814.497;-166
2024-05-20T22:35:54.549;599617085875959902;10822.188;-176
2024-05-20T22:35:54.556;599617085883651274;10829.879;-114
2024-05-20T22:35:54.564;599617085891342646;10837.57;-49
2024-05-20T22:35:54.572;599617085899034018;10845.262;-35
2024-05-20T22:35:54.579;599617085906725390;10852.953;-49
2024-05-20T22:35:54.587;599617085914416762;10860.645;-45
2024-05-20T22:35:54.595;599617085922108134;10868.336;-19
2024-05-20T22:35:54.603;599617085929799506;10876.028;28
2024-05-20T22:35:54.610;599617085937490878;10883.719;69
2024-05-20T22:35:54.618;599617085945182250;10891.41;69
2024-05-20T22:35:54.626;599617085952873622;10899.102;57
2024-05-20T22:35:54.633;599617085960564994;10906.793;64
2024-05-20T22:35:54.641;599617085968256366;10914.484;49
2024-05-20T22:35:54.649;599617085975947738;10922.176;52
2024-05-20T22:35:54.656;599617085983639110;10929.867;90
2024-05-20T22:35:54.664;599617085991330482;10937.558;90
2024-05-20T22:35:54.672;599617085999021854;10945.249;47
2024-05-20T22:35:54.679;599617086006713226;10952.941;26
2024-05-20T22:35:54.687;599617086014404598;10960.633;33
2024-05-20T22:35:54.695;599617086022095970;10968.324;33
2024-05-20T22:35:54.703;599617086029787342;10976.016;35
2024-05-20T22:35:54.710;599617086037478714;10983.707;76
2024-05-20T22:35:54.718;599617086045170086;10991.397;107
2024-05-20T22:35:54.726;599617086052861458;10999.089;92
2024-05-20T22:35:54.733;599617086060552830;11006.78;78
2024-05-20T22:35:54.741;599617086068244202;11014.472;76
2024-05-20T22:35:54.749;599617086075935574;11022.164;73
2024-05-20T22:35:54.756;599617086083626946;11029.855;104
2024-05-20T22:35:54.764;599617086091318318;11037.547;154
2024-05-20T22:35:54.772;599617086099009690;11045.237;171
2024-05-20T22:35:54.779;599617086106701062;11052.929;166
2024-05-20T22:35:54.787;599617086114392434;11060.62;176
2024-05-20T22:35:54.795;599617086122083806;11068.312;202
2024-05-20T22:35:54.803;599617086129775178;11076.003;230
2024-05-20T22:35:54.810;599617086137466550;11083.694;233
2024-05-20T22:35:54.818;599617086145157922;11091.386;233
2024-05-20T22:35:54.826;599617086152849294;11099.077;261
2024-05-20T22:35:54.833;599617086160540666;11106.769;245
2024-05-20T22:35:54.841;599617086168232038;11114.46;159
2024-05-20T22:35:54.849;599617086175923410;11122.151;233
2024-05-20T22:35:54.856;599617086183614782;11129.843;656
2024-05-20T22:35:54.864;599617086191306154;11137.534;1144
2024-05-20T22:35:54.872;599617086198997526;11145.226;1154
2024-05-20T22:35:54.879;599617086206688898;11152.916;552
2024-05-20T22:35:54.887;599617086214380270;11160.607;-42
2024-05-20T22:35:54.895;599617086222071642;11168.3;-83
2024-05-20T22:35:54.902;599617086229763014;11175.991;21
2024-05-20T22:35:54.910;599617086237454386;11183.683;-64
2024-05-20T22:35:54.918;599617086245145758;11191.374;-121
2024-05-20T22:35:54.926;599617086252837130;11199.065;-147
2024-05-20T22:35:54.933;599617086260528502;11206.757;-202
2024-05-20T22:35:54.941;599617086268219874;11214.447;-173
2024-05-20T22:35:54.949;599617086275911246;11222.139;-99
2024-05-20T22:35:54.956;599617086283572530;11229.801;-78
2024-05-20T22:35:54.964;599617086291264320;11237.493;-85
2024-05-20T22:35:54.972;599617086298956110;11245.184;-57
2024-05-20T22:35:54.979;599617086306647900;11252.876;11
2024-05-20T22:35:54.987;599617086314339690;11260.567;47
2024-05-20T22:35:54.995;599617086322031480;11268.26;49
2024-05-20T22:35:55.002;599617086329723270;11275.951;80
2024-05-20T22:35:55.010;599617086337415060;11283.644;78
2024-05-20T22:35:55.018;599617086345106850;11291.335;11
2024-05-20T22:35:55.026;599617086352798640;11299.027;-16
2024-05-20T22:35:55.033;599617086360490430;11306.718;30
2024-05-20T22:35:55.041;599617086368182220;11314.41;49
2024-05-20T22:35:55.049;599617086375874010;11322.102;28
2024-05-20T22:35:55.056;599617086383565800;11329.794;38
2024-05-20T22:35:55.064;599617086391257590;11337.485;64
2024-05-20T22:35:55.072;599617086398949380;11345.178;92
2024-05-20T22:35:55.079;599617086406641170;11352.869;114
2024-05-20T22:35:55.087;599617086414332960;11360.562;123
2024-05-20T22:35:55.095;599617086422024750;11368.252;128
2024-05-20T22:35:55.102;599617086429716540;11375.944;123
2024-05-20T22:35:55.110;599617086437408330;11383.636;123
2024-05-20T22:35:55.118;599617086445100120;11391.328;147
2024-05-20T22:35:55.126;599617086452791910;11399.02;173
2024-05-20T22:35:55.133;599617086460483700;11406.712;190
2024-05-20T22:35:55.141;599617086468175490;11414.403;180
2024-05-20T22:35:55.149;599617086475867280;11422.096;169
2024-05-20T22:35:55.156;599617086483559070;11429.787;183
2024-05-20T22:35:55.164;599617086491250860;11437.479;188
2024-05-20T22:35:55.172;599617086498942650;11445.17;164
2024-05-20T22:35:55.179;599617086506634440;11452.862;171
2024-05-20T22:35:55.187;599617086514326230;11460.554;202
2024-05-20T22:35:55.195;599617086522018020;11468.246;190
2024-05-20T22:35:55.202;599617086529709810;11475.9375;169
2024-05-20T22:35:55.210;599617086537401600;11483.63;197
2024-05-20T22:35:55.218;599617086545093390;11491.321;242
2024-05-20T22:35:55.226;599617086552785180;11499.013;226
2024-05-20T22:35:55.233;599617086560476970;11506.704;166
2024-05-20T22:35:55.241;599617086568168760;11514.396;221
2024-05-20T22:35:55.249;599617086575860550;11522.089;518
2024-05-20T22:35:55.256;599617086583552340;11529.78;940
2024-05-20T22:35:55.264;599617086591244130;11537.473;1092
2024-05-20T22:35:55.272;599617086598935920;11545.164;692
2024-05-20T22:35:55.279;599617086606627710;11552.856;140
2024-05-20T22:35:55.287;599617086614319500;11560.547;11
2024-05-20T22:35:55.295;599617086622011290;11568.239;85
2024-05-20T22:35:55.302;599617086629703080;11575.931;23
2024-05-20T22:35:55.310;599617086637394870;11583.623;-2
2024-05-20T22:35:55.318;599617086645086660;11591.314;45
2024-05-20T22:35:55.326;599617086652778450;11599.007;23
2024-05-20T22:35:55.333;599617086660470240;11606.698;0
2024-05-20T22:35:55.341;599617086668162030;11614.391;47
2024-05-20T22:35:55.349;599617086675853820;11622.081;90
2024-05-20T22:35:55.356;599617086683545610;11629.773;111
2024-05-20T22:35:55.364;599617086691237400;11637.465;138
2024-05-20T22:35:55.372;599617086698929190;11645.157;149
2024-05-20T22:35:55.379;599617086706620980;11652.849;161
2024-05-20T22:35:55.387;599617086714312770;11660.541;154
2024-05-20T22:35:55.395;599617086722004560;11668.232;92
2024-05-20T22:35:55.402;599617086729696350;11675.925;66
2024-05-20T22:35:55.410;599617086737388140;11683.616;90
2024-05-20T22:35:55.418;599617086745079930;11691.308;61
2024-05-20T22:35:55.425;599617086752771720;11698.999;21
2024-05-20T22:35:55.433;599617086760463510;11706.691;40
2024-05-20T22:35:55.441;599617086768155300;11714.383;59
2024-05-20T22:35:55.449;599617086775847090;11722.075;85
2024-05-20T22:35:55.456;599617086783538880;11729.767;138
2024-05-20T22:35:55.464;599617086791230670;11737.459;138
2024-05-20T22:35:55.472;599617086798922460;11745.15;104
2024-05-20T22:35:55.479;599617086806614250;11752.842;121
2024-05-20T22:35:55.487;599617086814306040;11760.533;157
2024-05-20T22:35:55.495;599617086821997830;11768.226;169
2024-05-20T22:35:55.502;599617086829689620;11775.917;180
2024-05-20T22:35:55.510;599617086837381410;11783.609;180
2024-05-20T22:35:55.518;599617086845078252;11791.306;188
2024-05-20T22:35:55.525;599617086852769972;11798.998;204
2024-05-20T22:35:55.533;599617086860461692;11806.689;211
2024-05-20T22:35:55.541;599617086868153412;11814.382;223
2024-05-20T22:35:55.549;599617086875845132;11822.073;254
2024-05-20T22:35:55.556;599617086883536852;11829.765;261
2024-05-20T22:35:55.564;599617086891228572;11837.456;230
2024-05-20T22:35:55.572;599617086898920292;11845.148;233
2024-05-20T22:35:55.579;599617086906612012;11852.84;271
2024-05-20T22:35:55.587;599617086914303732;11860.531;261
2024-05-20T22:35:55.595;599617086921995452;11868.224;214
2024-05-20T22:35:55.602;599617086929687172;11875.915;209
2024-05-20T22:35:55.610;599617086937378892;11883.607;233
2024-05-20T22:35:55.618;599617086945070612;11891.298;199
2024-05-20T22:35:55.625;599617086952762332;11898.99;128
2024-05-20T22:35:55.633;599617086960454052;11906.682;109
2024-05-20T22:35:55.641;599617086968145772;11914.374;285
2024-05-20T22:35:55.649;599617086975837492;11922.065;704
2024-05-20T22:35:55.656;599617086983529212;11929.757;1028
2024-05-20T22:35:55.664;599617086991220932;11937.449;830
2024-05-20T22:35:55.672;599617086998912652;11945.141;247
2024-05-20T22:35:55.679;599617087006604372;11952.832;-88
2024-05-20T22:35:55.687;599617087014296092;11960.523;-42
2024-05-20T22:35:55.695;599617087021987812;11968.216;-49
2024-05-20T22:35:55.702;599617087029679532;11975.907;-135
2024-05-20T22:35:55.710;599617087037371252;11983.6;-109
2024-05-20T22:35:55.718;599617087045062972;11991.291;-64
2024-05-20T22:35:55.725;599617087052754692;11998.982;-64
2024-05-20T22:35:55.733;599617087060446412;12006.675;-61
2024-05-20T22:35:55.741;599617087068138132;12014.365;-59
2024-05-20T22:35:55.749;599617087075829852;12022.058;-49
2024-05-20T22:35:55.756;599617087083521572;12029.749;-7
2024-05-20T22:35:55.764;599617087091213292;12037.441;49
2024-05-20T22:35:55.772;599617087098905012;12045.133;78
2024-05-20T22:35:55.779;599617087106596732;12052.825;88
2024-05-20T22:35:55.787;599617087114288452;12060.517;104
2024-05-20T22:35:55.795;599617087121980172;12068.208;109
2024-05-20T22:35:55.802;599617087129671892;12075.9;97
2024-05-20T22:35:55.810;599617087137363612;12083.591;99
2024-05-20T22:35:55.818;599617087145055332;12091.283;128
2024-05-20T22:35:55.825;599617087152747052;12098.975;142
2024-05-20T22:35:55.833;599617087160438772;12106.667;130
2024-05-20T22:35:55.841;599617087168130492;12114.358;135
2024-05-20T22:35:55.849;599617087175822212;12122.051;159
2024-05-20T22:35:55.856;599617087183513932;12129.742;166
2024-05-20T22:35:55.864;599617087191205652;12137.433;159
2024-05-20T22:35:55.872;599617087198897372;12145.125;166
2024-05-20T22:35:55.879;599617087206589092;12152.816;173
2024-05-20T22:35:55.887;599617087214280812;12160.509;145
2024-05-20T22:35:55.895;599617087221972532;12168.2;88
2024-05-20T22:35:55.902;599617087229664252;12175.893;59
2024-05-20T22:35:55.910;599617087237355972;12183.584;54
2024-05-20T22:35:55.918;599617087245047692;12191.276;45
2024-05-20T22:35:55.925;599617087252739412;12198.968;40
2024-05-20T22:35:55.933;599617087260431132;12206.658;54
2024-05-20T22:35:55.941;599617087268122852;12214.351;80
2024-05-20T22:35:55.949;599617087275814572;12222.042;99
2024-05-20T22:35:55.956;599617087283506292;12229.734;109
2024-05-20T22:35:55.964;599617087291198012;12237.426;133
2024-05-20T22:35:55.972;599617087298889732;12245.118;171
2024-05-20T22:35:55.979;599617087306581452;12252.81;178
2024-05-20T22:35:55.987;599617087314273172;12260.502;164
2024-05-20T22:35:55.995;599617087321964892;12268.192;188
2024-05-20T22:35:56.002;599617087329656612;12275.884;235
2024-05-20T22:35:56.010;599617087337348332;12283.576;249
2024-05-20T22:35:56.018;599617087345040052;12291.268;197
2024-05-20T22:35:56.025;599617087352731772;12298.96;102
2024-05-20T22:35:56.033;599617087360423492;12306.651;99
2024-05-20T22:35:56.041;599617087368115212;12314.344;392
2024-05-20T22:35:56.049;599617087375806932;12322.035;878
2024-05-20T22:35:56.056;599617087383498652;12329.727;1056
2024-05-20T22:35:56.064;599617087391190372;12337.418;602
2024-05-20T22:35:56.072;599617087398882092;12345.109;-11
2024-05-20T22:35:56.079;599617087406593934;12352.822;-123
2024-05-20T22:35:56.087;599617087414285375;12360.514;11
2024-05-20T22:35:56.095;599617087421976816;12368.205;-35
2024-05-20T22:35:56.102;599617087429668257;12375.896;-95
2024-05-20T22:35:56.110;599617087437359698;12383.587;-59
2024-05-20T22:35:56.118;599617087445051139;12391.278;-59
2024-05-20T22:35:56.125;599617087452742580;12398.971;-97
2024-05-20T22:35:56.133;599617087460434021;12406.662;-119
2024-05-20T22:35:56.141;599617087468125462;12414.354;-107
2024-05-20T22:35:56.149;599617087475816903;12422.045;-73
2024-05-20T22:35:56.156;599617087483508344;12429.736;-99
2024-05-20T22:35:56.164;599617087491199785;12437.427;-142
2024-05-20T22:35:56.172;599617087498891226;12445.119;-95
2024-05-20T22:35:56.179;599617087506582667;12452.811;-38
2024-05-20T22:35:56.187;599617087514274108;12460.502;-42
2024-05-20T22:35:56.195;599617087521965549;12468.193;-33
2024-05-20T22:35:56.202;599617087529656990;12475.885;-2
2024-05-20T22:35:56.210;599617087537348431;12483.577;0
2024-05-20T22:35:56.218;599617087545039872;12491.269;16
2024-05-20T22:35:56.225;599617087552731313;12498.959;49
2024-05-20T22:35:56.233;599617087560422754;12506.65;47
2024-05-20T22:35:56.241;599617087568114195;12514.342;40
2024-05-20T22:35:56.249;599617087575805636;12522.033;57
2024-05-20T22:35:56.256;599617087583497077;12529.726;54
2024-05-20T22:35:56.264;599617087591188518;12537.417;59
2024-05-20T22:35:56.272;599617087598879959;12545.108;92
2024-05-20T22:35:56.279;599617087606571400;12552.799;95
2024-05-20T22:35:56.287;599617087614262841;12560.49;88
2024-05-20T22:35:56.295;599617087621954282;12568.182;114
2024-05-20T22:35:56.302;599617087629645723;12575.874;135
2024-05-20T22:35:56.310;599617087637337164;12583.565;135
2024-05-20T22:35:56.318;599617087645028605;12591.257;138
2024-05-20T22:35:56.325;599617087652720046;12598.948;154
2024-05-20T22:35:56.333;599617087660411487;12606.639;171
2024-05-20T22:35:56.341;599617087668102928;12614.33;171
2024-05-20T22:35:56.349;599617087675794369;12622.022;178
2024-05-20T22:35:56.356;599617087683485810;12629.714;207
2024-05-20T22:35:56.364;599617087691177251;12637.405;214
2024-05-20T22:35:56.372;599617087698868692;12645.097;199
2024-05-20T22:35:56.379;599617087706560133;12652.788;211
2024-05-20T22:35:56.387;599617087714251574;12660.479;235
2024-05-20T22:35:56.395;599617087721943015;12668.171;207
2024-05-20T22:35:56.402;599617087729634456;12675.862;114
2024-05-20T22:35:56.410;599617087737325897;12683.554;42
2024-05-20T22:35:56.418;599617087745017338;12691.245;9
2024-05-20T22:35:56.425;599617087752708779;12698.937;4
2024-05-20T22:35:56.433;599617087760400220;12706.629;240
2024-05-20T22:35:56.441;599617087768091661;12714.32;754
2024-05-20T22:35:56.449;599617087775783102;12722.011;1040
2024-05-20T22:35:56.456;599617087783474543;12729.702;645
2024-05-20T22:35:56.464;599617087791165984;12737.394;-26
2024-05-20T22:35:56.472;599617087798857425;12745.085;-204
2024-05-20T22:35:56.479;599617087806548866;12752.777;-54
2024-05-20T22:35:56.487;599617087814240307;12760.469;-104
2024-05-20T22:35:56.495;599617087821931748;12768.16;-180
2024-05-20T22:35:56.502;599617087829623189;12775.851;-102
2024-05-20T22:35:56.510;599617087837314630;12783.542;-71
2024-05-20T22:35:56.518;599617087845006071;12791.233;-107
2024-05-20T22:35:56.525;599617087852697512;12798.926;-83
2024-05-20T22:35:56.533;599617087860388953;12806.617;-33
2024-05-20T22:35:56.541;599617087868080394;12814.309;-21
2024-05-20T22:35:56.548;599617087875771835;12822.0;-16
2024-05-20T22:35:56.556;599617087883463276;12829.69;23
2024-05-20T22:35:56.564;599617087891154717;12837.382;80
2024-05-20T22:35:56.572;599617087898846158;12845.074;107
2024-05-20T22:35:56.579;599617087906537599;12852.766;88
2024-05-20T22:35:56.587;599617087914229040;12860.457;80
2024-05-20T22:35:56.595;599617087921920481;12868.148;111
2024-05-20T22:35:56.602;599617087929611922;12875.84;128
2024-05-20T22:35:56.610;599617087937303363;12883.532;121
2024-05-20T22:35:56.618;599617087944994804;12891.223;123
2024-05-20T22:35:56.625;599617087952686245;12898.914;130
2024-05-20T22:35:56.633;599617087960377686;12906.605;138
2024-05-20T22:35:56.641;599617087968044058;12914.272;123
2024-05-20T22:35:56.648;599617087975735848;12921.964;95
2024-05-20T22:35:56.656;599617087983427638;12929.656;116
2024-05-20T22:35:56.664;599617087991119428;12937.347;140
2024-05-20T22:35:56.672;599617087998811218;12945.039;66
2024-05-20T22:35:56.679;599617088006503008;12952.73;4
2024-05-20T22:35:56.687;599617088014194798;12960.423;54
2024-05-20T22:35:56.695;599617088021886588;12968.114;104
2024-05-20T22:35:56.702;599617088029578378;12975.807;88
2024-05-20T22:35:56.710;599617088037270168;12983.498;59
2024-05-20T22:35:56.718;599617088044961958;12991.19;69
2024-05-20T22:35:56.725;599617088052653748;12998.881;97
2024-05-20T22:35:56.733;599617088060345538;13006.573;102
2024-05-20T22:35:56.741;599617088068037328;13014.265;102
2024-05-20T22:35:56.748;599617088075729118;13021.957;142
2024-05-20T22:35:56.756;599617088083420908;13029.648;185
2024-05-20T22:35:56.764;599617088091112698;13037.341;169
2024-05-20T22:35:56.772;599617088098804488;13045.032;176
2024-05-20T22:35:56.779;599617088106496278;13052.725;230
2024-05-20T22:35:56.787;599617088114188068;13060.415;242
2024-05-20T22:35:56.795;599617088121879858;13068.107;218
2024-05-20T22:35:56.802;599617088129571648;13075.8;204
2024-05-20T22:35:56.810;599617088137263438;13083.491;140
2024-05-20T22:35:56.818;599617088144955228;13091.184;119
2024-05-20T22:35:56.825;599617088152647018;13098.875;404
2024-05-20T22:35:56.833;599617088160338808;13106.567;899
2024-05-20T22:35:56.841;599617088168030598;13114.259;1111
2024-05-20T22:35:56.848;599617088175722388;13121.951;726
2024-05-20T22:35:56.856;599617088183414178;13129.642;109
2024-05-20T22:35:56.864;599617088191105968;13137.334;-71
2024-05-20T22:35:56.872;599617088198797758;13145.025;59
2024-05-20T22:35:56.879;599617088206489548;13152.718;16
2024-05-20T22:35:56.887;599617088214181338;13160.409;-92
2024-05-20T22:35:56.895;599617088221873128;13168.102;-142
2024-05-20T22:35:56.902;599617088229564918;13175.793;-233
2024-05-20T22:35:56.910;599617088237256708;13183.485;-271
2024-05-20T22:35:56.918;599617088244948498;13191.176;-207
2024-05-20T22:35:56.925;599617088252640288;13198.868;-161
2024-05-20T22:35:56.933;599617088260332078;13206.56;-152
2024-05-20T22:35:56.941;599617088268023868;13214.252;-133
2024-05-20T22:35:56.948;599617088275715658;13221.943;-123
2024-05-20T22:35:56.956;599617088283407448;13229.636;-90
2024-05-20T22:35:56.964;599617088291099238;13237.327;-33
2024-05-20T22:35:56.972;599617088298791028;13245.02;-11
2024-05-20T22:35:56.979;599617088306482818;13252.71;-11
2024-05-20T22:35:56.987;599617088314174608;13260.402;0
2024-05-20T22:35:56.995;599617088321866398;13268.094;2
2024-05-20T22:35:57.002;599617088329558188;13275.786;-7
2024-05-20T22:35:57.010;599617088337249978;13283.478;16
2024-05-20T22:35:57.018;599617088344941768;13291.17;73
2024-05-20T22:35:57.025;599617088352633558;13298.861;90
2024-05-20T22:35:57.033;599617088360325348;13306.554;47
2024-05-20T22:35:57.041;599617088368017138;13314.244;42
2024-05-20T22:35:57.048;599617088375708928;13321.937;92
2024-05-20T22:35:57.056;599617088383400718;13329.628;111
2024-05-20T22:35:57.064;599617088391092508;13337.32;99
2024-05-20T22:35:57.072;599617088398784298;13345.012;119
2024-05-20T22:35:57.079;599617088406476088;13352.704;147
2024-05-20T22:35:57.087;599617088414167878;13360.396;135
2024-05-20T22:35:57.095;599617088421859668;13368.088;128
2024-05-20T22:35:57.102;599617088429551458;13375.78;147
2024-05-20T22:35:57.110;599617088437243248;13383.471;161
2024-05-20T22:35:57.118;599617088444935038;13391.163;164
2024-05-20T22:35:57.125;599617088452626828;13398.8545;159
2024-05-20T22:35:57.133;599617088460318618;13406.547;147
2024-05-20T22:35:57.141;599617088468010408;13414.238;138
2024-05-20T22:35:57.148;599617088475702198;13421.931;128
2024-05-20T22:35:57.156;599617088483393988;13429.622;135
2024-05-20T22:35:57.164;599617088491085778;13437.314;164
2024-05-20T22:35:57.172;599617088498777568;13445.005;178
2024-05-20T22:35:57.179;599617088506469358;13452.697;164
2024-05-20T22:35:57.187;599617088514161148;13460.389;154
2024-05-20T22:35:57.195;599617088521852938;13468.081;145
2024-05-20T22:35:57.202;599617088529544740;13475.772;97
2024-05-20T22:35:57.210;599617088537236530;13483.465;90
2024-05-20T22:35:57.218;599617088544928320;13491.156;307
2024-05-20T22:35:57.225;599617088552620110;13498.849;745
2024-05-20T22:35:57.233;599617088560311900;13506.539;985
2024-05-20T22:35:57.241;599617088568003690;13514.231;621
2024-05-20T22:35:57.248;599617088575695480;13521.923;7
2024-05-20T22:35:57.256;599617088583387270;13529.615;-157
2024-05-20T22:35:57.264;599617088591079060;13537.307;-47
2024-05-20T22:35:57.271;599617088598770850;13544.999;-149
2024-05-20T22:35:57.279;599617088606462640;13552.69;-221
2024-05-20T22:35:57.287;599617088614154430;13560.383;-119
2024-05-20T22:35:57.295;599617088621846220;13568.073;-88
2024-05-20T22:35:57.302;599617088629538010;13575.766;-121
2024-05-20T22:35:57.310;599617088637229800;13583.457;-90
2024-05-20T22:35:57.318;599617088644921590;13591.149;-49
2024-05-20T22:35:57.325;599617088652613380;13598.841;-52
2024-05-20T22:35:57.333;599617088660305170;13606.533;-47
2024-05-20T22:35:57.341;599617088667996960;13614.225;-2
2024-05-20T22:35:57.348;599617088675688750;13621.917;49
2024-05-20T22:35:57.356;599617088683380540;13629.608;73
2024-05-20T22:35:57.364;599617088691072330;13637.3;78
2024-05-20T22:35:57.371;599617088698764120;13644.992;92
2024-05-20T22:35:57.379;599617088706455910;13652.684;88
2024-05-20T22:35:57.387;599617088714147700;13660.376;30
2024-05-20T22:35:57.395;599617088721839490;13668.067;0
2024-05-20T22:35:57.402;599617088729531280;13675.76;-7
2024-05-20T22:35:57.410;599617088737223070;13683.451;-69
2024-05-20T22:35:57.418;599617088744914860;13691.144;-119
2024-05-20T22:35:57.425;599617088752606650;13698.834;-95
2024-05-20T22:35:57.433;599617088760298440;13706.526;-52
2024-05-20T22:35:57.441;599617088767990230;13714.218;-23
2024-05-20T22:35:57.448;599617088775682020;13721.91;-14
2024-05-20T22:35:57.456;599617088783373810;13729.602;-26
2024-05-20T22:35:57.464;599617088791065600;13737.294;-14
2024-05-20T22:35:57.471;599617088798757390;13744.985;28
2024-05-20T22:35:57.479;599617088806449180;13752.678;47
2024-05-20T22:35:57.487;599617088814140970;13760.368;38
2024-05-20T22:35:57.495;599617088821832760;13768.061;42
2024-05-20T22:35:57.502;599617088829524550;13775.752;59
2024-05-20T22:35:57.510;599617088837216340;13783.444;69
2024-05-20T22:35:57.518;599617088844908130;13791.136;88
2024-05-20T22:35:57.525;599617088852599920;13798.828;123
2024-05-20T22:35:57.533;599617088860291710;13806.52;152
2024-05-20T22:35:57.541;599617088867983500;13814.212;157
2024-05-20T22:35:57.548;599617088875675290;13821.903;145
2024-05-20T22:35:57.556;599617088883367080;13829.595;161
2024-05-20T22:35:57.564;599617088891058870;13837.286;199
2024-05-20T22:35:57.571;599617088898750660;13844.979;211
2024-05-20T22:35:57.579;599617088906442450;13852.67;211
2024-05-20T22:35:57.587;599617088914134240;13860.362;211
2024-05-20T22:35:57.595;599617088921826030;13868.054;152
2024-05-20T22:35:57.602;599617088929517820;13875.746;95
2024-05-20T22:35:57.610;599617088937209610;13883.4375;261
2024-05-20T22:35:57.618;599617088944901400;13891.129;673
2024-05-20T22:35:57.625;599617088952593190;13898.82;964
2024-05-20T22:35:57.633;599617088960284980;13906.513;723
2024-05-20T22:35:57.641;599617088967976770;13914.205;149
2024-05-20T22:35:57.648;599617088975668560;13921.896;-102
2024-05-20T22:35:57.656;599617088983360350;13929.589;7
2024-05-20T22:35:57.664;599617088991052140;13937.28;-4
2024-05-20T22:35:57.671;599617088998743930;13944.973;-109
2024-05-20T22:35:57.679;599617089006435720;13952.663;-85
2024-05-20T22:35:57.687;599617089014127510;13960.355;-80
2024-05-20T22:35:57.695;599617089021819300;13968.047;-138
2024-05-20T22:35:57.702;599617089029511090;13975.739;-99
2024-05-20T22:35:57.710;599617089037202880;13983.431;-26
2024-05-20T22:35:57.718;599617089044894670;13991.123;-28
2024-05-20T22:35:57.725;599617089052586460;13998.814;-49
2024-05-20T22:35:57.733;599617089060278250;14006.507;-21
2024-05-20T22:35:57.741;599617089067970040;14014.198;26
2024-05-20T22:35:57.748;599617089075661830;14021.89;47
2024-05-20T22:35:57.756;599617089083353620;14029.581;52
2024-05-20T22:35:57.764;599617089091060470;14037.288;78
2024-05-20T22:35:57.771;599617089098752051;14044.98;109
2024-05-20T22:35:57.779;599617089106443632;14052.672;88
2024-05-20T22:35:57.787;599617089114135213;14060.362;59
2024-05-20T22:35:57.795;599617089121826794;14068.055;85
2024-05-20T22:35:57.802;599617089129518375;14075.746;114
2024-05-20T22:35:57.810;599617089137209956;14083.4375;90
2024-05-20T22:35:57.818;599617089144901537;14091.13;66
2024-05-20T22:35:57.825;599617089152593118;14098.821;85
2024-05-20T22:35:57.833;599617089160284699;14106.513;102
2024-05-20T22:35:57.841;599617089167976280;14114.205;61
2024-05-20T22:35:57.848;599617089175667861;14121.8955;9
2024-05-20T22:35:57.856;599617089183359442;14129.587;21
2024-05-20T22:35:57.864;599617089191051023;14137.278;40
2024-05-20T22:35:57.871;599617089198742604;14144.971;14
2024-05-20T22:35:57.879;599617089206434185;14152.662;-2
2024-05-20T22:35:57.887;599617089214125766;14160.354;19
2024-05-20T22:35:57.895;599617089221817347;14168.046;42
2024-05-20T22:35:57.902;599617089229508928;14175.737;47
2024-05-20T22:35:57.910;599617089237200509;14183.428;11
2024-05-20T22:35:57.918;599617089244892090;14191.12;-47
2024-05-20T22:35:57.925;599617089252583671;14198.812;-47
2024-05-20T22:35:57.933;599617089260275252;14206.503;-7
2024-05-20T22:35:57.941;599617089267966833;14214.195;7
2024-05-20T22:35:57.948;599617089275658414;14221.887;35
2024-05-20T22:35:57.956;599617089283349995;14229.578;73
2024-05-20T22:35:57.964;599617089291041576;14237.269;71
2024-05-20T22:35:57.971;599617089298733157;14244.961;80
2024-05-20T22:35:57.979;599617089306424738;14252.652;123
2024-05-20T22:35:57.987;599617089314116319;14260.344;102
2024-05-20T22:35:57.995;599617089321807900;14268.036;28
2024-05-20T22:35:58.002;599617089329499481;14275.728;88
2024-05-20T22:35:58.010;599617089337191062;14283.419;404
2024-05-20T22:35:58.018;599617089344882643;14291.111;852
2024-05-20T22:35:58.025;599617089352574224;14298.802;968
2024-05-20T22:35:58.033;599617089360265805;14306.493;504
2024-05-20T22:35:58.041;599617089367957386;14314.186;-19
2024-05-20T22:35:58.048;599617089375648967;14321.877;-69
2024-05-20T22:35:58.056;599617089383340548;14329.568;21
2024-05-20T22:35:58.064;599617089391032129;14337.261;-83
2024-05-20T22:35:58.071;599617089398723710;14344.952;-142
2024-05-20T22:35:58.079;599617089406415291;14352.644;-83
2024-05-20T22:35:58.087;599617089414106872;14360.334;-64
2024-05-20T22:35:58.095;599617089421798453;14368.026;-80
2024-05-20T22:35:58.102;599617089429490034;14375.718;-64
2024-05-20T22:35:58.110;599617089437181615;14383.409;-28
2024-05-20T22:35:58.118;599617089444873196;14391.102;-23
2024-05-20T22:35:58.125;599617089452564777;14398.793;-54
2024-05-20T22:35:58.133;599617089460256358;14406.484;-61
2024-05-20T22:35:58.141;599617089467947939;14414.176;-28
2024-05-20T22:35:58.148;599617089475639520;14421.867;-4
2024-05-20T22:35:58.156;599617089483331101;14429.559;19
2024-05-20T22:35:58.164;599617089491022682;14437.251;57
2024-05-20T22:35:58.171;599617089498714263;14444.942;66
2024-05-20T22:35:58.179;599617089506405844;14452.634;69
2024-05-20T22:35:58.187;599617089514097425;14460.325;90
2024-05-20T22:35:58.195;599617089521789006;14468.018;90
2024-05-20T22:35:58.202;599617089529480587;14475.708;59
2024-05-20T22:35:58.210;599617089537172168;14483.399;49
2024-05-20T22:35:58.218;599617089544863749;14491.092;71
2024-05-20T22:35:58.225;599617089552555330;14498.783;97
2024-05-20T22:35:58.233;599617089560246911;14506.475;109
2024-05-20T22:35:58.241;599617089567938492;14514.167;111
2024-05-20T22:35:58.248;599617089575630073;14521.858;114
2024-05-20T22:35:58.256;599617089583321654;14529.549;128
2024-05-20T22:35:58.264;599617089591013235;14537.241;149
2024-05-20T22:35:58.271;599617089598704816;14544.933;171
2024-05-20T22:35:58.279;599617089606396397;14552.624;173
2024-05-20T22:35:58.287;599617089614087978;14560.315;154
2024-05-20T22:35:58.295;599617089621779559;14568.008;147
2024-05-20T22:35:58.302;599617089629471140;14575.699;171
2024-05-20T22:35:58.310;599617089637162721;14583.391;199
2024-05-20T22:35:58.318;599617089644854302;14591.082;209
2024-05-20T22:35:58.325;599617089652545892;14598.773;218
2024-05-20T22:35:58.333;599617089660237473;14606.465;242
2024-05-20T22:35:58.341;599617089667929054;14614.157;252
2024-05-20T22:35:58.348;599617089675620635;14621.849;247
2024-05-20T22:35:58.356;599617089683312216;14629.54;266
2024-05-20T22:35:58.364;599617089691003797;14637.232;290
2024-05-20T22:35:58.371;599617089698695378;14644.924;242
2024-05-20T22:35:58.379;599617089706386959;14652.614;116
2024-05-20T22:35:58.387;599617089714078540;14660.307;-2
2024-05-20T22:35:58.394;599617089721770121;14667.998;19
2024-05-20T22:35:58.402;599617089729461702;14675.689;304
2024-05-20T22:35:58.410;599617089737153283;14683.381;749
2024-05-20T22:35:58.418;599617089744844864;14691.073;975
2024-05-20T22:35:58.425;599617089752536445;14698.765;642
2024-05-20T22:35:58.433;599617089760228026;14706.455;19
2024-05-20T22:35:58.441;599617089767919607;14714.147;-221
2024-05-20T22:35:58.448;599617089775611188;14721.839;-88
2024-05-20T22:35:58.456;599617089783302769;14729.53;-76
2024-05-20T22:35:58.464;599617089790994350;14737.223;-190
2024-05-20T22:35:58.471;599617089798685931;14744.914;-202
2024-05-20T22:35:58.479;599617089806377512;14752.605;-138
2024-05-20T22:35:58.487;599617089814069093;14760.298;-116
2024-05-20T22:35:58.494;599617089821760674;14767.988;-114
2024-05-20T22:35:58.502;599617089829452255;14775.68;-92
2024-05-20T22:35:58.510;599617089837143836;14783.371;-73
2024-05-20T22:35:58.518;599617089844835417;14791.063;-52
2024-05-20T22:35:58.525;599617089852526998;14798.755;-19
2024-05-20T22:35:58.533;599617089860218579;14806.446;4
2024-05-20T22:35:58.541;599617089867910160;14814.139;45
2024-05-20T22:35:58.548;599617089875601741;14821.83;114
2024-05-20T22:35:58.556;599617089883293322;14829.5205;130
2024-05-20T22:35:58.564;599617089890984903;14837.213;78
2024-05-20T22:35:58.571;599617089898676484;14844.904;69
2024-05-20T22:35:58.579;599617089906368065;14852.596;121
2024-05-20T22:35:58.587;599617089914059646;14860.288;142
2024-05-20T22:35:58.594;599617089921751227;14867.9795;111
2024-05-20T22:35:58.602;599617089929442808;14875.671;104
2024-05-20T22:35:58.610;599617089937134389;14883.361;95
2024-05-20T22:35:58.618;599617089944825970;14891.054;61
2024-05-20T22:35:58.625;599617089952517551;14898.745;49
2024-05-20T22:35:58.633;599617089960209132;14906.437;64
2024-05-20T22:35:58.641;599617089967900713;14914.129;76
2024-05-20T22:35:58.648;599617089975592294;14921.82;97
2024-05-20T22:35:58.656;599617089983283875;14929.512;123
2024-05-20T22:35:58.664;599617089990975456;14937.204;133
2024-05-20T22:35:58.671;599617089998667037;14944.895;102
2024-05-20T22:35:58.679;599617090006358618;14952.586;88
2024-05-20T22:35:58.687;599617090014050199;14960.278;142
2024-05-20T22:35:58.694;599617090021741780;14967.97;173
2024-05-20T22:35:58.702;599617090029433361;14975.661;138
2024-05-20T22:35:58.710;599617090037124942;14983.354;130
2024-05-20T22:35:58.718;599617090044816523;14991.045;185
2024-05-20T22:35:58.725;599617090052508104;14998.736;207
2024-05-20T22:35:58.733;599617090060199685;15006.427;176
2024-05-20T22:35:58.741;599617090067891266;15014.119;161
2024-05-20T22:35:58.748;599617090075582847;15021.811;178
2024-05-20T22:35:58.756;599617090083274428;15029.502;216
2024-05-20T22:35:58.764;599617090090966009;15037.194;254
2024-05-20T22:35:58.771;599617090098657590;15044.886;240
2024-05-20T22:35:58.779;599617090106349171;15052.577;185
2024-05-20T22:35:58.787;599617090114040752;15060.27;149
2024-05-20T22:35:58.794;599617090121732333;15067.96;295
2024-05-20T22:35:58.802;599617090129423914;15075.651;718
2024-05-20T22:35:58.810;599617090137115495;15083.344;1090
2024-05-20T22:35:58.818;599617090144807076;15091.035;904
2024-05-20T22:35:58.825;599617090152498657;15098.727;311
2024-05-20T22:35:58.833;599617090160190238;15106.418;-4
2024-05-20T22:35:58.841;599617090167881819;15114.11;45
2024-05-20T22:35:58.848;599617090175573400;15121.801;40
2024-05-20T22:35:58.856;599617090183264981;15129.492;-42
2024-05-20T22:35:58.864;599617090190956562;15137.185;-97
2024-05-20T22:35:58.871;599617090198648143;15144.876;-128
2024-05-20T22:35:58.879;599617090206339724;15152.567;-111
2024-05-20T22:35:58.887;599617090214046364;15160.273;-85
2024-05-20T22:35:58.894;599617090221737736;15167.965;-80
2024-05-20T22:35:58.902;599617090229429108;15175.657;-52
2024-05-20T22:35:58.910;599617090237120480;15183.349;-16
2024-05-20T22:35:58.918;599617090244811852;15191.04;-42
2024-05-20T22:35:58.925;599617090252503224;15198.731;-90
2024-05-20T22:35:58.933;599617090260194596;15206.423;-69
2024-05-20T22:35:58.941;599617090267885968;15214.114;-40
2024-05-20T22:35:58.948;599617090275577340;15221.805;-90
2024-05-20T22:35:58.956;599617090283268712;15229.496;-142
2024-05-20T22:35:58.964;599617090290960084;15237.1875;-121
2024-05-20T22:35:58.971;599617090298651456;15244.88;-99
2024-05-20T22:35:58.979;599617090306342828;15252.571;-121
2024-05-20T22:35:58.987;599617090314034200;15260.263;-121
2024-05-20T22:35:58.994;599617090321725572;15267.954;-78
2024-05-20T22:35:59.002;599617090329416944;15275.645;-57
2024-05-20T22:35:59.010;599617090337108316;15283.336;-64
2024-05-20T22:35:59.018;599617090344799688;15291.027;-54
2024-05-20T22:35:59.025;599617090352491060;15298.719;-33
2024-05-20T22:35:59.033;599617090360182432;15306.41;-21
2024-05-20T22:35:59.041;599617090367873804;15314.102;0
2024-05-20T22:35:59.048;599617090375565176;15321.794;26
2024-05-20T22:35:59.056;599617090383256548;15329.484;47
2024-05-20T22:35:59.064;599617090390947920;15337.176;45
2024-05-20T22:35:59.071;599617090398639292;15344.867;21
2024-05-20T22:35:59.079;599617090406330664;15352.559;7
2024-05-20T22:35:59.087;599617090414022036;15360.25;40
2024-05-20T22:35:59.094;599617090421713408;15367.941;97
2024-05-20T22:35:59.102;599617090429404780;15375.633;119
2024-05-20T22:35:59.110;599617090437096152;15383.323;80
2024-05-20T22:35:59.118;599617090444787524;15391.016;47
2024-05-20T22:35:59.125;599617090452478896;15398.707;76
2024-05-20T22:35:59.133;599617090460170268;15406.398;102
2024-05-20T22:35:59.141;599617090467861640;15414.09;102
2024-05-20T22:35:59.148;599617090475553012;15421.781;133
2024-05-20T22:35:59.156;599617090483244384;15429.473;154
2024-05-20T22:35:59.164;599617090490935756;15437.163;135
2024-05-20T22:35:59.171;599617090498627128;15444.8545;107
2024-05-20T22:35:59.179;599617090506318500;15452.546;71
2024-05-20T22:35:59.187;599617090514009872;15460.237;99
2024-05-20T22:35:59.194;599617090521701244;15467.93;342
2024-05-20T22:35:59.202;599617090529392616;15475.621;749
2024-05-20T22:35:59.210;599617090537083988;15483.3125;921
2024-05-20T22:35:59.218;599617090544775360;15491.003;568
2024-05-20T22:35:59.225;599617090552466732;15498.694;64
2024-05-20T22:35:59.233;599617090560158104;15506.386;-66
2024-05-20T22:35:59.241;599617090567849476;15514.077;26
2024-05-20T22:35:59.248;599617090575540848;15521.769;-33
2024-05-20T22:35:59.256;599617090583232220;15529.46;-135
2024-05-20T22:35:59.264;599617090590923592;15537.152;-114
2024-05-20T22:35:59.271;599617090598614964;15544.844;-78
2024-05-20T22:35:59.279;599617090606306336;15552.534;-90
2024-05-20T22:35:59.287;599617090613997708;15560.226;-76
2024-05-20T22:35:59.294;599617090621689080;15567.917;-38
2024-05-20T22:35:59.302;599617090629380452;15575.608;-16
2024-05-20T22:35:59.310;599617090637071824;15583.3;-4
2024-05-20T22:35:59.317;599617090644763196;15590.991;23
2024-05-20T22:35:59.325;599617090652454568;15598.682;52
2024-05-20T22:35:59.333;599617090660145940;15606.373;76
2024-05-20T22:35:59.341;599617090667837312;15614.065;83
2024-05-20T22:35:59.348;599617090675528684;15621.757;57
2024-05-20T22:35:59.356;599617090683220056;15629.448;19
2024-05-20T22:35:59.364;599617090690911428;15637.14;14
2024-05-20T22:35:59.371;599617090698602800;15644.831;30
2024-05-20T22:35:59.379;599617090706294172;15652.522;26
2024-05-20T22:35:59.387;599617090713985544;15660.213;19
2024-05-20T22:35:59.394;599617090721676916;15667.904;16
2024-05-20T22:35:59.402;599617090729368288;15675.596;9
2024-05-20T22:35:59.410;599617090737059660;15683.288;26
2024-05-20T22:35:59.417;599617090744751032;15690.9795;54
2024-05-20T22:35:59.425;599617090752442404;15698.671;-11
2024-05-20T22:35:59.433;599617090760133776;15706.362;-114
2024-05-20T22:35:59.441;599617090767825148;15714.053;-92
2024-05-20T22:35:59.448;599617090775486432;15721.715;-26
2024-05-20T22:35:59.456;599617090783178222;15729.406;-21
2024-05-20T22:35:59.464;599617090790870012;15737.099;-21
2024-05-20T22:35:59.471;599617090798561802;15744.789;19
2024-05-20T22:35:59.479;599617090806253592;15752.481;30
2024-05-20T22:35:59.487;599617090813945382;15760.173;-19
2024-05-20T22:35:59.494;599617090821637172;15767.865;-80
2024-05-20T22:35:59.502;599617090829328962;15775.557;-69
2024-05-20T22:35:59.510;599617090837020752;15783.249;7
2024-05-20T22:35:59.517;599617090844712542;15790.94;59
2024-05-20T22:35:59.525;599617090852404332;15798.633;42
2024-05-20T22:35:59.533;599617090860096122;15806.323;30
2024-05-20T22:35:59.541;599617090867787912;15814.016;71
2024-05-20T22:35:59.548;599617090875479702;15821.707;107
2024-05-20T22:35:59.556;599617090883171492;15829.399;114
2024-05-20T22:35:59.564;599617090890863282;15837.091;126
2024-05-20T22:35:59.571;599617090898555072;15844.783;111
2024-05-20T22:35:59.579;599617090906246862;15852.475;49
2024-05-20T22:35:59.587;599617090913938652;15860.167;80
2024-05-20T22:35:59.594;599617090921630442;15867.858;357
2024-05-20T22:35:59.602;599617090929322232;15875.55;749
2024-05-20T22:35:59.610;599617090937014022;15883.241;878
2024-05-20T22:35:59.617;599617090944705812;15890.934;499
2024-05-20T22:35:59.625;599617090952397602;15898.625;-26
2024-05-20T22:35:59.633;599617090960089392;15906.317;-140
2024-05-20T22:35:59.641;599617090967781182;15914.009;-33
2024-05-20T22:35:59.648;599617090975472972;15921.701;-99
2024-05-20T22:35:59.656;599617090983164762;15929.394;-149
2024-05-20T22:35:59.664;599617090990856552;15937.084;-90
2024-05-20T22:35:59.671;599617090998548342;15944.776;-99
2024-05-20T22:35:59.679;599617091006240132;15952.468;-123
2024-05-20T22:35:59.687;599617091013931922;15960.16;-73
2024-05-20T22:35:59.694;599617091021623712;15967.852;-30
2024-05-20T22:35:59.702;599617091029315502;15975.544;-11
2024-05-20T22:35:59.710;599617091037007292;15983.235;16
2024-05-20T22:35:59.717;599617091044699082;15990.928;47
