Phone timestamp;sensor timestamp [ns];timestamp [ms];ecg [uV]
2024-05-20T22:29:12.824;599616684134610778;0.0;2532
2024-05-20T22:29:12.831;599616684142302150;7.691372;3480
2024-05-20T22:29:12.839;599616684149993522;15.382744;4172
2024-05-20T22:29:12.847;599616684157684894;23.074116;5001
2024-05-20T22:29:12.854;599616684165376266;30.765488;5693
2024-05-20T22:29:12.862;599616684173067638;38.45686;6257
2024-05-20T22:29:12.870;599616684180759010;46.14823;6895
2024-05-20T22:29:12.877;599616684188450382;53.839603;7493
2024-05-20T22:29:12.885;599616684196141754;61.530975;7990
2024-05-20T22:29:12.893;599616684203833126;69.22235;8490
2024-05-20T22:29:12.900;599616684211524498;76.91372;8983
2024-05-20T22:29:12.908;599616684219215870;84.60509;9416
2024-05-20T22:29:12.916;599616684226907242;92.29646;9811
2024-05-20T22:29:12.923;599616684234598614;99.98784;10233
2024-05-20T22:29:12.931;599616684242289986;107.67921;10690
2024-05-20T22:29:12.939;599616684249981358;115.370575;11052
2024-05-20T22:29:12.947;599616684257672730;123.06195;11302
2024-05-20T22:29:12.954;599616684265364102;130.75333;11640
2024-05-20T22:29:12.962;599616684273055474;138.4447;12037
2024-05-20T22:29:12.970;599616684280746846;146.13606;12325
2024-05-20T22:29:12.977;599616684288438218;153.82744;12592
2024-05-20T22:29:12.985;599616684296129590;161.51881;12908
2024-05-20T22:29:12.993;599616684303820962;169.21017;13161
2024-05-20T22:29:13.000;599616684311512334;176.90155;13403
2024-05-20T22:29:13.008;599616684319203706;184.59293;13672
2024-05-20T22:29:13.016;599616684326895078;192.2843;13841
2024-05-20T22:29:13.023;599616684334586450;199.97568;14001
2024-05-20T22:29:13.031;599616684342277822;207.66704;14182
2024-05-20T22:29:13.039;599616684349969194;215.35841;14270
2024-05-20T22:29:13.047;599616684357660566;223.04979;14394
2024-05-20T22:29:13.054;599616684365351938;230.74115;14651
2024-05-20T22:29:13.062;599616684373043310;238.43253;15039
2024-05-20T22:29:13.070;599616684380734682;246.1239;15677
2024-05-20T22:29:13.077;599616684388426054;253.81528;16186
2024-05-20T22:29:13.085;599616684396117426;261.50665;15869
2024-05-20T22:29:13.093;599616684403808798;269.19803;15165
2024-05-20T22:29:13.100;599616684411500170;276.8894;15077
2024-05-20T22:29:13.108;599616684419191542;284.58078;15477
2024-05-20T22:29:13.116;599616684426882914;292.27213;15598
2024-05-20T22:29:13.123;599616684434574286;299.96353;15439
2024-05-20T22:29:13.131;599616684442265658;307.65488;15465
2024-05-20T22:29:13.139;599616684449957030;315.34625;15574
2024-05-20T22:29:13.147;599616684457648402;323.03763;15515
2024-05-20T22:29:13.154;599616684465339774;330.729;15465
2024-05-20T22:29:13.162;599616684473031146;338.42035;15560
2024-05-20T22:29:13.170;599616684480722518;346.11176;15636
2024-05-20T22:29:13.177;599616684488413890;353.8031;15579
2024-05-20T22:29:13.185;599616684496105262;361.4945;15520
2024-05-20T22:29:13.193;599616684503796634;369.18585;15550
2024-05-20T22:29:13.200;599616684511488006;376.87723;15615
2024-05-20T22:29:13.208;599616684519179378;384.5686;15641
2024-05-20T22:29:13.216;599616684526870750;392.25998;15577
2024-05-20T22:29:13.223;599616684534562122;399.95135;15512
2024-05-20T22:29:13.231;599616684542253494;407.64273;15550
2024-05-20T22:29:13.239;599616684549944866;415.33408;15562
2024-05-20T22:29:13.247;599616684557636238;423.02548;15553
2024-05-20T22:29:13.254;599616684565327610;430.71683;15643
2024-05-20T22:29:13.262;599616684573018982;438.4082;15570
2024-05-20T22:29:13.270;599616684580710354;446.09958;15303
2024-05-20T22:29:13.277;599616684588401726;453.79095;15210
2024-05-20T22:29:13.285;599616684596093098;461.4823;15367
2024-05-20T22:29:13.293;599616684603784470;469.1737;15424
2024-05-20T22:29:13.300;599616684611475842;476.86505;15112
2024-05-20T22:29:13.308;599616684619167214;484.55646;14808
2024-05-20T22:29:13.316;599616684626858586;492.2478;14786
2024-05-20T22:29:13.323;599616684634549958;499.93918;14763
2024-05-20T22:29:13.331;599616684642241330;507.63055;14598
2024-05-20T22:29:13.339;599616684649932702;515.3219;14489
2024-05-20T22:29:13.347;599616684657624074;523.0133;14517
2024-05-20T22:29:13.354;599616684665315446;530.70465;14486
2024-05-20T22:29:13.362;599616684673006818;538.39606;14294
2024-05-20T22:29:13.370;599616684680698190;546.0874;14165
2024-05-20T22:29:13.377;599616684688389562;553.7788;14170
2024-05-20T22:29:13.385;599616684696080942;561.47015;14125
2024-05-20T22:29:13.393;599616684703772314;569.16156;14015
2024-05-20T22:29:13.400;599616684711463686;576.8529;13918
2024-05-20T22:29:13.408;599616684719155058;584.54425;13834
2024-05-20T22:29:13.416;599616684726846430;592.23566;13756
2024-05-20T22:29:13.423;599616684734537802;599.92706;13627
2024-05-20T22:29:13.431;599616684742229174;607.61835;13522
2024-05-20T22:29:13.439;599616684749920546;615.30975;13599
2024-05-20T22:29:13.447;599616684757611918;623.00116;13572
2024-05-20T22:29:13.454;599616684765303290;630.6925;13184
2024-05-20T22:29:13.462;599616684772994662;638.38385;12963
2024-05-20T22:29:13.470;599616684780686034;646.07526;13051
2024-05-20T22:29:13.477;599616684788377406;653.76666;12965
2024-05-20T22:29:13.485;599616684796068778;661.458;12758
2024-05-20T22:29:13.493;599616684803760150;669.14935;12739
2024-05-20T22:29:13.500;599616684811451522;676.84076;12725
2024-05-20T22:29:13.508;599616684819142894;684.5321;12475
2024-05-20T22:29:13.516;599616684826834266;692.2235;12230
2024-05-20T22:29:13.523;599616684834525638;699.91486;12194
2024-05-20T22:29:13.531;599616684842217010;707.6062;12197
2024-05-20T22:29:13.539;599616684849908382;715.2976;12054
2024-05-20T22:29:13.546;599616684857599754;722.989;11856
2024-05-20T22:29:13.554;599616684865291126;730.6803;11799
2024-05-20T22:29:13.562;599616684872982498;738.3717;11789
2024-05-20T22:29:13.570;599616684880673870;746.0631;11654
2024-05-20T22:29:13.577;599616684888365242;753.7545;11511
2024-05-20T22:29:13.585;599616684896056614;761.4458;11454
2024-05-20T22:29:13.593;599616684903747986;769.1372;11359
2024-05-20T22:29:13.600;599616684911439358;776.8286;11202
2024-05-20T22:29:13.608;599616684919130730;784.51996;11075
2024-05-20T22:29:13.616;599616684926822102;792.2113;11016
2024-05-20T22:29:13.623;599616684934513474;799.9027;10942
2024-05-20T22:29:13.631;599616684942204846;807.59406;10775
2024-05-20T22:29:13.639;599616684949896218;815.28546;10695
2024-05-20T22:29:13.646;599616684957587590;822.9768;10978
2024-05-20T22:29:13.654;599616684965278962;830.66815;11378
2024-05-20T22:29:13.662;599616684972970334;838.35956;11347
2024-05-20T22:29:13.670;599616684980661706;846.05096;10792
2024-05-20T22:29:13.677;599616684988353078;853.74225;10152
2024-05-20T22:29:13.685;599616684996044450;861.43365;9885
2024-05-20T22:29:13.693;599616685003735822;869.12506;9864
2024-05-20T22:29:13.700;599616685011427194;876.8164;9757
2024-05-20T22:29:13.708;599616685019118566;884.50775;9642
2024-05-20T22:29:13.716;599616685026809938;892.19916;9566
2024-05-20T22:29:13.723;599616685034501310;899.89056;9411
2024-05-20T22:29:13.731;599616685042192682;907.5819;9197
2024-05-20T22:29:13.739;599616685049884054;915.27325;9081
2024-05-20T22:29:13.746;599616685057575426;922.96466;9023
2024-05-20T22:29:13.754;599616685065266798;930.656;8852
2024-05-20T22:29:13.762;599616685072958170;938.3474;8693
2024-05-20T22:29:13.770;599616685080649542;946.03876;8657
2024-05-20T22:29:13.777;599616685088340914;953.7301;8552
2024-05-20T22:29:13.785;599616685096032286;961.4215;8445
2024-05-20T22:29:13.793;599616685103723658;969.1129;8414
2024-05-20T22:29:13.800;599616685111415030;976.8042;8250
2024-05-20T22:29:13.808;599616685119106402;984.4956;8050
2024-05-20T22:29:13.816;599616685126797774;992.187;7988
2024-05-20T22:29:13.823;599616685134489146;999.8784;7936
2024-05-20T22:29:13.831;599616685142180518;1007.5697;7864
2024-05-20T22:29:13.839;599616685149871890;1015.2611;7807
2024-05-20T22:29:13.846;599616685157563262;1022.9525;7724
2024-05-20T22:29:13.854;599616685165254634;1030.6438;7669
2024-05-20T22:29:13.862;599616685172946006;1038.3352;7621
2024-05-20T22:29:13.870;599616685180637378;1046.0266;7483
2024-05-20T22:29:13.877;599616685188328750;1053.7179;7348
2024-05-20T22:29:13.885;599616685196020122;1061.4093;7298
2024-05-20T22:29:13.893;599616685203711494;1069.1007;7248
2024-05-20T22:29:13.900;599616685211402866;1076.7921;7141
2024-05-20T22:29:13.908;599616685219094238;1084.4834;7026
2024-05-20T22:29:13.916;599616685226785610;1092.1748;6945
2024-05-20T22:29:13.923;599616685234476982;1099.8662;6898
2024-05-20T22:29:13.931;599616685242168354;1107.5576;6815
2024-05-20T22:29:13.939;599616685249859726;1115.2489;6724
2024-05-20T22:29:13.946;599616685257551106;1122.9403;6703
2024-05-20T22:29:13.954;599616685265242478;1130.6317;6650
2024-05-20T22:29:13.962;599616685272933850;1138.3231;6503
2024-05-20T22:29:13.970;599616685280625222;1146.0144;6415
2024-05-20T22:29:13.977;599616685288316594;1153.7058;6400
2024-05-20T22:29:13.985;599616685296007966;1161.3972;6377
2024-05-20T22:29:13.993;599616685303699338;1169.0885;6317
2024-05-20T22:29:14.000;599616685311390710;1176.7799;6188
2024-05-20T22:29:14.008;599616685319082082;1184.4713;6084
2024-05-20T22:29:14.016;599616685326773454;1192.1627;6029
2024-05-20T22:29:14.023;599616685334464826;1199.8541;5872
2024-05-20T22:29:14.031;599616685342156198;1207.5455;5746
2024-05-20T22:29:14.039;599616685349847570;1215.2367;5765
2024-05-20T22:29:14.046;599616685357538942;1222.9281;5712
2024-05-20T22:29:14.054;599616685365230314;1230.6195;5572
2024-05-20T22:29:14.062;599616685372921686;1238.3109;5527
2024-05-20T22:29:14.070;599616685380613058;1246.0023;5527
2024-05-20T22:29:14.077;599616685388304430;1253.6937;5453
2024-05-20T22:29:14.085;599616685395995802;1261.385;5382
2024-05-20T22:29:14.093;599616685403687174;1269.0763;5336
2024-05-20T22:29:14.100;599616685411378546;1276.7677;5270
2024-05-20T22:29:14.108;599616685419069918;1284.4591;5208
2024-05-20T22:29:14.116;599616685426761290;1292.1505;5165
2024-05-20T22:29:14.123;599616685434452662;1299.8419;5129
2024-05-20T22:29:14.131;599616685442144034;1307.5333;5098
2024-05-20T22:29:14.139;599616685449835406;1315.2246;5039
2024-05-20T22:29:14.146;599616685457526778;1322.916;4951
2024-05-20T22:29:14.154;599616685465218150;1330.6073;4913
2024-05-20T22:29:14.162;599616685472909522;1338.2987;4896
2024-05-20T22:29:14.169;599616685480600894;1345.9901;4822
2024-05-20T22:29:14.177;599616685488292266;1353.6815;4760
2024-05-20T22:29:14.185;599616685495983638;1361.3728;4736
2024-05-20T22:29:14.193;599616685503675010;1369.0642;4658
2024-05-20T22:29:14.200;599616685511366382;1376.7556;4544
2024-05-20T22:29:14.208;599616685519057754;1384.447;4484
2024-05-20T22:29:14.216;599616685526749126;1392.1384;4586
2024-05-20T22:29:14.223;599616685534440498;1399.8297;4913
2024-05-20T22:29:14.231;599616685542131870;1407.5211;5270
2024-05-20T22:29:14.239;599616685549823242;1415.2124;5236
2024-05-20T22:29:14.246;599616685557514614;1422.9038;4641
2024-05-20T22:29:14.254;599616685565205986;1430.5952;4013
2024-05-20T22:29:14.262;599616685572897358;1438.2866;3901
2024-05-20T22:29:14.269;599616685580588730;1445.978;3989
2024-05-20T22:29:14.277;599616685588280102;1453.6694;3880
2024-05-20T22:29:14.285;599616685595971474;1461.3606;3744
2024-05-20T22:29:14.293;599616685603662846;1469.052;3708
2024-05-20T22:29:14.300;599616685611354218;1476.7434;3603
2024-05-20T22:29:14.308;599616685619045590;1484.4348;3411
2024-05-20T22:29:14.316;599616685626736962;1492.1262;3325
2024-05-20T22:29:14.323;599616685634428334;1499.8176;3308
2024-05-20T22:29:14.331;599616685642119706;1507.509;3249
2024-05-20T22:29:14.339;599616685649811078;1515.2002;3218
2024-05-20T22:29:14.346;599616685657502450;1522.8916;3206
2024-05-20T22:29:14.354;599616685665193822;1530.583;3163
2024-05-20T22:29:14.362;599616685672885194;1538.2744;3151
2024-05-20T22:29:14.369;599616685680576566;1545.9658;3144
2024-05-20T22:29:14.377;599616685688267938;1553.6572;3096
2024-05-20T22:29:14.385;599616685695959310;1561.3485;3073
2024-05-20T22:29:14.393;599616685703650682;1569.0399;3082
2024-05-20T22:29:14.400;599616685711342054;1576.7313;3089
2024-05-20T22:29:14.408;599616685719033426;1584.4226;3073
2024-05-20T22:29:14.416;599616685726724798;1592.114;3032
2024-05-20T22:29:14.423;599616685734416170;1599.8054;3001
2024-05-20T22:29:14.431;599616685742107542;1607.4967;2987
2024-05-20T22:29:14.439;599616685749798914;1615.1881;2954
2024-05-20T22:29:14.446;599616685757490286;1622.8795;2918
2024-05-20T22:29:14.454;599616685765181658;1630.5709;2904
2024-05-20T22:29:14.462;599616685772873030;1638.2623;2854
2024-05-20T22:29:14.469;599616685780564402;1645.9536;2777
2024-05-20T22:29:14.477;599616685788255774;1653.645;2754
2024-05-20T22:29:14.485;599616685795947146;1661.3363;2732
2024-05-20T22:29:14.493;599616685803638518;1669.0277;2646
2024-05-20T22:29:14.500;599616685811329890;1676.7191;2585
2024-05-20T22:29:14.508;599616685819021270;1684.4105;2570
2024-05-20T22:29:14.516;599616685826712642;1692.1019;2549
2024-05-20T22:29:14.523;599616685834404014;1699.7933;2525
2024-05-20T22:29:14.531;599616685842095386;1707.4846;2511
2024-05-20T22:29:14.539;599616685849786758;1715.1759;2501
2024-05-20T22:29:14.546;599616685857478130;1722.8673;2499
2024-05-20T22:29:14.554;599616685865169502;1730.5587;2447
2024-05-20T22:29:14.562;599616685872860874;1738.2501;2337
2024-05-20T22:29:14.569;599616685880552246;1745.9415;2304
2024-05-20T22:29:14.577;599616685888243618;1753.6329;2339
2024-05-20T22:29:14.585;599616685895934990;1761.3242;2313
2024-05-20T22:29:14.593;599616685903626362;1769.0155;2266
2024-05-20T22:29:14.600;599616685911317734;1776.7069;2256
2024-05-20T22:29:14.608;599616685919009106;1784.3983;2247
2024-05-20T22:29:14.616;599616685926700478;1792.0897;2230
2024-05-20T22:29:14.623;599616685934391850;1799.7811;2218
2024-05-20T22:29:14.631;599616685942083222;1807.4724;2216
2024-05-20T22:29:14.639;599616685949774594;1815.1638;2211
2024-05-20T22:29:14.646;599616685957465966;1822.8552;2168
2024-05-20T22:29:14.654;599616685965157338;1830.5465;2130
2024-05-20T22:29:14.662;599616685972848710;1838.2379;2137
2024-05-20T22:29:14.669;599616685980540082;1845.9293;2139
2024-05-20T22:29:14.677;599616685988231454;1853.6207;2106
2024-05-20T22:29:14.685;599616685995922826;1861.312;2075
2024-05-20T22:29:14.693;599616686003614198;1869.0034;2068
2024-05-20T22:29:14.700;599616686011305570;1876.6948;2054
2024-05-20T22:29:14.708;599616686018996942;1884.3862;2032
2024-05-20T22:29:14.716;599616686026688314;1892.0775;2032
2024-05-20T22:29:14.723;599616686034379686;1899.7689;2047
2024-05-20T22:29:14.731;599616686042071058;1907.4602;2004
2024-05-20T22:29:14.739;599616686049762430;1915.1516;1916
2024-05-20T22:29:14.746;599616686057453802;1922.843;1878
2024-05-20T22:29:14.754;599616686065145174;1930.5344;1890
2024-05-20T22:29:14.762;599616686072836546;1938.2258;1887
2024-05-20T22:29:14.769;599616686080527918;1945.9172;1863
2024-05-20T22:29:14.777;599616686088219290;1953.6084;1837
2024-05-20T22:29:14.785;599616686095910662;1961.2998;1787
2024-05-20T22:29:14.792;599616686103602034;1968.9912;1761
2024-05-20T22:29:14.800;599616686111293406;1976.6826;1880
2024-05-20T22:29:14.808;599616686118984778;1984.374;2197
2024-05-20T22:29:14.816;599616686126676150;1992.0654;2508
2024-05-20T22:29:14.823;599616686134367522;1999.7568;2420
2024-05-20T22:29:14.831;599616686142058894;2007.4481;1856
2024-05-20T22:29:14.839;599616686149750266;2015.1394;1411
2024-05-20T22:29:14.846;599616686157441638;2022.8308;1442
2024-05-20T22:29:14.854;599616686165133010;2030.5222;1490
2024-05-20T22:29:14.862;599616686172824382;2038.2136;1371
2024-05-20T22:29:14.869;599616686180515754;2045.905;1361
2024-05-20T22:29:14.877;599616686188207126;2053.5962;1382
2024-05-20T22:29:14.885;599616686195898498;2061.2876;1290
2024-05-20T22:29:14.892;599616686203589870;2068.979;1228
2024-05-20T22:29:14.900;599616686211281242;2076.6704;1225
2024-05-20T22:29:14.908;599616686218972614;2084.3618;1190
2024-05-20T22:29:14.916;599616686226663986;2092.0532;1152
2024-05-20T22:29:14.923;599616686234355358;2099.7446;1130
2024-05-20T22:29:14.931;599616686242046730;2107.4358;1114
2024-05-20T22:29:14.939;599616686249738102;2115.1272;1121
2024-05-20T22:29:14.946;599616686257429474;2122.8186;1125
2024-05-20T22:29:14.954;599616686265120846;2130.51;1123
2024-05-20T22:29:14.962;599616686272812218;2138.2014;1137
2024-05-20T22:29:14.969;599616686280503590;2145.8928;1142
2024-05-20T22:29:14.977;599616686288194962;2153.5842;1116
2024-05-20T22:29:14.985;599616686295886334;2161.2756;1094
2024-05-20T22:29:14.992;599616686303577706;2168.9668;1106
2024-05-20T22:29:15.000;599616686311269078;2176.6582;1125
2024-05-20T22:29:15.008;599616686318960450;2184.3496;1121
2024-05-20T22:29:15.016;599616686326651822;2192.041;1102
2024-05-20T22:29:15.023;599616686334343194;2199.7324;1092
2024-05-20T22:29:15.031;599616686342034566;2207.4238;1094
2024-05-20T22:29:15.039;599616686349725938;2215.1152;1083
2024-05-20T22:29:15.046;599616686357417310;2222.8066;1066
2024-05-20T22:29:15.054;599616686365108682;2230.4978;1059
2024-05-20T22:29:15.062;599616686372800054;2238.1892;1042
2024-05-20T22:29:15.069;599616686380521530;2245.911;1014
2024-05-20T22:29:15.077;599616686388212484;2253.6018;1009
2024-05-20T22:29:15.085;599616686395903438;2261.2925;1028
2024-05-20T22:29:15.092;599616686403594392;2268.9836;1028
2024-05-20T22:29:15.100;599616686411285346;2276.6746;1011
2024-05-20T22:29:15.108;599616686418976300;2284.3655;1002
2024-05-20T22:29:15.116;599616686426667254;2292.0566;1009
2024-05-20T22:29:15.123;599616686434358208;2299.7473;983
2024-05-20T22:29:15.131;599616686442049162;2307.4382;916
2024-05-20T22:29:15.139;599616686449740116;2315.1294;902
2024-05-20T22:29:15.146;599616686457431070;2322.8203;935
2024-05-20T22:29:15.154;599616686465122024;2330.5115;921
2024-05-20T22:29:15.162;599616686472812978;2338.2021;885
2024-05-20T22:29:15.169;599616686480503932;2345.893;906
2024-05-20T22:29:15.177;599616686488194886;2353.5842;942
2024-05-20T22:29:15.185;599616686495885840;2361.2751;935
2024-05-20T22:29:15.192;599616686503576794;2368.966;918
2024-05-20T22:29:15.200;599616686511267748;2376.657;918
2024-05-20T22:29:15.208;599616686518958702;2384.348;925
2024-05-20T22:29:15.216;599616686526649656;2392.0388;923
2024-05-20T22:29:15.223;599616686534340610;2399.73;897
2024-05-20T22:29:15.231;599616686542031564;2407.4207;856
2024-05-20T22:29:15.239;599616686549722518;2415.1116;840
2024-05-20T22:29:15.246;599616686557413472;2422.8027;833
2024-05-20T22:29:15.254;599616686565104426;2430.4937;818
2024-05-20T22:29:15.262;599616686572795380;2438.1848;833
2024-05-20T22:29:15.269;599616686580486334;2445.8755;861
2024-05-20T22:29:15.277;599616686588177288;2453.5664;859
2024-05-20T22:29:15.285;599616686595868242;2461.2576;859
2024-05-20T22:29:15.292;599616686603559196;2468.9485;878
2024-05-20T22:29:15.300;599616686611250150;2476.6394;875
2024-05-20T22:29:15.308;599616686618941104;2484.3303;825
2024-05-20T22:29:15.316;599616686626632058;2492.0212;766
2024-05-20T22:29:15.323;599616686634323012;2499.7122;766
2024-05-20T22:29:15.331;599616686642013966;2507.4033;785
2024-05-20T22:29:15.339;599616686649704920;2515.094;761
2024-05-20T22:29:15.346;599616686657395874;2522.785;747
2024-05-20T22:29:15.354;599616686665086828;2530.476;759
2024-05-20T22:29:15.362;599616686672777782;2538.167;737
2024-05-20T22:29:15.369;599616686680468736;2545.8582;790
2024-05-20T22:29:15.377;599616686688159690;2553.5488;1104
2024-05-20T22:29:15.385;599616686695850644;2561.2397;1554
2024-05-20T22:29:15.392;599616686703541598;2568.931;1697
2024-05-20T22:29:15.400;599616686711232552;2576.6218;1297
2024-05-20T22:29:15.408;599616686718923506;2584.3127;756
2024-05-20T22:29:15.416;599616686726614460;2592.0037;652
2024-05-20T22:29:15.423;599616686734305414;2599.6946;778
2024-05-20T22:29:15.431;599616686741996368;2607.3855;704
2024-05-20T22:29:15.439;599616686749687322;2615.0767;595
2024-05-20T22:29:15.446;599616686757378276;2622.7676;623
2024-05-20T22:29:15.454;599616686765069230;2630.4583;637
2024-05-20T22:29:15.462;599616686772760184;2638.1494;597
2024-05-20T22:29:15.469;599616686780451138;2645.8403;549
2024-05-20T22:29:15.477;599616686788142092;2653.5315;480
2024-05-20T22:29:15.485;599616686795833046;2661.2222;433
2024-05-20T22:29:15.492;599616686803524000;2668.913;418
2024-05-20T22:29:15.500;599616686811214954;2676.6042;397
2024-05-20T22:29:15.508;599616686818905908;2684.2952;395
2024-05-20T22:29:15.515;599616686826596862;2691.986;402
2024-05-20T22:29:15.523;599616686834287816;2699.677;388
2024-05-20T22:29:15.531;599616686841978770;2707.368;399
2024-05-20T22:29:15.539;599616686849669724;2715.0588;428
2024-05-20T22:29:15.546;599616686857360678;2722.75;442
2024-05-20T22:29:15.554;599616686865051632;2730.441;464
2024-05-20T22:29:15.562;599616686872742586;2738.1316;492
2024-05-20T22:29:15.569;599616686880433540;2745.8228;490
2024-05-20T22:29:15.577;599616686888124494;2753.5137;476
2024-05-20T22:29:15.585;599616686895815448;2761.2048;487
2024-05-20T22:29:15.592;599616686903506402;2768.8958;514
2024-05-20T22:29:15.600;599616686911197356;2776.5864;514
2024-05-20T22:29:15.608;599616686918888310;2784.2776;490
2024-05-20T22:29:15.615;599616686926579264;2791.9685;471
2024-05-20T22:29:15.623;599616686934270218;2799.6594;468
2024-05-20T22:29:15.631;599616686941931080;2807.3203;468
2024-05-20T22:29:15.639;599616686949622452;2815.0115;449
2024-05-20T22:29:15.646;599616686957313824;2822.7031;449
2024-05-20T22:29:15.654;599616686965005196;2830.3943;464
2024-05-20T22:29:15.662;599616686972696568;2838.086;426
2024-05-20T22:29:15.669;599616686980387940;2845.777;352
2024-05-20T22:29:15.677;599616686988079312;2853.4685;347
2024-05-20T22:29:15.685;599616686995770684;2861.16;397
2024-05-20T22:29:15.692;599616687003462056;2868.8513;409
2024-05-20T22:29:15.700;599616687011153428;2876.5427;390
2024-05-20T22:29:15.708;599616687018844800;2884.234;392
2024-05-20T22:29:15.715;599616687026536172;2891.9255;388
2024-05-20T22:29:15.723;599616687034227544;2899.6167;345
2024-05-20T22:29:15.731;599616687041918916;2907.308;326
2024-05-20T22:29:15.738;599616687049610288;2914.9995;354
2024-05-20T22:29:15.746;599616687057301660;2922.691;378
2024-05-20T22:29:15.754;599616687064993032;2930.3823;366
2024-05-20T22:29:15.762;599616687072684404;2938.0735;359
2024-05-20T22:29:15.769;599616687080375776;2945.7651;388
2024-05-20T22:29:15.777;599616687088067148;2953.4563;421
2024-05-20T22:29:15.785;599616687095758520;2961.1477;418
2024-05-20T22:29:15.792;599616687103449892;2968.839;399
2024-05-20T22:29:15.800;599616687111141264;2976.5305;411
2024-05-20T22:29:15.808;599616687118832636;2984.222;423
2024-05-20T22:29:15.815;599616687126524008;2991.9133;371
2024-05-20T22:29:15.823;599616687134215380;2999.6045;307
2024-05-20T22:29:15.831;599616687141906752;3007.296;330
2024-05-20T22:29:15.838;599616687149598124;3014.9873;380
2024-05-20T22:29:15.846;599616687157289496;3022.6787;364
2024-05-20T22:29:15.854;599616687164980868;3030.37;357
2024-05-20T22:29:15.862;599616687172672240;3038.0615;399
2024-05-20T22:29:15.869;599616687180363612;3045.753;430
2024-05-20T22:29:15.877;599616687188054984;3053.444;428
2024-05-20T22:29:15.885;599616687195746356;3061.1355;428
2024-05-20T22:29:15.892;599616687203437728;3068.827;442
2024-05-20T22:29:15.900;599616687211129100;3076.5183;440
2024-05-20T22:29:15.908;599616687218820472;3084.2097;423
2024-05-20T22:29:15.915;599616687226511844;3091.9011;404
2024-05-20T22:29:15.923;599616687234203216;3099.5925;414
2024-05-20T22:29:15.931;599616687241894588;3107.2837;571
2024-05-20T22:29:15.938;599616687249585960;3114.9753;952
2024-05-20T22:29:15.946;599616687257277332;3122.6665;1330
2024-05-20T22:29:15.954;599616687264968704;3130.358;1290
2024-05-20T22:29:15.962;599616687272660076;3138.0493;756
2024-05-20T22:29:15.969;599616687280351448;3145.7405;302
2024-05-20T22:29:15.977;599616687288042820;3153.4321;326
2024-05-20T22:29:15.985;599616687295734192;3161.1233;423
2024-05-20T22:29:15.992;599616687303425564;3168.815;335
2024-05-20T22:29:16.000;599616687311116936;3176.506;318
2024-05-20T22:29:16.008;599616687318808308;3184.1978;392
2024-05-20T22:29:16.015;599616687326499680;3191.889;399
2024-05-20T22:29:16.023;599616687334191052;3199.58;380
2024-05-20T22:29:16.031;599616687341882424;3207.2717;378
2024-05-20T22:29:16.038;599616687349573796;3214.963;380
2024-05-20T22:29:16.046;599616687357265168;3222.6545;368
2024-05-20T22:29:16.054;599616687364956540;3230.3457;333
2024-05-20T22:29:16.062;599616687372647912;3238.0374;326
2024-05-20T22:29:16.069;599616687380339284;3245.7285;349
2024-05-20T22:29:16.077;599616687388030656;3253.4197;328
2024-05-20T22:29:16.085;599616687395722028;3261.1113;276
2024-05-20T22:29:16.092;599616687403413400;3268.8025;259
2024-05-20T22:29:16.100;599616687411104772;3276.4941;257
2024-05-20T22:29:16.108;599616687418796144;3284.1853;235
2024-05-20T22:29:16.115;599616687426487516;3291.877;230
2024-05-20T22:29:16.123;599616687434178888;3299.568;235
2024-05-20T22:29:16.131;599616687441870260;3307.2593;233
2024-05-20T22:29:16.138;599616687449561632;3314.951;238
2024-05-20T22:29:16.146;599616687457253004;3322.642;240
2024-05-20T22:29:16.154;599616687464944376;3330.3337;240
2024-05-20T22:29:16.162;599616687472635748;3338.025;235
2024-05-20T22:29:16.169;599616687480327120;3345.7163;204
2024-05-20T22:29:16.177;599616687488018492;3353.4077;176
2024-05-20T22:29:16.185;599616687495709864;3361.099;176
2024-05-20T22:29:16.192;599616687503401244;3368.7905;183
2024-05-20T22:29:16.200;599616687511092616;3376.4817;178
2024-05-20T22:29:16.208;599616687518783988;3384.1733;140
2024-05-20T22:29:16.215;599616687526475360;3391.8645;92
2024-05-20T22:29:16.223;599616687534166732;3399.556;97
2024-05-20T22:29:16.231;599616687541858104;3407.2473;102
2024-05-20T22:29:16.238;599616687549549476;3414.9387;47
2024-05-20T22:29:16.246;599616687557240848;3422.6301;33
2024-05-20T22:29:16.254;599616687564932220;3430.3213;83
2024-05-20T22:29:16.262;599616687572623592;3438.013;83
2024-05-20T22:29:16.269;599616687580314964;3445.704;71
2024-05-20T22:29:16.277;599616687588006336;3453.3955;104
2024-05-20T22:29:16.285;599616687595697708;3461.087;138
2024-05-20T22:29:16.292;599616687603389080;3468.7783;142
2024-05-20T22:29:16.300;599616687611080452;3476.4697;142
2024-05-20T22:29:16.308;599616687618771824;3484.1611;157
2024-05-20T22:29:16.315;599616687626463196;3491.8525;157
2024-05-20T22:29:16.323;599616687634154568;3499.5437;90
2024-05-20T22:29:16.331;599616687641845940;3507.235;30
2024-05-20T22:29:16.338;599616687649537312;3514.9265;69
2024-05-20T22:29:16.346;599616687657228684;3522.618;109
2024-05-20T22:29:16.354;599616687664920056;3530.3093;83
2024-05-20T22:29:16.362;599616687672611428;3538.0007;85
2024-05-20T22:29:16.369;599616687680302800;3545.692;140
2024-05-20T22:29:16.377;599616687687994172;3553.3835;173
2024-05-20T22:29:16.385;599616687695685544;3561.0747;180
2024-05-20T22:29:16.392;599616687703376916;3568.766;202
2024-05-20T22:29:16.400;599616687711068288;3576.4575;218
2024-05-20T22:29:16.408;599616687718759660;3584.149;223
2024-05-20T22:29:16.415;599616687726451032;3591.8403;240
2024-05-20T22:29:16.423;599616687734142404;3599.5315;261
2024-05-20T22:29:16.431;599616687741833776;3607.2231;280
2024-05-20T22:29:16.438;599616687749525148;3614.9143;290
2024-05-20T22:29:16.446;599616687757216520;3622.6057;252
2024-05-20T22:29:16.454;599616687764907892;3630.297;166
2024-05-20T22:29:16.461;599616687772599264;3637.9885;154
2024-05-20T22:29:16.469;599616687780290636;3645.68;399
2024-05-20T22:29:16.477;599616687787982008;3653.371;866
2024-05-20T22:29:16.485;599616687795673380;3661.0627;1178
2024-05-20T22:29:16.492;599616687803364752;3668.754;945
2024-05-20T22:29:16.500;599616687811056124;3676.4456;354
2024-05-20T22:29:16.508;599616687818747496;3684.1367;73
2024-05-20T22:29:16.515;599616687826438868;3691.828;226
2024-05-20T22:29:16.523;599616687834130240;3699.5195;299
2024-05-20T22:29:16.531;599616687841821612;3707.2107;207
2024-05-20T22:29:16.538;599616687849512984;3714.9023;199
2024-05-20T22:29:16.546;599616687857204356;3722.5935;254
2024-05-20T22:29:16.554;599616687864895728;3730.2852;264
2024-05-20T22:29:16.561;599616687872587100;3737.9763;264
2024-05-20T22:29:16.569;599616687880278472;3745.6675;285
2024-05-20T22:29:16.577;599616687887969844;3753.3591;299
2024-05-20T22:29:16.585;599616687895661216;3761.0503;307
2024-05-20T22:29:16.592;599616687903352588;3768.742;314
2024-05-20T22:29:16.600;599616687911043960;3776.433;321
2024-05-20T22:29:16.608;599616687918735332;3784.1248;340
2024-05-20T22:29:16.615;599616687926426704;3791.816;373
2024-05-20T22:29:16.623;599616687934118076;3799.507;378
2024-05-20T22:29:16.631;599616687941809448;3807.1987;345
2024-05-20T22:29:16.638;599616687949500820;3814.89;323
2024-05-20T22:29:16.646;599616687957192192;3822.5815;347
2024-05-20T22:29:16.654;599616687964883564;3830.2727;376
2024-05-20T22:29:16.661;599616687972574936;3837.964;376
2024-05-20T22:29:16.669;599616687980266308;3845.6555;340
2024-05-20T22:29:16.677;599616687987957680;3853.347;290
2024-05-20T22:29:16.685;599616687995649052;3861.0383;245
2024-05-20T22:29:16.692;599616688003340424;3868.7295;204
2024-05-20T22:29:16.700;599616688011031796;3876.4211;157
2024-05-20T22:29:16.708;599616688018723168;3884.1123;95
2024-05-20T22:29:16.715;599616688026414540;3891.8037;47
2024-05-20T22:29:16.723;599616688034105912;3899.495;11
2024-05-20T22:29:16.731;599616688041797284;3907.1865;-7
2024-05-20T22:29:16.738;599616688049488656;3914.878;-2
2024-05-20T22:29:16.746;599616688057180028;3922.5693;-4
2024-05-20T22:29:16.754;599616688064871408;3930.2607;-9
2024-05-20T22:29:16.761;599616688072562780;3937.952;2
2024-05-20T22:29:16.769;599616688080254152;3945.6433;9
2024-05-20T22:29:16.777;599616688087945524;3953.3347;7
2024-05-20T22:29:16.785;599616688095636896;3961.0261;26
2024-05-20T22:29:16.792;599616688103328268;3968.7175;59
2024-05-20T22:29:16.800;599616688111019640;3976.409;83
2024-05-20T22:29:16.808;599616688118711012;3984.1003;80
2024-05-20T22:29:16.815;599616688126402384;3991.7915;61
2024-05-20T22:29:16.823;599616688134093756;3999.483;11
2024-05-20T22:29:16.831;599616688141785128;4007.1743;-71
2024-05-20T22:29:16.838;599616688149476500;4014.8657;-133
2024-05-20T22:29:16.846;599616688157167872;4022.5571;-114
2024-05-20T22:29:16.854;599616688164859244;4030.2485;-64
2024-05-20T22:29:16.861;599616688172550616;4037.9397;-66
2024-05-20T22:29:16.869;599616688180241988;4045.6313;-78
2024-05-20T22:29:16.877;599616688187933360;4053.3225;-35
2024-05-20T22:29:16.885;599616688195624732;4061.014;16
2024-05-20T22:29:16.892;599616688203316104;4068.7053;30
2024-05-20T22:29:16.900;599616688211007476;4076.3967;33
2024-05-20T22:29:16.908;599616688218698848;4084.0881;49
2024-05-20T22:29:16.915;599616688226390220;4091.7793;80
2024-05-20T22:29:16.923;599616688234081592;4099.4707;119
2024-05-20T22:29:16.931;599616688241772964;4107.162;142
2024-05-20T22:29:16.938;599616688249464336;4114.8535;159
2024-05-20T22:29:16.946;599616688257155708;4122.545;152
2024-05-20T22:29:16.954;599616688264847080;4130.2363;102
2024-05-20T22:29:16.961;599616688272538452;4137.9277;95
2024-05-20T22:29:16.969;599616688280229824;4145.619;159
2024-05-20T22:29:16.977;599616688287921196;4153.3105;190
2024-05-20T22:29:16.985;599616688295612568;4161.002;157
2024-05-20T22:29:16.992;599616688303303940;4168.6934;111
2024-05-20T22:29:17.000;599616688310995312;4176.3843;166
2024-05-20T22:29:17.008;599616688318686684;4184.076;457
2024-05-20T22:29:17.015;599616688326378056;4191.767;928
2024-05-20T22:29:17.023;599616688334069428;4199.4585;1192
2024-05-20T22:29:17.031;599616688341760800;4207.15;916
2024-05-20T22:29:17.038;599616688349452172;4214.8413;338
2024-05-20T22:29:17.046;599616688357143544;4222.5327;97
2024-05-20T22:29:17.054;599616688364834916;4230.224;240
2024-05-20T22:29:17.061;599616688372526288;4237.9155;280
2024-05-20T22:29:17.069;599616688380217660;4245.607;202
2024-05-20T22:29:17.077;599616688387909032;4253.2983;228
2024-05-20T22:29:17.084;599616688395600404;4260.9897;268
2024-05-20T22:29:17.092;599616688403291776;4268.681;257
2024-05-20T22:29:17.100;599616688410983148;4276.3726;266
2024-05-20T22:29:17.108;599616688418674520;4284.064;285
2024-05-20T22:29:17.115;599616688426365892;4291.755;292
2024-05-20T22:29:17.123;599616688434057264;4299.4463;323
2024-05-20T22:29:17.131;599616688441748636;4307.138;352
2024-05-20T22:29:17.138;599616688449440008;4314.829;330
2024-05-20T22:29:17.146;599616688457131380;4322.5205;326
2024-05-20T22:29:17.154;599616688464822752;4330.212;364
2024-05-20T22:29:17.161;599616688472514124;4337.9033;383
2024-05-20T22:29:17.169;599616688480205496;4345.5947;376
2024-05-20T22:29:17.177;599616688487896868;4353.286;395
2024-05-20T22:29:17.184;599616688495588240;4360.9775;421
2024-05-20T22:29:17.192;599616688503279612;4368.6685;418
2024-05-20T22:29:17.200;599616688510970984;4376.3604;399
2024-05-20T22:29:17.208;599616688518662356;4384.052;388
2024-05-20T22:29:17.215;599616688526353728;4391.743;371
2024-05-20T22:29:17.223;599616688534045100;4399.434;333
2024-05-20T22:29:17.231;599616688541736472;4407.1255;297
2024-05-20T22:29:17.238;599616688549427844;4414.8174;278
2024-05-20T22:29:17.246;599616688557119216;4422.5083;254
2024-05-20T22:29:17.254;599616688564810588;4430.1997;199
2024-05-20T22:29:17.261;599616688572501960;4437.891;145
2024-05-20T22:29:17.269;599616688580193332;4445.5825;102
2024-05-20T22:29:17.277;599616688587884704;4453.274;52
2024-05-20T22:29:17.284;599616688595576076;4460.9653;23
2024-05-20T22:29:17.292;599616688603267448;4468.6567;26
2024-05-20T22:29:17.300;599616688610958820;4476.348;35
2024-05-20T22:29:17.308;599616688618650192;4484.039;38
2024-05-20T22:29:17.315;599616688626341572;4491.731;28
2024-05-20T22:29:17.323;599616688634032944;4499.4224;2
2024-05-20T22:29:17.331;599616688641724316;4507.1133;-38
2024-05-20T22:29:17.338;599616688649415688;4514.8047;-102
2024-05-20T22:29:17.346;599616688657107060;4522.4966;-138
2024-05-20T22:29:17.354;599616688664798432;4530.188;-102
2024-05-20T22:29:17.361;599616688672489804;4537.879;-66
2024-05-20T22:29:17.369;599616688680181176;4545.5703;-88
2024-05-20T22:29:17.377;599616688687872548;4553.2617;-135
2024-05-20T22:29:17.384;599616688695563920;4560.953;-145
2024-05-20T22:29:17.392;599616688703255292;4568.6445;-104
2024-05-20T22:29:17.400;599616688710946664;4576.336;-76
2024-05-20T22:29:17.408;599616688718638036;4584.0273;-83
2024-05-20T22:29:17.415;599616688726329408;4591.7183;-83
2024-05-20T22:29:17.423;599616688734020780;4599.41;-49
2024-05-20T22:29:17.431;599616688741712152;4607.1016;-14
2024-05-20T22:29:17.438;599616688749403524;4614.7925;-2
2024-05-20T22:29:17.446;599616688757094896;4622.484;-16
2024-05-20T22:29:17.454;599616688764786268;4630.176;-14
2024-05-20T22:29:17.461;599616688772477640;4637.867;19
2024-05-20T22:29:17.469;599616688780169012;4645.558;45
2024-05-20T22:29:17.477;599616688787860384;4653.2495;69
2024-05-20T22:29:17.484;599616688795551756;4660.941;99
2024-05-20T22:29:17.492;599616688803243128;4668.633;114
2024-05-20T22:29:17.500;599616688810934500;4676.3237;121
2024-05-20T22:29:17.508;599616688818625872;4684.015;130
2024-05-20T22:29:17.515;599616688826317244;4691.7065;145
2024-05-20T22:29:17.523;599616688834008616;4699.3975;149
2024-05-20T22:29:17.531;599616688841699988;4707.0894;119
2024-05-20T22:29:17.538;599616688849391360;4714.781;147
2024-05-20T22:29:17.546;599616688857082732;4722.472;395
2024-05-20T22:29:17.554;599616688864774104;4730.163;837
2024-05-20T22:29:17.561;599616688872465476;4737.8545;1152
2024-05-20T22:29:17.569;599616688880156848;4745.5464;949
2024-05-20T22:29:17.577;599616688887848220;4753.2373;376
2024-05-20T22:29:17.584;599616688895539592;4760.9287;90
2024-05-20T22:29:17.592;599616688903230964;4768.62;209
2024-05-20T22:29:17.600;599616688910922336;4776.312;247
2024-05-20T22:29:17.608;599616688918613708;4784.003;169
2024-05-20T22:29:17.615;599616688926305080;4791.6943;197
2024-05-20T22:29:17.623;599616688933996452;4799.3857;235
2024-05-20T22:29:17.631;599616688941687824;4807.0767;226
2024-05-20T22:29:17.638;599616688949379196;4814.7686;242
2024-05-20T22:29:17.646;599616688957070568;4822.46;254
2024-05-20T22:29:17.654;599616688964761940;4830.1514;249
2024-05-20T22:29:17.661;599616688972453312;4837.8423;283
2024-05-20T22:29:17.669;599616688980144684;4845.5337;309
2024-05-20T22:29:17.677;599616688987836056;4853.2256;302
2024-05-20T22:29:17.684;599616688995527428;4860.9165;295
2024-05-20T22:29:17.692;599616689003218800;4868.608;271
2024-05-20T22:29:17.700;599616689010910172;4876.2993;261
2024-05-20T22:29:17.707;599616689018601544;4883.9907;288
2024-05-20T22:29:17.715;599616689026292916;4891.682;311
2024-05-20T22:29:17.723;599616689033984288;4899.3735;338
2024-05-20T22:29:17.731;599616689041675660;4907.065;361
2024-05-20T22:29:17.738;599616689049367032;4914.756;345
2024-05-20T22:29:17.746;599616689057058404;4922.4478;347
2024-05-20T22:29:17.754;599616689064749776;4930.139;383
2024-05-20T22:29:17.761;599616689072441148;4937.8306;385
2024-05-20T22:29:17.769;599616689080132520;4945.5215;364
2024-05-20T22:29:17.777;599616689087823892;4953.213;364
2024-05-20T22:29:17.784;599616689095515264;4960.905;340
2024-05-20T22:29:17.792;599616689103206636;4968.596;273
2024-05-20T22:29:17.800;599616689110898008;4976.287;228
2024-05-20T22:29:17.807;599616689118589380;4983.9785;233
2024-05-20T22:29:17.815;599616689126280752;4991.67;238
2024-05-20T22:29:17.823;599616689133972124;4999.3613;195
2024-05-20T22:29:17.831;599616689141663496;5007.0527;114
2024-05-20T22:29:17.838;599616689149354868;5014.744;30
2024-05-20T22:29:17.846;599616689157046240;5022.4355;-49
2024-05-20T22:29:17.854;599616689164737612;5030.1265;-85
2024-05-20T22:29:17.861;599616689172428984;5037.8184;-73
2024-05-20T22:29:17.869;599616689180120356;5045.51;-61
2024-05-20T22:29:17.877;599616689187816776;5053.206;-69
2024-05-20T22:29:17.884;599616689195508078;5060.8975;-76
2024-05-20T22:29:17.892;599616689203199380;5068.5884;-61
2024-05-20T22:29:17.900;599616689210890682;5076.28;-35
2024-05-20T22:29:17.907;599616689218581984;5083.971;-23
2024-05-20T22:29:17.915;599616689226273286;5091.662;-26
2024-05-20T22:29:17.923;599616689233964588;5099.3535;-38
2024-05-20T22:29:17.931;599616689241655890;5107.045;-49
2024-05-20T22:29:17.938;599616689249347192;5114.737;-83
2024-05-20T22:29:17.946;599616689257038494;5122.4277;-138
2024-05-20T22:29:17.954;599616689264729796;5130.119;-159
2024-05-20T22:29:17.961;599616689272421098;5137.8105;-126
2024-05-20T22:29:17.969;599616689280112400;5145.5015;-107
2024-05-20T22:29:17.977;599616689287803702;5153.193;-123
2024-05-20T22:29:17.984;599616689295495004;5160.8843;-102
2024-05-20T22:29:17.992;599616689303186306;5168.5757;-40
2024-05-20T22:29:18.000;599616689310877608;5176.2666;-9
2024-05-20T22:29:18.007;599616689318568910;5183.958;-16
2024-05-20T22:29:18.015;599616689326260212;5191.6494;-2
2024-05-20T22:29:18.023;599616689333951514;5199.3403;42
2024-05-20T22:29:18.031;599616689341642816;5207.0317;78
2024-05-20T22:29:18.038;599616689349334118;5214.7236;83
2024-05-20T22:29:18.046;599616689357025420;5222.415;99
2024-05-20T22:29:18.054;599616689364716722;5230.106;133
2024-05-20T22:29:18.061;599616689372408024;5237.7974;130
2024-05-20T22:29:18.069;599616689380099326;5245.489;116
2024-05-20T22:29:18.077;599616689387790628;5253.1797;135
2024-05-20T22:29:18.084;599616689395481930;5260.871;135
2024-05-20T22:29:18.092;599616689403173232;5268.5625;157
2024-05-20T22:29:18.100;599616689410864534;5276.254;390
2024-05-20T22:29:18.107;599616689418555836;5283.945;845
2024-05-20T22:29:18.115;599616689426247138;5291.636;1156
2024-05-20T22:29:18.123;599616689433938440;5299.3276;916
2024-05-20T22:29:18.131;599616689441629742;5307.0186;330
2024-05-20T22:29:18.138;599616689449321044;5314.71;88
2024-05-20T22:29:18.146;599616689457012346;5322.402;226
2024-05-20T22:29:18.154;599616689464703648;5330.0933;235
2024-05-20T22:29:18.161;599616689472394950;5337.784;138
2024-05-20T22:29:18.169;599616689480086252;5345.4756;180
2024-05-20T22:29:18.177;599616689487777554;5353.167;209
2024-05-20T22:29:18.184;599616689495468856;5360.858;133
2024-05-20T22:29:18.192;599616689503160158;5368.5493;119
2024-05-20T22:29:18.200;599616689510851460;5376.2407;173
2024-05-20T22:29:18.207;599616689518542762;5383.932;185
2024-05-20T22:29:18.215;599616689526234064;5391.623;171
2024-05-20T22:29:18.223;599616689533925366;5399.3145;197
2024-05-20T22:29:18.231;599616689541616668;5407.006;240
2024-05-20T22:29:18.238;599616689549307970;5414.697;252
2024-05-20T22:29:18.246;599616689556999272;5422.3887;247
2024-05-20T22:29:18.254;599616689564690574;5430.08;264
2024-05-20T22:29:18.261;599616689572381876;5437.7715;295
2024-05-20T22:29:18.269;599616689580073178;5445.4624;330
2024-05-20T22:29:18.277;599616689587764480;5453.154;359
2024-05-20T22:29:18.284;599616689595455782;5460.845;366
2024-05-20T22:29:18.292;599616689603147084;5468.536;373
2024-05-20T22:29:18.300;599616689610838386;5476.2275;390
2024-05-20T22:29:18.307;599616689618529688;5483.919;390
2024-05-20T22:29:18.315;599616689626220990;5491.6104;383
2024-05-20T22:29:18.323;599616689633912292;5499.3013;397
2024-05-20T22:29:18.330;599616689641603594;5506.9927;397
2024-05-20T22:29:18.338;599616689649294896;5514.684;326
2024-05-20T22:29:18.346;599616689656986198;5522.375;228
2024-05-20T22:29:18.354;599616689664677500;5530.067;218
2024-05-20T22:29:18.361;599616689672368802;5537.7583;240
2024-05-20T22:29:18.369;599616689680060104;5545.4497;190
2024-05-20T22:29:18.377;599616689687751406;5553.1406;135
2024-05-20T22:29:18.384;599616689695442708;5560.832;128
2024-05-20T22:29:18.392;599616689703134010;5568.5234;121
2024-05-20T22:29:18.400;599616689710825312;5576.2144;107
2024-05-20T22:29:18.407;599616689718516614;5583.906;95
2024-05-20T22:29:18.415;599616689726207916;5591.597;69
2024-05-20T22:29:18.423;599616689733899218;5599.288;28
2024-05-20T22:29:18.430;599616689741590520;5606.9795;-35
2024-05-20T22:29:18.438;599616689749301940;5614.6914;-71
2024-05-20T22:29:18.446;599616689756992963;5622.382;-49
2024-05-20T22:29:18.454;599616689764683986;5630.073;-42
2024-05-20T22:29:18.461;599616689772375009;5637.764;-49
2024-05-20T22:29:18.469;599616689780066032;5645.4556;-35
2024-05-20T22:29:18.477;599616689787757055;5653.146;-57
2024-05-20T22:29:18.484;599616689795448078;5660.8374;-119
2024-05-20T22:29:18.492;599616689803139101;5668.5283;-147
2024-05-20T22:29:18.500;599616689810830124;5676.219;-119
2024-05-20T22:29:18.507;599616689818521147;5683.91;-90
2024-05-20T22:29:18.515;599616689826212170;5691.6016;-95
2024-05-20T22:29:18.523;599616689833903193;5699.292;-102
2024-05-20T22:29:18.530;599616689841594216;5706.9834;-92
2024-05-20T22:29:18.538;599616689849285239;5714.675;-71
2024-05-20T22:29:18.546;599616689856976262;5722.365;-54
2024-05-20T22:29:18.554;599616689864667285;5730.0566;-38
2024-05-20T22:29:18.561;599616689872358308;5737.7476;-14
2024-05-20T22:29:18.569;599616689880049331;5745.4385;0
2024-05-20T22:29:18.577;599616689887740354;5753.1294;-2
2024-05-20T22:29:18.584;599616689895431377;5760.821;26
2024-05-20T22:29:18.592;599616689903122400;5768.5117;78
2024-05-20T22:29:18.600;599616689910813423;5776.2026;95
2024-05-20T22:29:18.607;599616689918504446;5783.8936;80
2024-05-20T22:29:18.615;599616689926195469;5791.585;83
2024-05-20T22:29:18.623;599616689933886492;5799.2754;114
2024-05-20T22:29:18.630;599616689941577515;5806.967;133
2024-05-20T22:29:18.638;599616689949268538;5814.6577;128
2024-05-20T22:29:18.646;599616689956959561;5822.3486;116
2024-05-20T22:29:18.654;599616689964650584;5830.0396;109
2024-05-20T22:29:18.661;599616689972341607;5837.731;169
2024-05-20T22:29:18.669;599616689980032630;5845.422;445
2024-05-20T22:29:18.677;599616689987723653;5853.113;873
2024-05-20T22:29:18.684;599616689995414676;5860.804;1061
2024-05-20T22:29:18.692;599616690003105699;5868.4946;704
2024-05-20T22:29:18.700;599616690010796722;5876.186;135
2024-05-20T22:29:18.707;599616690018487745;5883.877;-16
2024-05-20T22:29:18.715;599616690026178768;5891.5684;149
2024-05-20T22:29:18.723;599616690033869791;5899.259;154
2024-05-20T22:29:18.730;599616690041560814;5906.95;78
2024-05-20T22:29:18.738;599616690049251837;5914.641;126
2024-05-20T22:29:18.746;599616690056942860;5922.332;157
2024-05-20T22:29:18.754;599616690064633883;5930.023;119
2024-05-20T22:29:18.761;599616690072324906;5937.7144;123
2024-05-20T22:29:18.769;599616690080015929;5945.405;171
2024-05-20T22:29:18.777;599616690087706952;5953.096;195
2024-05-20T22:29:18.784;599616690095397975;5960.787;190
2024-05-20T22:29:18.792;599616690103088998;5968.478;190
2024-05-20T22:29:18.800;599616690110780021;5976.1694;207
2024-05-20T22:29:18.807;599616690118471044;5983.8604;226
2024-05-20T22:29:18.815;599616690126162067;5991.5513;240
2024-05-20T22:29:18.823;599616690133853090;5999.242;254
2024-05-20T22:29:18.830;599616690141544113;6006.9336;280
2024-05-20T22:29:18.838;599616690149235136;6014.624;283
2024-05-20T22:29:18.846;599616690156926159;6022.3154;238
2024-05-20T22:29:18.854;599616690164617182;6030.0063;221
2024-05-20T22:29:18.861;599616690172308205;6037.6978;268
2024-05-20T22:29:18.869;599616690179999228;6045.388;292
2024-05-20T22:29:18.877;599616690187690251;6053.0796;283
2024-05-20T22:29:18.884;599616690195381274;6060.7705;288
2024-05-20T22:29:18.892;599616690203072297;6068.4614;290
2024-05-20T22:29:18.900;599616690210763320;6076.1523;276
2024-05-20T22:29:18.907;599616690218454343;6083.8438;259
2024-05-20T22:29:18.915;599616690226145366;6091.534;233
2024-05-20T22:29:18.923;599616690233836389;6099.2256;185
2024-05-20T22:29:18.930;599616690241527412;6106.917;147
2024-05-20T22:29:18.938;599616690249218435;6114.6074;123
2024-05-20T22:29:18.946;599616690256909458;6122.299;88
2024-05-20T22:29:18.953;599616690264600481;6129.9897;69
2024-05-20T22:29:18.961;599616690272291504;6137.6807;73
2024-05-20T22:29:18.969;599616690279982527;6145.3716;76
2024-05-20T22:29:18.977;599616690287673550;6153.063;59
2024-05-20T22:29:18.984;599616690295364573;6160.754;26
2024-05-20T22:29:18.992;599616690303055596;6168.445;-14
2024-05-20T22:29:19.000;599616690310721546;6176.1104;-47
2024-05-20T22:29:19.007;599616690318412918;6183.8022;-61
2024-05-20T22:29:19.015;599616690326104290;6191.4937;-57
2024-05-20T22:29:19.023;599616690333795662;6199.185;-73
2024-05-20T22:29:19.030;599616690341487034;6206.876;-102
2024-05-20T22:29:19.038;599616690349178406;6214.5674;-88
2024-05-20T22:29:19.046;599616690356869778;6222.2593;-61
2024-05-20T22:29:19.053;599616690364561150;6229.9507;-107
2024-05-20T22:29:19.061;599616690372252522;6237.6416;-169
2024-05-20T22:29:19.069;599616690379943894;6245.333;-157
2024-05-20T22:29:19.077;599616690387635266;6253.0244;-128
2024-05-20T22:29:19.084;599616690395326638;6260.716;-149
2024-05-20T22:29:19.092;599616690403018010;6268.407;-149
2024-05-20T22:29:19.100;599616690410709382;6276.0986;-104
2024-05-20T22:29:19.107;599616690418400754;6283.79;-69
2024-05-20T22:29:19.115;599616690426092126;6291.4814;-73
2024-05-20T22:29:19.123;599616690433783498;6299.173;-76
2024-05-20T22:29:19.130;599616690441474870;6306.8643;-45
2024-05-20T22:29:19.138;599616690449166242;6314.555;-9
2024-05-20T22:29:19.146;599616690456857614;6322.2466;16
2024-05-20T22:29:19.153;599616690464548986;6329.9385;30
2024-05-20T22:29:19.161;599616690472240358;6337.63;16
2024-05-20T22:29:19.169;599616690479931730;6345.321;-30
2024-05-20T22:29:19.177;599616690487623102;6353.012;-42
2024-05-20T22:29:19.184;599616690495314474;6360.7036;-4
2024-05-20T22:29:19.192;599616690503005846;6368.3955;23
2024-05-20T22:29:19.200;599616690510697218;6376.0864;23
2024-05-20T22:29:19.207;599616690518388590;6383.778;-9
2024-05-20T22:29:19.215;599616690526079962;6391.469;-7
2024-05-20T22:29:19.223;599616690533771334;6399.16;209
2024-05-20T22:29:19.230;599616690541462706;6406.852;680
2024-05-20T22:29:19.238;599616690549154078;6414.5435;1056
2024-05-20T22:29:19.246;599616690556845450;6422.235;892
2024-05-20T22:29:19.253;599616690564536822;6429.926;302
2024-05-20T22:29:19.261;599616690572228194;6437.6177;-52
2024-05-20T22:29:19.269;599616690579919566;6445.309;49
2024-05-20T22:29:19.277;599616690587610938;6453.0;147
2024-05-20T22:29:19.284;599616690595302310;6460.6914;83
2024-05-20T22:29:19.292;599616690602993682;6468.383;88
2024-05-20T22:29:19.300;599616690610685054;6476.0747;133
2024-05-20T22:29:19.307;599616690618376426;6483.7656;123
2024-05-20T22:29:19.315;599616690626067798;6491.457;130
2024-05-20T22:29:19.323;599616690633759170;6499.1484;169
2024-05-20T22:29:19.330;599616690641450542;6506.8394;180
2024-05-20T22:29:19.338;599616690649141914;6514.5312;190
2024-05-20T22:29:19.346;599616690656833286;6522.2227;188
2024-05-20T22:29:19.353;599616690664524658;6529.914;133
2024-05-20T22:29:19.361;599616690672216030;6537.605;99
2024-05-20T22:29:19.369;599616690679907402;6545.2964;142
2024-05-20T22:29:19.376;599616690687598774;6552.9883;188
2024-05-20T22:29:19.384;599616690695290146;6560.679;202
2024-05-20T22:29:19.392;599616690702981518;6568.3706;214
2024-05-20T22:29:19.400;599616690710672890;6576.062;235
2024-05-20T22:29:19.407;599616690718364262;6583.754;249
2024-05-20T22:29:19.415;599616690726055634;6591.445;235
2024-05-20T22:29:19.423;599616690733747006;6599.136;226
2024-05-20T22:29:19.430;599616690741438378;6606.8276;259
2024-05-20T22:29:19.438;599616690749129750;6614.5186;280
2024-05-20T22:29:19.446;599616690756821122;6622.2104;259
2024-05-20T22:29:19.453;599616690764512494;6629.902;249
2024-05-20T22:29:19.461;599616690772203866;6637.5933;264
2024-05-20T22:29:19.469;599616690779895238;6645.284;266
2024-05-20T22:29:19.476;599616690787586610;6652.9756;245
2024-05-20T22:29:19.484;599616690795277982;6660.6675;223
2024-05-20T22:29:19.492;599616690802969354;6668.359;216
2024-05-20T22:29:19.500;599616690810660726;6676.05;197
2024-05-20T22:29:19.507;599616690818352098;6683.741;157
2024-05-20T22:29:19.515;599616690826043470;6691.4326;142
2024-05-20T22:29:19.523;599616690833734842;6699.124;173
2024-05-20T22:29:19.530;599616690841426214;6706.8154;176
2024-05-20T22:29:19.538;599616690849117586;6714.507;116
2024-05-20T22:29:19.546;599616690856808958;6722.198;73
2024-05-20T22:29:19.553;599616690864500330;6729.8896;76
2024-05-20T22:29:19.561;599616690872191710;6737.581;45
2024-05-20T22:29:19.569;599616690879883082;6745.2725;-4
2024-05-20T22:29:19.576;599616690887574454;6752.9634;-7
2024-05-20T22:29:19.584;599616690895265826;6760.655;-4
2024-05-20T22:29:19.592;599616690902957198;6768.3467;-52
2024-05-20T22:29:19.600;599616690910648570;6776.038;-107
2024-05-20T22:29:19.607;599616690918339942;6783.729;-99
2024-05-20T22:29:19.615;599616690926031314;6791.4204;-61
2024-05-20T22:29:19.623;599616690933722686;6799.112;-78
2024-05-20T22:29:19.630;599616690941414058;6806.803;-111
2024-05-20T22:29:19.638;599616690949105430;6814.4946;-85
2024-05-20T22:29:19.646;599616690956796802;6822.186;-38
2024-05-20T22:29:19.653;599616690964488174;6829.8774;-45
2024-05-20T22:29:19.661;599616690972179546;6837.5684;-80
2024-05-20T22:29:19.669;599616690979870918;6845.2603;-80
2024-05-20T22:29:19.676;599616690987562290;6852.9517;-52
2024-05-20T22:29:19.684;599616690995253662;6860.6426;-45
2024-05-20T22:29:19.692;599616691002945034;6868.334;-40
2024-05-20T22:29:19.700;599616691010636406;6876.026;4
2024-05-20T22:29:19.707;599616691018327778;6883.7173;54
2024-05-20T22:29:19.715;599616691026019150;6891.408;61
2024-05-20T22:29:19.723;599616691033710522;6899.0996;45
2024-05-20T22:29:19.730;599616691041401894;6906.791;52
2024-05-20T22:29:19.738;599616691049093266;6914.483;76
2024-05-20T22:29:19.746;599616691056784638;6922.174;92
2024-05-20T22:29:19.753;599616691064476010;6929.865;107
2024-05-20T22:29:19.761;599616691072167382;6937.5566;116
2024-05-20T22:29:19.769;599616691079858754;6945.2476;80
2024-05-20T22:29:19.776;599616691087550126;6952.9395;64
2024-05-20T22:29:19.784;599616691095241498;6960.631;259
2024-05-20T22:29:19.792;599616691102932870;6968.3223;718
2024-05-20T22:29:19.800;599616691110624242;6976.013;1128
2024-05-20T22:29:19.807;599616691118315614;6983.705;1025
2024-05-20T22:29:19.815;599616691126006986;6991.3965;430
2024-05-20T22:29:19.823;599616691133698358;6999.0874;19
2024-05-20T22:29:19.830;599616691141389730;7006.779;114
2024-05-20T22:29:19.838;599616691149081102;7014.47;223
2024-05-20T22:29:19.846;599616691156772474;7022.162;126
2024-05-20T22:29:19.853;599616691164463846;7029.853;61
2024-05-20T22:29:19.861;599616691172155218;7037.5444;30
2024-05-20T22:29:19.869;599616691179846590;7045.236;0
2024-05-20T22:29:19.876;599616691187537962;7052.927;35
2024-05-20T22:29:19.884;599616691195229334;7060.6187;90
2024-05-20T22:29:19.892;599616691202920706;7068.31;121
2024-05-20T22:29:19.900;599616691210612078;7076.0015;123
2024-05-20T22:29:19.907;599616691218303450;7083.6924;92
2024-05-20T22:29:19.915;599616691225994822;7091.384;90
2024-05-20T22:29:19.923;599616691233686194;7099.0757;128
2024-05-20T22:29:19.930;599616691241377566;7106.767;142
2024-05-20T22:29:19.938;599616691249068938;7114.458;159
2024-05-20T22:29:19.946;599616691256760310;7122.1494;207
2024-05-20T22:29:19.953;599616691264451682;7129.8413;223
2024-05-20T22:29:19.961;599616691272143054;7137.532;223
2024-05-20T22:29:19.969;599616691279834426;7145.2236;266
2024-05-20T22:29:19.976;599616691287525798;7152.915;318
2024-05-20T22:29:19.984;599616691295217170;7160.6064;323
2024-05-20T22:29:19.992;599616691302908542;7168.298;314
2024-05-20T22:29:19.999;599616691310599914;7175.9893;328
2024-05-20T22:29:20.007;599616691318291286;7183.6807;340
2024-05-20T22:29:20.015;599616691325982658;7191.3716;326
2024-05-20T22:29:20.023;599616691333674030;7199.063;316
2024-05-20T22:29:20.030;599616691341365402;7206.755;321
2024-05-20T22:29:20.038;599616691349056774;7214.4463;283
2024-05-20T22:29:20.046;599616691356748146;7222.137;199
2024-05-20T22:29:20.053;599616691364439518;7229.8286;171
2024-05-20T22:29:20.061;599616691372130890;7237.52;195
2024-05-20T22:29:20.069;599616691379822262;7245.2114;180
2024-05-20T22:29:20.076;599616691387513634;7252.903;130
2024-05-20T22:29:20.084;599616691395205006;7260.594;99
2024-05-20T22:29:20.092;599616691402896378;7268.2856;80
2024-05-20T22:29:20.099;599616691410587750;7275.977;40
2024-05-20T22:29:20.107;599616691418279122;7283.6685;7
2024-05-20T22:29:20.115;599616691425970494;7291.36;11
2024-05-20T22:29:20.123;599616691433661874;7299.051;30
2024-05-20T22:29:20.130;599616691441353246;7306.742;30
2024-05-20T22:29:20.138;599616691449044618;7314.434;4
2024-05-20T22:29:20.146;599616691456735990;7322.1255;-23
2024-05-20T22:29:20.153;599616691464427362;7329.8164;-42
2024-05-20T22:29:20.161;599616691472118734;7337.508;-52
2024-05-20T22:29:20.169;599616691479810106;7345.199;-45
2024-05-20T22:29:20.176;599616691487501478;7352.891;-35
2024-05-20T22:29:20.184;599616691495192850;7360.582;-40
2024-05-20T22:29:20.192;599616691502884222;7368.2734;-64
2024-05-20T22:29:20.199;599616691510575594;7375.965;-99
2024-05-20T22:29:20.207;599616691518266966;7383.656;-102
2024-05-20T22:29:20.215;599616691525958338;7391.3477;-64
2024-05-20T22:29:20.223;599616691533649710;7399.039;-54
2024-05-20T22:29:20.230;599616691541341082;7406.7305;-73
2024-05-20T22:29:20.238;599616691549032454;7414.4214;-54
2024-05-20T22:29:20.246;599616691556723826;7422.1133;-4
2024-05-20T22:29:20.253;599616691564415198;7429.8047;14
2024-05-20T22:29:20.261;599616691572106570;7437.4956;11
2024-05-20T22:29:20.269;599616691579797942;7445.187;47
2024-05-20T22:29:20.276;599616691587489314;7452.8784;83
2024-05-20T22:29:20.284;599616691595180686;7460.5703;73
2024-05-20T22:29:20.292;599616691602872058;7468.261;78
2024-05-20T22:29:20.299;599616691610563430;7475.9526;121
2024-05-20T22:29:20.307;599616691618254802;7483.644;159
2024-05-20T22:29:20.315;599616691625946174;7491.335;159
2024-05-20T22:29:20.323;599616691633637546;7499.027;142
2024-05-20T22:29:20.330;599616691641328918;7506.7183;135
2024-05-20T22:29:20.338;599616691649020290;7514.4097;126
2024-05-20T22:29:20.346;599616691656711662;7522.1006;161
2024-05-20T22:29:20.353;599616691664403034;7529.7925;380
2024-05-20T22:29:20.361;599616691672094406;7537.484;783
2024-05-20T22:29:20.369;599616691679785778;7545.175;1033
2024-05-20T22:29:20.376;599616691687477150;7552.866;733
2024-05-20T22:29:20.384;599616691695168522;7560.5576;142
2024-05-20T22:29:20.392;599616691702859894;7568.2495;-64
2024-05-20T22:29:20.399;599616691710551266;7575.9404;40
2024-05-20T22:29:20.407;599616691718242638;7583.632;-2
2024-05-20T22:29:20.415;599616691725934010;7591.323;-80
2024-05-20T22:29:20.423;599616691733625382;7599.014;-9
2024-05-20T22:29:20.430;599616691741316754;7606.706;40
2024-05-20T22:29:20.438;599616691749008126;7614.3975;28
2024-05-20T22:29:20.446;599616691756699498;7622.089;59
2024-05-20T22:29:20.453;599616691764390870;7629.78;104
2024-05-20T22:29:20.461;599616691772082242;7637.471;99
2024-05-20T22:29:20.469;599616691779773614;7645.163;97
2024-05-20T22:29:20.476;599616691787464986;7652.8545;138
2024-05-20T22:29:20.484;599616691795156358;7660.5454;183
2024-05-20T22:29:20.492;599616691802847730;7668.237;199
2024-05-20T22:29:20.499;599616691810539102;7675.9287;204
2024-05-20T22:29:20.507;599616691818230474;7683.6196;216
2024-05-20T22:29:20.515;599616691825921846;7691.311;249
2024-05-20T22:29:20.523;599616691833613218;7699.0024;273
2024-05-20T22:29:20.530;599616691841304590;7706.694;288
2024-05-20T22:29:20.538;599616691848995962;7714.3853;321
2024-05-20T22:29:20.546;599616691856687334;7722.0767;352
2024-05-20T22:29:20.553;599616691864378706;7729.768;342
2024-05-20T22:29:20.561;599616691872070078;7737.459;335
2024-05-20T22:29:20.569;599616691879761450;7745.1504;347
2024-05-20T22:29:20.576;599616691887452822;7752.8423;323
2024-05-20T22:29:20.584;599616691895144194;7760.5337;271
2024-05-20T22:29:20.592;599616691902835566;7768.2246;242
2024-05-20T22:29:20.599;599616691910526938;7775.916;223
2024-05-20T22:29:20.607;599616691918218310;7783.6074;192
2024-05-20T22:29:20.615;599616691925909682;7791.299;145
2024-05-20T22:29:20.622;599616691933601054;7798.99;102
2024-05-20T22:29:20.630;599616691941292426;7806.6816;73
2024-05-20T22:29:20.638;599616691948983798;7814.373;23
2024-05-20T22:29:20.646;599616691956675170;7822.0645;-45
2024-05-20T22:29:20.653;599616691964366542;7829.756;-57
2024-05-20T22:29:20.661;599616691972057914;7837.4473;-19
2024-05-20T22:29:20.669;599616691979749286;7845.1387;-9
2024-05-20T22:29:20.676;599616691987440658;7852.8296;-30
2024-05-20T22:29:20.684;599616691995132038;7860.5215;-30
2024-05-20T22:29:20.692;599616692002823410;7868.213;-9
2024-05-20T22:29:20.699;599616692010514782;7875.904;-7
2024-05-20T22:29:20.707;599616692018206154;7883.595;-7
2024-05-20T22:29:20.715;599616692025897526;7891.2866;9
2024-05-20T22:29:20.722;599616692033588898;7898.9785;23
2024-05-20T22:29:20.730;599616692041280270;7906.6694;14
2024-05-20T22:29:20.738;599616692048971642;7914.361;-4
2024-05-20T22:29:20.746;599616692056663014;7922.0522;11
2024-05-20T22:29:20.753;599616692064354386;7929.743;42
2024-05-20T22:29:20.761;599616692072045758;7937.435;21
2024-05-20T22:29:20.769;599616692079737130;7945.1265;-38
2024-05-20T22:29:20.776;599616692087428502;7952.818;-45
2024-05-20T22:29:20.784;599616692095119874;7960.509;-11
2024-05-20T22:29:20.792;599616692102811246;7968.2007;-7
2024-05-20T22:29:20.799;599616692110502618;7975.892;-9
2024-05-20T22:29:20.807;599616692118193990;7983.583;16
2024-05-20T22:29:20.815;599616692125885362;7991.2744;52
2024-05-20T22:29:20.822;599616692133576734;7998.966;52
2024-05-20T22:29:20.830;599616692141268106;8006.6577;38
2024-05-20T22:29:20.838;599616692148959478;8014.3486;59
2024-05-20T22:29:20.846;599616692156650850;8022.04;104
2024-05-20T22:29:20.853;599616692164342222;8029.7314;130
2024-05-20T22:29:20.861;599616692172033594;8037.4224;109
2024-05-20T22:29:20.869;599616692179724966;8045.1143;47
2024-05-20T22:29:20.876;599616692187416338;8052.8057;33
2024-05-20T22:29:20.884;599616692195107710;8060.497;59
2024-05-20T22:29:20.892;599616692202799082;8068.188;49
2024-05-20T22:29:20.899;599616692210490454;8075.8794;42
2024-05-20T22:29:20.907;599616692218181826;8083.5713;76
2024-05-20T22:29:20.915;599616692225873198;8091.2627;83
2024-05-20T22:29:20.922;599616692233564570;8098.9536;35
2024-05-20T22:29:20.930;599616692241255942;8106.645;40
2024-05-20T22:29:20.938;599616692248947314;8114.337;211
2024-05-20T22:29:20.946;599616692256638686;8122.028;595
2024-05-20T22:29:20.953;599616692264330058;8129.719;1023
2024-05-20T22:29:20.961;599616692272021430;8137.4106;1049
2024-05-20T22:29:20.969;599616692279712802;8145.102;521
2024-05-20T22:29:20.976;599616692287404174;8152.7935;40
2024-05-20T22:29:20.984;599616692295095546;8160.485;78
2024-05-20T22:29:20.992;599616692302786918;8168.1763;207
2024-05-20T22:29:20.999;599616692310478290;8175.867;128
2024-05-20T22:29:21.007;599616692318169662;8183.5586;97
2024-05-20T22:29:21.015;599616692325861034;8191.2505;149
2024-05-20T22:29:21.022;599616692333552406;8198.941;159
2024-05-20T22:29:21.030;599616692341243778;8206.633;166
2024-05-20T22:29:21.038;599616692348935150;8214.324;188
2024-05-20T22:29:21.046;599616692356626522;8222.016;197
2024-05-20T22:29:21.053;599616692364317894;8229.707;216
2024-05-20T22:29:21.061;599616692372009266;8237.398;226
2024-05-20T22:29:21.069;599616692379700638;8245.09;216
2024-05-20T22:29:21.076;599616692387392010;8252.781;233
2024-05-20T22:29:21.084;599616692395083382;8260.473;276
2024-05-20T22:29:21.092;599616692402774754;8268.164;297
2024-05-20T22:29:21.099;599616692410466126;8275.855;297
2024-05-20T22:29:21.107;599616692418157498;8283.547;304
2024-05-20T22:29:21.115;599616692425848870;8291.238;304
2024-05-20T22:29:21.122;599616692433540242;8298.93;280
2024-05-20T22:29:21.130;599616692441231614;8306.621;257
2024-05-20T22:29:21.138;599616692448922986;8314.3125;230
2024-05-20T22:29:21.146;599616692456614358;8322.004;195
2024-05-20T22:29:21.153;599616692464305730;8329.694;147
2024-05-20T22:29:21.161;599616692471997102;8337.387;102
2024-05-20T22:29:21.169;599616692479688474;8345.078;78
2024-05-20T22:29:21.176;599616692487379846;8352.769;52
2024-05-20T22:29:21.184;599616692495071218;8360.46;7
2024-05-20T22:29:21.192;599616692502762590;8368.152;-28
2024-05-20T22:29:21.199;599616692510453962;8375.844;-42
2024-05-20T22:29:21.207;599616692518145334;8383.534;-45
2024-05-20T22:29:21.215;599616692525836706;8391.226;-52
2024-05-20T22:29:21.222;599616692533528078;8398.917;-57
2024-05-20T22:29:21.230;599616692541219450;8406.609;-35
2024-05-20T22:29:21.238;599616692548910822;8414.3;-26
2024-05-20T22:29:21.245;599616692556607242;8421.996;-49
2024-05-20T22:29:21.253;599616692564298544;8429.6875;-47
2024-05-20T22:29:21.261;599616692571989846;8437.379;-7
2024-05-20T22:29:21.269;599616692579681148;8445.07;14
2024-05-20T22:29:21.276;599616692587372450;8452.762;9
2024-05-20T22:29:21.284;599616692595063752;8460.453;9
2024-05-20T22:29:21.292;599616692602755054;8468.145;19
2024-05-20T22:29:21.299;599616692610446356;8475.835;9
2024-05-20T22:29:21.307;599616692618137658;8483.526;-38
2024-05-20T22:29:21.315;599616692625828960;8491.219;-57
2024-05-20T22:29:21.322;599616692633520262;8498.91;-11
2024-05-20T22:29:21.330;599616692641211564;8506.601;4
2024-05-20T22:29:21.338;599616692648902866;8514.292;-23
2024-05-20T22:29:21.345;599616692656594168;8521.983;-14
2024-05-20T22:29:21.353;599616692664285470;8529.675;28
2024-05-20T22:29:21.361;599616692671976772;8537.366;23
2024-05-20T22:29:21.369;599616692679668074;8545.058;-40
2024-05-20T22:29:21.376;599616692687359376;8552.749;-88
2024-05-20T22:29:21.384;599616692695050678;8560.439;-102
2024-05-20T22:29:21.392;599616692702741980;8568.131;-114
2024-05-20T22:29:21.399;599616692710433282;8575.822;-97
2024-05-20T22:29:21.407;599616692718124584;8583.514;-54
2024-05-20T22:29:21.415;599616692725815886;8591.205;-26
2024-05-20T22:29:21.422;599616692733507188;8598.896;-19
2024-05-20T22:29:21.430;599616692741198490;8606.588;-16
2024-05-20T22:29:21.438;599616692748889792;8614.279;-7
2024-05-20T22:29:21.445;599616692756581094;8621.971;28
2024-05-20T22:29:21.453;599616692764272396;8629.662;59
2024-05-20T22:29:21.461;599616692771963698;8637.353;73
2024-05-20T22:29:21.469;599616692779655000;8645.044;99
2024-05-20T22:29:21.476;599616692787346302;8652.735;123
2024-05-20T22:29:21.484;599616692795037604;8660.427;111
2024-05-20T22:29:21.492;599616692802728906;8668.118;121
2024-05-20T22:29:21.499;599616692810420208;8675.81;161
2024-05-20T22:29:21.507;599616692818111510;8683.501;188
2024-05-20T22:29:21.515;599616692825802812;8691.191;178
2024-05-20T22:29:21.522;599616692833494114;8698.883;161
2024-05-20T22:29:21.530;599616692841185416;8706.574;152
2024-05-20T22:29:21.538;599616692848876718;8714.266;152
2024-05-20T22:29:21.545;599616692856568020;8721.957;254
2024-05-20T22:29:21.553;599616692864259322;8729.648;604
2024-05-20T22:29:21.561;599616692871950624;8737.34;1061
2024-05-20T22:29:21.569;599616692879641926;8745.03;1140
2024-05-20T22:29:21.576;599616692887333228;8752.723;642
2024-05-20T22:29:21.584;599616692895024530;8760.414;133
2024-05-20T22:29:21.592;599616692902715832;8768.105;126
2024-05-20T22:29:21.599;599616692910407134;8775.797;257
2024-05-20T22:29:21.607;599616692918098436;8783.488;176
2024-05-20T22:29:21.615;599616692925789738;8791.18;121
2024-05-20T22:29:21.622;599616692933481040;8798.87;164
2024-05-20T22:29:21.630;599616692941172342;8806.562;128
2024-05-20T22:29:21.638;599616692948863644;8814.253;78
2024-05-20T22:29:21.645;599616692956554946;8821.944;114
2024-05-20T22:29:21.653;599616692964246248;8829.636;147
2024-05-20T22:29:21.661;599616692971937550;8837.327;123
2024-05-20T22:29:21.669;599616692979628852;8845.019;92
2024-05-20T22:29:21.676;599616692987320154;8852.709;83
2024-05-20T22:29:21.684;599616692995011456;8860.4;104
2024-05-20T22:29:21.692;599616693002702758;8868.092;128
2024-05-20T22:29:21.699;599616693010394060;8875.783;107
2024-05-20T22:29:21.707;599616693018085362;8883.475;64
2024-05-20T22:29:21.715;599616693025776664;8891.166;59
2024-05-20T22:29:21.722;599616693033467966;8898.857;61
2024-05-20T22:29:21.730;599616693041159268;8906.548;35
2024-05-20T22:29:21.738;599616693048850570;8914.239;40
2024-05-20T22:29:21.745;599616693056541872;8921.931;73
2024-05-20T22:29:21.753;599616693064233174;8929.622;57
2024-05-20T22:29:21.761;599616693071924476;8937.313;23
2024-05-20T22:29:21.769;599616693079615778;8945.005;45
2024-05-20T22:29:21.776;599616693087307080;8952.696;66
2024-05-20T22:29:21.784;599616693094998382;8960.388;38
2024-05-20T22:29:21.792;599616693102689684;8968.079;11
2024-05-20T22:29:21.799;599616693110380986;8975.7705;9
2024-05-20T22:29:21.807;599616693118062310;8983.451;0
2024-05-20T22:29:21.815;599616693125753751;8991.143;-19
2024-05-20T22:29:21.822;599616693133445192;8998.834;-26
2024-05-20T22:29:21.830;599616693141136633;9006.525;-9
2024-05-20T22:29:21.838;599616693148828074;9014.218;-14
2024-05-20T22:29:21.845;599616693156519515;9021.909;-80
2024-05-20T22:29:21.853;599616693164210956;9029.601;-130
2024-05-20T22:29:21.861;599616693171902397;9037.292;-85
2024-05-20T22:29:21.868;599616693179593838;9044.982;-54
2024-05-20T22:29:21.876;599616693187285279;9052.674;-116
2024-05-20T22:29:21.884;599616693194976720;9060.366;-157
2024-05-20T22:29:21.892;599616693202668161;9068.058;-126
2024-05-20T22:29:21.899;599616693210359602;9075.749;-97
2024-05-20T22:29:21.907;599616693218051043;9083.44;-88
2024-05-20T22:29:21.915;599616693225742484;9091.132;-64
2024-05-20T22:29:21.922;599616693233433925;9098.822;-30
2024-05-20T22:29:21.930;599616693241125366;9106.515;-16
2024-05-20T22:29:21.938;599616693248816807;9114.206;-21
2024-05-20T22:29:21.945;599616693256508248;9121.897;-7
2024-05-20T22:29:21.953;599616693264199689;9129.589;33
2024-05-20T22:29:21.961;599616693271891130;9137.28;49
2024-05-20T22:29:21.968;599616693279582571;9144.973;52
2024-05-20T22:29:21.976;599616693287274012;9152.663;73
2024-05-20T22:29:21.984;599616693294965453;9160.3545;88
2024-05-20T22:29:21.992;599616693302656894;9168.046;88
2024-05-20T22:29:21.999;599616693310348335;9175.737;102
2024-05-20T22:29:22.007;599616693318039776;9183.429;128
2024-05-20T22:29:22.015;599616693325731217;9191.121;142
2024-05-20T22:29:22.022;599616693333422658;9198.8125;147
2024-05-20T22:29:22.030;599616693341114099;9206.504;142
2024-05-20T22:29:22.038;599616693348805540;9214.194;147
2024-05-20T22:29:22.045;599616693356496981;9221.886;171
2024-05-20T22:29:22.053;599616693364188422;9229.577;178
2024-05-20T22:29:22.061;599616693371879863;9237.27;188
2024-05-20T22:29:22.068;599616693379571304;9244.961;216
2024-05-20T22:29:22.076;599616693387262745;9252.652;228
2024-05-20T22:29:22.084;599616693394954186;9260.344;216
2024-05-20T22:29:22.092;599616693402645627;9268.034;221
2024-05-20T22:29:22.099;599616693410337068;9275.726;257
2024-05-20T22:29:22.107;599616693418028509;9283.418;283
2024-05-20T22:29:22.115;599616693425719950;9291.109;257
2024-05-20T22:29:22.122;599616693433411391;9298.801;192
2024-05-20T22:29:22.130;599616693441102832;9306.492;142
2024-05-20T22:29:22.138;599616693448794273;9314.184;211
2024-05-20T22:29:22.145;599616693456485714;9321.874;521
2024-05-20T22:29:22.153;599616693464177155;9329.566;994
2024-05-20T22:29:22.161;599616693471868596;9337.258;1221
2024-05-20T22:29:22.168;599616693479560037;9344.949;835
2024-05-20T22:29:22.176;599616693487251478;9352.641;216
2024-05-20T22:29:22.184;599616693494942919;9360.332;61
2024-05-20T22:29:22.192;599616693502634360;9368.024;249
2024-05-20T22:29:22.199;599616693510325801;9375.715;252
2024-05-20T22:29:22.207;599616693518017242;9383.406;142
2024-05-20T22:29:22.215;599616693525708683;9391.098;169
2024-05-20T22:29:22.222;599616693533400124;9398.789;223
2024-05-20T22:29:22.230;599616693541091565;9406.48;207
2024-05-20T22:29:22.238;599616693548783006;9414.173;173
2024-05-20T22:29:22.245;599616693556474447;9421.864;159
2024-05-20T22:29:22.253;599616693564165888;9429.556;166
2024-05-20T22:29:22.261;599616693571857329;9437.246;157
2024-05-20T22:29:22.268;599616693579548770;9444.9375;121
2024-05-20T22:29:22.276;599616693587240211;9452.629;97
2024-05-20T22:29:22.284;599616693594931652;9460.321;102
2024-05-20T22:29:22.292;599616693602623093;9468.013;88
2024-05-20T22:29:22.299;599616693610314534;9475.704;42
2024-05-20T22:29:22.307;599616693618005975;9483.3955;28
2024-05-20T22:29:22.315;599616693625697416;9491.086;52
2024-05-20T22:29:22.322;599616693633388857;9498.777;71
2024-05-20T22:29:22.330;599616693641080298;9506.47;80
2024-05-20T22:29:22.338;599616693648771739;9514.161;109
2024-05-20T22:29:22.345;599616693656463180;9521.853;126
2024-05-20T22:29:22.353;599616693664154621;9529.544;104
2024-05-20T22:29:22.361;599616693671846062;9537.235;69
2024-05-20T22:29:22.368;599616693679542528;9544.932;42
2024-05-20T22:29:22.376;599616693687233900;9552.624;2
2024-05-20T22:29:22.384;599616693694925272;9560.314;-69
2024-05-20T22:29:22.392;599616693702616644;9568.006;-130
2024-05-20T22:29:22.399;599616693710308016;9575.697;-142
2024-05-20T22:29:22.407;599616693717999388;9583.389;-138
2024-05-20T22:29:22.415;599616693725690760;9591.08;-176
2024-05-20T22:29:22.422;599616693733382132;9598.771;-216
2024-05-20T22:29:22.430;599616693741073504;9606.463;-190
2024-05-20T22:29:22.438;599616693748764876;9614.153;-159
2024-05-20T22:29:22.445;599616693756456248;9621.845;-171
2024-05-20T22:29:22.453;599616693764147620;9629.537;-164
2024-05-20T22:29:22.461;599616693771838992;9637.229;-114
2024-05-20T22:29:22.468;599616693779530364;9644.92;-73
2024-05-20T22:29:22.476;599616693787221736;9652.611;-59
2024-05-20T22:29:22.484;599616693794913108;9660.303;-49
2024-05-20T22:29:22.491;599616693802604480;9667.993;-26
2024-05-20T22:29:22.499;599616693810295852;9675.685;-4
2024-05-20T22:29:22.507;599616693817987224;9683.376;7
2024-05-20T22:29:22.515;599616693825678596;9691.067;26
2024-05-20T22:29:22.522;599616693833369968;9698.76;54
2024-05-20T22:29:22.530;599616693841061340;9706.451;71
2024-05-20T22:29:22.538;599616693848752712;9714.143;69
2024-05-20T22:29:22.545;599616693856444084;9721.833;73
2024-05-20T22:29:22.553;599616693864135456;9729.524;107
2024-05-20T22:29:22.561;599616693871826828;9737.216;128
2024-05-20T22:29:22.568;599616693879518200;9744.907;130
2024-05-20T22:29:22.576;599616693887209572;9752.599;140
2024-05-20T22:29:22.584;599616693894900944;9760.29;152
2024-05-20T22:29:22.591;599616693902592316;9767.981;154
2024-05-20T22:29:22.599;599616693910283688;9775.674;157
2024-05-20T22:29:22.607;599616693917975060;9783.364;154
2024-05-20T22:29:22.615;599616693925666432;9791.056;133
2024-05-20T22:29:22.622;599616693933357804;9798.747;107
2024-05-20T22:29:22.630;599616693941049176;9806.438;90
2024-05-20T22:29:22.638;599616693948740548;9814.13;97
2024-05-20T22:29:22.645;599616693956431920;9821.821;126
2024-05-20T22:29:22.653;599616693964123292;9829.512;152
2024-05-20T22:29:22.661;599616693971814664;9837.203;161
2024-05-20T22:29:22.668;599616693979506036;9844.8955;183
2024-05-20T22:29:22.676;599616693987197408;9852.587;202
2024-05-20T22:29:22.684;599616693994888780;9860.278;199
2024-05-20T22:29:22.691;599616694002580152;9867.97;204
2024-05-20T22:29:22.699;599616694010271524;9875.661;226
2024-05-20T22:29:22.707;599616694017962896;9883.353;254
2024-05-20T22:29:22.715;599616694025654268;9891.043;252
2024-05-20T22:29:22.722;599616694033345640;9898.734;221
2024-05-20T22:29:22.730;599616694041037012;9906.426;207
2024-05-20T22:29:22.738;599616694048728384;9914.117;195
2024-05-20T22:29:22.745;599616694056419756;9921.81;199
2024-05-20T22:29:22.753;599616694064111128;9929.501;392
2024-05-20T22:29:22.761;599616694071802500;9937.192;842
2024-05-20T22:29:22.768;599616694079493872;9944.883;1211
2024-05-20T22:29:22.776;599616694087185244;9952.574;1047
2024-05-20T22:29:22.784;599616694094876616;9960.266;449
2024-05-20T22:29:22.791;599616694102567988;9967.957;78
2024-05-20T22:29:22.799;599616694110259360;9975.648;135
2024-05-20T22:29:22.807;599616694117950732;9983.34;147
2024-05-20T22:29:22.815;599616694125642104;9991.032;38
2024-05-20T22:29:22.822;599616694133333476;9998.723;49
2024-05-20T22:29:22.830;599616694141024848;10006.414;61
2024-05-20T22:29:22.838;599616694148716220;10014.105;-9
2024-05-20T22:29:22.845;599616694156407592;10021.797;-35
2024-05-20T22:29:22.853;599616694164098964;10029.488;-54
2024-05-20T22:29:22.861;599616694171790336;10037.18;-138
2024-05-20T22:29:22.868;599616694179481708;10044.871;-185
2024-05-20T22:29:22.876;599616694187173080;10052.562;-152
2024-05-20T22:29:22.884;599616694194864452;10060.253;-147
2024-05-20T22:29:22.891;599616694202555824;10067.945;-221
2024-05-20T22:29:22.899;599616694210247196;10075.637;-276
2024-05-20T22:29:22.907;599616694217938568;10083.328;-249
2024-05-20T22:29:22.915;599616694225629940;10091.02;-204
2024-05-20T22:29:22.922;599616694233321312;10098.711;-183
2024-05-20T22:29:22.930;599616694241042790;10106.433;-149
2024-05-20T22:29:22.938;599616694248733744;10114.123;-97
2024-05-20T22:29:22.945;599616694256424698;10121.814;-71
2024-05-20T22:29:22.953;599616694264115652;10129.505;-97
2024-05-20T22:29:22.961;599616694271806606;10137.195;-142
2024-05-20T22:29:22.968;599616694279497560;10144.887;-128
2024-05-20T22:29:22.976;599616694287188514;10152.578;-73
2024-05-20T22:29:22.984;599616694294879468;10160.269;-59
2024-05-20T22:29:22.991;599616694302570422;10167.96;-85
2024-05-20T22:29:22.999;599616694310261376;10175.65;-88
2024-05-20T22:29:23.007;599616694317952330;10183.341;-69
2024-05-20T22:29:23.015;599616694325643284;10191.032;-71
2024-05-20T22:29:23.022;599616694333334238;10198.724;-69
2024-05-20T22:29:23.030;599616694341025192;10206.415;-30
2024-05-20T22:29:23.038;599616694348716146;10214.105;-4
2024-05-20T22:29:23.045;599616694356407100;10221.796;-26
2024-05-20T22:29:23.053;599616694364098054;10229.487;-21
2024-05-20T22:29:23.061;599616694371789008;10237.178;19
2024-05-20T22:29:23.068;599616694379479962;10244.869;42
2024-05-20T22:29:23.076;599616694387170916;10252.561;47
2024-05-20T22:29:23.084;599616694394861870;10260.251;57
2024-05-20T22:29:23.091;599616694402552824;10267.941;78
2024-05-20T22:29:23.099;599616694410243778;10275.633;85
2024-05-20T22:29:23.107;599616694417934732;10283.324;66
2024-05-20T22:29:23.115;599616694425625686;10291.015;61
2024-05-20T22:29:23.122;599616694433316640;10298.706;95
2024-05-20T22:29:23.130;599616694441007594;10306.397;109
2024-05-20T22:29:23.138;599616694448698548;10314.088;92
2024-05-20T22:29:23.145;599616694456389502;10321.778;102
2024-05-20T22:29:23.153;599616694464080456;10329.47;138
2024-05-20T22:29:23.161;599616694471771410;10337.16;154
2024-05-20T22:29:23.168;599616694479462364;10344.852;154
2024-05-20T22:29:23.176;599616694487153318;10352.543;161
2024-05-20T22:29:23.184;599616694494844272;10360.234;178
2024-05-20T22:29:23.191;599616694502535226;10367.924;183
2024-05-20T22:29:23.199;599616694510226180;10375.615;183
2024-05-20T22:29:23.207;599616694517917134;10383.307;199
2024-05-20T22:29:23.214;599616694525608088;10390.997;223
2024-05-20T22:29:23.222;599616694533299042;10398.688;223
2024-05-20T22:29:23.230;599616694540989996;10406.38;204
2024-05-20T22:29:23.238;599616694548680950;10414.069;202
2024-05-20T22:29:23.245;599616694556371904;10421.761;223
2024-05-20T22:29:23.253;599616694564062858;10429.452;230
2024-05-20T22:29:23.261;599616694571753812;10437.143;233
2024-05-20T22:29:23.268;599616694579444766;10444.834;249
2024-05-20T22:29:23.276;599616694587135720;10452.525;261
2024-05-20T22:29:23.284;599616694594826674;10460.217;266
2024-05-20T22:29:23.291;599616694602517628;10467.906;268
2024-05-20T22:29:23.299;599616694610208582;10475.598;278
2024-05-20T22:29:23.307;599616694617899536;10483.289;297
2024-05-20T22:29:23.314;599616694625590490;10490.9795;295
2024-05-20T22:29:23.322;599616694633281444;10498.671;273
2024-05-20T22:29:23.330;599616694640972398;10506.362;271
2024-05-20T22:29:23.338;599616694648663352;10514.052;288
2024-05-20T22:29:23.345;599616694656354306;10521.743;266
2024-05-20T22:29:23.353;599616694664045260;10529.435;185
2024-05-20T22:29:23.361;599616694671736214;10537.126;171
2024-05-20T22:29:23.368;599616694679427168;10544.816;445
2024-05-20T22:29:23.376;599616694687118122;10552.508;909
2024-05-20T22:29:23.384;599616694694809076;10560.198;1066
2024-05-20T22:29:23.391;599616694702500030;10567.889;621
2024-05-20T22:29:23.399;599616694710190984;10575.58;-33
2024-05-20T22:29:23.407;599616694717881938;10583.271;-271
2024-05-20T22:29:23.414;599616694725572892;10590.962;-190
2024-05-20T22:29:23.422;599616694733263846;10598.653;-218
2024-05-20T22:29:23.430;599616694740954800;10606.344;-276
2024-05-20T22:29:23.438;599616694748645754;10614.035;-235
2024-05-20T22:29:23.445;599616694756336708;10621.726;-211
2024-05-20T22:29:23.453;599616694764027662;10629.417;-214
2024-05-20T22:29:23.461;599616694771718616;10637.108;-199
2024-05-20T22:29:23.468;599616694779409570;10644.799;-195
2024-05-20T22:29:23.476;599616694787100524;10652.489;-173
2024-05-20T22:29:23.484;599616694794791478;10660.181;-130
2024-05-20T22:29:23.491;599616694802452340;10667.842;-109
2024-05-20T22:29:23.499;599616694810143712;10675.533;-107
2024-05-20T22:29:23.507;599616694817835084;10683.224;-95
2024-05-20T22:29:23.514;599616694825526456;10690.915;-64
2024-05-20T22:29:23.522;599616694833217828;10698.606;-30
2024-05-20T22:29:23.530;599616694840909200;10706.299;-11
2024-05-20T22:29:23.537;599616694848600572;10713.99;19
2024-05-20T22:29:23.545;599616694856291944;10721.682;59
2024-05-20T22:29:23.553;599616694863983316;10729.373;35
2024-05-20T22:29:23.561;599616694871674688;10737.063;-16
2024-05-20T22:29:23.568;599616694879366060;10744.755;14
2024-05-20T22:29:23.576;599616694887057432;10752.446;69
2024-05-20T22:29:23.584;599616694894748804;10760.138;64
2024-05-20T22:29:23.591;599616694902440176;10767.829;28
2024-05-20T22:29:23.599;599616694910131548;10775.521;-7
2024-05-20T22:29:23.607;599616694917822920;10783.213;-33
2024-05-20T22:29:23.614;599616694925514292;10790.903;-28
2024-05-20T22:29:23.622;599616694933205664;10798.595;-14
2024-05-20T22:29:23.630;599616694940897036;10806.286;-7
2024-05-20T22:29:23.637;599616694948588408;10813.978;4
2024-05-20T22:29:23.645;599616694956279780;10821.669;-4
2024-05-20T22:29:23.653;599616694963971152;10829.36;-19
2024-05-20T22:29:23.661;599616694971662524;10837.052;9
2024-05-20T22:29:23.668;599616694979353896;10844.742;52
2024-05-20T22:29:23.676;599616694987045268;10852.435;69
2024-05-20T22:29:23.684;599616694994736640;10860.126;71
2024-05-20T22:29:23.691;599616695002428012;10867.817;80
2024-05-20T22:29:23.699;599616695010119384;10875.509;95
2024-05-20T22:29:23.707;599616695017810756;10883.2;116
2024-05-20T22:29:23.714;599616695025502128;10890.892;135
2024-05-20T22:29:23.722;599616695033193500;10898.583;154
2024-05-20T22:29:23.730;599616695040884872;10906.273;161
2024-05-20T22:29:23.737;599616695048576244;10913.965;145
2024-05-20T22:29:23.745;599616695056267616;10921.657;149
2024-05-20T22:29:23.753;599616695063958988;10929.349;180
2024-05-20T22:29:23.761;599616695071650360;10937.04;190
2024-05-20T22:29:23.768;599616695079341732;10944.731;178
2024-05-20T22:29:23.776;599616695087033104;10952.423;183
2024-05-20T22:29:23.784;599616695094724476;10960.113;199
2024-05-20T22:29:23.791;599616695102415848;10967.805;197
2024-05-20T22:29:23.799;599616695110107220;10975.496;192
2024-05-20T22:29:23.807;599616695117798592;10983.1875;216
2024-05-20T22:29:23.814;599616695125489964;10990.879;249
2024-05-20T22:29:23.822;599616695133181336;10998.571;252
2024-05-20T22:29:23.830;599616695140872708;11006.263;230
2024-05-20T22:29:23.837;599616695148564080;11013.953;218
2024-05-20T22:29:23.845;599616695156255452;11021.645;209
2024-05-20T22:29:23.853;599616695163946824;11029.336;183
2024-05-20T22:29:23.861;599616695171638196;11037.027;166
2024-05-20T22:29:23.868;599616695179329568;11044.719;169
2024-05-20T22:29:23.876;599616695187020940;11052.41;171
2024-05-20T22:29:23.884;599616695194712312;11060.102;173
2024-05-20T22:29:23.891;599616695202403684;11067.793;190
2024-05-20T22:29:23.899;599616695210095056;11075.484;173
2024-05-20T22:29:23.907;599616695217786428;11083.176;111
2024-05-20T22:29:23.914;599616695225477800;11090.867;78
2024-05-20T22:29:23.922;599616695233169172;11098.559;59
2024-05-20T22:29:23.930;599616695240860544;11106.25;30
2024-05-20T22:29:23.937;599616695248551916;11113.941;30
2024-05-20T22:29:23.945;599616695256243288;11121.632;45
2024-05-20T22:29:23.953;599616695263934660;11129.323;35
2024-05-20T22:29:23.961;599616695271626032;11137.015;4
2024-05-20T22:29:23.968;599616695279317404;11144.707;-45
2024-05-20T22:29:23.976;599616695287008776;11152.398;-123
2024-05-20T22:29:23.984;599616695294700148;11160.09;-114
2024-05-20T22:29:23.991;599616695302391520;11167.781;178
2024-05-20T22:29:23.999;599616695310082892;11175.472;661
2024-05-20T22:29:24.007;599616695317774264;11183.163;861
2024-05-20T22:29:24.014;599616695325465636;11190.8545;468
2024-05-20T22:29:24.022;599616695333157008;11198.546;-107
2024-05-20T22:29:24.030;599616695340848380;11206.237;-252
2024-05-20T22:29:24.037;599616695348539752;11213.93;-114
2024-05-20T22:29:24.045;599616695356231124;11221.621;-119
2024-05-20T22:29:24.053;599616695363952600;11229.342;-166
2024-05-20T22:29:24.061;599616695371643554;11237.033;-135
2024-05-20T22:29:24.068;599616695379334508;11244.725;-121
2024-05-20T22:29:24.076;599616695387025462;11252.414;-107
2024-05-20T22:29:24.084;599616695394716416;11260.105;-73
2024-05-20T22:29:24.091;599616695402407370;11267.797;-88
2024-05-20T22:29:24.099;599616695410098324;11275.487;-126
2024-05-20T22:29:24.107;599616695417789278;11283.179;-119
2024-05-20T22:29:24.114;599616695425480232;11290.87;-78
2024-05-20T22:29:24.122;599616695433171186;11298.56;-80
2024-05-20T22:29:24.130;599616695440862140;11306.251;-114
2024-05-20T22:29:24.137;599616695448553094;11313.942;-88
2024-05-20T22:29:24.145;599616695456244048;11321.633;-30
2024-05-20T22:29:24.153;599616695463935002;11329.324;-23
2024-05-20T22:29:24.161;599616695471625956;11337.016;-14
2024-05-20T22:29:24.168;599616695479316910;11344.707;52
2024-05-20T22:29:24.176;599616695487007864;11352.396;119
2024-05-20T22:29:24.184;599616695494698818;11360.088;138
2024-05-20T22:29:24.191;599616695502389772;11367.779;149
2024-05-20T22:29:24.199;599616695510080726;11375.47;176
2024-05-20T22:29:24.207;599616695517771680;11383.161;195
2024-05-20T22:29:24.214;599616695525462634;11390.853;197
2024-05-20T22:29:24.222;599616695533153588;11398.542;202
2024-05-20T22:29:24.230;599616695540844542;11406.233;216
2024-05-20T22:29:24.237;599616695548535496;11413.925;214
2024-05-20T22:29:24.245;599616695556226450;11421.616;176
2024-05-20T22:29:24.253;599616695563917404;11429.307;152
2024-05-20T22:29:24.260;599616695571608358;11436.998;169
2024-05-20T22:29:24.268;599616695579299312;11444.688;188
2024-05-20T22:29:24.276;599616695586990266;11452.379;183
2024-05-20T22:29:24.284;599616695594681220;11460.07;178
2024-05-20T22:29:24.291;599616695602372174;11467.762;183
2024-05-20T22:29:24.299;599616695610063128;11475.452;192
2024-05-20T22:29:24.307;599616695617754082;11483.144;197
2024-05-20T22:29:24.314;599616695625445036;11490.834;209
2024-05-20T22:29:24.322;599616695633135990;11498.525;240
2024-05-20T22:29:24.330;599616695640826944;11506.216;257
2024-05-20T22:29:24.337;599616695648517898;11513.907;223
2024-05-20T22:29:24.345;599616695656208852;11521.599;188
2024-05-20T22:29:24.353;599616695663899806;11529.289;218
2024-05-20T22:29:24.360;599616695671590760;11536.9795;242
2024-05-20T22:29:24.368;599616695679281714;11544.671;226
2024-05-20T22:29:24.376;599616695686972668;11552.361;233
2024-05-20T22:29:24.384;599616695694663622;11560.053;252
2024-05-20T22:29:24.391;599616695702354576;11567.744;242
2024-05-20T22:29:24.399;599616695710045530;11575.436;240
2024-05-20T22:29:24.407;599616695717736484;11583.126;238
2024-05-20T22:29:24.414;599616695725427438;11590.816;183
2024-05-20T22:29:24.422;599616695733118392;11598.508;123
2024-05-20T22:29:24.430;599616695740809346;11606.198;114
2024-05-20T22:29:24.437;599616695748500300;11613.89;142
2024-05-20T22:29:24.445;599616695756191254;11621.581;171
2024-05-20T22:29:24.453;599616695763882208;11629.271;185
2024-05-20T22:29:24.460;599616695771573162;11636.962;199
2024-05-20T22:29:24.468;599616695779264116;11644.653;221
2024-05-20T22:29:24.476;599616695786955070;11652.344;233
2024-05-20T22:29:24.484;599616695794646024;11660.035;245
2024-05-20T22:29:24.491;599616695802336978;11667.727;261
2024-05-20T22:29:24.499;599616695810027932;11675.418;276
2024-05-20T22:29:24.507;599616695817718886;11683.107;280
2024-05-20T22:29:24.514;599616695825409840;11690.799;245
2024-05-20T22:29:24.522;599616695833100794;11698.49;188
2024-05-20T22:29:24.530;599616695840791748;11706.181;195
2024-05-20T22:29:24.537;599616695848482702;11713.872;221
2024-05-20T22:29:24.545;599616695856173656;11721.563;166
2024-05-20T22:29:24.553;599616695863864610;11729.253;78
2024-05-20T22:29:24.560;599616695871555564;11736.944;111
2024-05-20T22:29:24.568;599616695879246518;11744.636;380
2024-05-20T22:29:24.576;599616695886937472;11752.327;823
2024-05-20T22:29:24.584;599616695894628426;11760.018;1030
2024-05-20T22:29:24.591;599616695902319380;11767.709;618
2024-05-20T22:29:24.599;599616695910010334;11775.4;-9
2024-05-20T22:29:24.607;599616695917701288;11783.09;-188
2024-05-20T22:29:24.614;599616695925362150;11790.752;-54
2024-05-20T22:29:24.622;599616695933053522;11798.443;-52
2024-05-20T22:29:24.630;599616695940744894;11806.134;-116
2024-05-20T22:29:24.637;599616695948436266;11813.825;-83
2024-05-20T22:29:24.645;599616695956127638;11821.517;-42
2024-05-20T22:29:24.653;599616695963819010;11829.208;-52
2024-05-20T22:29:24.660;599616695971510382;11836.899;-83
2024-05-20T22:29:24.668;599616695979201754;11844.591;-116
2024-05-20T22:29:24.676;599616695986893126;11852.282;-111
2024-05-20T22:29:24.683;599616695994584498;11859.975;-66
2024-05-20T22:29:24.691;599616696002275870;11867.665;-40
2024-05-20T22:29:24.699;599616696009967242;11875.356;-47
2024-05-20T22:29:24.707;599616696017658614;11883.048;-38
2024-05-20T22:29:24.714;599616696025349986;11890.739;2
2024-05-20T22:29:24.722;599616696033041358;11898.431;35
2024-05-20T22:29:24.730;599616696040732730;11906.122;57
2024-05-20T22:29:24.737;599616696048424102;11913.813;97
2024-05-20T22:29:24.745;599616696056115474;11921.504;147
2024-05-20T22:29:24.753;599616696063806846;11929.196;164
2024-05-20T22:29:24.760;599616696071498218;11936.888;176
2024-05-20T22:29:24.768;599616696079189590;11944.579;216
2024-05-20T22:29:24.776;599616696086880962;11952.2705;257
2024-05-20T22:29:24.783;599616696094572334;11959.962;254
2024-05-20T22:29:24.791;599616696102263706;11967.653;238
2024-05-20T22:29:24.799;599616696109955078;11975.344;228
2024-05-20T22:29:24.807;599616696117646450;11983.035;226
2024-05-20T22:29:24.814;599616696125337822;11990.727;207
2024-05-20T22:29:24.822;599616696133029194;11998.418;173
2024-05-20T22:29:24.830;599616696140720566;12006.11;135
2024-05-20T22:29:24.837;599616696148411938;12013.802;90
2024-05-20T22:29:24.845;599616696156103310;12021.493;54
2024-05-20T22:29:24.853;599616696163794682;12029.184;59
2024-05-20T22:29:24.860;599616696171486054;12036.875;95
2024-05-20T22:29:24.868;599616696179177426;12044.566;116
2024-05-20T22:29:24.876;599616696186868798;12052.258;119
2024-05-20T22:29:24.883;599616696194560170;12059.949;128
2024-05-20T22:29:24.891;599616696202251542;12067.641;145
2024-05-20T22:29:24.899;599616696209942914;12075.333;157
2024-05-20T22:29:24.907;599616696217634286;12083.023;157
2024-05-20T22:29:24.914;599616696225325658;12090.715;126
2024-05-20T22:29:24.922;599616696233017030;12098.406;71
2024-05-20T22:29:24.930;599616696240708402;12106.098;52
2024-05-20T22:29:24.937;599616696248399774;12113.789;59
2024-05-20T22:29:24.945;599616696256091146;12121.48;59
2024-05-20T22:29:24.953;599616696263782518;12129.172;85
2024-05-20T22:29:24.960;599616696271473890;12136.862;121
2024-05-20T22:29:24.968;599616696279165262;12144.554;126
2024-05-20T22:29:24.976;599616696286856634;12152.246;126
2024-05-20T22:29:24.983;599616696294548006;12159.9375;142
2024-05-20T22:29:24.991;599616696302239378;12167.629;149
2024-05-20T22:29:24.999;599616696309930750;12175.32;154
2024-05-20T22:29:25.007;599616696317622122;12183.012;176
2024-05-20T22:29:25.014;599616696325313494;12190.702;202
2024-05-20T22:29:25.022;599616696333004866;12198.394;204
2024-05-20T22:29:25.030;599616696340696238;12206.085;190
2024-05-20T22:29:25.037;599616696348387610;12213.776;195
2024-05-20T22:29:25.045;599616696356078982;12221.469;221
2024-05-20T22:29:25.053;599616696363770354;12229.16;228
2024-05-20T22:29:25.060;599616696371461726;12236.852;221
2024-05-20T22:29:25.068;599616696379153098;12244.542;226
2024-05-20T22:29:25.076;599616696386844470;12252.233;197
2024-05-20T22:29:25.083;599616696394535842;12259.925;147
2024-05-20T22:29:25.091;599616696402227214;12267.616;152
2024-05-20T22:29:25.099;599616696409918586;12275.308;202
2024-05-20T22:29:25.106;599616696417609958;12282.999;226
2024-05-20T22:29:25.114;599616696425301330;12290.69;202
2024-05-20T22:29:25.122;599616696432992702;12298.383;154
2024-05-20T22:29:25.130;599616696440684074;12306.073;138
2024-05-20T22:29:25.137;599616696448375446;12313.765;159
2024-05-20T22:29:25.145;599616696456066818;12321.456;159
2024-05-20T22:29:25.153;599616696463758190;12329.147;121
2024-05-20T22:29:25.160;599616696471449562;12336.839;61
2024-05-20T22:29:25.168;599616696479140934;12344.53;-9
2024-05-20T22:29:25.176;599616696486832314;12352.221;-4
2024-05-20T22:29:25.183;599616696494523686;12359.912;245
2024-05-20T22:29:25.191;599616696502215058;12367.6045;721
2024-05-20T22:29:25.199;599616696509906430;12375.296;980
2024-05-20T22:29:25.206;599616696517597802;12382.987;609
2024-05-20T22:29:25.214;599616696525289174;12390.679;-33
2024-05-20T22:29:25.222;599616696532980546;12398.37;-226
2024-05-20T22:29:25.230;599616696540671918;12406.062;-97
2024-05-20T22:29:25.237;599616696548363290;12413.752;-159
2024-05-20T22:29:25.245;599616696556054662;12421.443;-261
2024-05-20T22:29:25.253;599616696563746034;12429.135;-199
2024-05-20T22:29:25.260;599616696571437406;12436.827;-169
2024-05-20T22:29:25.268;599616696579128778;12444.519;-207
2024-05-20T22:29:25.276;599616696586820150;12452.21;-173
2024-05-20T22:29:25.283;599616696594511522;12459.901;-119
2024-05-20T22:29:25.291;599616696602202894;12467.592;-116
2024-05-20T22:29:25.299;599616696609894266;12475.283;-116
2024-05-20T22:29:25.306;599616696617585638;12482.975;-90
2024-05-20T22:29:25.314;599616696625277010;12490.666;-69
2024-05-20T22:29:25.322;599616696632968382;12498.357;-64
2024-05-20T22:29:25.330;599616696640659754;12506.049;-54
2024-05-20T22:29:25.337;599616696648351126;12513.741;-14
2024-05-20T22:29:25.345;599616696656042498;12521.432;26
2024-05-20T22:29:25.353;599616696663733870;12529.123;38
2024-05-20T22:29:25.360;599616696671425242;12536.814;59
2024-05-20T22:29:25.368;599616696679116614;12544.506;109
2024-05-20T22:29:25.376;599616696686807986;12552.197;159
2024-05-20T22:29:25.383;599616696694499358;12559.889;180
2024-05-20T22:29:25.391;599616696702190730;12567.58;183
2024-05-20T22:29:25.399;599616696709882102;12575.2705;185
2024-05-20T22:29:25.406;599616696717573474;12582.963;199
2024-05-20T22:29:25.414;599616696725264846;12590.654;202
2024-05-20T22:29:25.422;599616696732956218;12598.346;140
2024-05-20T22:29:25.430;599616696740647590;12606.037;64
2024-05-20T22:29:25.437;599616696748338962;12613.729;54
2024-05-20T22:29:25.445;599616696756030334;12621.42;42
2024-05-20T22:29:25.453;599616696763721706;12629.11;7
2024-05-20T22:29:25.460;599616696771413078;12636.802;21
2024-05-20T22:29:25.468;599616696779104450;12644.493;52
2024-05-20T22:29:25.476;599616696786795822;12652.185;47
2024-05-20T22:29:25.483;599616696794487194;12659.877;47
2024-05-20T22:29:25.491;599616696802178566;12667.568;66
2024-05-20T22:29:25.499;599616696809869938;12675.26;78
2024-05-20T22:29:25.506;599616696817561310;12682.95;85
2024-05-20T22:29:25.514;599616696825252682;12690.642;104
2024-05-20T22:29:25.522;599616696832944054;12698.333;133
2024-05-20T22:29:25.530;599616696840635426;12706.024;145
2024-05-20T22:29:25.537;599616696848326798;12713.716;135
2024-05-20T22:29:25.545;599616696856018170;12721.407;135
2024-05-20T22:29:25.553;599616696863709542;12729.1;166
2024-05-20T22:29:25.560;599616696871400914;12736.791;188
2024-05-20T22:29:25.568;599616696879092286;12744.481;159
2024-05-20T22:29:25.576;599616696886783658;12752.173;121
2024-05-20T22:29:25.583;599616696894475030;12759.864;126
2024-05-20T22:29:25.591;599616696902166402;12767.556;145
2024-05-20T22:29:25.599;599616696909857774;12775.247;145
2024-05-20T22:29:25.606;599616696917549146;12782.938;157
2024-05-20T22:29:25.614;599616696925240518;12790.629;180
2024-05-20T22:29:25.622;599616696932931890;12798.32;176
2024-05-20T22:29:25.630;599616696940623262;12806.013;154
2024-05-20T22:29:25.637;599616696948314634;12813.704;161
2024-05-20T22:29:25.645;599616696956006006;12821.3955;190
2024-05-20T22:29:25.653;599616696963697378;12829.087;199
2024-05-20T22:29:25.660;599616696971388750;12836.778;197
2024-05-20T22:29:25.668;599616696979080122;12844.47;207
2024-05-20T22:29:25.676;599616696986771494;12852.16;214
2024-05-20T22:29:25.683;599616696994462866;12859.852;221
2024-05-20T22:29:25.691;599616697002154238;12867.543;233
2024-05-20T22:29:25.699;599616697009845610;12875.235;242
2024-05-20T22:29:25.706;599616697017536982;12882.927;242
2024-05-20T22:29:25.714;599616697025228354;12890.618;211
2024-05-20T22:29:25.722;599616697032919726;12898.31;154
2024-05-20T22:29:25.730;599616697040611098;12906.0;145
2024-05-20T22:29:25.737;599616697048332574;12913.722;164
2024-05-20T22:29:25.745;599616697056023528;12921.413;119
2024-05-20T22:29:25.753;599616697063714482;12929.104;26
2024-05-20T22:29:25.760;599616697071405436;12936.795;57
2024-05-20T22:29:25.768;599616697079096390;12944.485;316
2024-05-20T22:29:25.776;599616697086787344;12952.177;666
2024-05-20T22:29:25.783;599616697094478298;12959.868;802
2024-05-20T22:29:25.791;599616697102169252;12967.559;447
2024-05-20T22:29:25.799;599616697109860206;12975.249;-121
2024-05-20T22:29:25.806;599616697117551160;12982.94;-314
2024-05-20T22:29:25.814;599616697125242114;12990.631;-233
2024-05-20T22:29:25.822;599616697132933068;12998.322;-276
2024-05-20T22:29:25.830;599616697140624022;13006.014;-323
2024-05-20T22:29:25.837;599616697148314976;13013.705;-268
2024-05-20T22:29:25.845;599616697156005930;13021.395;-247
2024-05-20T22:29:25.853;599616697163696884;13029.086;-245
2024-05-20T22:29:25.860;599616697171387838;13036.777;-223
2024-05-20T22:29:25.868;599616697179078792;13044.468;-209
2024-05-20T22:29:25.876;599616697186769746;13052.159;-183
2024-05-20T22:29:25.883;599616697194460700;13059.851;-138
2024-05-20T22:29:25.891;599616697202151654;13067.54;-111
2024-05-20T22:29:25.899;599616697209842608;13075.231;-104
2024-05-20T22:29:25.906;599616697217533562;13082.923;-88
2024-05-20T22:29:25.914;599616697225224516;13090.613;-47
2024-05-20T22:29:25.922;599616697232915470;13098.305;-14
2024-05-20T22:29:25.929;599616697240606424;13105.996;-28
2024-05-20T22:29:25.937;599616697248297378;13113.6875;-61
2024-05-20T22:29:25.945;599616697255988332;13121.377;-42
2024-05-20T22:29:25.953;599616697263679286;13129.068;-4
2024-05-20T22:29:25.960;599616697271370240;13136.76;11
2024-05-20T22:29:25.968;599616697279061194;13144.45;54
2024-05-20T22:29:25.976;599616697286752148;13152.142;102
2024-05-20T22:29:25.983;599616697294443102;13159.833;109
2024-05-20T22:29:25.991;599616697302134056;13167.522;99
2024-05-20T22:29:25.999;599616697309825010;13175.214;99
2024-05-20T22:29:26.006;599616697317515964;13182.905;99
2024-05-20T22:29:26.014;599616697325206918;13190.597;88
2024-05-20T22:29:26.022;599616697332897872;13198.287;76
2024-05-20T22:29:26.029;599616697340588826;13205.979;85
2024-05-20T22:29:26.037;599616697348279780;13213.669;90
2024-05-20T22:29:26.045;599616697355970734;13221.359;61
2024-05-20T22:29:26.053;599616697363661688;13229.051;38
2024-05-20T22:29:26.060;599616697371352642;13236.742;33
2024-05-20T22:29:26.068;599616697379043596;13244.433;19
2024-05-20T22:29:26.076;599616697386734550;13252.124;16
2024-05-20T22:29:26.083;599616697394425504;13259.814;35
2024-05-20T22:29:26.091;599616697402116458;13267.506;52
2024-05-20T22:29:26.099;599616697409807412;13275.196;69
2024-05-20T22:29:26.106;599616697417498366;13282.888;83
2024-05-20T22:29:26.114;599616697425189320;13290.579;97
2024-05-20T22:29:26.122;599616697432880274;13298.27;121
2024-05-20T22:29:26.129;599616697440571228;13305.96;140
2024-05-20T22:29:26.137;599616697448262182;13313.651;126
2024-05-20T22:29:26.145;599616697455953136;13321.342;123
2024-05-20T22:29:26.153;599616697463644090;13329.033;164
2024-05-20T22:29:26.160;599616697471335044;13336.725;185
2024-05-20T22:29:26.168;599616697479025998;13344.415;171
2024-05-20T22:29:26.176;599616697486716952;13352.106;176
2024-05-20T22:29:26.183;599616697494407906;13359.797;192
2024-05-20T22:29:26.191;599616697502098860;13367.488;188
2024-05-20T22:29:26.199;599616697509789814;13375.179;185
2024-05-20T22:29:26.206;599616697517480768;13382.87;207
2024-05-20T22:29:26.214;599616697525171722;13390.562;230
2024-05-20T22:29:26.222;599616697532862676;13398.252;226
2024-05-20T22:29:26.229;599616697540553630;13405.942;204
2024-05-20T22:29:26.237;599616697548244584;13413.634;202
2024-05-20T22:29:26.245;599616697555935538;13421.324;223
2024-05-20T22:29:26.253;599616697563626492;13429.016;233
2024-05-20T22:29:26.260;599616697571317446;13436.707;233
2024-05-20T22:29:26.268;599616697579008400;13444.398;245
2024-05-20T22:29:26.276;599616697586699354;13452.088;261
2024-05-20T22:29:26.283;599616697594390308;13459.779;268
2024-05-20T22:29:26.291;599616697602081262;13467.471;264
2024-05-20T22:29:26.299;599616697609742124;13475.132;259
2024-05-20T22:29:26.306;599616697617433496;13482.822;240
2024-05-20T22:29:26.314;599616697625124868;13490.514;188
2024-05-20T22:29:26.322;599616697632816240;13498.205;140
2024-05-20T22:29:26.329;599616697640507612;13505.896;116
2024-05-20T22:29:26.337;599616697648198984;13513.588;90
2024-05-20T22:29:26.345;599616697655890356;13521.28;16
2024-05-20T22:29:26.352;599616697663581728;13528.972;-38
2024-05-20T22:29:26.360;599616697671273100;13536.662;123
2024-05-20T22:29:26.368;599616697678964472;13544.354;530
2024-05-20T22:29:26.376;599616697686655844;13552.045;864
2024-05-20T22:29:26.383;599616697694347216;13559.736;671
2024-05-20T22:29:26.391;599616697702038588;13567.428;59
2024-05-20T22:29:26.399;599616697709729960;13575.119;-290
2024-05-20T22:29:26.406;599616697717421332;13582.811;-216
2024-05-20T22:29:26.414;599616697725112704;13590.502;-190
2024-05-20T22:29:26.422;599616697732804076;13598.193;-264
2024-05-20T22:29:26.429;599616697740495448;13605.885;-249
2024-05-20T22:29:26.437;599616697748186820;13613.576;-268
2024-05-20T22:29:26.445;599616697755878192;13621.268;-326
2024-05-20T22:29:26.452;599616697763569564;13628.959;-290
2024-05-20T22:29:26.460;599616697771260936;13636.65;-257
2024-05-20T22:29:26.468;599616697778952308;13644.341;-266
2024-05-20T22:29:26.476;599616697786643680;13652.032;-228
2024-05-20T22:29:26.483;599616697794335052;13659.724;-166
2024-05-20T22:29:26.491;599616697802026424;13667.416;-142
2024-05-20T22:29:26.499;599616697809717796;13675.107;-138
2024-05-20T22:29:26.506;599616697817409168;13682.799;-114
2024-05-20T22:29:26.514;599616697825100540;13690.49;-73
2024-05-20T22:29:26.522;599616697832791912;13698.181;-42
2024-05-20T22:29:26.529;599616697840483284;13705.872;-16
2024-05-20T22:29:26.537;599616697848174656;13713.563;35
2024-05-20T22:29:26.545;599616697855866028;13721.255;78
2024-05-20T22:29:26.552;599616697863557400;13728.946;61
2024-05-20T22:29:26.560;599616697871248772;13736.639;49
2024-05-20T22:29:26.568;599616697878940144;13744.33;97
2024-05-20T22:29:26.576;599616697886631516;13752.0205;138
2024-05-20T22:29:26.583;599616697894322888;13759.712;133
2024-05-20T22:29:26.591;599616697902014260;13767.403;121
2024-05-20T22:29:26.599;599616697909705632;13775.095;123
2024-05-20T22:29:26.606;599616697917397004;13782.786;123
2024-05-20T22:29:26.614;599616697925088376;13790.478;111
2024-05-20T22:29:26.622;599616697932779748;13798.169;92
2024-05-20T22:29:26.629;599616697940471120;13805.859;99
2024-05-20T22:29:26.637;599616697948162492;13813.552;109
2024-05-20T22:29:26.645;599616697955853864;13821.243;80
2024-05-20T22:29:26.652;599616697963545236;13828.935;69
2024-05-20T22:29:26.660;599616697971236608;13836.626;107
2024-05-20T22:29:26.668;599616697978927980;13844.317;142
2024-05-20T22:29:26.676;599616697986619352;13852.009;145
2024-05-20T22:29:26.683;599616697994310724;13859.7;140
2024-05-20T22:29:26.691;599616698002002096;13867.391;152
2024-05-20T22:29:26.699;599616698009693468;13875.082;169
2024-05-20T22:29:26.706;599616698017384840;13882.774;180
2024-05-20T22:29:26.714;599616698025076212;13890.466;192
2024-05-20T22:29:26.722;599616698032767584;13898.157;207
2024-05-20T22:29:26.729;599616698040458956;13905.849;204
2024-05-20T22:29:26.737;599616698048150328;13913.54;183
2024-05-20T22:29:26.745;599616698055841700;13921.23;185
2024-05-20T22:29:26.752;599616698063533072;13928.922;216
2024-05-20T22:29:26.760;599616698071224444;13936.613;228
2024-05-20T22:29:26.768;599616698078915816;13944.305;221
2024-05-20T22:29:26.775;599616698086607188;13951.996;218
2024-05-20T22:29:26.783;599616698094298560;13959.688;221
2024-05-20T22:29:26.791;599616698101989932;13967.38;223
2024-05-20T22:29:26.799;599616698109681304;13975.07;209
2024-05-20T22:29:26.806;599616698117372676;13982.762;188
2024-05-20T22:29:26.814;599616698125064048;13990.453;192
2024-05-20T22:29:26.822;599616698132755420;13998.145;195
2024-05-20T22:29:26.829;599616698140446792;14005.836;173
2024-05-20T22:29:26.837;599616698148138164;14013.527;185
2024-05-20T22:29:26.845;599616698155829536;14021.219;223
2024-05-20T22:29:26.852;599616698163520908;14028.91;235
2024-05-20T22:29:26.860;599616698171227336;14036.616;240
2024-05-20T22:29:26.868;599616698178918499;14044.308;254
2024-05-20T22:29:26.875;599616698186609662;14051.999;249
2024-05-20T22:29:26.883;599616698194300825;14059.69;235
2024-05-20T22:29:26.891;599616698201991988;14067.381;235
2024-05-20T22:29:26.899;599616698209683151;14075.072;252
2024-05-20T22:29:26.906;599616698217374314;14082.764;271
2024-05-20T22:29:26.914;599616698225065477;14090.455;259
2024-05-20T22:29:26.922;599616698232756640;14098.146;207
2024-05-20T22:29:26.929;599616698240447803;14105.837;169
2024-05-20T22:29:26.937;599616698248138966;14113.527;235
2024-05-20T22:29:26.945;599616698255830129;14121.219;452
2024-05-20T22:29:26.952;599616698263521292;14128.91;780
2024-05-20T22:29:26.960;599616698271212455;14136.602;856
2024-05-20T22:29:26.968;599616698278903618;14144.293;352
2024-05-20T22:29:26.975;599616698286594781;14151.984;-228
2024-05-20T22:29:26.983;599616698294285944;14159.676;-280
2024-05-20T22:29:26.991;599616698301977107;14167.366;-161
2024-05-20T22:29:26.999;599616698309668270;14175.058;-252
2024-05-20T22:29:27.006;599616698317359433;14182.748;-311
2024-05-20T22:29:27.014;599616698325050596;14190.439;-268
2024-05-20T22:29:27.022;599616698332741759;14198.131;-264
2024-05-20T22:29:27.029;599616698340432922;14205.822;-273
2024-05-20T22:29:27.037;599616698348124085;14213.514;-257
2024-05-20T22:29:27.045;599616698355815248;14221.204;-257
2024-05-20T22:29:27.052;599616698363506411;14228.8955;-278
2024-05-20T22:29:27.060;599616698371197574;14236.587;-271
2024-05-20T22:29:27.068;599616698378888737;14244.278;-245
2024-05-20T22:29:27.075;599616698386579900;14251.97;-216
2024-05-20T22:29:27.083;599616698394271063;14259.66;-176
2024-05-20T22:29:27.091;599616698401962226;14267.351;-142
2024-05-20T22:29:27.099;599616698409653389;14275.042;-128
2024-05-20T22:29:27.106;599616698417344552;14282.733;-104
2024-05-20T22:29:27.114;599616698425035715;14290.425;-59
2024-05-20T22:29:27.122;599616698432726878;14298.116;-11
2024-05-20T22:29:27.129;599616698440418041;14305.808;28
2024-05-20T22:29:27.137;599616698448109204;14313.499;76
2024-05-20T22:29:27.145;599616698455800367;14321.189;119
2024-05-20T22:29:27.152;599616698463491530;14328.881;119
2024-05-20T22:29:27.160;599616698471182693;14336.572;111
2024-05-20T22:29:27.168;599616698478873856;14344.263;142
2024-05-20T22:29:27.175;599616698486565019;14351.954;164
2024-05-20T22:29:27.183;599616698494256182;14359.6455;140
2024-05-20T22:29:27.191;599616698501947345;14367.337;107
2024-05-20T22:29:27.199;599616698509638508;14375.027;92
2024-05-20T22:29:27.206;599616698517329671;14382.719;92
2024-05-20T22:29:27.214;599616698525020834;14390.41;85
2024-05-20T22:29:27.222;599616698532711997;14398.102;78
2024-05-20T22:29:27.229;599616698540403160;14405.793;92
2024-05-20T22:29:27.237;599616698548094323;14413.484;104
2024-05-20T22:29:27.245;599616698555785486;14421.174;88
2024-05-20T22:29:27.252;599616698563476649;14428.865;71
2024-05-20T22:29:27.260;599616698571167812;14436.557;97
2024-05-20T22:29:27.268;599616698578858975;14444.248;145
2024-05-20T22:29:27.275;599616698586550138;14451.939;154
2024-05-20T22:29:27.283;599616698594241301;14459.631;133
2024-05-20T22:29:27.291;599616698601932464;14467.322;114
2024-05-20T22:29:27.299;599616698609623627;14475.013;85
2024-05-20T22:29:27.306;599616698617314790;14482.704;78
2024-05-20T22:29:27.314;599616698625005953;14490.3955;97
2024-05-20T22:29:27.322;599616698632697116;14498.086;121
2024-05-20T22:29:27.329;599616698640388279;14505.777;135
2024-05-20T22:29:27.337;599616698648079442;14513.469;119
2024-05-20T22:29:27.345;599616698655770605;14521.16;111
2024-05-20T22:29:27.352;599616698663461768;14528.851;147
2024-05-20T22:29:27.360;599616698671152931;14536.542;166
2024-05-20T22:29:27.368;599616698678844094;14544.233;164
2024-05-20T22:29:27.375;599616698686535257;14551.925;171
2024-05-20T22:29:27.383;599616698694226420;14559.616;178
2024-05-20T22:29:27.391;599616698701917583;14567.308;171
2024-05-20T22:29:27.398;599616698709608746;14574.997;171
2024-05-20T22:29:27.406;599616698717299909;14582.688;192
2024-05-20T22:29:27.414;599616698724991072;14590.38;218
2024-05-20T22:29:27.422;599616698732682240;14598.071;228
2024-05-20T22:29:27.429;599616698740373403;14605.763;211
2024-05-20T22:29:27.437;599616698748064566;14613.454;183
2024-05-20T22:29:27.445;599616698755755729;14621.1455;130
2024-05-20T22:29:27.452;599616698763446892;14628.836;76
2024-05-20T22:29:27.460;599616698771138055;14636.527;78
2024-05-20T22:29:27.468;599616698778829218;14644.219;109
2024-05-20T22:29:27.475;599616698786520381;14651.909;107
2024-05-20T22:29:27.483;599616698794211544;14659.601;61
2024-05-20T22:29:27.491;599616698801902707;14667.292;-19
2024-05-20T22:29:27.498;599616698809593870;14674.983;-38
2024-05-20T22:29:27.506;599616698817285033;14682.674;126
2024-05-20T22:29:27.514;599616698824976196;14690.365;507
2024-05-20T22:29:27.522;599616698832667359;14698.057;945
2024-05-20T22:29:27.529;599616698840358522;14705.748;1018
2024-05-20T22:29:27.537;599616698848049685;14713.439;490
2024-05-20T22:29:27.545;599616698855740848;14721.131;-95
2024-05-20T22:29:27.552;599616698863432011;14728.82;-145
2024-05-20T22:29:27.560;599616698871123174;14736.512;-16
2024-05-20T22:29:27.568;599616698878814337;14744.203;-111
2024-05-20T22:29:27.575;599616698886505500;14751.895;-176
2024-05-20T22:29:27.583;599616698894196663;14759.586;-109
2024-05-20T22:29:27.591;599616698901887826;14767.277;-102
2024-05-20T22:29:27.598;599616698909578989;14774.969;-149
2024-05-20T22:29:27.606;599616698917270152;14782.659;-169
2024-05-20T22:29:27.614;599616698924961315;14790.351;-192
2024-05-20T22:29:27.622;599616698932652478;14798.042;-221
2024-05-20T22:29:27.629;599616698940343641;14805.732;-204
2024-05-20T22:29:27.637;599616698948034804;14813.424;-190
2024-05-20T22:29:27.645;599616698955725967;14821.115;-188
2024-05-20T22:29:27.652;599616698963417130;14828.806;-159
2024-05-20T22:29:27.660;599616698971108293;14836.497;-140
2024-05-20T22:29:27.668;599616698978799456;14844.188;-140
2024-05-20T22:29:27.675;599616698986490619;14851.88;-111
2024-05-20T22:29:27.683;599616698994181782;14859.571;-59
2024-05-20T22:29:27.691;599616699001872945;14867.263;-23
2024-05-20T22:29:27.698;599616699009564108;14874.954;-7
2024-05-20T22:29:27.706;599616699017255271;14882.645;11
2024-05-20T22:29:27.714;599616699024946434;14890.335;45
2024-05-20T22:29:27.722;599616699032637597;14898.026;64
2024-05-20T22:29:27.729;599616699040328760;14905.718;64
2024-05-20T22:29:27.737;599616699048019923;14913.409;69
2024-05-20T22:29:27.745;599616699055711086;14921.101;69
2024-05-20T22:29:27.752;599616699063402249;14928.792;30
2024-05-20T22:29:27.760;599616699071093412;14936.482;-7
2024-05-20T22:29:27.768;599616699078784575;14944.174;-7
2024-05-20T22:29:27.775;599616699086475738;14951.865;2
2024-05-20T22:29:27.783;599616699094166901;14959.557;-21
2024-05-20T22:29:27.791;599616699101858064;14967.247;-66
2024-05-20T22:29:27.798;599616699109549227;14974.938;-85
2024-05-20T22:29:27.806;599616699117240390;14982.629;-59
2024-05-20T22:29:27.814;599616699124931553;14990.32;-40
2024-05-20T22:29:27.822;599616699132622716;14998.012;-40
2024-05-20T22:29:27.829;599616699140313879;15005.703;-14
2024-05-20T22:29:27.837;599616699148005042;15013.395;19
2024-05-20T22:29:27.845;599616699155696205;15021.086;14
2024-05-20T22:29:27.852;599616699163387368;15028.777;16
2024-05-20T22:29:27.860;599616699171078531;15036.468;47
2024-05-20T22:29:27.868;599616699178769694;15044.158;69
2024-05-20T22:29:27.875;599616699186460857;15051.85;71
2024-05-20T22:29:27.883;599616699194152020;15059.541;73
2024-05-20T22:29:27.891;599616699201843183;15067.232;78
2024-05-20T22:29:27.898;599616699209534346;15074.924;90
2024-05-20T22:29:27.906;599616699217225509;15082.615;99
2024-05-20T22:29:27.914;599616699224916672;15090.306;104
2024-05-20T22:29:27.921;599616699232607835;15097.997;123
2024-05-20T22:29:27.929;599616699240298998;15105.688;135
2024-05-20T22:29:27.937;599616699247990161;15113.38;123
2024-05-20T22:29:27.945;599616699255681324;15121.07;92
2024-05-20T22:29:27.952;599616699263372487;15128.762;35
2024-05-20T22:29:27.960;599616699271063650;15136.452;-16
2024-05-20T22:29:27.968;599616699278754813;15144.144;-14
2024-05-20T22:29:27.975;599616699286445976;15151.835;11
2024-05-20T22:29:27.983;599616699294122098;15159.511;21
2024-05-20T22:29:27.991;599616699301813470;15167.202;28
2024-05-20T22:29:27.998;599616699309504842;15174.894;45
2024-05-20T22:29:28.006;599616699317196214;15182.586;73
2024-05-20T22:29:28.014;599616699324887586;15190.277;104
2024-05-20T22:29:28.021;599616699332578958;15197.969;109
2024-05-20T22:29:28.029;599616699340270330;15205.659;73
2024-05-20T22:29:28.037;599616699347961702;15213.351;42
2024-05-20T22:29:28.045;599616699355653074;15221.042;49
2024-05-20T22:29:28.052;599616699363344446;15228.733;33
2024-05-20T22:29:28.060;599616699371035818;15236.425;-28
2024-05-20T22:29:28.068;599616699378727190;15244.116;-64
2024-05-20T22:29:28.075;599616699386418562;15251.809;-45
2024-05-20T22:29:28.083;599616699394109934;15259.5;102
2024-05-20T22:29:28.091;599616699401801306;15267.19;490
2024-05-20T22:29:28.098;599616699409492678;15274.882;949
2024-05-20T22:29:28.106;599616699417184050;15282.573;985
2024-05-20T22:29:28.114;599616699424875422;15290.265;447
2024-05-20T22:29:28.121;599616699432566794;15297.956;-54
2024-05-20T22:29:28.129;599616699440258166;15305.647;-52
2024-05-20T22:29:28.137;599616699447949538;15313.338;38
2024-05-20T22:29:28.145;599616699455640910;15321.029;-73
2024-05-20T22:29:28.152;599616699463332282;15328.722;-107
2024-05-20T22:29:28.160;599616699471023654;15336.413;-40
2024-05-20T22:29:28.168;599616699478715026;15344.1045;-71
2024-05-20T22:29:28.175;599616699486406398;15351.796;-130
2024-05-20T22:29:28.183;599616699494097770;15359.487;-126
2024-05-20T22:29:28.191;599616699501789142;15367.179;-123
2024-05-20T22:29:28.198;599616699509480514;15374.869;-157
2024-05-20T22:29:28.206;599616699517171886;15382.561;-183
2024-05-20T22:29:28.214;599616699524863258;15390.252;-190
2024-05-20T22:29:28.221;599616699532554630;15397.944;-176
2024-05-20T22:29:28.229;599616699540246002;15405.636;-147
2024-05-20T22:29:28.237;599616699547937374;15413.327;-130
2024-05-20T22:29:28.245;599616699555628746;15421.019;-114
2024-05-20T22:29:28.252;599616699563320118;15428.709;-85
2024-05-20T22:29:28.260;599616699571011490;15436.4;-71
2024-05-20T22:29:28.268;599616699578702862;15444.092;-69
2024-05-20T22:29:28.275;599616699586394234;15451.783;-59
2024-05-20T22:29:28.283;599616699594085606;15459.475;-54
2024-05-20T22:29:28.291;599616699601776978;15467.166;-47
2024-05-20T22:29:28.298;599616699609468350;15474.858;-47
2024-05-20T22:29:28.306;599616699617159722;15482.549;-52
2024-05-20T22:29:28.314;599616699624851094;15490.24;-38
2024-05-20T22:29:28.321;599616699632542466;15497.932;-33
2024-05-20T22:29:28.329;599616699640233838;15505.623;-52
2024-05-20T22:29:28.337;599616699647925210;15513.314;-47
2024-05-20T22:29:28.345;599616699655616582;15521.006;-35
2024-05-20T22:29:28.352;599616699663307954;15528.697;-66
2024-05-20T22:29:28.360;599616699670999326;15536.388;-92
2024-05-20T22:29:28.368;599616699678690698;15544.08;-66
2024-05-20T22:29:28.375;599616699686382070;15551.771;-33
2024-05-20T22:29:28.383;599616699694073442;15559.463;-26
2024-05-20T22:29:28.391;599616699701764814;15567.154;-14
2024-05-20T22:29:28.398;599616699709456186;15574.846;0
2024-05-20T22:29:28.406;599616699717147558;15582.537;9
2024-05-20T22:29:28.414;599616699724838930;15590.228;21
2024-05-20T22:29:28.421;599616699732530302;15597.919;33
2024-05-20T22:29:28.429;599616699740221674;15605.61;57
2024-05-20T22:29:28.437;599616699747913046;15613.302;78
2024-05-20T22:29:28.444;599616699755604418;15620.994;71
2024-05-20T22:29:28.452;599616699763295790;15628.686;47
2024-05-20T22:29:28.460;599616699770987162;15636.377;2
2024-05-20T22:29:28.468;599616699778678534;15644.067;-45
2024-05-20T22:29:28.475;599616699786369906;15651.759;-38
2024-05-20T22:29:28.483;599616699794061278;15659.45;-19
2024-05-20T22:29:28.491;599616699801752650;15667.142;-26
2024-05-20T22:29:28.498;599616699809444022;15674.833;-11
2024-05-20T22:29:28.506;599616699817135394;15682.524;14
2024-05-20T22:29:28.514;599616699824826766;15690.217;16
2024-05-20T22:29:28.521;599616699832518138;15697.907;0
2024-05-20T22:29:28.529;599616699840209510;15705.599;-35
2024-05-20T22:29:28.537;599616699847900882;15713.29;-61
2024-05-20T22:29:28.545;599616699855622358;15721.011;-42
2024-05-20T22:29:28.552;599616699863313312;15728.702;-4
2024-05-20T22:29:28.560;599616699871004266;15736.394;11
2024-05-20T22:29:28.568;599616699878695220;15744.084;16
2024-05-20T22:29:28.575;599616699886386174;15751.775;49
2024-05-20T22:29:28.583;599616699894077128;15759.467;73
2024-05-20T22:29:28.591;599616699901768082;15767.158;49
2024-05-20T22:29:28.598;599616699909459036;15774.848;2
2024-05-20T22:29:28.606;599616699917149990;15782.539;-9
2024-05-20T22:29:28.614;599616699924840944;15790.23;33
2024-05-20T22:29:28.621;599616699932531898;15797.921;52
2024-05-20T22:29:28.629;599616699940222852;15805.612;21
2024-05-20T22:29:28.637;599616699947913806;15813.304;4
2024-05-20T22:29:28.644;599616699955604760;15820.993;9
2024-05-20T22:29:28.652;599616699963295714;15828.685;80
2024-05-20T22:29:28.660;599616699970986668;15836.376;368
2024-05-20T22:29:28.668;599616699978677622;15844.067;835
2024-05-20T22:29:28.675;599616699986368576;15851.758;1064
2024-05-20T22:29:28.683;599616699994059530;15859.449;723
2024-05-20T22:29:28.691;599616700001750484;15867.14;154
2024-05-20T22:29:28.698;599616700009441438;15874.83;-14
2024-05-20T22:29:28.706;599616700017132392;15882.521;114
2024-05-20T22:29:28.714;599616700024823346;15890.213;83
2024-05-20T22:29:28.721;599616700032514300;15897.903;-4
2024-05-20T22:29:28.729;599616700040205254;15905.595;35
2024-05-20T22:29:28.737;599616700047896208;15913.285;83
2024-05-20T22:29:28.744;599616700055587162;15920.976;64
2024-05-20T22:29:28.752;599616700063278116;15928.667;33
2024-05-20T22:29:28.760;599616700070969070;15936.358;16
2024-05-20T22:29:28.768;599616700078660024;15944.05;-26
2024-05-20T22:29:28.775;599616700086350978;15951.74;-95
2024-05-20T22:29:28.783;599616700094041932;15959.432;-114
2024-05-20T22:29:28.791;599616700101732886;15967.122;-95
2024-05-20T22:29:28.798;599616700109423840;15974.8125;-99
