Phone timestamp;sensor timestamp [ns];timestamp [ms];ecg [uV]
2024-05-20T22:30:58.366;599616789674226836;0.0;2513
2024-05-20T22:30:58.373;599616789681918138;7.691302;3787
2024-05-20T22:30:58.381;599616789689609440;15.382604;4448
2024-05-20T22:30:58.389;599616789697300742;23.073906;5217
2024-05-20T22:30:58.396;599616789704992044;30.765207;5998
2024-05-20T22:30:58.404;599616789712683346;38.456512;6550
2024-05-20T22:30:58.412;599616789720374648;46.14781;7145
2024-05-20T22:30:58.419;599616789728065950;53.83911;7779
2024-05-20T22:30:58.427;599616789735757252;61.530415;8259
2024-05-20T22:30:58.435;599616789743448554;69.22172;8707
2024-05-20T22:30:58.442;599616789751139856;76.913025;9202
2024-05-20T22:30:58.450;599616789758831158;84.60432;9661
2024-05-20T22:30:58.458;599616789766522460;92.29562;10049
2024-05-20T22:30:58.465;599616789774213762;99.98693;10442
2024-05-20T22:30:58.473;599616789781905064;107.67822;10909
2024-05-20T22:30:58.481;599616789789596366;115.36953;11306
2024-05-20T22:30:58.489;599616789797287668;123.06083;11561
2024-05-20T22:30:58.496;599616789804978970;130.75214;11859
2024-05-20T22:30:58.504;599616789812670272;138.44344;12244
2024-05-20T22:30:58.512;599616789820361574;146.13474;12568
2024-05-20T22:30:58.519;599616789828052876;153.82605;12818
2024-05-20T22:30:58.527;599616789835744178;161.51735;13075
2024-05-20T22:30:58.535;599616789843435480;169.20863;13330
2024-05-20T22:30:58.542;599616789851126782;176.89995;13558
2024-05-20T22:30:58.550;599616789858818084;184.59125;13749
2024-05-20T22:30:58.558;599616789866509386;192.28255;13958
2024-05-20T22:30:58.565;599616789874200688;199.97386;14237
2024-05-20T22:30:58.573;599616789881891990;207.66515;14439
2024-05-20T22:30:58.581;599616789889583292;215.35645;14503
2024-05-20T22:30:58.589;599616789897274594;223.04776;14648
2024-05-20T22:30:58.596;599616789904965896;230.73906;14884
2024-05-20T22:30:58.604;599616789912657198;238.43037;15008
2024-05-20T22:30:58.612;599616789920348500;246.12166;15086
2024-05-20T22:30:58.619;599616789928039802;253.81296;15231
2024-05-20T22:30:58.627;599616789935731104;261.50427;15360
2024-05-20T22:30:58.635;599616789943422406;269.1956;15424
2024-05-20T22:30:58.642;599616789951113708;276.88687;15477
2024-05-20T22:30:58.650;599616789958805010;284.5782;15586
2024-05-20T22:30:58.658;599616789966496312;292.26947;15796
2024-05-20T22:30:58.665;599616789974187614;299.96075;15919
2024-05-20T22:30:58.673;599616789981878916;307.6521;15781
2024-05-20T22:30:58.681;599616789989570218;315.34338;15736
2024-05-20T22:30:58.689;599616789997261520;323.0347;15896
2024-05-20T22:30:58.696;599616790004952822;330.72598;15910
2024-05-20T22:30:58.704;599616790012644124;338.41727;15867
2024-05-20T22:30:58.712;599616790020335426;346.10858;15936
2024-05-20T22:30:58.719;599616790028026728;353.7999;15936
2024-05-20T22:30:58.727;599616790035718030;361.4912;15912
2024-05-20T22:30:58.735;599616790043409332;369.1825;16136
2024-05-20T22:30:58.742;599616790051100634;376.87378;16619
2024-05-20T22:30:58.750;599616790058791936;384.5651;16926
2024-05-20T22:30:58.758;599616790066483238;392.2564;16545
2024-05-20T22:30:58.765;599616790074174540;399.94772;15831
2024-05-20T22:30:58.773;599616790081865842;407.639;15655
2024-05-20T22:30:58.781;599616790089557144;415.3303;15812
2024-05-20T22:30:58.789;599616790097248446;423.0216;15689
2024-05-20T22:30:58.796;599616790104939748;430.7129;15565
2024-05-20T22:30:58.804;599616790112631050;438.40424;15639
2024-05-20T22:30:58.812;599616790120322352;446.09552;15570
2024-05-20T22:30:58.819;599616790128013654;453.7868;15441
2024-05-20T22:30:58.827;599616790135704956;461.47812;15474
2024-05-20T22:30:58.835;599616790143396258;469.1694;15441
2024-05-20T22:30:58.842;599616790151087560;476.86075;15310
2024-05-20T22:30:58.850;599616790158778862;484.55203;15346
2024-05-20T22:30:58.858;599616790166470164;492.24332;15381
2024-05-20T22:30:58.865;599616790174161466;499.93463;15084
2024-05-20T22:30:58.873;599616790181852768;507.62592;14791
2024-05-20T22:30:58.881;599616790189544070;515.31726;14794
2024-05-20T22:30:58.889;599616790197235372;523.00854;14748
2024-05-20T22:30:58.896;599616790204926674;530.6998;14567
2024-05-20T22:30:58.904;599616790212617976;538.3912;14491
2024-05-20T22:30:58.912;599616790220309278;546.08246;14422
2024-05-20T22:30:58.919;599616790228000580;553.77374;14222
2024-05-20T22:30:58.927;599616790235686874;561.46;14108
2024-05-20T22:30:58.935;599616790243378246;569.1514;14094
2024-05-20T22:30:58.942;599616790251069618;576.8428;13951
2024-05-20T22:30:58.950;599616790258760990;584.5341;13791
2024-05-20T22:30:58.958;599616790266452362;592.2255;13758
2024-05-20T22:30:58.965;599616790274143734;599.91693;13658
2024-05-20T22:30:58.973;599616790281835106;607.6083;13489
2024-05-20T22:30:58.981;599616790289526478;615.2996;13503
2024-05-20T22:30:58.988;599616790297217850;622.991;13539
2024-05-20T22:30:58.996;599616790304909222;630.6824;13242
2024-05-20T22:30:59.004;599616790312600594;638.3738;12906
2024-05-20T22:30:59.012;599616790320291966;646.0651;12896
2024-05-20T22:30:59.019;599616790327983338;653.7565;12899
2024-05-20T22:30:59.027;599616790335674710;661.4479;12734
2024-05-20T22:30:59.035;599616790343366082;669.1393;12587
2024-05-20T22:30:59.042;599616790351057454;676.83057;12496
2024-05-20T22:30:59.050;599616790358748826;684.522;12399
2024-05-20T22:30:59.058;599616790366440198;692.2134;12280
2024-05-20T22:30:59.065;599616790374131570;699.9047;12185
2024-05-20T22:30:59.073;599616790381822942;707.59607;12163
2024-05-20T22:30:59.081;599616790389514314;715.2875;12087
2024-05-20T22:30:59.088;599616790397205686;722.9789;11889
2024-05-20T22:30:59.096;599616790404897058;730.6702;11763
2024-05-20T22:30:59.104;599616790412588430;738.3616;11749
2024-05-20T22:30:59.112;599616790420279802;746.053;11666
2024-05-20T22:30:59.119;599616790427971174;753.7443;11518
2024-05-20T22:30:59.127;599616790435662546;761.4357;11411
2024-05-20T22:30:59.135;599616790443353918;769.1271;11325
2024-05-20T22:30:59.142;599616790451045290;776.8184;11216
2024-05-20T22:30:59.150;599616790458736662;784.5098;11130
2024-05-20T22:30:59.158;599616790466428034;792.20123;11063
2024-05-20T22:30:59.165;599616790474119406;799.8925;10923
2024-05-20T22:30:59.173;599616790481810778;807.5839;10728
2024-05-20T22:30:59.181;599616790489502150;815.2753;10578
2024-05-20T22:30:59.188;599616790497193522;822.9667;10497
2024-05-20T22:30:59.196;599616790504884894;830.658;10440
2024-05-20T22:30:59.204;599616790512576266;838.3494;10328
2024-05-20T22:30:59.212;599616790520267638;846.04083;10207
2024-05-20T22:30:59.219;599616790527959010;853.7322;10133
2024-05-20T22:30:59.227;599616790535650382;861.4235;10033
2024-05-20T22:30:59.235;599616790543341754;869.1149;9897
2024-05-20T22:30:59.242;599616790551033126;876.8063;9792
2024-05-20T22:30:59.250;599616790558724498;884.4977;9738
2024-05-20T22:30:59.258;599616790566415870;892.189;9690
2024-05-20T22:30:59.265;599616790574107242;899.8804;9578
2024-05-20T22:30:59.273;599616790581798614;907.5718;9428
2024-05-20T22:30:59.281;599616790589489986;915.2632;9345
2024-05-20T22:30:59.288;599616790597181358;922.95447;9290
2024-05-20T22:30:59.296;599616790604872730;930.6459;9173
2024-05-20T22:30:59.304;599616790612564102;938.3373;9066
2024-05-20T22:30:59.312;599616790620255474;946.0286;9002
2024-05-20T22:30:59.319;599616790627946846;953.72;8885
2024-05-20T22:30:59.327;599616790635638218;961.4114;8714
2024-05-20T22:30:59.335;599616790643329590;969.1028;8600
2024-05-20T22:30:59.342;599616790651020962;976.7941;8652
2024-05-20T22:30:59.350;599616790658712334;984.4855;8971
2024-05-20T22:30:59.358;599616790666403706;992.1769;9326
2024-05-20T22:30:59.365;599616790674095078;999.8682;9123
2024-05-20T22:30:59.373;599616790681786450;1007.55963;8407
2024-05-20T22:30:59.381;599616790689477822;1015.25104;7900
2024-05-20T22:30:59.388;599616790697169194;1022.9423;7850
2024-05-20T22:30:59.396;599616790704860566;1030.6337;7862
2024-05-20T22:30:59.404;599616790712551938;1038.3251;7660
2024-05-20T22:30:59.412;599616790720243310;1046.0165;7400
2024-05-20T22:30:59.419;599616790727934682;1053.7079;7288
2024-05-20T22:30:59.427;599616790735626054;1061.3993;7274
2024-05-20T22:30:59.435;599616790743317426;1069.0906;7191
2024-05-20T22:30:59.442;599616790751008798;1076.782;7072
2024-05-20T22:30:59.450;599616790758700170;1084.4734;6964
2024-05-20T22:30:59.458;599616790766391542;1092.1648;6819
2024-05-20T22:30:59.465;599616790774082914;1099.8561;6715
2024-05-20T22:30:59.473;599616790781774286;1107.5474;6660
2024-05-20T22:30:59.481;599616790789465658;1115.2388;6557
2024-05-20T22:30:59.488;599616790797157038;1122.9302;6484
2024-05-20T22:30:59.496;599616790804848410;1130.6216;6448
2024-05-20T22:30:59.504;599616790812539782;1138.313;6346
2024-05-20T22:30:59.512;599616790820231154;1146.0044;6243
2024-05-20T22:30:59.519;599616790827922526;1153.6958;6217
2024-05-20T22:30:59.527;599616790835613898;1161.387;6188
2024-05-20T22:30:59.535;599616790843305270;1169.0784;6122
2024-05-20T22:30:59.542;599616790850996642;1176.7698;6034
2024-05-20T22:30:59.550;599616790858688014;1184.4612;5984
2024-05-20T22:30:59.558;599616790866379386;1192.1526;5960
2024-05-20T22:30:59.565;599616790874070758;1199.844;5824
2024-05-20T22:30:59.573;599616790881762130;1207.5353;5646
2024-05-20T22:30:59.581;599616790889453502;1215.2267;5620
2024-05-20T22:30:59.588;599616790897144874;1222.918;5603
2024-05-20T22:30:59.596;599616790904836246;1230.6094;5462
2024-05-20T22:30:59.604;599616790912527618;1238.3008;5358
2024-05-20T22:30:59.611;599616790920218990;1245.9922;5334
2024-05-20T22:30:59.619;599616790927910362;1253.6836;5274
2024-05-20T22:30:59.627;599616790935601734;1261.3749;5189
2024-05-20T22:30:59.635;599616790943293106;1269.0663;5115
2024-05-20T22:30:59.642;599616790950984478;1276.7577;5053
2024-05-20T22:30:59.650;599616790958675850;1284.449;4986
2024-05-20T22:30:59.658;599616790966367222;1292.1404;4884
2024-05-20T22:30:59.665;599616790974058594;1299.8318;4805
2024-05-20T22:30:59.673;599616790981749966;1307.5231;4796
2024-05-20T22:30:59.681;599616790989441338;1315.2145;4748
2024-05-20T22:30:59.688;599616790997132710;1322.9059;4646
2024-05-20T22:30:59.696;599616791004824082;1330.5973;4601
2024-05-20T22:30:59.704;599616791012515454;1338.2887;4594
2024-05-20T22:30:59.711;599616791020206826;1345.98;4532
2024-05-20T22:30:59.719;599616791027898198;1353.6714;4460
2024-05-20T22:30:59.727;599616791035589570;1361.3627;4422
2024-05-20T22:30:59.735;599616791043280942;1369.0541;4370
2024-05-20T22:30:59.742;599616791050972314;1376.7455;4284
2024-05-20T22:30:59.750;599616791058663686;1384.4369;4213
2024-05-20T22:30:59.758;599616791066355058;1392.1283;4182
2024-05-20T22:30:59.765;599616791074046430;1399.8197;4172
2024-05-20T22:30:59.773;599616791081737802;1407.5109;4115
2024-05-20T22:30:59.781;599616791089429174;1415.2023;4018
2024-05-20T22:30:59.788;599616791097120546;1422.8937;3989
2024-05-20T22:30:59.796;599616791104811918;1430.5851;4001
2024-05-20T22:30:59.804;599616791112503290;1438.2765;3951
2024-05-20T22:30:59.811;599616791120194662;1445.9679;3887
2024-05-20T22:30:59.819;599616791127886034;1453.6592;3853
2024-05-20T22:30:59.827;599616791135577406;1461.3506;3808
2024-05-20T22:30:59.835;599616791143268778;1469.0419;3753
2024-05-20T22:30:59.842;599616791150960150;1476.7333;3691
2024-05-20T22:30:59.850;599616791158651522;1484.4247;3644
2024-05-20T22:30:59.858;599616791166342894;1492.1161;3637
2024-05-20T22:30:59.865;599616791174034266;1499.8075;3549
2024-05-20T22:30:59.873;599616791181725638;1507.4988;3382
2024-05-20T22:30:59.881;599616791189417010;1515.1902;3325
2024-05-20T22:30:59.888;599616791197108382;1522.8816;3337
2024-05-20T22:30:59.896;599616791204799754;1530.5729;3289
2024-05-20T22:30:59.904;599616791212491126;1538.2643;3203
2024-05-20T22:30:59.911;599616791220182498;1545.9557;3142
2024-05-20T22:30:59.919;599616791227873870;1553.647;3101
2024-05-20T22:30:59.927;599616791235565242;1561.3384;3063
2024-05-20T22:30:59.935;599616791243256614;1569.0298;3039
2024-05-20T22:30:59.942;599616791250947986;1576.7212;3011
2024-05-20T22:30:59.950;599616791258639358;1584.4126;2989
2024-05-20T22:30:59.958;599616791266330730;1592.1039;3113
2024-05-20T22:30:59.965;599616791274022102;1599.7953;3451
2024-05-20T22:30:59.973;599616791281713474;1607.4866;3741
2024-05-20T22:30:59.981;599616791289404846;1615.178;3539
2024-05-20T22:30:59.988;599616791297096218;1622.8694;2911
2024-05-20T22:30:59.996;599616791304787590;1630.5608;2511
2024-05-20T22:31:00.004;599616791312478962;1638.2522;2532
2024-05-20T22:31:00.011;599616791320170334;1645.9436;2535
2024-05-20T22:31:00.019;599616791327861706;1653.6348;2380
2024-05-20T22:31:00.027;599616791335553078;1661.3262;2297
2024-05-20T22:31:00.035;599616791343244450;1669.0176;2313
2024-05-20T22:31:00.042;599616791350935822;1676.709;2297
2024-05-20T22:31:00.050;599616791358627202;1684.4004;2223
2024-05-20T22:31:00.058;599616791366318574;1692.0918;2185
2024-05-20T22:31:00.065;599616791374009946;1699.7832;2182
2024-05-20T22:31:00.073;599616791381701318;1707.4745;2144
2024-05-20T22:31:00.081;599616791389392690;1715.1658;2118
2024-05-20T22:31:00.088;599616791397084062;1722.8572;2128
2024-05-20T22:31:00.096;599616791404775434;1730.5486;2104
2024-05-20T22:31:00.104;599616791412466806;1738.24;2035
2024-05-20T22:31:00.111;599616791420158178;1745.9314;1968
2024-05-20T22:31:00.119;599616791427849550;1753.6227;1951
2024-05-20T22:31:00.127;599616791435540922;1761.3141;1975
2024-05-20T22:31:00.135;599616791443232294;1769.0055;1987
2024-05-20T22:31:00.142;599616791450923666;1776.6968;1949
2024-05-20T22:31:00.150;599616791458615038;1784.3882;1909
2024-05-20T22:31:00.158;599616791466306410;1792.0796;1894
2024-05-20T22:31:00.165;599616791473997782;1799.771;1878
2024-05-20T22:31:00.173;599616791481689154;1807.4623;1873
2024-05-20T22:31:00.181;599616791489380526;1815.1537;1880
2024-05-20T22:31:00.188;599616791497071898;1822.8451;1842
2024-05-20T22:31:00.196;599616791504763270;1830.5365;1809
2024-05-20T22:31:00.204;599616791512454642;1838.2278;1818
2024-05-20T22:31:00.211;599616791520146014;1845.9192;1782
2024-05-20T22:31:00.219;599616791527837386;1853.6105;1754
2024-05-20T22:31:00.227;599616791535528758;1861.3019;1766
2024-05-20T22:31:00.234;599616791543220130;1868.9933;1732
2024-05-20T22:31:00.242;599616791550911502;1876.6847;1678
2024-05-20T22:31:00.250;599616791558602874;1884.3761;1678
2024-05-20T22:31:00.258;599616791566294246;1892.0675;1668
2024-05-20T22:31:00.265;599616791573985618;1899.7587;1642
2024-05-20T22:31:00.273;599616791581676990;1907.4501;1644
2024-05-20T22:31:00.281;599616791589368362;1915.1415;1640
2024-05-20T22:31:00.288;599616791597059734;1922.8329;1609
2024-05-20T22:31:00.296;599616791604751106;1930.5243;1592
2024-05-20T22:31:00.304;599616791612442478;1938.2157;1594
2024-05-20T22:31:00.311;599616791620133850;1945.9071;1594
2024-05-20T22:31:00.319;599616791627825222;1953.5984;1582
2024-05-20T22:31:00.327;599616791635516594;1961.2897;1549
2024-05-20T22:31:00.334;599616791643207966;1968.9811;1525
2024-05-20T22:31:00.342;599616791650899338;1976.6725;1532
2024-05-20T22:31:00.350;599616791658590710;1984.3639;1513
2024-05-20T22:31:00.358;599616791666282082;1992.0553;1487
2024-05-20T22:31:00.365;599616791673973454;1999.7466;1444
2024-05-20T22:31:00.373;599616791681664826;2007.438;1316
2024-05-20T22:31:00.381;599616791689356198;2015.1294;1240
2024-05-20T22:31:00.388;599616791697047570;2022.8207;1261
2024-05-20T22:31:00.396;599616791704738942;2030.5121;1233
2024-05-20T22:31:00.404;599616791712430314;2038.2035;1180
2024-05-20T22:31:00.411;599616791720121686;2045.8949;1190
2024-05-20T22:31:00.419;599616791727813058;2053.5862;1194
2024-05-20T22:31:00.427;599616791735504430;2061.2776;1183
2024-05-20T22:31:00.434;599616791743195802;2068.969;1180
2024-05-20T22:31:00.442;599616791750887174;2076.6604;1175
2024-05-20T22:31:00.450;599616791758578546;2084.3518;1168
2024-05-20T22:31:00.458;599616791766269918;2092.0432;1152
2024-05-20T22:31:00.465;599616791773961290;2099.7344;1135
2024-05-20T22:31:00.473;599616791781652662;2107.4258;1144
2024-05-20T22:31:00.481;599616791789344034;2115.1172;1156
2024-05-20T22:31:00.488;599616791797035406;2122.8086;1161
2024-05-20T22:31:00.496;599616791804726778;2130.5;1156
2024-05-20T22:31:00.504;599616791812418150;2138.1914;1159
2024-05-20T22:31:00.511;599616791820109522;2145.8826;1175
2024-05-20T22:31:00.519;599616791827800894;2153.5742;1164
2024-05-20T22:31:00.527;599616791835492266;2161.2654;1121
2024-05-20T22:31:00.534;599616791843183638;2168.957;1106
2024-05-20T22:31:00.542;599616791850875010;2176.6482;1092
2024-05-20T22:31:00.550;599616791858566382;2184.3394;1016
2024-05-20T22:31:00.558;599616791866257754;2192.031;968
2024-05-20T22:31:00.565;599616791873949126;2199.7222;1114
2024-05-20T22:31:00.573;599616791881640498;2207.4138;1494
2024-05-20T22:31:00.581;599616791889331870;2215.105;1861
2024-05-20T22:31:00.588;599616791897023242;2222.7964;1804
2024-05-20T22:31:00.596;599616791904714614;2230.4878;1230
2024-05-20T22:31:00.604;599616791912405986;2238.179;652
2024-05-20T22:31:00.611;599616791920127462;2245.9006;587
2024-05-20T22:31:00.619;599616791927818416;2253.5916;718
2024-05-20T22:31:00.627;599616791935509370;2261.2825;635
2024-05-20T22:31:00.634;599616791943200324;2268.9736;549
2024-05-20T22:31:00.642;599616791950891278;2276.6643;545
2024-05-20T22:31:00.650;599616791958582232;2284.3552;507
2024-05-20T22:31:00.658;599616791966273186;2292.0464;511
2024-05-20T22:31:00.665;599616791973964140;2299.7373;535
2024-05-20T22:31:00.673;599616791981655094;2307.4285;468
2024-05-20T22:31:00.681;599616791989346048;2315.1191;418
2024-05-20T22:31:00.688;599616791997037002;2322.81;459
2024-05-20T22:31:00.696;599616792004727956;2330.5012;478
2024-05-20T22:31:00.704;599616792012418910;2338.1921;457
2024-05-20T22:31:00.711;599616792020109864;2345.883;473
2024-05-20T22:31:00.719;599616792027800818;2353.574;523
2024-05-20T22:31:00.727;599616792035491772;2361.265;547
2024-05-20T22:31:00.734;599616792043182726;2368.9558;545
2024-05-20T22:31:00.742;599616792050873680;2376.647;566
2024-05-20T22:31:00.750;599616792058564634;2384.338;609
2024-05-20T22:31:00.758;599616792066255588;2392.0286;626
2024-05-20T22:31:00.765;599616792073946542;2399.7197;618
2024-05-20T22:31:00.773;599616792081637496;2407.4106;640
2024-05-20T22:31:00.781;599616792089328450;2415.1018;678
2024-05-20T22:31:00.788;599616792097019404;2422.7925;683
2024-05-20T22:31:00.796;599616792104710358;2430.4834;671
2024-05-20T22:31:00.804;599616792112401312;2438.1746;680
2024-05-20T22:31:00.811;599616792120092266;2445.8655;711
2024-05-20T22:31:00.819;599616792127783220;2453.5564;726
2024-05-20T22:31:00.827;599616792135474174;2461.2473;692
2024-05-20T22:31:00.834;599616792143165128;2468.9382;633
2024-05-20T22:31:00.842;599616792150856082;2476.6292;633
2024-05-20T22:31:00.850;599616792158547036;2484.3203;671
2024-05-20T22:31:00.858;599616792166237990;2492.0112;649
2024-05-20T22:31:00.865;599616792173928944;2499.702;595
2024-05-20T22:31:00.873;599616792181619898;2507.393;540
2024-05-20T22:31:00.881;599616792189310852;2515.084;480
2024-05-20T22:31:00.888;599616792197001806;2522.7751;468
2024-05-20T22:31:00.896;599616792204692760;2530.466;514
2024-05-20T22:31:00.904;599616792212383714;2538.1567;528
2024-05-20T22:31:00.911;599616792220074668;2545.848;518
2024-05-20T22:31:00.919;599616792227765622;2553.5388;537
2024-05-20T22:31:00.927;599616792235456576;2561.2297;554
2024-05-20T22:31:00.934;599616792243147530;2568.9207;557
2024-05-20T22:31:00.942;599616792250838484;2576.6116;564
2024-05-20T22:31:00.950;599616792258529438;2584.3025;573
2024-05-20T22:31:00.957;599616792266220392;2591.9937;609
2024-05-20T22:31:00.965;599616792273911346;2599.6846;633
2024-05-20T22:31:00.973;599616792281602300;2607.3752;606
2024-05-20T22:31:00.981;599616792289293254;2615.0664;602
2024-05-20T22:31:00.988;599616792296984208;2622.7573;642
2024-05-20T22:31:00.996;599616792304675162;2630.4485;645
2024-05-20T22:31:01.004;599616792312366116;2638.1394;626
2024-05-20T22:31:01.011;599616792320057070;2645.83;630
2024-05-20T22:31:01.019;599616792327748024;2653.5212;637
2024-05-20T22:31:01.027;599616792335438978;2661.2122;647
2024-05-20T22:31:01.034;599616792343129932;2668.903;659
2024-05-20T22:31:01.042;599616792350820886;2676.5942;664
2024-05-20T22:31:01.050;599616792358511840;2684.285;687
2024-05-20T22:31:01.057;599616792366202794;2691.9758;699
2024-05-20T22:31:01.065;599616792373893748;2699.667;676
2024-05-20T22:31:01.073;599616792381584702;2707.358;678
2024-05-20T22:31:01.081;599616792389275656;2715.0486;718
2024-05-20T22:31:01.088;599616792396966610;2722.7397;737
2024-05-20T22:31:01.096;599616792404657564;2730.4307;740
2024-05-20T22:31:01.104;599616792412348518;2738.1218;759
2024-05-20T22:31:01.111;599616792420039472;2745.8127;759
2024-05-20T22:31:01.119;599616792427730426;2753.5034;709
2024-05-20T22:31:01.127;599616792435421380;2761.1946;666
2024-05-20T22:31:01.134;599616792443112334;2768.8855;649
2024-05-20T22:31:01.142;599616792450803288;2776.5764;630
2024-05-20T22:31:01.150;599616792458494242;2784.2676;590
2024-05-20T22:31:01.157;599616792466185196;2791.9583;530
2024-05-20T22:31:01.165;599616792473876150;2799.6492;478
2024-05-20T22:31:01.173;599616792481537012;2807.31;485
2024-05-20T22:31:01.181;599616792489228384;2815.0017;687
2024-05-20T22:31:01.188;599616792496919756;2822.6929;1121
2024-05-20T22:31:01.196;599616792504611128;2830.3843;1385
2024-05-20T22:31:01.204;599616792512302500;2838.0757;1033
2024-05-20T22:31:01.211;599616792519993872;2845.7668;373
2024-05-20T22:31:01.219;599616792527685244;2853.4585;138
2024-05-20T22:31:01.227;599616792535376616;2861.1497;299
2024-05-20T22:31:01.234;599616792543067988;2868.8413;321
2024-05-20T22:31:01.242;599616792550759360;2876.5325;218
2024-05-20T22:31:01.250;599616792558450732;2884.224;247
2024-05-20T22:31:01.257;599616792566142104;2891.9153;304
2024-05-20T22:31:01.265;599616792573833476;2899.6064;299
2024-05-20T22:31:01.273;599616792581524848;2907.298;311
2024-05-20T22:31:01.280;599616792589216220;2914.9893;342
2024-05-20T22:31:01.288;599616792596907592;2922.681;366
2024-05-20T22:31:01.296;599616792604598964;2930.372;380
2024-05-20T22:31:01.304;599616792612290336;2938.0637;376
2024-05-20T22:31:01.311;599616792619981708;2945.755;390
2024-05-20T22:31:01.319;599616792627673080;2953.446;445
2024-05-20T22:31:01.327;599616792635364452;2961.1377;478
2024-05-20T22:31:01.334;599616792643055824;2968.8289;468
2024-05-20T22:31:01.342;599616792650747196;2976.5205;478
2024-05-20T22:31:01.350;599616792658438568;2984.2117;521
2024-05-20T22:31:01.357;599616792666129940;2991.9033;549
2024-05-20T22:31:01.365;599616792673821312;2999.5945;518
2024-05-20T22:31:01.373;599616792681512684;3007.2856;437
2024-05-20T22:31:01.380;599616792689204056;3014.9773;399
2024-05-20T22:31:01.388;599616792696895428;3022.6685;414
2024-05-20T22:31:01.396;599616792704586800;3030.36;416
2024-05-20T22:31:01.404;599616792712278172;3038.0513;433
2024-05-20T22:31:01.411;599616792719969544;3045.7427;471
2024-05-20T22:31:01.419;599616792727660916;3053.434;480
2024-05-20T22:31:01.427;599616792735352288;3061.1255;461
2024-05-20T22:31:01.434;599616792743043660;3068.817;454
2024-05-20T22:31:01.442;599616792750735032;3076.508;464
2024-05-20T22:31:01.450;599616792758426404;3084.1997;468
2024-05-20T22:31:01.457;599616792766117776;3091.8909;471
2024-05-20T22:31:01.465;599616792773809148;3099.5823;487
2024-05-20T22:31:01.473;599616792781500520;3107.2737;485
2024-05-20T22:31:01.480;599616792789191892;3114.965;457
2024-05-20T22:31:01.488;599616792796883264;3122.6565;466
2024-05-20T22:31:01.496;599616792804574636;3130.3477;499
2024-05-20T22:31:01.504;599616792812266008;3138.0393;516
2024-05-20T22:31:01.511;599616792819957380;3145.7305;521
2024-05-20T22:31:01.519;599616792827648752;3153.4219;533
2024-05-20T22:31:01.527;599616792835340124;3161.1133;547
2024-05-20T22:31:01.534;599616792843031496;3168.8047;549
2024-05-20T22:31:01.542;599616792850722868;3176.496;542
2024-05-20T22:31:01.550;599616792858414240;3184.1875;549
2024-05-20T22:31:01.557;599616792866105612;3191.8787;573
2024-05-20T22:31:01.565;599616792873796984;3199.57;568
2024-05-20T22:31:01.573;599616792881488356;3207.2615;540
2024-05-20T22:31:01.580;599616792889179728;3214.953;540
2024-05-20T22:31:01.588;599616792896871100;3222.6443;568
2024-05-20T22:31:01.596;599616792904562472;3230.3357;576
2024-05-20T22:31:01.604;599616792912253844;3238.027;554
2024-05-20T22:31:01.611;599616792919945216;3245.7183;542
2024-05-20T22:31:01.619;599616792927636588;3253.41;507
2024-05-20T22:31:01.627;599616792935327960;3261.101;442
2024-05-20T22:31:01.634;599616792943019332;3268.7925;423
2024-05-20T22:31:01.642;599616792950710704;3276.484;442
2024-05-20T22:31:01.650;599616792958402076;3284.1753;457
2024-05-20T22:31:01.657;599616792966093448;3291.8667;437
2024-05-20T22:31:01.665;599616792973784820;3299.5579;392
2024-05-20T22:31:01.673;599616792981476192;3307.2495;378
2024-05-20T22:31:01.680;599616792989167564;3314.9407;404
2024-05-20T22:31:01.688;599616792996858936;3322.632;416
2024-05-20T22:31:01.696;599616793004550308;3330.3235;418
2024-05-20T22:31:01.704;599616793012241680;3338.0146;402
2024-05-20T22:31:01.711;599616793019933052;3345.7063;354
2024-05-20T22:31:01.719;599616793027624424;3353.3975;340
2024-05-20T22:31:01.727;599616793035315796;3361.089;359
2024-05-20T22:31:01.734;599616793043007176;3368.7803;354
2024-05-20T22:31:01.742;599616793050698548;3376.472;323
2024-05-20T22:31:01.750;599616793058389920;3384.163;280
2024-05-20T22:31:01.757;599616793066081292;3391.8542;223
2024-05-20T22:31:01.765;599616793073772664;3399.546;185
2024-05-20T22:31:01.773;599616793081464036;3407.237;157
2024-05-20T22:31:01.780;599616793089155408;3414.9287;64
2024-05-20T22:31:01.788;599616793096846780;3422.6199;9
2024-05-20T22:31:01.796;599616793104538152;3430.3115;218
2024-05-20T22:31:01.804;599616793112229524;3438.0027;664
2024-05-20T22:31:01.811;599616793119920896;3445.6938;978
2024-05-20T22:31:01.819;599616793127612268;3453.3855;792
2024-05-20T22:31:01.827;599616793135303640;3461.0767;240
2024-05-20T22:31:01.834;599616793142995012;3468.7683;-59
2024-05-20T22:31:01.842;599616793150686384;3476.4595;40
2024-05-20T22:31:01.850;599616793158377756;3484.1511;97
2024-05-20T22:31:01.857;599616793166069128;3491.8423;40
2024-05-20T22:31:01.865;599616793173760500;3499.5334;35
2024-05-20T22:31:01.873;599616793181451872;3507.225;14
2024-05-20T22:31:01.880;599616793189143244;3514.9163;-2
2024-05-20T22:31:01.888;599616793196834616;3522.608;47
2024-05-20T22:31:01.896;599616793204525988;3530.299;69
2024-05-20T22:31:01.903;599616793212217360;3537.9905;57
2024-05-20T22:31:01.911;599616793219908732;3545.682;99
2024-05-20T22:31:01.919;599616793227600104;3553.3733;152
2024-05-20T22:31:01.927;599616793235291476;3561.0647;161
2024-05-20T22:31:01.934;599616793242982848;3568.7559;173
2024-05-20T22:31:01.942;599616793250674220;3576.4475;202
2024-05-20T22:31:01.950;599616793258365592;3584.1387;233
2024-05-20T22:31:01.957;599616793266056964;3591.83;266
2024-05-20T22:31:01.965;599616793273748336;3599.5215;292
2024-05-20T22:31:01.973;599616793281439708;3607.213;318
2024-05-20T22:31:01.980;599616793289131080;3614.9043;364
2024-05-20T22:31:01.988;599616793296822452;3622.5957;385
2024-05-20T22:31:01.996;599616793304513824;3630.287;378
2024-05-20T22:31:02.003;599616793312205196;3637.9783;399
2024-05-20T22:31:02.011;599616793319896568;3645.6697;445
2024-05-20T22:31:02.019;599616793327587940;3653.361;466
2024-05-20T22:31:02.027;599616793335279312;3661.0525;461
2024-05-20T22:31:02.034;599616793342970684;3668.744;457
2024-05-20T22:31:02.042;599616793350662056;3676.4353;461
2024-05-20T22:31:02.050;599616793358353428;3684.1267;464
2024-05-20T22:31:02.057;599616793366044800;3691.8179;454
2024-05-20T22:31:02.065;599616793373736172;3699.5093;449
2024-05-20T22:31:02.073;599616793381427544;3707.2007;440
2024-05-20T22:31:02.080;599616793389118916;3714.892;409
2024-05-20T22:31:02.088;599616793396810288;3722.5835;390
2024-05-20T22:31:02.096;599616793404501660;3730.275;414
2024-05-20T22:31:02.103;599616793412193032;3737.966;430
2024-05-20T22:31:02.111;599616793419884404;3745.6577;411
2024-05-20T22:31:02.119;599616793427575776;3753.3489;378
2024-05-20T22:31:02.127;599616793435267148;3761.0403;373
2024-05-20T22:31:02.134;599616793442958520;3768.7317;390
2024-05-20T22:31:02.142;599616793450649892;3776.423;395
2024-05-20T22:31:02.150;599616793458341264;3784.1145;404
2024-05-20T22:31:02.157;599616793466032636;3791.8057;430
2024-05-20T22:31:02.165;599616793473724008;3799.4973;440
2024-05-20T22:31:02.173;599616793481415380;3807.1885;416
2024-05-20T22:31:02.180;599616793489106752;3814.88;416
2024-05-20T22:31:02.188;599616793496798124;3822.5713;457
2024-05-20T22:31:02.196;599616793504489496;3830.2627;471
2024-05-20T22:31:02.203;599616793512180868;3837.954;442
2024-05-20T22:31:02.211;599616793519872240;3845.6453;433
2024-05-20T22:31:02.219;599616793527563612;3853.337;447
2024-05-20T22:31:02.227;599616793535254984;3861.028;452
2024-05-20T22:31:02.234;599616793542946356;3868.7197;445
2024-05-20T22:31:02.242;599616793550637728;3876.411;449
2024-05-20T22:31:02.250;599616793558329100;3884.102;468
2024-05-20T22:31:02.257;599616793566020472;3891.7937;471
2024-05-20T22:31:02.265;599616793573711844;3899.4849;442
2024-05-20T22:31:02.273;599616793581403216;3907.1765;437
2024-05-20T22:31:02.280;599616793589094588;3914.8677;461
2024-05-20T22:31:02.288;599616793596785960;3922.5593;468
2024-05-20T22:31:02.296;599616793604477340;3930.2505;437
2024-05-20T22:31:02.303;599616793612168712;3937.9417;402
2024-05-20T22:31:02.311;599616793619860084;3945.6333;390
2024-05-20T22:31:02.319;599616793627551456;3953.3245;385
2024-05-20T22:31:02.327;599616793635242828;3961.016;361
2024-05-20T22:31:02.334;599616793642934200;3968.7073;333
2024-05-20T22:31:02.342;599616793650625572;3976.399;311
2024-05-20T22:31:02.350;599616793658316944;3984.09;278
2024-05-20T22:31:02.357;599616793666008316;3991.7815;190
2024-05-20T22:31:02.365;599616793673699688;3999.473;88
2024-05-20T22:31:02.373;599616793681391060;4007.164;-4
2024-05-20T22:31:02.380;599616793689082432;4014.8557;-76
2024-05-20T22:31:02.388;599616793696773804;4022.5469;114
2024-05-20T22:31:02.396;599616793704465176;4030.2385;609
2024-05-20T22:31:02.403;599616793712156548;4037.9297;899
2024-05-20T22:31:02.411;599616793719847920;4045.621;564
2024-05-20T22:31:02.419;599616793727539292;4053.3125;-35
2024-05-20T22:31:02.427;599616793735230664;4061.0037;-228
2024-05-20T22:31:02.434;599616793742922036;4068.6953;-66
2024-05-20T22:31:02.442;599616793750613408;4076.3865;-42
2024-05-20T22:31:02.450;599616793758304780;4084.078;-126
2024-05-20T22:31:02.457;599616793765996152;4091.7693;-78
2024-05-20T22:31:02.465;599616793773687524;4099.4604;-21
2024-05-20T22:31:02.473;599616793781378896;4107.1523;-28
2024-05-20T22:31:02.480;599616793789070268;4114.8433;-4
2024-05-20T22:31:02.488;599616793796761640;4122.5347;52
2024-05-20T22:31:02.496;599616793804453012;4130.226;61
2024-05-20T22:31:02.503;599616793812144384;4137.9175;59
2024-05-20T22:31:02.511;599616793819835756;4145.609;92
2024-05-20T22:31:02.519;599616793827527128;4153.3003;130
2024-05-20T22:31:02.526;599616793835218500;4160.9917;152
2024-05-20T22:31:02.534;599616793842909872;4168.683;164
2024-05-20T22:31:02.542;599616793850601244;4176.3745;183
2024-05-20T22:31:02.550;599616793858292616;4184.066;216
2024-05-20T22:31:02.557;599616793865983988;4191.757;252
2024-05-20T22:31:02.565;599616793873675360;4199.4487;276
2024-05-20T22:31:02.573;599616793881366732;4207.1396;307
2024-05-20T22:31:02.580;599616793889058104;4214.8315;340
2024-05-20T22:31:02.588;599616793896749476;4222.5225;347
2024-05-20T22:31:02.596;599616793904440848;4230.214;347
2024-05-20T22:31:02.603;599616793912132220;4237.9053;352
2024-05-20T22:31:02.611;599616793919823592;4245.5967;328
2024-05-20T22:31:02.619;599616793927514964;4253.288;304
2024-05-20T22:31:02.626;599616793935206336;4260.9795;314
2024-05-20T22:31:02.634;599616793942897708;4268.671;314
2024-05-20T22:31:02.642;599616793950589080;4276.3623;309
2024-05-20T22:31:02.650;599616793958280452;4284.0537;316
2024-05-20T22:31:02.657;599616793965971824;4291.745;316
2024-05-20T22:31:02.665;599616793973663196;4299.4365;304
2024-05-20T22:31:02.673;599616793981354568;4307.128;302
2024-05-20T22:31:02.680;599616793989045940;4314.819;285
2024-05-20T22:31:02.688;599616793996737312;4322.5103;273
2024-05-20T22:31:02.696;599616794004428684;4330.2017;307
2024-05-20T22:31:02.703;599616794012120056;4337.8936;345
2024-05-20T22:31:02.711;599616794019811428;4345.5845;338
2024-05-20T22:31:02.719;599616794027502800;4353.276;328
2024-05-20T22:31:02.726;599616794035194172;4360.9673;342
2024-05-20T22:31:02.734;599616794042885544;4368.659;352
2024-05-20T22:31:02.742;599616794050576916;4376.35;340
2024-05-20T22:31:02.750;599616794058268288;4384.0415;342
2024-05-20T22:31:02.757;599616794065959660;4391.733;373
2024-05-20T22:31:02.765;599616794073651032;4399.424;390
2024-05-20T22:31:02.773;599616794081342404;4407.1157;364
2024-05-20T22:31:02.780;599616794089033776;4414.807;354
2024-05-20T22:31:02.788;599616794096725148;4422.4985;385
2024-05-20T22:31:02.796;599616794104416520;4430.1895;411
2024-05-20T22:31:02.803;599616794112107892;4437.881;395
2024-05-20T22:31:02.811;599616794119799264;4445.5728;378
2024-05-20T22:31:02.819;599616794127490636;4453.2637;385
2024-05-20T22:31:02.826;599616794135182008;4460.955;397
2024-05-20T22:31:02.834;599616794142873380;4468.6465;399
2024-05-20T22:31:02.842;599616794150564752;4476.338;399
2024-05-20T22:31:02.850;599616794158256124;4484.0293;378
2024-05-20T22:31:02.857;599616794165977600;4491.751;328
2024-05-20T22:31:02.865;599616794173668554;4499.442;302
2024-05-20T22:31:02.873;599616794181359508;4507.133;295
2024-05-20T22:31:02.880;599616794189050462;4514.8237;247
2024-05-20T22:31:02.888;599616794196741416;4522.5146;185
2024-05-20T22:31:02.896;599616794204432370;4530.2056;197
2024-05-20T22:31:02.903;599616794212123324;4537.8965;230
2024-05-20T22:31:02.911;599616794219814278;4545.5874;197
2024-05-20T22:31:02.919;599616794227505232;4553.2783;119
2024-05-20T22:31:02.926;599616794235196186;4560.969;71
2024-05-20T22:31:02.934;599616794242887140;4568.6606;88
2024-05-20T22:31:02.942;599616794250578094;4576.351;102
2024-05-20T22:31:02.950;599616794258269048;4584.042;45
2024-05-20T22:31:02.957;599616794265960002;4591.7334;-14
2024-05-20T22:31:02.965;599616794273650956;4599.424;-45
2024-05-20T22:31:02.973;599616794281341910;4607.115;-83
2024-05-20T22:31:02.980;599616794289032864;4614.806;-35
2024-05-20T22:31:02.988;599616794296723818;4622.4966;273
2024-05-20T22:31:02.996;599616794304414772;4630.188;756
2024-05-20T22:31:03.003;599616794312105726;4637.879;966
2024-05-20T22:31:03.011;599616794319796680;4645.57;576
2024-05-20T22:31:03.019;599616794327487634;4653.2607;-4
2024-05-20T22:31:03.026;599616794335178588;4660.9517;-130
2024-05-20T22:31:03.034;599616794342869542;4668.6426;23
2024-05-20T22:31:03.042;599616794350560496;4676.3335;-21
2024-05-20T22:31:03.050;599616794358251450;4684.025;-95
2024-05-20T22:31:03.057;599616794365942404;4691.716;-23
2024-05-20T22:31:03.065;599616794373633358;4699.4062;19
2024-05-20T22:31:03.073;599616794381324312;4707.0977;-2
2024-05-20T22:31:03.080;599616794389015266;4714.7886;14
2024-05-20T22:31:03.088;599616794396706220;4722.4795;45
2024-05-20T22:31:03.096;599616794404397174;4730.1704;28
2024-05-20T22:31:03.103;599616794412088128;4737.8613;11
2024-05-20T22:31:03.111;599616794419779082;4745.5522;49
2024-05-20T22:31:03.119;599616794427470036;4753.243;99
2024-05-20T22:31:03.126;599616794435160990;4760.9346;111
2024-05-20T22:31:03.134;599616794442851944;4768.625;109
2024-05-20T22:31:03.142;599616794450542898;4776.316;130
2024-05-20T22:31:03.150;599616794458233852;4784.0073;171
2024-05-20T22:31:03.157;599616794465924806;4791.6978;199
2024-05-20T22:31:03.165;599616794473615760;4799.3887;221
2024-05-20T22:31:03.173;599616794481306714;4807.08;254
2024-05-20T22:31:03.180;599616794488997668;4814.7705;280
2024-05-20T22:31:03.188;599616794496688622;4822.462;288
2024-05-20T22:31:03.196;599616794504379576;4830.153;297
2024-05-20T22:31:03.203;599616794512070530;4837.8433;326
2024-05-20T22:31:03.211;599616794519761484;4845.5347;347
2024-05-20T22:31:03.219;599616794527452438;4853.2256;352
2024-05-20T22:31:03.226;599616794535143392;4860.9165;349
2024-05-20T22:31:03.234;599616794542834346;4868.6074;340
2024-05-20T22:31:03.242;599616794550525300;4876.2983;328
2024-05-20T22:31:03.249;599616794558216254;4883.9897;328
2024-05-20T22:31:03.257;599616794565907208;4891.68;330
2024-05-20T22:31:03.265;599616794573598162;4899.3716;330
2024-05-20T22:31:03.273;599616794581289116;4907.0625;333
2024-05-20T22:31:03.280;599616794588980070;4914.753;323
2024-05-20T22:31:03.288;599616794596671024;4922.4443;316
2024-05-20T22:31:03.296;599616794604361978;4930.1353;333
2024-05-20T22:31:03.303;599616794612052932;4937.826;354
2024-05-20T22:31:03.311;599616794619743886;4945.517;357
2024-05-20T22:31:03.319;599616794627434840;4953.208;354
2024-05-20T22:31:03.326;599616794635125794;4960.899;352
2024-05-20T22:31:03.334;599616794642816748;4968.59;359
2024-05-20T22:31:03.342;599616794650507702;4976.2812;354
2024-05-20T22:31:03.349;599616794658198656;4983.9717;328
2024-05-20T22:31:03.357;599616794665889610;4991.6626;326
2024-05-20T22:31:03.365;599616794673580564;4999.354;347
2024-05-20T22:31:03.373;599616794681271518;5007.0444;338
2024-05-20T22:31:03.380;599616794688962472;5014.736;290
2024-05-20T22:31:03.388;599616794696653426;5022.427;226
2024-05-20T22:31:03.396;599616794704344380;5030.117;195
2024-05-20T22:31:03.403;599616794712035334;5037.8086;216
2024-05-20T22:31:03.411;599616794719726288;5045.4995;233
2024-05-20T22:31:03.419;599616794727387150;5053.1606;218
2024-05-20T22:31:03.426;599616794735078522;5060.8516;223
2024-05-20T22:31:03.434;599616794742769894;5068.543;247
2024-05-20T22:31:03.442;599616794750461266;5076.2344;259
2024-05-20T22:31:03.449;599616794758152638;5083.926;271
2024-05-20T22:31:03.457;599616794765844010;5091.617;273
2024-05-20T22:31:03.465;599616794773535382;5099.3086;252
2024-05-20T22:31:03.472;599616794781226754;5107.0;257
2024-05-20T22:31:03.480;599616794788918126;5114.691;295
2024-05-20T22:31:03.488;599616794796609498;5122.383;288
2024-05-20T22:31:03.496;599616794804300870;5130.074;245
2024-05-20T22:31:03.503;599616794811992242;5137.765;240
2024-05-20T22:31:03.511;599616794819683614;5145.4565;252
2024-05-20T22:31:03.519;599616794827374986;5153.148;228
2024-05-20T22:31:03.526;599616794835066358;5160.84;188
2024-05-20T22:31:03.534;599616794842757730;5168.531;190
2024-05-20T22:31:03.542;599616794850449102;5176.222;209
2024-05-20T22:31:03.549;599616794858140474;5183.9136;178
2024-05-20T22:31:03.557;599616794865831846;5191.6055;92
2024-05-20T22:31:03.565;599616794873523218;5199.2964;66
2024-05-20T22:31:03.572;599616794881214590;5206.988;247
2024-05-20T22:31:03.580;599616794888905962;5214.679;652
2024-05-20T22:31:03.588;599616794896597334;5222.37;973
2024-05-20T22:31:03.596;599616794904288706;5230.062;780
2024-05-20T22:31:03.603;599616794911980078;5237.7534;161
2024-05-20T22:31:03.611;599616794919671450;5245.445;-209
2024-05-20T22:31:03.619;599616794927362822;5253.1357;-121
2024-05-20T22:31:03.626;599616794935054194;5260.827;-40
2024-05-20T22:31:03.634;599616794942745566;5268.519;-107
2024-05-20T22:31:03.642;599616794950436938;5276.21;-114
2024-05-20T22:31:03.649;599616794958128310;5283.9014;-80
2024-05-20T22:31:03.657;599616794965819682;5291.593;-71
2024-05-20T22:31:03.665;599616794973511054;5299.284;-47
2024-05-20T22:31:03.672;599616794981202426;5306.9756;-21
2024-05-20T22:31:03.680;599616794988893798;5314.667;-4
2024-05-20T22:31:03.688;599616794996585170;5322.3584;14
2024-05-20T22:31:03.696;599616795004276542;5330.0493;30
2024-05-20T22:31:03.703;599616795011967914;5337.741;38
2024-05-20T22:31:03.711;599616795019659286;5345.4326;57
2024-05-20T22:31:03.719;599616795027350658;5353.124;85
2024-05-20T22:31:03.726;599616795035042030;5360.815;114
2024-05-20T22:31:03.734;599616795042733402;5368.5063;123
2024-05-20T22:31:03.742;599616795050424774;5376.198;126
2024-05-20T22:31:03.749;599616795058116146;5383.8896;149
2024-05-20T22:31:03.757;599616795065807518;5391.5806;185
2024-05-20T22:31:03.765;599616795073498890;5399.272;199
2024-05-20T22:31:03.772;599616795081190262;5406.9634;228
2024-05-20T22:31:03.780;599616795088881634;5414.655;264
2024-05-20T22:31:03.788;599616795096573006;5422.346;252
2024-05-20T22:31:03.796;599616795104264378;5430.0376;240
2024-05-20T22:31:03.803;599616795111955750;5437.729;271
2024-05-20T22:31:03.811;599616795119647122;5445.42;292
2024-05-20T22:31:03.819;599616795127338494;5453.112;285
2024-05-20T22:31:03.826;599616795135029866;5460.803;273
2024-05-20T22:31:03.834;599616795142721238;5468.494;233
2024-05-20T22:31:03.842;599616795150412610;5476.1855;178
2024-05-20T22:31:03.849;599616795158103982;5483.8774;169
2024-05-20T22:31:03.857;599616795165795354;5491.569;185
2024-05-20T22:31:03.865;599616795173486726;5499.26;199
2024-05-20T22:31:03.872;599616795181178098;5506.951;211
2024-05-20T22:31:03.880;599616795188869470;5514.6426;202
2024-05-20T22:31:03.888;599616795196560842;5522.334;154
2024-05-20T22:31:03.896;599616795204252214;5530.0254;116
2024-05-20T22:31:03.903;599616795211943586;5537.717;133
2024-05-20T22:31:03.911;599616795219634958;5545.408;159
2024-05-20T22:31:03.919;599616795227326330;5553.099;161
2024-05-20T22:31:03.926;599616795235017702;5560.791;173
2024-05-20T22:31:03.934;599616795242709074;5568.4824;188
2024-05-20T22:31:03.942;599616795250400446;5576.1733;192
2024-05-20T22:31:03.949;599616795258091818;5583.8647;211
2024-05-20T22:31:03.957;599616795265783190;5591.5566;247
2024-05-20T22:31:03.965;599616795273474562;5599.248;252
2024-05-20T22:31:03.972;599616795281165934;5606.939;228
2024-05-20T22:31:03.980;599616795288887410;5614.6606;235
2024-05-20T22:31:03.988;599616795296578364;5622.3516;273
2024-05-20T22:31:03.996;599616795304269318;5630.0425;283
2024-05-20T22:31:04.003;599616795311960272;5637.7334;276
2024-05-20T22:31:04.011;599616795319651226;5645.425;288
2024-05-20T22:31:04.019;599616795327342180;5653.115;283
2024-05-20T22:31:04.026;599616795335033134;5660.806;245
2024-05-20T22:31:04.034;599616795342724088;5668.4976;195
2024-05-20T22:31:04.042;599616795350415042;5676.188;185
2024-05-20T22:31:04.049;599616795358105996;5683.879;216
2024-05-20T22:31:04.057;599616795365796950;5691.5703;218
2024-05-20T22:31:04.065;599616795373487904;5699.2607;188
2024-05-20T22:31:04.072;599616795381178858;5706.952;197
2024-05-20T22:31:04.080;599616795388869812;5714.643;216
2024-05-20T22:31:04.088;599616795396560766;5722.3335;195
2024-05-20T22:31:04.096;599616795404251720;5730.025;180
2024-05-20T22:31:04.103;599616795411942674;5737.716;204
2024-05-20T22:31:04.111;599616795419633628;5745.4067;221
2024-05-20T22:31:04.119;599616795427324582;5753.0977;221
2024-05-20T22:31:04.126;599616795435015536;5760.7886;211
2024-05-20T22:31:04.134;599616795442706490;5768.48;195
2024-05-20T22:31:04.142;599616795450397444;5776.1704;176
2024-05-20T22:31:04.149;599616795458088398;5783.862;142
2024-05-20T22:31:04.157;599616795465779352;5791.5527;119
2024-05-20T22:31:04.165;599616795473470306;5799.243;233
2024-05-20T22:31:04.172;599616795481161260;5806.9346;587
2024-05-20T22:31:04.180;599616795488852214;5814.6255;985
2024-05-20T22:31:04.188;599616795496543168;5822.3164;945
2024-05-20T22:31:04.196;599616795504234122;5830.0073;364
2024-05-20T22:31:04.203;599616795511925076;5837.698;-123
2024-05-20T22:31:04.211;599616795519616030;5845.389;-102
2024-05-20T22:31:04.219;599616795527306984;5853.08;-4
2024-05-20T22:31:04.226;599616795534997938;5860.7715;-85
2024-05-20T22:31:04.234;599616795542688892;5868.462;-99
2024-05-20T22:31:04.242;599616795550379846;5876.153;-52
2024-05-20T22:31:04.249;599616795558070800;5883.844;-71
2024-05-20T22:31:04.257;599616795565761754;5891.5347;-69
2024-05-20T22:31:04.265;599616795573452708;5899.226;-19
2024-05-20T22:31:04.272;599616795581143662;5906.917;-7
2024-05-20T22:31:04.280;599616795588834616;5914.6074;-9
2024-05-20T22:31:04.288;599616795596525570;5922.299;19
2024-05-20T22:31:04.295;599616795604216524;5929.9897;33
2024-05-20T22:31:04.303;599616795611907478;5937.6807;11
2024-05-20T22:31:04.311;599616795619598432;5945.3716;35
2024-05-20T22:31:04.319;599616795627289386;5953.0625;90
2024-05-20T22:31:04.326;599616795634980340;5960.754;95
2024-05-20T22:31:04.334;599616795642671294;5968.4443;64
2024-05-20T22:31:04.342;599616795650362248;5976.1353;78
2024-05-20T22:31:04.349;599616795658053202;5983.8267;126
2024-05-20T22:31:04.357;599616795665744156;5991.517;147
2024-05-20T22:31:04.365;599616795673435110;5999.2085;152
2024-05-20T22:31:04.372;599616795681126064;6006.8994;183
2024-05-20T22:31:04.380;599616795688817018;6014.59;211
2024-05-20T22:31:04.388;599616795696507972;6022.2812;207
2024-05-20T22:31:04.395;599616795704198926;6029.972;169
2024-05-20T22:31:04.403;599616795711889880;6037.663;121
2024-05-20T22:31:04.411;599616795719580834;6045.354;123
2024-05-20T22:31:04.419;599616795727271788;6053.045;140
2024-05-20T22:31:04.426;599616795734962742;6060.736;121
2024-05-20T22:31:04.434;599616795742653696;6068.427;111
2024-05-20T22:31:04.442;599616795750344650;6076.118;133
2024-05-20T22:31:04.449;599616795758035604;6083.8086;135
2024-05-20T22:31:04.457;599616795765726558;6091.4995;126
2024-05-20T22:31:04.465;599616795773417512;6099.191;152
2024-05-20T22:31:04.472;599616795781108466;6106.8813;178
2024-05-20T22:31:04.480;599616795788799420;6114.5728;157
2024-05-20T22:31:04.488;599616795796490374;6122.2637;147
2024-05-20T22:31:04.495;599616795804181328;6129.954;185
2024-05-20T22:31:04.503;599616795811872282;6137.6455;216
2024-05-20T22:31:04.511;599616795819563236;6145.3364;216
2024-05-20T22:31:04.519;599616795827254190;6153.0273;221
2024-05-20T22:31:04.526;599616795834945144;6160.7183;235
2024-05-20T22:31:04.534;599616795842636098;6168.409;240
2024-05-20T22:31:04.542;599616795850296960;6176.0703;242
2024-05-20T22:31:04.549;599616795857988332;6183.761;247
2024-05-20T22:31:04.557;599616795865679704;6191.4526;261
2024-05-20T22:31:04.565;599616795873371076;6199.1445;276
2024-05-20T22:31:04.572;599616795881062448;6206.836;252
2024-05-20T22:31:04.580;599616795888753820;6214.527;209
2024-05-20T22:31:04.588;599616795896445192;6222.2183;211
2024-05-20T22:31:04.595;599616795904136564;6229.9097;223
2024-05-20T22:31:04.603;599616795911827936;6237.601;171
2024-05-20T22:31:04.611;599616795919519308;6245.2925;128
2024-05-20T22:31:04.618;599616795927210680;6252.984;149
2024-05-20T22:31:04.626;599616795934902052;6260.6753;169
2024-05-20T22:31:04.634;599616795942593424;6268.366;159
2024-05-20T22:31:04.642;599616795950284796;6276.058;169
2024-05-20T22:31:04.649;599616795957976168;6283.7495;207
2024-05-20T22:31:04.657;599616795965667540;6291.4404;218
2024-05-20T22:31:04.665;599616795973358912;6299.132;202
2024-05-20T22:31:04.672;599616795981050284;6306.8237;218
2024-05-20T22:31:04.680;599616795988741656;6314.515;254
2024-05-20T22:31:04.688;599616795996433028;6322.206;261
2024-05-20T22:31:04.695;599616796004124400;6329.8975;259
2024-05-20T22:31:04.703;599616796011815772;6337.589;271
2024-05-20T22:31:04.711;599616796019507144;6345.2803;271
2024-05-20T22:31:04.718;599616796027198516;6352.9717;259
2024-05-20T22:31:04.726;599616796034889888;6360.663;259
2024-05-20T22:31:04.734;599616796042581260;6368.3545;247
2024-05-20T22:31:04.742;599616796050272632;6376.0454;214
2024-05-20T22:31:04.749;599616796057964004;6383.7373;252
2024-05-20T22:31:04.757;599616796065655376;6391.4287;552
2024-05-20T22:31:04.765;599616796073346748;6399.1196;1018
2024-05-20T22:31:04.772;599616796081038120;6406.811;1133
2024-05-20T22:31:04.780;599616796088729492;6414.503;616
2024-05-20T22:31:04.788;599616796096420864;6422.1943;35
2024-05-20T22:31:04.795;599616796104112236;6429.8853;-28
2024-05-20T22:31:04.803;599616796111803608;6437.5767;61
2024-05-20T22:31:04.811;599616796119494980;6445.268;-47
2024-05-20T22:31:04.818;599616796127186352;6452.96;-126
2024-05-20T22:31:04.826;599616796134877724;6460.651;-109
2024-05-20T22:31:04.834;599616796142569096;6468.3423;-119
2024-05-20T22:31:04.842;599616796150260468;6476.0337;-142
2024-05-20T22:31:04.849;599616796157951840;6483.7246;-142
2024-05-20T22:31:04.857;599616796165643212;6491.4165;-116
2024-05-20T22:31:04.865;599616796173334584;6499.108;-83
2024-05-20T22:31:04.872;599616796181025956;6506.7993;-76
2024-05-20T22:31:04.880;599616796188717328;6514.49;-69
2024-05-20T22:31:04.888;599616796196408700;6522.1816;-45
2024-05-20T22:31:04.895;599616796204100072;6529.8735;-73
2024-05-20T22:31:04.903;599616796211791444;6537.5645;-138
2024-05-20T22:31:04.911;599616796219482816;6545.256;-121
2024-05-20T22:31:04.918;599616796227174188;6552.9473;-52
2024-05-20T22:31:04.926;599616796234865560;6560.639;-23
2024-05-20T22:31:04.934;599616796242556932;6568.33;-19
2024-05-20T22:31:04.942;599616796250248304;6576.0215;7
2024-05-20T22:31:04.949;599616796257939676;6583.713;59
2024-05-20T22:31:04.957;599616796265631048;6591.404;92
2024-05-20T22:31:04.965;599616796273322420;6599.0957;104
2024-05-20T22:31:04.972;599616796281013792;6606.787;138
2024-05-20T22:31:04.980;599616796288705164;6614.4785;161
2024-05-20T22:31:04.988;599616796296396536;6622.1694;142
2024-05-20T22:31:04.995;599616796304087908;6629.861;128
2024-05-20T22:31:05.003;599616796311779280;6637.5527;159
2024-05-20T22:31:05.011;599616796319470652;6645.244;180
2024-05-20T22:31:05.018;599616796327162024;6652.935;159
2024-05-20T22:31:05.026;599616796334853396;6660.6265;128
2024-05-20T22:31:05.034;599616796342544768;6668.318;126
2024-05-20T22:31:05.042;599616796350236140;6676.0093;145
2024-05-20T22:31:05.049;599616796357927512;6683.7007;149
2024-05-20T22:31:05.057;599616796365618884;6691.392;138
2024-05-20T22:31:05.065;599616796373310256;6699.0835;135
2024-05-20T22:31:05.072;599616796381001628;6706.775;126
2024-05-20T22:31:05.080;599616796388693000;6714.4663;95
2024-05-20T22:31:05.088;599616796396384372;6722.1577;90
2024-05-20T22:31:05.095;599616796404075744;6729.8486;128
2024-05-20T22:31:05.103;599616796411767124;6737.54;161
2024-05-20T22:31:05.111;599616796419458496;6745.232;166
2024-05-20T22:31:05.118;599616796427149868;6752.9233;169
2024-05-20T22:31:05.126;599616796434841240;6760.6143;176
2024-05-20T22:31:05.134;599616796442532612;6768.3057;169
2024-05-20T22:31:05.141;599616796450223984;6775.997;114
2024-05-20T22:31:05.149;599616796457915356;6783.6885;73
2024-05-20T22:31:05.157;599616796465606728;6791.38;116
2024-05-20T22:31:05.165;599616796473298100;6799.0713;154
2024-05-20T22:31:05.172;599616796480989472;6806.7627;130
2024-05-20T22:31:05.180;599616796488680844;6814.4536;126
2024-05-20T22:31:05.188;599616796496372216;6822.1455;161
2024-05-20T22:31:05.195;599616796504063588;6829.837;180
2024-05-20T22:31:05.203;599616796511754960;6837.528;180
2024-05-20T22:31:05.211;599616796519446332;6845.219;192
2024-05-20T22:31:05.218;599616796527137704;6852.911;197
2024-05-20T22:31:05.226;599616796534829076;6860.6025;192
2024-05-20T22:31:05.234;599616796542520448;6868.2935;211
2024-05-20T22:31:05.241;599616796550211820;6875.985;240
2024-05-20T22:31:05.249;599616796557903192;6883.6763;264
2024-05-20T22:31:05.257;599616796565594564;6891.368;273
2024-05-20T22:31:05.265;599616796573285936;6899.059;259
2024-05-20T22:31:05.272;599616796580977308;6906.7505;261
2024-05-20T22:31:05.280;599616796588668680;6914.442;299
2024-05-20T22:31:05.288;599616796596360052;6922.133;316
2024-05-20T22:31:05.295;599616796604051424;6929.8247;304
2024-05-20T22:31:05.303;599616796611742796;6937.516;304
2024-05-20T22:31:05.311;599616796619434168;6945.2075;280
2024-05-20T22:31:05.318;599616796627125540;6952.8984;185
2024-05-20T22:31:05.326;599616796634816912;6960.59;180
2024-05-20T22:31:05.334;599616796642508284;6968.2817;468
2024-05-20T22:31:05.341;599616796650199656;6975.9727;959
2024-05-20T22:31:05.349;599616796657891028;6983.664;1237
2024-05-20T22:31:05.357;599616796665582400;6991.3555;911
2024-05-20T22:31:05.365;599616796673273772;6999.0474;261
2024-05-20T22:31:05.372;599616796680965144;7006.7383;7
2024-05-20T22:31:05.380;599616796688656516;7014.4297;152
2024-05-20T22:31:05.388;599616796696347888;7022.121;164
2024-05-20T22:31:05.395;599616796704039260;7029.812;19
2024-05-20T22:31:05.403;599616796711730632;7037.504;-76
2024-05-20T22:31:05.411;599616796719422004;7045.1953;-133
2024-05-20T22:31:05.418;599616796727113376;7052.8867;-164
2024-05-20T22:31:05.426;599616796734804748;7060.5776;-157
2024-05-20T22:31:05.434;599616796742496120;7068.269;-142
2024-05-20T22:31:05.441;599616796750187492;7075.961;-142
2024-05-20T22:31:05.449;599616796757878864;7083.652;-152
2024-05-20T22:31:05.457;599616796765570236;7091.3433;-130
2024-05-20T22:31:05.465;599616796773261608;7099.0347;-99
2024-05-20T22:31:05.472;599616796780952980;7106.726;-85
2024-05-20T22:31:05.480;599616796788644352;7114.4175;-64
2024-05-20T22:31:05.488;599616796796335724;7122.109;-35
2024-05-20T22:31:05.495;599616796804027096;7129.8003;-26
2024-05-20T22:31:05.503;599616796811718468;7137.4917;-14
2024-05-20T22:31:05.511;599616796819409840;7145.183;21
2024-05-20T22:31:05.518;599616796827101212;7152.8745;61
2024-05-20T22:31:05.526;599616796834792584;7160.566;92
2024-05-20T22:31:05.534;599616796842483956;7168.257;104
2024-05-20T22:31:05.541;599616796850175328;7175.948;114
2024-05-20T22:31:05.549;599616796857866700;7183.64;140
2024-05-20T22:31:05.557;599616796865558072;7191.3315;145
2024-05-20T22:31:05.565;599616796873249444;7199.0225;119
2024-05-20T22:31:05.572;599616796880940816;7206.714;121
2024-05-20T22:31:05.580;599616796888632188;7214.4053;145
2024-05-20T22:31:05.588;599616796896323560;7222.0967;123
2024-05-20T22:31:05.595;599616796904014932;7229.788;97
2024-05-20T22:31:05.603;599616796911706304;7237.4795;116
2024-05-20T22:31:05.611;599616796919397676;7245.171;135
2024-05-20T22:31:05.618;599616796927089048;7252.8623;130
2024-05-20T22:31:05.626;599616796934780420;7260.5537;126
2024-05-20T22:31:05.634;599616796942471792;7268.245;130
2024-05-20T22:31:05.641;599616796950163164;7275.936;147
2024-05-20T22:31:05.649;599616796957854536;7283.6274;157
2024-05-20T22:31:05.657;599616796965545908;7291.3193;159
2024-05-20T22:31:05.665;599616796973267384;7299.0405;185
2024-05-20T22:31:05.672;599616796980958338;7306.7314;214
2024-05-20T22:31:05.680;599616796988649292;7314.4224;204
2024-05-20T22:31:05.688;599616796996340246;7322.114;192
2024-05-20T22:31:05.695;599616797004031200;7329.804;223
2024-05-20T22:31:05.703;599616797011722154;7337.4956;249
2024-05-20T22:31:05.711;599616797019413108;7345.1865;245
2024-05-20T22:31:05.718;599616797027104062;7352.877;247
2024-05-20T22:31:05.726;599616797034795016;7360.5684;249
2024-05-20T22:31:05.734;599616797042485970;7368.2593;223
2024-05-20T22:31:05.741;599616797050176924;7375.95;166
2024-05-20T22:31:05.749;599616797057867878;7383.641;128
2024-05-20T22:31:05.757;599616797065558832;7391.332;157
2024-05-20T22:31:05.765;599616797073249786;7399.023;183
2024-05-20T22:31:05.772;599616797080940740;7406.714;154
2024-05-20T22:31:05.780;599616797088631694;7414.405;147
2024-05-20T22:31:05.788;599616797096322648;7422.0957;190
2024-05-20T22:31:05.795;599616797104013602;7429.7866;218
2024-05-20T22:31:05.803;599616797111704556;7437.478;202
2024-05-20T22:31:05.811;599616797119395510;7445.1685;161
2024-05-20T22:31:05.818;599616797127086464;7452.8594;157
2024-05-20T22:31:05.826;599616797134777418;7460.551;185
2024-05-20T22:31:05.834;599616797142468372;7468.241;197
2024-05-20T22:31:05.841;599616797150159326;7475.9326;221
2024-05-20T22:31:05.849;599616797157850280;7483.6235;254
2024-05-20T22:31:05.857;599616797165541234;7491.314;254
2024-05-20T22:31:05.865;599616797173232188;7499.0054;235
2024-05-20T22:31:05.872;599616797180923142;7506.6963;242
2024-05-20T22:31:05.880;599616797188614096;7514.3877;276
2024-05-20T22:31:05.888;599616797196305050;7522.078;288
2024-05-20T22:31:05.895;599616797203996004;7529.769;261
2024-05-20T22:31:05.903;599616797211686958;7537.4604;176
2024-05-20T22:31:05.911;599616797219377912;7545.151;90
2024-05-20T22:31:05.918;599616797227068866;7552.8423;197
2024-05-20T22:31:05.926;599616797234759820;7560.533;597
2024-05-20T22:31:05.934;599616797242450774;7568.2236;1054
2024-05-20T22:31:05.941;599616797250141728;7575.915;1102
2024-05-20T22:31:05.949;599616797257832682;7583.606;568
2024-05-20T22:31:05.957;599616797265523636;7591.297;28
2024-05-20T22:31:05.964;599616797273214590;7598.988;23
2024-05-20T22:31:05.972;599616797280905544;7606.6787;159
2024-05-20T22:31:05.980;599616797288596498;7614.3696;59
2024-05-20T22:31:05.988;599616797296287452;7622.0605;-19
2024-05-20T22:31:05.995;599616797303978406;7629.752;9
2024-05-20T22:31:06.003;599616797311669360;7637.4424;-26
2024-05-20T22:31:06.011;599616797319360314;7645.1333;-92
2024-05-20T22:31:06.018;599616797327051268;7652.8247;-88
2024-05-20T22:31:06.026;599616797334742222;7660.515;-54
2024-05-20T22:31:06.034;599616797342433176;7668.2065;-52
2024-05-20T22:31:06.041;599616797350124130;7675.8975;-61
2024-05-20T22:31:06.049;599616797357815084;7683.588;-90
2024-05-20T22:31:06.057;599616797365506038;7691.2793;-130
2024-05-20T22:31:06.064;599616797373196992;7698.97;-130
2024-05-20T22:31:06.072;599616797380887946;7706.6606;-97
2024-05-20T22:31:06.080;599616797388578900;7714.352;-66
2024-05-20T22:31:06.088;599616797396269854;7722.043;-45
2024-05-20T22:31:06.095;599616797403960808;7729.7344;-28
2024-05-20T22:31:06.103;599616797411651762;7737.425;-14
2024-05-20T22:31:06.111;599616797419342716;7745.1157;9
2024-05-20T22:31:06.118;599616797427033670;7752.807;54
2024-05-20T22:31:06.126;599616797434724624;7760.4976;90
2024-05-20T22:31:06.134;599616797442415578;7768.189;90
2024-05-20T22:31:06.141;599616797450106532;7775.88;85
2024-05-20T22:31:06.149;599616797457797486;7783.5703;111
2024-05-20T22:31:06.157;599616797465488440;7791.2617;133
2024-05-20T22:31:06.164;599616797473179394;7798.9526;128
2024-05-20T22:31:06.172;599616797480870348;7806.6436;130
2024-05-20T22:31:06.180;599616797488561302;7814.3345;142
2024-05-20T22:31:06.188;599616797496252256;7822.0254;121
2024-05-20T22:31:06.195;599616797503943210;7829.7163;107
2024-05-20T22:31:06.203;599616797511634164;7837.407;140
2024-05-20T22:31:06.211;599616797519325118;7845.0986;164
2024-05-20T22:31:06.218;599616797527016072;7852.789;159
2024-05-20T22:31:06.226;599616797534676934;7860.45;157
2024-05-20T22:31:06.234;599616797542368306;7868.1416;164
2024-05-20T22:31:06.241;599616797550059678;7875.833;178
2024-05-20T22:31:06.249;599616797557751050;7883.524;185
2024-05-20T22:31:06.257;599616797565442422;7891.2153;190
2024-05-20T22:31:06.264;599616797573133794;7898.907;218
2024-05-20T22:31:06.272;599616797580825166;7906.5986;235
2024-05-20T22:31:06.280;599616797588516538;7914.2896;169
2024-05-20T22:31:06.287;599616797596207910;7921.981;95
2024-05-20T22:31:06.295;599616797603899282;7929.6724;104
2024-05-20T22:31:06.303;599616797611590654;7937.364;102
2024-05-20T22:31:06.311;599616797619282026;7945.055;59
2024-05-20T22:31:06.318;599616797626973398;7952.7466;66
2024-05-20T22:31:06.326;599616797634664770;7960.438;104
2024-05-20T22:31:06.334;599616797642356142;7968.1294;109
2024-05-20T22:31:06.341;599616797650047514;7975.821;111
2024-05-20T22:31:06.349;599616797657738886;7983.512;140
2024-05-20T22:31:06.357;599616797665430258;7991.203;173
2024-05-20T22:31:06.364;599616797673121630;7998.8945;180
2024-05-20T22:31:06.372;599616797680813002;8006.5864;166
2024-05-20T22:31:06.380;599616797688504374;8014.278;169
2024-05-20T22:31:06.387;599616797696195746;8021.9688;197
2024-05-20T22:31:06.395;599616797703887118;8029.66;214
2024-05-20T22:31:06.403;599616797711578490;8037.3516;197
2024-05-20T22:31:06.411;599616797719269862;8045.043;140
2024-05-20T22:31:06.418;599616797726961234;8052.7344;83
2024-05-20T22:31:06.426;599616797734652606;8060.426;85
2024-05-20T22:31:06.434;599616797742343978;8068.117;121
2024-05-20T22:31:06.441;599616797750035350;8075.8086;149
2024-05-20T22:31:06.449;599616797757726722;8083.5;176
2024-05-20T22:31:06.457;599616797765418094;8091.1914;185
2024-05-20T22:31:06.464;599616797773109466;8098.8823;176
2024-05-20T22:31:06.472;599616797780800838;8106.5737;188
2024-05-20T22:31:06.480;599616797788492210;8114.2656;221
2024-05-20T22:31:06.487;599616797796183582;8121.957;228
2024-05-20T22:31:06.495;599616797803874954;8129.648;204
2024-05-20T22:31:06.503;599616797811566326;8137.3394;188
2024-05-20T22:31:06.511;599616797819257698;8145.031;266
2024-05-20T22:31:06.518;599616797826949070;8152.7227;580
2024-05-20T22:31:06.526;599616797834640442;8160.4136;1042
2024-05-20T22:31:06.534;599616797842331814;8168.105;1216
2024-05-20T22:31:06.541;599616797850023186;8175.7964;787
2024-05-20T22:31:06.549;599616797857714558;8183.4873;152
2024-05-20T22:31:06.557;599616797865405930;8191.179;-38
2024-05-20T22:31:06.564;599616797873097302;8198.87;97
2024-05-20T22:31:06.572;599616797880788674;8206.562;85
2024-05-20T22:31:06.580;599616797888480046;8214.253;7
2024-05-20T22:31:06.587;599616797896171418;8221.945;11
2024-05-20T22:31:06.595;599616797903862790;8229.636;-2
2024-05-20T22:31:06.603;599616797911554162;8237.327;-54
2024-05-20T22:31:06.611;599616797919245534;8245.019;-88
2024-05-20T22:31:06.618;599616797926936906;8252.71;-88
2024-05-20T22:31:06.626;599616797934628278;8260.401;-66
2024-05-20T22:31:06.634;599616797942319650;8268.093;-52
2024-05-20T22:31:06.641;599616797950011022;8275.784;-59
2024-05-20T22:31:06.649;599616797957702394;8283.476;-64
2024-05-20T22:31:06.657;599616797965393766;8291.167;-42
2024-05-20T22:31:06.664;599616797973085138;8298.858;-16
2024-05-20T22:31:06.672;599616797980776510;8306.55;-2
2024-05-20T22:31:06.680;599616797988467882;8314.241;14
2024-05-20T22:31:06.687;599616797996159254;8321.933;35
2024-05-20T22:31:06.695;599616798003850626;8329.624;54
2024-05-20T22:31:06.703;599616798011541998;8337.315;64
2024-05-20T22:31:06.711;599616798019233370;8345.007;83
2024-05-20T22:31:06.718;599616798026924742;8352.698;121
2024-05-20T22:31:06.726;599616798034616114;8360.389;142
2024-05-20T22:31:06.734;599616798042307486;8368.081;123
2024-05-20T22:31:06.741;599616798049998858;8375.772;109
2024-05-20T22:31:06.749;599616798057690230;8383.464;130
2024-05-20T22:31:06.757;599616798065381602;8391.154;138
2024-05-20T22:31:06.764;599616798073072974;8398.846;123
2024-05-20T22:31:06.772;599616798080764346;8406.538;138
2024-05-20T22:31:06.780;599616798088455718;8414.229;149
2024-05-20T22:31:06.787;599616798096152138;8421.926;109
2024-05-20T22:31:06.795;599616798103843440;8429.616;61
2024-05-20T22:31:06.803;599616798111534742;8437.308;69
2024-05-20T22:31:06.810;599616798119226044;8444.999;107
2024-05-20T22:31:06.818;599616798126917346;8452.69;116
2024-05-20T22:31:06.826;599616798134608648;8460.382;104
2024-05-20T22:31:06.834;599616798142299950;8468.073;107
2024-05-20T22:31:06.841;599616798149991252;8475.765;119
2024-05-20T22:31:06.849;599616798157682554;8483.455;95
2024-05-20T22:31:06.857;599616798165373856;8491.147;54
2024-05-20T22:31:06.864;599616798173065158;8498.839;69
2024-05-20T22:31:06.872;599616798180756460;8506.53;99
2024-05-20T22:31:06.880;599616798188447762;8514.221;85
2024-05-20T22:31:06.887;599616798196139064;8521.912;78
2024-05-20T22:31:06.895;599616798203830366;8529.604;111
2024-05-20T22:31:06.903;599616798211521668;8537.295;140
2024-05-20T22:31:06.910;599616798219212970;8544.986;107
2024-05-20T22:31:06.918;599616798226904272;8552.678;42
2024-05-20T22:31:06.926;599616798234595574;8560.368;35
2024-05-20T22:31:06.934;599616798242286876;8568.06;69
2024-05-20T22:31:06.941;599616798249978178;8575.751;76
2024-05-20T22:31:06.949;599616798257669480;8583.442;88
2024-05-20T22:31:06.957;599616798265360782;8591.134;121
2024-05-20T22:31:06.964;599616798273052084;8598.825;135
2024-05-20T22:31:06.972;599616798280743386;8606.517;126
2024-05-20T22:31:06.980;599616798288434688;8614.207;130
2024-05-20T22:31:06.987;599616798296125990;8621.898;157
2024-05-20T22:31:06.995;599616798303817292;8629.59;171
2024-05-20T22:31:07.003;599616798311508594;8637.281;171
2024-05-20T22:31:07.010;599616798319199896;8644.974;180
2024-05-20T22:31:07.018;599616798326891198;8652.665;195
2024-05-20T22:31:07.026;599616798334582500;8660.356;199
2024-05-20T22:31:07.034;599616798342273802;8668.047;199
2024-05-20T22:31:07.041;599616798349965104;8675.738;202
2024-05-20T22:31:07.049;599616798357656406;8683.43;209
2024-05-20T22:31:07.057;599616798365347708;8691.121;207
2024-05-20T22:31:07.064;599616798373039010;8698.8125;192
2024-05-20T22:31:07.072;599616798380730312;8706.504;197
2024-05-20T22:31:07.080;599616798388421614;8714.195;226
2024-05-20T22:31:07.087;599616798396112916;8721.886;235
2024-05-20T22:31:07.095;599616798403804218;8729.577;226
2024-05-20T22:31:07.103;599616798411495520;8737.269;218
2024-05-20T22:31:07.110;599616798419186822;8744.96;202
2024-05-20T22:31:07.118;599616798426878124;8752.651;252
2024-05-20T22:31:07.126;599616798434569426;8760.343;542
2024-05-20T22:31:07.134;599616798442260728;8768.034;999
2024-05-20T22:31:07.141;599616798449952030;8775.725;1173
2024-05-20T22:31:07.149;599616798457643332;8783.416;742
2024-05-20T22:31:07.157;599616798465334634;8791.107;140
2024-05-20T22:31:07.164;599616798473025936;8798.799;4
2024-05-20T22:31:07.172;599616798480717238;8806.49;126
2024-05-20T22:31:07.180;599616798488408540;8814.182;45
2024-05-20T22:31:07.187;599616798496099842;8821.873;-61
2024-05-20T22:31:07.195;599616798503791144;8829.563;-42
2024-05-20T22:31:07.203;599616798511482446;8837.255;-61
2024-05-20T22:31:07.210;599616798519173748;8844.946;-111
2024-05-20T22:31:07.218;599616798526865050;8852.639;-104
2024-05-20T22:31:07.226;599616798534556352;8860.33;-64
2024-05-20T22:31:07.234;599616798542247654;8868.021;-45
2024-05-20T22:31:07.241;599616798549938956;8875.713;-59
2024-05-20T22:31:07.249;599616798557630258;8883.403;-73
2024-05-20T22:31:07.257;599616798565321560;8891.095;-54
2024-05-20T22:31:07.264;599616798573012862;8898.786;-21
2024-05-20T22:31:07.272;599616798580704164;8906.478;-16
2024-05-20T22:31:07.280;599616798588395466;8914.169;-26
2024-05-20T22:31:07.287;599616798596086768;8921.86;-45
2024-05-20T22:31:07.295;599616798603778070;8929.552;-54
2024-05-20T22:31:07.303;599616798611469372;8937.242;-35
2024-05-20T22:31:07.310;599616798619160674;8944.934;-4
2024-05-20T22:31:07.318;599616798626851976;8952.625;35
2024-05-20T22:31:07.326;599616798634543278;8960.316;76
2024-05-20T22:31:07.334;599616798642234580;8968.008;80
2024-05-20T22:31:07.341;599616798649925882;8975.699;78
2024-05-20T22:31:07.349;599616798657637302;8983.411;102
2024-05-20T22:31:07.357;599616798665328325;8991.102;121
2024-05-20T22:31:07.364;599616798673019348;8998.792;119
2024-05-20T22:31:07.372;599616798680710371;9006.483;133
2024-05-20T22:31:07.380;599616798688401394;9014.175;138
2024-05-20T22:31:07.387;599616798696092417;9021.866;71
2024-05-20T22:31:07.395;599616798703783440;9029.557;-14
2024-05-20T22:31:07.403;599616798711474463;9037.247;-19
2024-05-20T22:31:07.410;599616798719165486;9044.938;-16
2024-05-20T22:31:07.418;599616798726856509;9052.63;-95
2024-05-20T22:31:07.426;599616798734547532;9060.32;-157
2024-05-20T22:31:07.434;599616798742238555;9068.012;-128
2024-05-20T22:31:07.441;599616798749929578;9075.703;-83
2024-05-20T22:31:07.449;599616798757620601;9083.395;-66
2024-05-20T22:31:07.457;599616798765311624;9091.084;-49
2024-05-20T22:31:07.464;599616798773002647;9098.775;-11
2024-05-20T22:31:07.472;599616798780693670;9106.467;14
2024-05-20T22:31:07.480;599616798788384693;9114.158;14
2024-05-20T22:31:07.487;599616798796075716;9121.85;26
2024-05-20T22:31:07.495;599616798803766739;9129.54;54
2024-05-20T22:31:07.503;599616798811457762;9137.23;83
2024-05-20T22:31:07.510;599616798819148785;9144.922;107
2024-05-20T22:31:07.518;599616798826839808;9152.613;107
2024-05-20T22:31:07.526;599616798834530831;9160.304;80
2024-05-20T22:31:07.533;599616798842221854;9167.995;52
2024-05-20T22:31:07.541;599616798849912877;9175.687;45
2024-05-20T22:31:07.549;599616798857603900;9183.377;57
2024-05-20T22:31:07.557;599616798865294923;9191.067;88
2024-05-20T22:31:07.564;599616798872985946;9198.759;111
2024-05-20T22:31:07.572;599616798880676969;9206.45;109
2024-05-20T22:31:07.580;599616798888367992;9214.142;109
2024-05-20T22:31:07.587;599616798896059015;9221.832;140
2024-05-20T22:31:07.595;599616798903750038;9229.522;169
2024-05-20T22:31:07.603;599616798911441061;9237.214;171
2024-05-20T22:31:07.610;599616798919132084;9244.905;161
2024-05-20T22:31:07.618;599616798926823107;9252.597;171
2024-05-20T22:31:07.626;599616798934514130;9260.287;192
2024-05-20T22:31:07.633;599616798942205153;9267.979;202
2024-05-20T22:31:07.641;599616798949896176;9275.67;216
2024-05-20T22:31:07.649;599616798957587199;9283.36;252
2024-05-20T22:31:07.657;599616798965278222;9291.051;264
2024-05-20T22:31:07.664;599616798972969245;9298.742;228
2024-05-20T22:31:07.672;599616798980660268;9306.434;228
2024-05-20T22:31:07.680;599616798988351291;9314.125;268
2024-05-20T22:31:07.687;599616798996042314;9321.815;285
2024-05-20T22:31:07.695;599616799003733337;9329.506;276
2024-05-20T22:31:07.703;599616799011424360;9337.197;259
2024-05-20T22:31:07.710;599616799019115383;9344.889;223
2024-05-20T22:31:07.718;599616799026806406;9352.579;254
2024-05-20T22:31:07.726;599616799034497429;9360.2705;497
2024-05-20T22:31:07.733;599616799042188452;9367.962;928
2024-05-20T22:31:07.741;599616799049879475;9375.653;1175
2024-05-20T22:31:07.749;599616799057570498;9383.344;859
2024-05-20T22:31:07.757;599616799065261521;9391.034;218
2024-05-20T22:31:07.764;599616799072952544;9398.726;-47
2024-05-20T22:31:07.772;599616799080643567;9406.417;57
2024-05-20T22:31:07.780;599616799088334590;9414.108;0
2024-05-20T22:31:07.787;599616799096025613;9421.799;-161
2024-05-20T22:31:07.795;599616799103716636;9429.489;-166
2024-05-20T22:31:07.803;599616799111407659;9437.181;-140
2024-05-20T22:31:07.810;599616799119098682;9444.872;-171
2024-05-20T22:31:07.818;599616799126789705;9452.5625;-159
2024-05-20T22:31:07.826;599616799134480728;9460.254;-114
2024-05-20T22:31:07.833;599616799142171751;9467.945;-109
2024-05-20T22:31:07.841;599616799149862774;9475.636;-114
2024-05-20T22:31:07.849;599616799157553797;9483.326;-104
2024-05-20T22:31:07.857;599616799165244820;9491.018;-83
2024-05-20T22:31:07.864;599616799172935843;9498.709;-59
2024-05-20T22:31:07.872;599616799180626866;9506.4;-45
2024-05-20T22:31:07.880;599616799188317889;9514.092;-28
2024-05-20T22:31:07.887;599616799196008912;9521.782;0
2024-05-20T22:31:07.895;599616799203699935;9529.473;21
2024-05-20T22:31:07.903;599616799211390958;9537.164;38
2024-05-20T22:31:07.910;599616799219056908;9544.83;61
2024-05-20T22:31:07.918;599616799226748280;9552.521;78
2024-05-20T22:31:07.926;599616799234439652;9560.213;38
2024-05-20T22:31:07.933;599616799242131024;9567.903;-19
2024-05-20T22:31:07.941;599616799249822396;9575.596;-11
2024-05-20T22:31:07.949;599616799257513768;9583.287;33
2024-05-20T22:31:07.956;599616799265205140;9590.979;28
2024-05-20T22:31:07.964;599616799272896512;9598.67;-16
2024-05-20T22:31:07.972;599616799280587884;9606.361;-28
2024-05-20T22:31:07.980;599616799288279256;9614.053;2
2024-05-20T22:31:07.987;599616799295970628;9621.743;-7
2024-05-20T22:31:07.995;599616799303662000;9629.435;-38
2024-05-20T22:31:08.003;599616799311353372;9637.126;-19
2024-05-20T22:31:08.010;599616799319044744;9644.817;19
2024-05-20T22:31:08.018;599616799326736116;9652.51;16
2024-05-20T22:31:08.026;599616799334427488;9660.201;-19
2024-05-20T22:31:08.033;599616799342118860;9667.893;-26
2024-05-20T22:31:08.041;599616799349810232;9675.583;7
2024-05-20T22:31:08.049;599616799357501604;9683.274;33
2024-05-20T22:31:08.056;599616799365192976;9690.966;42
2024-05-20T22:31:08.064;599616799372884348;9698.657;73
2024-05-20T22:31:08.072;599616799380575720;9706.349;104
2024-05-20T22:31:08.080;599616799388267092;9714.04;99
2024-05-20T22:31:08.087;599616799395958464;9721.732;95
2024-05-20T22:31:08.095;599616799403649836;9729.424;130
2024-05-20T22:31:08.103;599616799411341208;9737.114;166
2024-05-20T22:31:08.110;599616799419032580;9744.806;171
2024-05-20T22:31:08.118;599616799426723952;9752.497;164
2024-05-20T22:31:08.126;599616799434415324;9760.188;176
2024-05-20T22:31:08.133;599616799442106696;9767.88;199
2024-05-20T22:31:08.141;599616799449798068;9775.571;209
2024-05-20T22:31:08.149;599616799457489440;9783.263;211
2024-05-20T22:31:08.156;599616799465180812;9790.953;233
2024-05-20T22:31:08.164;599616799472872184;9798.6455;247
2024-05-20T22:31:08.172;599616799480563556;9806.337;228
2024-05-20T22:31:08.180;599616799488254928;9814.028;230
2024-05-20T22:31:08.187;599616799495946300;9821.72;266
2024-05-20T22:31:08.195;599616799503637672;9829.411;276
2024-05-20T22:31:08.203;599616799511329044;9837.103;268
2024-05-20T22:31:08.210;599616799519020416;9844.793;278
2024-05-20T22:31:08.218;599616799526711788;9852.484;285
2024-05-20T22:31:08.226;599616799534403160;9860.176;278
2024-05-20T22:31:08.233;599616799542094532;9867.868;273
2024-05-20T22:31:08.241;599616799549785904;9875.56;288
2024-05-20T22:31:08.249;599616799557477276;9883.251;307
2024-05-20T22:31:08.256;599616799565168648;9890.942;321
2024-05-20T22:31:08.264;599616799572860020;9898.633;314
2024-05-20T22:31:08.272;599616799580551392;9906.324;290
2024-05-20T22:31:08.280;599616799588242764;9914.016;268
2024-05-20T22:31:08.287;599616799595934136;9921.707;276
2024-05-20T22:31:08.295;599616799603625508;9929.398;285
2024-05-20T22:31:08.303;599616799611316880;9937.09;290
2024-05-20T22:31:08.310;599616799619008252;9944.782;292
2024-05-20T22:31:08.318;599616799626699624;9952.473;268
2024-05-20T22:31:08.326;599616799634390996;9960.164;223
2024-05-20T22:31:08.333;599616799642082368;9967.855;197
2024-05-20T22:31:08.341;599616799649773740;9975.547;197
2024-05-20T22:31:08.349;599616799657465112;9983.238;302
2024-05-20T22:31:08.356;599616799665156484;9990.93;628
2024-05-20T22:31:08.364;599616799672847856;9998.621;1030
2024-05-20T22:31:08.372;599616799680539228;10006.312;1028
2024-05-20T22:31:08.380;599616799688230600;10014.004;447
2024-05-20T22:31:08.387;599616799695921972;10021.695;-78
2024-05-20T22:31:08.395;599616799703613344;10029.387;-61
2024-05-20T22:31:08.403;599616799711304716;10037.078;45
2024-05-20T22:31:08.410;599616799718996088;10044.77;-69
2024-05-20T22:31:08.418;599616799726687460;10052.461;-128
2024-05-20T22:31:08.426;599616799734378832;10060.151;-128
2024-05-20T22:31:08.433;599616799742070204;10067.843;-190
2024-05-20T22:31:08.441;599616799749761576;10075.534;-209
2024-05-20T22:31:08.449;599616799757452948;10083.226;-171
2024-05-20T22:31:08.456;599616799765144320;10090.918;-149
2024-05-20T22:31:08.464;599616799772835692;10098.609;-130
2024-05-20T22:31:08.472;599616799780547160;10106.32;-111
2024-05-20T22:31:08.480;599616799788238253;10114.011;-88
2024-05-20T22:31:08.487;599616799795929346;10121.702;-66
2024-05-20T22:31:08.495;599616799803620439;10129.394;-80
2024-05-20T22:31:08.503;599616799811311532;10137.085;-128
2024-05-20T22:31:08.510;599616799819002625;10144.776;-159
2024-05-20T22:31:08.518;599616799826693718;10152.467;-142
2024-05-20T22:31:08.526;599616799834384811;10160.157;-121
2024-05-20T22:31:08.533;599616799842075904;10167.849;-116
2024-05-20T22:31:08.541;599616799849766997;10175.54;-99
2024-05-20T22:31:08.549;599616799857458090;10183.231;-49
2024-05-20T22:31:08.556;599616799865149183;10190.923;-4
2024-05-20T22:31:08.564;599616799872840276;10198.613;11
2024-05-20T22:31:08.572;599616799880531369;10206.305;33
2024-05-20T22:31:08.579;599616799888222462;10213.995;71
2024-05-20T22:31:08.587;599616799895913555;10221.687;73
2024-05-20T22:31:08.595;599616799903604648;10229.378;57
2024-05-20T22:31:08.603;599616799911295741;10237.069;78
2024-05-20T22:31:08.610;599616799918986834;10244.76;109
2024-05-20T22:31:08.618;599616799926677927;10252.451;104
2024-05-20T22:31:08.626;599616799934369020;10260.142;85
2024-05-20T22:31:08.633;599616799942060113;10267.833;83
2024-05-20T22:31:08.641;599616799949751206;10275.524;97
2024-05-20T22:31:08.649;599616799957442299;10283.216;102
2024-05-20T22:31:08.656;599616799965133392;10290.906;109
2024-05-20T22:31:08.664;599616799972824485;10298.598;138
2024-05-20T22:31:08.672;599616799980515578;10306.289;169
2024-05-20T22:31:08.679;599616799988206671;10313.9795;166
2024-05-20T22:31:08.687;599616799995897764;10321.671;157
2024-05-20T22:31:08.695;599616800003588857;10329.362;185
2024-05-20T22:31:08.703;599616800011279950;10337.053;218
2024-05-20T22:31:08.710;599616800018971043;10344.744;218
2024-05-20T22:31:08.718;599616800026662136;10352.436;209
2024-05-20T22:31:08.726;599616800034353229;10360.126;218
2024-05-20T22:31:08.733;599616800042044322;10367.817;226
2024-05-20T22:31:08.741;599616800049735415;10375.509;216
2024-05-20T22:31:08.749;599616800057426508;10383.199;223
2024-05-20T22:31:08.756;599616800065117601;10390.891;233
2024-05-20T22:31:08.764;599616800072808694;10398.582;195
2024-05-20T22:31:08.772;599616800080499787;10406.273;142
2024-05-20T22:31:08.779;599616800088190880;10413.964;147
2024-05-20T22:31:08.787;599616800095881973;10421.655;188
2024-05-20T22:31:08.795;599616800103573066;10429.346;195
2024-05-20T22:31:08.803;599616800111264159;10437.037;192
2024-05-20T22:31:08.810;599616800118955252;10444.729;209
2024-05-20T22:31:08.818;599616800126646345;10452.42;216
2024-05-20T22:31:08.826;599616800134337438;10460.111;209
2024-05-20T22:31:08.833;599616800142028531;10467.802;221
2024-05-20T22:31:08.841;599616800149719624;10475.492;238
2024-05-20T22:31:08.849;599616800157410717;10483.184;254
2024-05-20T22:31:08.856;599616800165101810;10490.875;254
2024-05-20T22:31:08.864;599616800172792903;10498.566;233
2024-05-20T22:31:08.872;599616800180483996;10506.258;226
2024-05-20T22:31:08.879;599616800188175089;10513.948;257
2024-05-20T22:31:08.887;599616800195866182;10521.639;276
2024-05-20T22:31:08.895;599616800203557275;10529.33;249
2024-05-20T22:31:08.903;599616800211248368;10537.021;216
2024-05-20T22:31:08.910;599616800218939461;10544.713;204
2024-05-20T22:31:08.918;599616800226630554;10552.404;209
2024-05-20T22:31:08.926;599616800234321647;10560.096;180
2024-05-20T22:31:08.933;599616800242012740;10567.785;78
2024-05-20T22:31:08.941;599616800249703833;10575.477;2
2024-05-20T22:31:08.949;599616800257394926;10583.168;-4
2024-05-20T22:31:08.956;599616800265086019;10590.859;-57
2024-05-20T22:31:08.964;599616800272777112;10598.551;-128
2024-05-20T22:31:08.972;599616800280468205;10606.242;-114
2024-05-20T22:31:08.979;599616800288159298;10613.932;47
2024-05-20T22:31:08.987;599616800295850391;10621.623;433
2024-05-20T22:31:08.995;599616800303541484;10629.314;847
2024-05-20T22:31:09.003;599616800311232577;10637.006;776
2024-05-20T22:31:09.010;599616800318923670;10644.697;169
2024-05-20T22:31:09.018;599616800326614763;10652.389;-254
2024-05-20T22:31:09.026;599616800334305856;10660.078;-164
2024-05-20T22:31:09.033;599616800341986970;10667.761;-69
2024-05-20T22:31:09.041;599616800349678202;10675.451;-169
2024-05-20T22:31:09.049;599616800357369434;10683.143;-180
2024-05-20T22:31:09.056;599616800365060666;10690.833;-114
2024-05-20T22:31:09.064;599616800372751898;10698.524;-104
2024-05-20T22:31:09.072;599616800380443130;10706.216;-107
2024-05-20T22:31:09.079;599616800388134362;10713.907;-69
2024-05-20T22:31:09.087;599616800395825594;10721.599;-40
2024-05-20T22:31:09.095;599616800403516826;10729.29;-64
2024-05-20T22:31:09.102;599616800411208058;10736.981;-109
2024-05-20T22:31:09.110;599616800418899290;10744.672;-109
2024-05-20T22:31:09.118;599616800426590522;10752.363;-59
2024-05-20T22:31:09.126;599616800434281754;10760.055;-26
2024-05-20T22:31:09.133;599616800441972986;10767.746;-26
2024-05-20T22:31:09.141;599616800449664218;10775.4375;-9
2024-05-20T22:31:09.149;599616800457355450;10783.129;33
2024-05-20T22:31:09.156;599616800465046682;10790.82;59
2024-05-20T22:31:09.164;599616800472737914;10798.511;76
2024-05-20T22:31:09.172;599616800480429146;10806.202;114
2024-05-20T22:31:09.179;599616800488120378;10813.894;152
2024-05-20T22:31:09.187;599616800495811610;10821.585;157
2024-05-20T22:31:09.195;599616800503502842;10829.276;149
2024-05-20T22:31:09.202;599616800511194074;10836.968;176
2024-05-20T22:31:09.210;599616800518885306;10844.658;207
2024-05-20T22:31:09.218;599616800526576538;10852.35;211
2024-05-20T22:31:09.226;599616800534267770;10860.041;190
2024-05-20T22:31:09.233;599616800541959002;10867.732;178
2024-05-20T22:31:09.241;599616800549650234;10875.424;195
2024-05-20T22:31:09.249;599616800557341466;10883.115;195
2024-05-20T22:31:09.256;599616800565032698;10890.807;152
2024-05-20T22:31:09.264;599616800572723930;10898.497;130
2024-05-20T22:31:09.272;599616800580415162;10906.188;154
2024-05-20T22:31:09.279;599616800588106394;10913.88;142
2024-05-20T22:31:09.287;599616800595797626;10921.57;119
2024-05-20T22:31:09.295;599616800603488858;10929.262;152
2024-05-20T22:31:09.302;599616800611180090;10936.953;185
2024-05-20T22:31:09.310;599616800618871322;10944.645;176
2024-05-20T22:31:09.318;599616800626562554;10952.335;178
2024-05-20T22:31:09.326;599616800634253786;10960.026;202
2024-05-20T22:31:09.333;599616800641945018;10967.718;209
2024-05-20T22:31:09.341;599616800649636250;10975.409;207
2024-05-20T22:31:09.349;599616800657327482;10983.101;216
2024-05-20T22:31:09.356;599616800665018714;10990.792;238
2024-05-20T22:31:09.364;599616800672709946;10998.483;249
2024-05-20T22:31:09.372;599616800680401178;11006.174;233
2024-05-20T22:31:09.379;599616800688092410;11013.865;226
2024-05-20T22:31:09.387;599616800695783642;11021.557;252
2024-05-20T22:31:09.395;599616800703474874;11029.248;271
2024-05-20T22:31:09.402;599616800711166106;11036.939;264
2024-05-20T22:31:09.410;599616800718857338;11044.631;257
2024-05-20T22:31:09.418;599616800726548570;11052.322;261
2024-05-20T22:31:09.426;599616800734239802;11060.013;257
2024-05-20T22:31:09.433;599616800741931034;11067.704;211
2024-05-20T22:31:09.441;599616800749622266;11075.3955;152
2024-05-20T22:31:09.449;599616800757313498;11083.087;164
2024-05-20T22:31:09.456;599616800765004730;11090.778;192
2024-05-20T22:31:09.464;599616800772695962;11098.47;169
2024-05-20T22:31:09.472;599616800780387194;11106.16;161
2024-05-20T22:31:09.479;599616800788078426;11113.852;188
2024-05-20T22:31:09.487;599616800795769658;11121.543;161
2024-05-20T22:31:09.495;599616800803460890;11129.234;99
2024-05-20T22:31:09.502;599616800811152122;11136.926;59
2024-05-20T22:31:09.510;599616800818843354;11144.617;26
2024-05-20T22:31:09.518;599616800826534586;11152.309;4
2024-05-20T22:31:09.525;599616800834225818;11159.999;-14
2024-05-20T22:31:09.533;599616800841917050;11167.689;-28
2024-05-20T22:31:09.541;599616800849608282;11175.381;-35
2024-05-20T22:31:09.549;599616800857299514;11183.072;-71
2024-05-20T22:31:09.556;599616800864990746;11190.764;-111
2024-05-20T22:31:09.564;599616800872681978;11198.455;-102
2024-05-20T22:31:09.572;599616800880373210;11206.146;-76
2024-05-20T22:31:09.579;599616800888064442;11213.837;-80
2024-05-20T22:31:09.587;599616800895755674;11221.528;-80
2024-05-20T22:31:09.595;599616800903446962;11229.22;-71
2024-05-20T22:31:09.602;599616800911138194;11236.911;-104
2024-05-20T22:31:09.610;599616800918829426;11244.603;-119
2024-05-20T22:31:09.618;599616800926520658;11252.294;54
2024-05-20T22:31:09.625;599616800934211890;11259.985;478
2024-05-20T22:31:09.633;599616800941903122;11267.676;880
2024-05-20T22:31:09.641;599616800949594354;11275.367;792
2024-05-20T22:31:09.649;599616800957285586;11283.059;209
2024-05-20T22:31:09.656;599616800964976818;11290.75;-176
2024-05-20T22:31:09.664;599616800972668050;11298.441;-90
2024-05-20T22:31:09.672;599616800980359282;11306.133;-71
2024-05-20T22:31:09.679;599616800988050514;11313.824;-207
2024-05-20T22:31:09.687;599616800995741746;11321.515;-171
2024-05-20T22:31:09.695;599616801003432978;11329.206;-114
2024-05-20T22:31:09.702;599616801011124210;11336.897;-161
2024-05-20T22:31:09.710;599616801018815442;11344.589;-135
2024-05-20T22:31:09.718;599616801026506674;11352.28;-59
2024-05-20T22:31:09.725;599616801034197906;11359.972;-54
2024-05-20T22:31:09.733;599616801041889138;11367.662;-71
2024-05-20T22:31:09.741;599616801049580370;11375.354;-66
2024-05-20T22:31:09.749;599616801057271602;11383.045;-83
2024-05-20T22:31:09.756;599616801064962834;11390.736;-97
2024-05-20T22:31:09.764;599616801072654066;11398.428;-71
2024-05-20T22:31:09.772;599616801080345298;11406.119;-19
2024-05-20T22:31:09.779;599616801088036530;11413.811;11
2024-05-20T22:31:09.787;599616801095727762;11421.5;14
2024-05-20T22:31:09.795;599616801103418994;11429.191;26
2024-05-20T22:31:09.802;599616801111110226;11436.883;76
2024-05-20T22:31:09.810;599616801118801458;11444.574;126
2024-05-20T22:31:09.818;599616801126492690;11452.266;147
2024-05-20T22:31:09.825;599616801134183922;11459.957;149
2024-05-20T22:31:09.833;599616801141875154;11467.648;152
2024-05-20T22:31:09.841;599616801149566386;11475.339;176
2024-05-20T22:31:09.849;599616801157257618;11483.03;190
2024-05-20T22:31:09.856;599616801164948850;11490.722;180
2024-05-20T22:31:09.864;599616801172640082;11498.413;195
2024-05-20T22:31:09.872;599616801180331314;11506.1045;214
2024-05-20T22:31:09.879;599616801188022546;11513.796;183
2024-05-20T22:31:09.887;599616801195713778;11521.487;161
2024-05-20T22:31:09.895;599616801203405010;11529.178;183
2024-05-20T22:31:09.902;599616801211096242;11536.869;190
2024-05-20T22:31:09.910;599616801218787474;11544.561;178
2024-05-20T22:31:09.918;599616801226478706;11552.252;178
2024-05-20T22:31:09.925;599616801234169938;11559.943;180
2024-05-20T22:31:09.933;599616801241861170;11567.635;164
2024-05-20T22:31:09.941;599616801249552402;11575.326;111
2024-05-20T22:31:09.949;599616801257243634;11583.017;78
2024-05-20T22:31:09.956;599616801264934866;11590.708;111
2024-05-20T22:31:09.964;599616801272626098;11598.399;135
2024-05-20T22:31:09.972;599616801280317330;11606.091;109
2024-05-20T22:31:09.979;599616801288008562;11613.782;109
2024-05-20T22:31:09.987;599616801295699794;11621.474;133
2024-05-20T22:31:09.995;599616801303391026;11629.164;107
2024-05-20T22:31:10.002;599616801311082258;11636.855;61
2024-05-20T22:31:10.010;599616801318773490;11644.547;73
2024-05-20T22:31:10.018;599616801326464722;11652.238;95
2024-05-20T22:31:10.025;599616801334155954;11659.93;90
2024-05-20T22:31:10.033;599616801341847186;11667.62;99
2024-05-20T22:31:10.041;599616801349538418;11675.312;123
2024-05-20T22:31:10.049;599616801357229650;11683.002;135
2024-05-20T22:31:10.056;599616801364920882;11690.693;133
2024-05-20T22:31:10.064;599616801372612114;11698.385;119
2024-05-20T22:31:10.072;599616801380303346;11706.076;111
2024-05-20T22:31:10.079;599616801387994578;11713.768;111
2024-05-20T22:31:10.087;599616801395685810;11721.459;76
2024-05-20T22:31:10.095;599616801403377042;11729.15;21
2024-05-20T22:31:10.102;599616801411068274;11736.841;7
2024-05-20T22:31:10.110;599616801418759506;11744.532;-2
2024-05-20T22:31:10.118;599616801426450738;11752.224;-54
2024-05-20T22:31:10.125;599616801434141970;11759.915;-104
2024-05-20T22:31:10.133;599616801441833202;11767.606;-119
2024-05-20T22:31:10.141;599616801449524434;11775.298;-138
2024-05-20T22:31:10.148;599616801457215666;11782.989;-171
2024-05-20T22:31:10.156;599616801464916960;11790.69;-202
2024-05-20T22:31:10.164;599616801472608053;11798.382;-195
2024-05-20T22:31:10.172;599616801480299146;11806.072;-173
2024-05-20T22:31:10.179;599616801487990239;11813.763;-173
2024-05-20T22:31:10.187;599616801495681332;11821.454;-180
2024-05-20T22:31:10.195;599616801503372425;11829.1455;-180
2024-05-20T22:31:10.202;599616801511063518;11836.837;-218
2024-05-20T22:31:10.210;599616801518754611;11844.528;-297
2024-05-20T22:31:10.218;599616801526445704;11852.219;-276
2024-05-20T22:31:10.225;599616801534136797;11859.909;26
2024-05-20T22:31:10.233;599616801541827890;11867.601;511
2024-05-20T22:31:10.241;599616801549518983;11875.292;726
2024-05-20T22:31:10.248;599616801557210076;11882.983;359
2024-05-20T22:31:10.256;599616801564901169;11890.675;-192
2024-05-20T22:31:10.264;599616801572592262;11898.365;-316
2024-05-20T22:31:10.272;599616801580283355;11906.057;-176
2024-05-20T22:31:10.279;599616801587974448;11913.747;-185
2024-05-20T22:31:10.287;599616801595665541;11921.438;-223
2024-05-20T22:31:10.295;599616801603356634;11929.13;-178
2024-05-20T22:31:10.302;599616801611047727;11936.821;-166
2024-05-20T22:31:10.310;599616801618738820;11944.512;-157
2024-05-20T22:31:10.318;599616801626429913;11952.203;-107
2024-05-20T22:31:10.325;599616801634121006;11959.894;-78
2024-05-20T22:31:10.333;599616801641812099;11967.585;-76
2024-05-20T22:31:10.341;599616801649503192;11975.276;-61
2024-05-20T22:31:10.348;599616801657194285;11982.968;-38
2024-05-20T22:31:10.356;599616801664885378;11990.658;-14
2024-05-20T22:31:10.364;599616801672576471;11998.35;14
2024-05-20T22:31:10.372;599616801680267564;12006.041;52
2024-05-20T22:31:10.379;599616801687958657;12013.731;76
2024-05-20T22:31:10.387;599616801695649750;12021.423;73
2024-05-20T22:31:10.395;599616801703340843;12029.114;85
2024-05-20T22:31:10.402;599616801711031936;12036.805;123
2024-05-20T22:31:10.410;599616801718723029;12044.496;164
2024-05-20T22:31:10.418;599616801726414122;12052.1875;183
2024-05-20T22:31:10.425;599616801734105215;12059.878;183
2024-05-20T22:31:10.433;599616801741796308;12067.569;185
2024-05-20T22:31:10.441;599616801749487401;12075.261;169
2024-05-20T22:31:10.448;599616801757178494;12082.951;97
2024-05-20T22:31:10.456;599616801764869587;12090.643;52
2024-05-20T22:31:10.464;599616801772560680;12098.334;88
2024-05-20T22:31:10.472;599616801780251773;12106.025;109
2024-05-20T22:31:10.479;599616801787942866;12113.716;78
2024-05-20T22:31:10.487;599616801795633959;12121.407;38
2024-05-20T22:31:10.495;599616801803325052;12129.098;23
2024-05-20T22:31:10.502;599616801811016145;12136.789;42
2024-05-20T22:31:10.510;599616801818707238;12144.48;47
2024-05-20T22:31:10.518;599616801826398331;12152.172;23
2024-05-20T22:31:10.525;599616801834089424;12159.862;21
2024-05-20T22:31:10.533;599616801841780517;12167.554;47
2024-05-20T22:31:10.541;599616801849471610;12175.244;69
2024-05-20T22:31:10.548;599616801857162703;12182.936;83
2024-05-20T22:31:10.556;599616801864853796;12190.627;111
2024-05-20T22:31:10.564;599616801872544889;12198.318;119
2024-05-20T22:31:10.572;599616801880235982;12206.01;99
2024-05-20T22:31:10.579;599616801887927075;12213.7;97
2024-05-20T22:31:10.587;599616801895618168;12221.391;128
2024-05-20T22:31:10.595;599616801903309261;12229.082;149
2024-05-20T22:31:10.602;599616801911000354;12236.773;142
2024-05-20T22:31:10.610;599616801918691447;12244.465;140
2024-05-20T22:31:10.618;599616801926382540;12252.156;147
2024-05-20T22:31:10.625;599616801934073633;12259.848;149
2024-05-20T22:31:10.633;599616801941764726;12267.537;154
2024-05-20T22:31:10.641;599616801949455819;12275.229;171
2024-05-20T22:31:10.648;599616801957146912;12282.92;188
2024-05-20T22:31:10.656;599616801964838005;12290.611;183
2024-05-20T22:31:10.664;599616801972529098;12298.303;161
2024-05-20T22:31:10.671;599616801980220191;12305.994;161
2024-05-20T22:31:10.679;599616801987911284;12313.684;188
2024-05-20T22:31:10.687;599616801995602377;12321.375;176
2024-05-20T22:31:10.695;599616802003293470;12329.066;128
2024-05-20T22:31:10.702;599616802010984563;12336.758;116
2024-05-20T22:31:10.710;599616802018675656;12344.449;119
2024-05-20T22:31:10.718;599616802026346692;12352.12;88
2024-05-20T22:31:10.725;599616802034038064;12359.812;35
2024-05-20T22:31:10.733;599616802041729436;12367.502;-26
2024-05-20T22:31:10.741;599616802049420808;12375.193;-88
2024-05-20T22:31:10.748;599616802057112180;12382.885;-140
2024-05-20T22:31:10.756;599616802064803552;12390.577;-176
2024-05-20T22:31:10.764;599616802072494924;12398.269;-173
2024-05-20T22:31:10.771;599616802080186296;12405.96;-161
2024-05-20T22:31:10.779;599616802087877668;12413.651;-207
2024-05-20T22:31:10.787;599616802095569040;12421.342;-295
2024-05-20T22:31:10.795;599616802103260412;12429.033;-328
2024-05-20T22:31:10.802;599616802110951784;12436.725;-240
2024-05-20T22:31:10.810;599616802118643156;12444.416;69
2024-05-20T22:31:10.818;599616802126334528;12452.107;533
2024-05-20T22:31:10.825;599616802134025900;12459.8;711
2024-05-20T22:31:10.833;599616802141717272;12467.491;295
2024-05-20T22:31:10.841;599616802149408644;12475.182;-268
2024-05-20T22:31:10.848;599616802157100016;12482.873;-366
2024-05-20T22:31:10.856;599616802164791388;12490.564;-195
2024-05-20T22:31:10.864;599616802172482760;12498.256;-204
2024-05-20T22:31:10.871;599616802180174132;12505.947;-259
2024-05-20T22:31:10.879;599616802187865504;12513.639;-199
2024-05-20T22:31:10.887;599616802195556876;12521.33;-164
2024-05-20T22:31:10.895;599616802203248248;12529.0205;-185
2024-05-20T22:31:10.902;599616802210939620;12536.713;-180
2024-05-20T22:31:10.910;599616802218630992;12544.404;-149
2024-05-20T22:31:10.918;599616802226322364;12552.096;-119
2024-05-20T22:31:10.925;599616802234013736;12559.787;-99
2024-05-20T22:31:10.933;599616802241705108;12567.479;-104
2024-05-20T22:31:10.941;599616802249396480;12575.17;-102
2024-05-20T22:31:10.948;599616802257087852;12582.86;-111
2024-05-20T22:31:10.956;599616802264779224;12590.552;-166
2024-05-20T22:31:10.964;599616802272470596;12598.243;-185
2024-05-20T22:31:10.971;599616802280161968;12605.936;-138
2024-05-20T22:31:10.979;599616802287853340;12613.627;-135
2024-05-20T22:31:10.987;599616802295544712;12621.318;-178
2024-05-20T22:31:10.995;599616802303236084;12629.01;-152
2024-05-20T22:31:11.002;599616802310927456;12636.7;-80
2024-05-20T22:31:11.010;599616802318618828;12644.392;-42
2024-05-20T22:31:11.018;599616802326310200;12652.083;-30
2024-05-20T22:31:11.025;599616802334001572;12659.774;-14
2024-05-20T22:31:11.033;599616802341692944;12667.466;2
2024-05-20T22:31:11.041;599616802349384316;12675.157;14
2024-05-20T22:31:11.048;599616802357075688;12682.85;26
2024-05-20T22:31:11.056;599616802364767060;12690.541;33
2024-05-20T22:31:11.064;599616802372458432;12698.231;35
2024-05-20T22:31:11.071;599616802380149804;12705.923;26
2024-05-20T22:31:11.079;599616802387841176;12713.614;-2
2024-05-20T22:31:11.087;599616802395532548;12721.306;-14
2024-05-20T22:31:11.094;599616802403223920;12728.997;9
2024-05-20T22:31:11.102;599616802410915292;12736.688;33
2024-05-20T22:31:11.110;599616802418606664;12744.379;28
2024-05-20T22:31:11.118;599616802426298036;12752.071;26
2024-05-20T22:31:11.125;599616802433989408;12759.763;45
2024-05-20T22:31:11.133;599616802441680780;12767.454;54
2024-05-20T22:31:11.141;599616802449372152;12775.1455;57
2024-05-20T22:31:11.148;599616802457063524;12782.837;76
2024-05-20T22:31:11.156;599616802464754896;12790.528;107
2024-05-20T22:31:11.164;599616802472446268;12798.22;119
2024-05-20T22:31:11.171;599616802480137640;12805.91;102
2024-05-20T22:31:11.179;599616802487829012;12813.602;104
2024-05-20T22:31:11.187;599616802495520384;12821.293;135
2024-05-20T22:31:11.194;599616802503211756;12828.985;154
2024-05-20T22:31:11.202;599616802510903128;12836.677;149
2024-05-20T22:31:11.210;599616802518594500;12844.368;147
2024-05-20T22:31:11.218;599616802526285872;12852.06;147
2024-05-20T22:31:11.225;599616802533977244;12859.75;104
2024-05-20T22:31:11.233;599616802541668616;12867.441;59
2024-05-20T22:31:11.241;599616802549359988;12875.133;71
2024-05-20T22:31:11.248;599616802557051360;12882.824;102
2024-05-20T22:31:11.256;599616802564742732;12890.516;97
2024-05-20T22:31:11.264;599616802572434104;12898.208;80
2024-05-20T22:31:11.271;599616802580125476;12905.899;97
2024-05-20T22:31:11.279;599616802587846952;12913.62;130
2024-05-20T22:31:11.287;599616802595537906;12921.312;128
2024-05-20T22:31:11.295;599616802603228860;12929.003;95
2024-05-20T22:31:11.302;599616802610919814;12936.692;88
2024-05-20T22:31:11.310;599616802618610768;12944.384;90
2024-05-20T22:31:11.318;599616802626301722;12952.075;38
2024-05-20T22:31:11.325;599616802633992676;12959.766;-52
2024-05-20T22:31:11.333;599616802641683630;12967.457;-90
2024-05-20T22:31:11.341;599616802649374584;12975.148;-80
2024-05-20T22:31:11.348;599616802657065538;12982.838;-126
2024-05-20T22:31:11.356;599616802664756492;12990.529;-190
2024-05-20T22:31:11.364;599616802672447446;12998.221;-192
2024-05-20T22:31:11.371;599616802680138400;13005.912;-202
2024-05-20T22:31:11.379;599616802687829354;13013.603;-197
2024-05-20T22:31:11.387;599616802695520308;13021.294;38
2024-05-20T22:31:11.394;599616802703211262;13028.984;526
2024-05-20T22:31:11.402;599616802710902216;13036.675;847
2024-05-20T22:31:11.410;599616802718593170;13044.366;578
2024-05-20T22:31:11.418;599616802726284124;13052.058;-35
2024-05-20T22:31:11.425;599616802733975078;13059.748;-302
2024-05-20T22:31:11.433;599616802741666032;13067.439;-145
2024-05-20T22:31:11.441;599616802749356986;13075.13;-104
2024-05-20T22:31:11.448;599616802757047940;13082.82;-233
2024-05-20T22:31:11.456;599616802764738894;13090.512;-266
2024-05-20T22:31:11.464;599616802772429848;13098.203;-273
2024-05-20T22:31:11.471;599616802780120802;13105.895;-311
2024-05-20T22:31:11.479;599616802787811756;13113.585;-297
2024-05-20T22:31:11.487;599616802795502710;13121.276;-249
2024-05-20T22:31:11.494;599616802803193664;13128.967;-233
2024-05-20T22:31:11.502;599616802810884618;13136.657;-221
2024-05-20T22:31:11.510;599616802818575572;13144.349;-176
2024-05-20T22:31:11.518;599616802826266526;13152.04;-119
2024-05-20T22:31:11.525;599616802833957480;13159.73;-92
2024-05-20T22:31:11.533;599616802841648434;13167.422;-76
2024-05-20T22:31:11.541;599616802849339388;13175.112;-52
2024-05-20T22:31:11.548;599616802857030342;13182.804;-11
2024-05-20T22:31:11.556;599616802864721296;13190.494;33
2024-05-20T22:31:11.564;599616802872412250;13198.186;59
2024-05-20T22:31:11.571;599616802880103204;13205.877;88
2024-05-20T22:31:11.579;599616802887794158;13213.567;133
2024-05-20T22:31:11.587;599616802895485112;13221.258;152
2024-05-20T22:31:11.594;599616802903176066;13228.949;149
2024-05-20T22:31:11.602;599616802910867020;13236.64;173
2024-05-20T22:31:11.610;599616802918557974;13244.331;207
2024-05-20T22:31:11.618;599616802926248928;13252.022;216
2024-05-20T22:31:11.625;599616802933939882;13259.714;214
2024-05-20T22:31:11.633;599616802941630836;13267.403;211
2024-05-20T22:31:11.641;599616802949321790;13275.095;216
2024-05-20T22:31:11.648;599616802957012744;13282.786;216
2024-05-20T22:31:11.656;599616802964703698;13290.477;209
2024-05-20T22:31:11.664;599616802972394652;13298.168;221
2024-05-20T22:31:11.671;599616802980085606;13305.859;223
2024-05-20T22:31:11.679;599616802987776560;13313.549;192
2024-05-20T22:31:11.687;599616802995467514;13321.24;176
2024-05-20T22:31:11.694;599616803003158468;13328.932;207
2024-05-20T22:31:11.702;599616803010849422;13336.622;240
2024-05-20T22:31:11.710;599616803018540376;13344.313;240
2024-05-20T22:31:11.718;599616803026231330;13352.005;202
2024-05-20T22:31:11.725;599616803033922284;13359.696;161
2024-05-20T22:31:11.733;599616803041613238;13367.386;166
2024-05-20T22:31:11.741;599616803049304192;13375.077;173
2024-05-20T22:31:11.748;599616803056995146;13382.769;166
2024-05-20T22:31:11.756;599616803064686100;13390.459;192
2024-05-20T22:31:11.764;599616803072377054;13398.15;214
2024-05-20T22:31:11.771;599616803080068008;13405.842;183
2024-05-20T22:31:11.779;599616803087758962;13413.531;173
2024-05-20T22:31:11.787;599616803095449916;13421.223;216
2024-05-20T22:31:11.794;599616803103140870;13428.914;238
2024-05-20T22:31:11.802;599616803110831824;13436.605;230
2024-05-20T22:31:11.810;599616803118522778;13444.296;235
2024-05-20T22:31:11.817;599616803126213732;13451.987;245
2024-05-20T22:31:11.825;599616803133904686;13459.678;247
2024-05-20T22:31:11.833;599616803141595640;13467.368;242
2024-05-20T22:31:11.841;599616803149256502;13475.03;242
2024-05-20T22:31:11.848;599616803156947874;13482.722;268
2024-05-20T22:31:11.856;599616803164639246;13490.412;283
2024-05-20T22:31:11.864;599616803172330618;13498.104;254
2024-05-20T22:31:11.871;599616803180021990;13505.795;247
2024-05-20T22:31:11.879;599616803187713362;13513.486;280
2024-05-20T22:31:11.887;599616803195404734;13521.178;273
2024-05-20T22:31:11.894;599616803203096106;13528.869;214
2024-05-20T22:31:11.902;599616803210787478;13536.562;185
2024-05-20T22:31:11.910;599616803218478850;13544.252;197
2024-05-20T22:31:11.917;599616803226170222;13551.943;169
2024-05-20T22:31:11.925;599616803233861594;13559.635;119
2024-05-20T22:31:11.933;599616803241552966;13567.326;123
2024-05-20T22:31:11.941;599616803249244338;13575.018;159
2024-05-20T22:31:11.948;599616803256935710;13582.709;135
2024-05-20T22:31:11.956;599616803264627082;13590.4;35
2024-05-20T22:31:11.964;599616803272318454;13598.091;-76
2024-05-20T22:31:11.971;599616803280009826;13605.782;-80
2024-05-20T22:31:11.979;599616803287701198;13613.475;195
2024-05-20T22:31:11.987;599616803295392570;13621.166;656
2024-05-20T22:31:11.994;599616803303083942;13628.857;828
2024-05-20T22:31:12.002;599616803310775314;13636.549;392
2024-05-20T22:31:12.010;599616803318466686;13644.24;-185
2024-05-20T22:31:12.017;599616803326158058;13651.931;-276
2024-05-20T22:31:12.025;599616803333849430;13659.622;-119
2024-05-20T22:31:12.033;599616803341540802;13667.313;-154
2024-05-20T22:31:12.041;599616803349232174;13675.005;-216
2024-05-20T22:31:12.048;599616803356923546;13682.697;-180
2024-05-20T22:31:12.056;599616803364614918;13690.389;-157
2024-05-20T22:31:12.064;599616803372306290;13698.08;-145
2024-05-20T22:31:12.071;599616803379997662;13705.771;-114
2024-05-20T22:31:12.079;599616803387689034;13713.462;-88
2024-05-20T22:31:12.087;599616803395380406;13721.153;-69
2024-05-20T22:31:12.094;599616803403071778;13728.845;-59
2024-05-20T22:31:12.102;599616803410763150;13736.536;-52
2024-05-20T22:31:12.110;599616803418454522;13744.228;-28
2024-05-20T22:31:12.117;599616803426145894;13751.919;9
2024-05-20T22:31:12.125;599616803433837266;13759.611;30
2024-05-20T22:31:12.133;599616803441528638;13767.302;33
2024-05-20T22:31:12.140;599616803449220010;13774.993;47
2024-05-20T22:31:12.148;599616803456911382;13782.685;85
2024-05-20T22:31:12.156;599616803464602754;13790.376;121
2024-05-20T22:31:12.164;599616803472294126;13798.067;140
2024-05-20T22:31:12.171;599616803479985498;13805.759;164
2024-05-20T22:31:12.179;599616803487676870;13813.45;195
2024-05-20T22:31:12.187;599616803495368242;13821.141;195
2024-05-20T22:31:12.194;599616803503059614;13828.833;183
2024-05-20T22:31:12.202;599616803510750986;13836.524;197
2024-05-20T22:31:12.210;599616803518442358;13844.216;183
2024-05-20T22:31:12.217;599616803526133730;13851.907;142
2024-05-20T22:31:12.225;599616803533825102;13859.599;135
2024-05-20T22:31:12.233;599616803541516474;13867.29;145
2024-05-20T22:31:12.240;599616803549207846;13874.98;135
2024-05-20T22:31:12.248;599616803556899218;13882.672;130
2024-05-20T22:31:12.256;599616803564590590;13890.363;138
2024-05-20T22:31:12.264;599616803572281962;13898.055;154
2024-05-20T22:31:12.271;599616803579973334;13905.747;166
2024-05-20T22:31:12.279;599616803587664706;13913.438;152
2024-05-20T22:31:12.287;599616803595356078;13921.13;149
2024-05-20T22:31:12.294;599616803603047450;13928.82;185
2024-05-20T22:31:12.302;599616803610738822;13936.512;209
2024-05-20T22:31:12.310;599616803618430194;13944.203;207
2024-05-20T22:31:12.317;599616803626121566;13951.895;204
2024-05-20T22:31:12.325;599616803633812938;13959.586;216
2024-05-20T22:31:12.333;599616803641504310;13967.277;230
2024-05-20T22:31:12.340;599616803649195682;13974.97;238
2024-05-20T22:31:12.348;599616803656887054;13982.66;240
2024-05-20T22:31:12.356;599616803664578426;13990.352;259
2024-05-20T22:31:12.364;599616803672269798;13998.043;273
2024-05-20T22:31:12.371;599616803679961170;14005.734;259
2024-05-20T22:31:12.379;599616803687652542;14013.426;249
2024-05-20T22:31:12.387;599616803695343914;14021.117;271
2024-05-20T22:31:12.394;599616803703035286;14028.809;283
2024-05-20T22:31:12.402;599616803710726666;14036.499;276
2024-05-20T22:31:12.410;599616803718418038;14044.19;271
2024-05-20T22:31:12.417;599616803726109410;14051.883;268
2024-05-20T22:31:12.425;599616803733800782;14059.574;266
2024-05-20T22:31:12.433;599616803741492154;14067.266;266
2024-05-20T22:31:12.440;599616803749183526;14074.957;271
2024-05-20T22:31:12.448;599616803756874898;14082.648;280
2024-05-20T22:31:12.456;599616803764566270;14090.339;254
2024-05-20T22:31:12.464;599616803772257642;14098.03;169
2024-05-20T22:31:12.471;599616803779949014;14105.722;92
2024-05-20T22:31:12.479;599616803787640386;14113.413;88
2024-05-20T22:31:12.487;599616803795331758;14121.105;95
2024-05-20T22:31:12.494;599616803803023130;14128.797;49
2024-05-20T22:31:12.502;599616803810714502;14136.488;33
2024-05-20T22:31:12.510;599616803818405874;14144.18;66
2024-05-20T22:31:12.517;599616803826097246;14151.87;69
2024-05-20T22:31:12.525;599616803833788618;14159.562;64
2024-05-20T22:31:12.533;599616803841479990;14167.253;102
2024-05-20T22:31:12.540;599616803849171362;14174.944;116
2024-05-20T22:31:12.548;599616803856862734;14182.636;49
2024-05-20T22:31:12.556;599616803864554106;14190.327;-19
2024-05-20T22:31:12.564;599616803872245478;14198.02;76
2024-05-20T22:31:12.571;599616803879936850;14205.71;421
2024-05-20T22:31:12.579;599616803887628222;14213.401;864
2024-05-20T22:31:12.587;599616803895319594;14221.093;966
2024-05-20T22:31:12.594;599616803903010966;14228.784;499
2024-05-20T22:31:12.602;599616803910702338;14236.476;-90
2024-05-20T22:31:12.610;599616803918393710;14244.167;-223
2024-05-20T22:31:12.617;599616803926085082;14251.858;-109
2024-05-20T22:31:12.625;599616803933776454;14259.549;-142
2024-05-20T22:31:12.633;599616803941467826;14267.241;-192
2024-05-20T22:31:12.640;599616803949159198;14274.933;-154
2024-05-20T22:31:12.648;599616803956850570;14282.624;-161
2024-05-20T22:31:12.656;599616803964541942;14290.315;-169
2024-05-20T22:31:12.664;599616803972233314;14298.007;-119
2024-05-20T22:31:12.671;599616803979924686;14305.698;-102
2024-05-20T22:31:12.679;599616803987616058;14313.389;-111
2024-05-20T22:31:12.687;599616803995307430;14321.08;-85
2024-05-20T22:31:12.694;599616804002998802;14328.771;-66
2024-05-20T22:31:12.702;599616804010690174;14336.463;-90
2024-05-20T22:31:12.710;599616804018381546;14344.155;-102
2024-05-20T22:31:12.717;599616804026072918;14351.847;-66
2024-05-20T22:31:12.725;599616804033764290;14359.538;-30
2024-05-20T22:31:12.733;599616804041455662;14367.229;-42
2024-05-20T22:31:12.740;599616804049147034;14374.92;-38
2024-05-20T22:31:12.748;599616804056838406;14382.611;9
2024-05-20T22:31:12.756;599616804064529778;14390.303;42
2024-05-20T22:31:12.763;599616804072221150;14397.994;49
2024-05-20T22:31:12.771;599616804079912522;14405.686;78
2024-05-20T22:31:12.779;599616804087603894;14413.378;111
2024-05-20T22:31:12.787;599616804095295266;14421.068;109
2024-05-20T22:31:12.794;599616804102986638;14428.76;104
2024-05-20T22:31:12.802;599616804110678010;14436.451;128
2024-05-20T22:31:12.810;599616804118369382;14444.143;154
2024-05-20T22:31:12.817;599616804126060754;14451.834;159
2024-05-20T22:31:12.825;599616804133752126;14459.525;147
2024-05-20T22:31:12.833;599616804141443498;14467.217;135
2024-05-20T22:31:12.840;599616804149134870;14474.907;138
2024-05-20T22:31:12.848;599616804156826242;14482.599;147
2024-05-20T22:31:12.856;599616804164517614;14490.291;149
2024-05-20T22:31:12.863;599616804172208986;14497.982;159
2024-05-20T22:31:12.871;599616804179900358;14505.674;173
2024-05-20T22:31:12.879;599616804187591730;14513.365;164
2024-05-20T22:31:12.887;599616804195283102;14521.057;152
2024-05-20T22:31:12.894;599616804202974474;14528.747;180
2024-05-20T22:31:12.902;599616804210665846;14536.438;216
2024-05-20T22:31:12.910;599616804218357218;14544.13;211
2024-05-20T22:31:12.917;599616804226048590;14551.821;195
2024-05-20T22:31:12.925;599616804233739962;14559.514;204
2024-05-20T22:31:12.933;599616804241431334;14567.205;226
2024-05-20T22:31:12.940;599616804249122706;14574.896;238
2024-05-20T22:31:12.948;599616804256814078;14582.587;221
2024-05-20T22:31:12.956;599616804264505450;14590.278;195
2024-05-20T22:31:12.964;599616804272226926;14598.0;176
2024-05-20T22:31:12.971;599616804279917880;14605.69;121
2024-05-20T22:31:12.979;599616804287608834;14613.382;71
2024-05-20T22:31:12.987;599616804295299788;14621.073;99
2024-05-20T22:31:12.994;599616804302990742;14628.764;130
2024-05-20T22:31:13.002;599616804310681696;14636.455;116
2024-05-20T22:31:13.010;599616804318372650;14644.146;121
2024-05-20T22:31:13.017;599616804326063604;14651.836;140
2024-05-20T22:31:13.025;599616804333754558;14659.527;116
2024-05-20T22:31:13.033;599616804341445512;14667.219;59
2024-05-20T22:31:13.040;599616804349136466;14674.909;38
2024-05-20T22:31:13.048;599616804356827420;14682.601;71
2024-05-20T22:31:13.056;599616804364518374;14690.292;85
2024-05-20T22:31:13.063;599616804372209328;14697.983;64
2024-05-20T22:31:13.071;599616804379900282;14705.673;78
2024-05-20T22:31:13.079;599616804387591236;14713.364;119
2024-05-20T22:31:13.087;599616804395282190;14721.056;142
2024-05-20T22:31:13.094;599616804402973144;14728.746;157
2024-05-20T22:31:13.102;599616804410664098;14736.4375;166
2024-05-20T22:31:13.110;599616804418355052;14744.129;166
2024-05-20T22:31:13.117;599616804426046006;14751.818;166
2024-05-20T22:31:13.125;599616804433736960;14759.51;180
2024-05-20T22:31:13.133;599616804441427914;14767.201;204
2024-05-20T22:31:13.140;599616804449118868;14774.893;226
2024-05-20T22:31:13.148;599616804456809822;14782.583;199
2024-05-20T22:31:13.156;599616804464500776;14790.274;142
2024-05-20T22:31:13.163;599616804472191730;14797.965;192
2024-05-20T22:31:13.171;599616804479882684;14805.655;478
2024-05-20T22:31:13.179;599616804487573638;14813.347;918
2024-05-20T22:31:13.187;599616804495264592;14821.038;1137
2024-05-20T22:31:13.194;599616804502955546;14828.729;778
2024-05-20T22:31:13.202;599616804510646500;14836.42;121
2024-05-20T22:31:13.210;599616804518337454;14844.111;-128
2024-05-20T22:31:13.217;599616804526028408;14851.801;-7
2024-05-20T22:31:13.225;599616804533719362;14859.492;-28
2024-05-20T22:31:13.233;599616804541410316;14867.184;-135
2024-05-20T22:31:13.240;599616804549101270;14874.875;-142
2024-05-20T22:31:13.248;599616804556792224;14882.565;-161
2024-05-20T22:31:13.256;599616804564483178;14890.257;-180
2024-05-20T22:31:13.263;599616804572174132;14897.947;-152
2024-05-20T22:31:13.271;599616804579865086;14905.638;-152
2024-05-20T22:31:13.279;599616804587556040;14913.329;-159
2024-05-20T22:31:13.287;599616804595246994;14921.0205;-126
2024-05-20T22:31:13.294;599616804602937948;14928.711;-114
2024-05-20T22:31:13.302;599616804610628902;14936.402;-130
2024-05-20T22:31:13.310;599616804618319856;14944.093;-109
2024-05-20T22:31:13.317;599616804626010810;14951.784;-66
2024-05-20T22:31:13.325;599616804633701764;14959.475;-45
2024-05-20T22:31:13.333;599616804641392718;14967.166;-40
2024-05-20T22:31:13.340;599616804649083672;14974.857;-35
2024-05-20T22:31:13.348;599616804656774626;14982.548;-14
2024-05-20T22:31:13.356;599616804664465580;14990.238;19
2024-05-20T22:31:13.363;599616804672156534;14997.93;45
2024-05-20T22:31:13.371;599616804679847488;15005.62;64
2024-05-20T22:31:13.379;599616804687538442;15013.312;83
2024-05-20T22:31:13.387;599616804695229396;15021.003;83
2024-05-20T22:31:13.394;599616804702920350;15028.694;76
2024-05-20T22:31:13.402;599616804710611304;15036.384;95
2024-05-20T22:31:13.410;599616804718302258;15044.075;123
2024-05-20T22:31:13.417;599616804725993212;15051.767;138
2024-05-20T22:31:13.425;599616804733684166;15059.457;123
2024-05-20T22:31:13.433;599616804741375120;15067.148;90
2024-05-20T22:31:13.440;599616804749066074;15074.84;49
2024-05-20T22:31:13.448;599616804756757028;15082.53;16
2024-05-20T22:31:13.456;599616804764447982;15090.221;11
2024-05-20T22:31:13.463;599616804772138936;15097.912;30
2024-05-20T22:31:13.471;599616804779829890;15105.603;30
2024-05-20T22:31:13.479;599616804787520844;15113.294;-40
2024-05-20T22:31:13.486;599616804795211798;15120.985;-97
2024-05-20T22:31:13.494;599616804802902752;15128.677;-52
2024-05-20T22:31:13.502;599616804810593706;15136.366;4
2024-05-20T22:31:13.510;599616804818284660;15144.058;-7
2024-05-20T22:31:13.517;599616804825975614;15151.749;-11
2024-05-20T22:31:13.525;599616804833636476;15159.409;19
2024-05-20T22:31:13.533;599616804841327848;15167.101;47
2024-05-20T22:31:13.540;599616804849019220;15174.792;57
2024-05-20T22:31:13.548;599616804856710592;15182.483;61
2024-05-20T22:31:13.556;599616804864401964;15190.175;85
2024-05-20T22:31:13.563;599616804872093336;15197.867;95
2024-05-20T22:31:13.571;599616804879784708;15205.559;38
2024-05-20T22:31:13.579;599616804887476080;15213.25;-9
2024-05-20T22:31:13.586;599616804895167452;15220.94;23
2024-05-20T22:31:13.594;599616804902858824;15228.632;54
2024-05-20T22:31:13.602;599616804910550196;15236.323;47
2024-05-20T22:31:13.610;599616804918241568;15244.015;59
2024-05-20T22:31:13.617;599616804925932940;15251.706;80
2024-05-20T22:31:13.625;599616804933624312;15259.397;88
2024-05-20T22:31:13.633;599616804941315684;15267.089;88
2024-05-20T22:31:13.640;599616804949007056;15274.78;97
2024-05-20T22:31:13.648;599616804956698428;15282.472;126
2024-05-20T22:31:13.656;599616804964389800;15290.163;142
2024-05-20T22:31:13.663;599616804972081172;15297.8545;128
2024-05-20T22:31:13.671;599616804979772544;15305.546;133
2024-05-20T22:31:13.679;599616804987463916;15313.237;161
2024-05-20T22:31:13.686;599616804995155288;15320.929;169
2024-05-20T22:31:13.694;599616805002846660;15328.619;159
2024-05-20T22:31:13.702;599616805010538032;15336.311;169
2024-05-20T22:31:13.710;599616805018229404;15344.003;173
2024-05-20T22:31:13.717;599616805025920776;15351.694;164
2024-05-20T22:31:13.725;599616805033612148;15359.386;166
2024-05-20T22:31:13.733;599616805041303520;15367.077;185
2024-05-20T22:31:13.740;599616805048994892;15374.769;204
2024-05-20T22:31:13.748;599616805056686264;15382.459;185
2024-05-20T22:31:13.756;599616805064377636;15390.15;126
2024-05-20T22:31:13.763;599616805072069008;15397.842;149
2024-05-20T22:31:13.771;599616805079760380;15405.533;409
2024-05-20T22:31:13.779;599616805087451752;15413.225;854
2024-05-20T22:31:13.786;599616805095143124;15420.917;1125
2024-05-20T22:31:13.794;599616805102834496;15428.608;842
2024-05-20T22:31:13.802;599616805110525868;15436.299;218
2024-05-20T22:31:13.809;599616805118217240;15443.99;-69
2024-05-20T22:31:13.817;599616805125908612;15451.682;49
2024-05-20T22:31:13.825;599616805133599984;15459.373;61
2024-05-20T22:31:13.833;599616805141291356;15467.064;-61
2024-05-20T22:31:13.840;599616805148982728;15474.756;-92
2024-05-20T22:31:13.848;599616805156674100;15482.447;-116
2024-05-20T22:31:13.856;599616805164365472;15490.139;-149
2024-05-20T22:31:13.863;599616805172056844;15497.83;-126
2024-05-20T22:31:13.871;599616805179748216;15505.521;-111
2024-05-20T22:31:13.879;599616805187439588;15513.213;-130
2024-05-20T22:31:13.886;599616805195130960;15520.904;-116
2024-05-20T22:31:13.894;599616805202822332;15528.596;-107
2024-05-20T22:31:13.902;599616805210513704;15536.287;-123
2024-05-20T22:31:13.909;599616805218205076;15543.978;-109
2024-05-20T22:31:13.917;599616805225896448;15551.669;-66
2024-05-20T22:31:13.925;599616805233587820;15559.36;-47
2024-05-20T22:31:13.933;599616805241279192;15567.053;-64
2024-05-20T22:31:13.940;599616805248970564;15574.744;-83
2024-05-20T22:31:13.948;599616805256661936;15582.436;-66
2024-05-20T22:31:13.956;599616805264353308;15590.127;-33
2024-05-20T22:31:13.963;599616805272044680;15597.817;-14
2024-05-20T22:31:13.971;599616805279736052;15605.509;7
2024-05-20T22:31:13.979;599616805287427424;15613.2;-9
2024-05-20T22:31:13.986;599616805295118796;15620.892;-90
2024-05-20T22:31:13.994;599616805302810168;15628.583;-119
2024-05-20T22:31:14.002;599616805310501540;15636.275;-64
2024-05-20T22:31:14.009;599616805318192912;15643.967;-33
2024-05-20T22:31:14.017;599616805325884284;15651.658;-33
2024-05-20T22:31:14.025;599616805333575656;15659.349;-21
2024-05-20T22:31:14.033;599616805341267028;15667.04;-19
2024-05-20T22:31:14.040;599616805348958400;15674.731;-26
2024-05-20T22:31:14.048;599616805356649772;15682.423;-30
2024-05-20T22:31:14.056;599616805364341144;15690.114;-28
2024-05-20T22:31:14.063;599616805372032516;15697.806;-21
2024-05-20T22:31:14.071;599616805379723888;15705.496;0
2024-05-20T22:31:14.079;599616805387415260;15713.188;4
2024-05-20T22:31:14.086;599616805395136736;15720.91;-4
2024-05-20T22:31:14.094;599616805402827690;15728.602;14
2024-05-20T22:31:14.102;599616805410518644;15736.291;54
2024-05-20T22:31:14.109;599616805418209598;15743.982;69
2024-05-20T22:31:14.117;599616805425900552;15751.674;59
2024-05-20T22:31:14.125;599616805433591506;15759.365;64
2024-05-20T22:31:14.133;599616805441282460;15767.056;76
2024-05-20T22:31:14.140;599616805448973414;15774.747;45
2024-05-20T22:31:14.148;599616805456664368;15782.4375;-7
2024-05-20T22:31:14.156;599616805464355322;15790.128;4
2024-05-20T22:31:14.163;599616805472046276;15797.819;49
2024-05-20T22:31:14.171;599616805479737230;15805.511;52
2024-05-20T22:31:14.179;599616805487428184;15813.201;30
2024-05-20T22:31:14.186;599616805495119138;15820.893;16
2024-05-20T22:31:14.194;599616805502810092;15828.583;19
2024-05-20T22:31:14.202;599616805510501046;15836.274;33
2024-05-20T22:31:14.209;599616805518192000;15843.965;35
2024-05-20T22:31:14.217;599616805525882954;15851.656;42
2024-05-20T22:31:14.225;599616805533573908;15859.348;61
2024-05-20T22:31:14.233;599616805541264862;15867.038;76
2024-05-20T22:31:14.240;599616805548955816;15874.729;88
2024-05-20T22:31:14.248;599616805556646770;15882.42;111
2024-05-20T22:31:14.256;599616805564337724;15890.11;128
2024-05-20T22:31:14.263;599616805572028678;15897.802;119
2024-05-20T22:31:14.271;599616805579719632;15905.493;130
2024-05-20T22:31:14.279;599616805587410586;15913.185;180
2024-05-20T22:31:14.286;599616805595101540;15920.874;199
2024-05-20T22:31:14.294;599616805602792494;15928.565;183
2024-05-20T22:31:14.302;599616805610483448;15936.257;188
2024-05-20T22:31:14.309;599616805618174402;15943.947;207
2024-05-20T22:31:14.317;599616805625865356;15951.639;209
2024-05-20T22:31:14.325;599616805633556310;15959.33;209
2024-05-20T22:31:14.333;599616805641247264;15967.0205;214
