Phone timestamp;sensor timestamp [ns];timestamp [ms];ecg [uV]
2024-05-20T22:21:54.553;599616245867413340;0.0;3549
2024-05-20T22:21:54.560;599616245875104712;7.691372;4329
2024-05-20T22:21:54.568;599616245882796084;15.382744;5032
2024-05-20T22:21:54.576;599616245890487456;23.074116;5651
2024-05-20T22:21:54.583;599616245898178828;30.765488;6277
2024-05-20T22:21:54.591;599616245905870200;38.45686;6855
2024-05-20T22:21:54.599;599616245913561572;46.14823;7345
2024-05-20T22:21:54.606;599616245921252944;53.839603;7845
2024-05-20T22:21:54.614;599616245928944316;61.530975;8390
2024-05-20T22:21:54.622;599616245936635688;69.22235;8907
2024-05-20T22:21:54.629;599616245944327060;76.91372;9300
2024-05-20T22:21:54.637;599616245952018432;84.60509;9621
2024-05-20T22:21:54.645;599616245959709804;92.29646;10026
2024-05-20T22:21:54.652;599616245967401176;99.98784;10428
2024-05-20T22:21:54.660;599616245975092548;107.67921;10756
2024-05-20T22:21:54.668;599616245982783920;115.370575;11121
2024-05-20T22:21:54.676;599616245990475292;123.06195;11475
2024-05-20T22:21:54.683;599616245998166664;130.75333;11739
2024-05-20T22:21:54.691;599616246005858036;138.4447;11982
2024-05-20T22:21:54.699;599616246013549408;146.13606;12280
2024-05-20T22:21:54.706;599616246021240780;153.82744;12608
2024-05-20T22:21:54.714;599616246028932152;161.51881;12830
2024-05-20T22:21:54.722;599616246036623524;169.21017;12937
2024-05-20T22:21:54.729;599616246044314896;176.90155;13122
2024-05-20T22:21:54.737;599616246052006268;184.59293;13365
2024-05-20T22:21:54.745;599616246059697640;192.2843;13491
2024-05-20T22:21:54.752;599616246067389012;199.97568;13622
2024-05-20T22:21:54.760;599616246075080384;207.66704;13853
2024-05-20T22:21:54.768;599616246082771756;215.35841;13989
2024-05-20T22:21:54.776;599616246090463128;223.04979;14013
2024-05-20T22:21:54.783;599616246098154500;230.74115;14117
2024-05-20T22:21:54.791;599616246105845872;238.43253;14327
2024-05-20T22:21:54.799;599616246113537244;246.1239;14510
2024-05-20T22:21:54.806;599616246121228616;253.81528;14553
2024-05-20T22:21:54.814;599616246128919988;261.50665;14548
2024-05-20T22:21:54.822;599616246136611360;269.19803;14679
2024-05-20T22:21:54.829;599616246144302732;276.8894;14815
2024-05-20T22:21:54.837;599616246151994104;284.58078;14822
2024-05-20T22:21:54.845;599616246159685476;292.27213;14898
2024-05-20T22:21:54.852;599616246167376848;299.96353;15048
2024-05-20T22:21:54.860;599616246175068220;307.65488;15072
2024-05-20T22:21:54.868;599616246182759592;315.34625;15093
2024-05-20T22:21:54.876;599616246190450964;323.03763;15143
2024-05-20T22:21:54.883;599616246198142336;330.729;15074
2024-05-20T22:21:54.891;599616246205833708;338.42035;15058
2024-05-20T22:21:54.899;599616246213525080;346.11176;15077
2024-05-20T22:21:54.906;599616246221216452;353.8031;15003
2024-05-20T22:21:54.914;599616246228907824;361.4945;15010
2024-05-20T22:21:54.922;599616246236599196;369.18585;15048
2024-05-20T22:21:54.929;599616246244290568;376.87723;14979
2024-05-20T22:21:54.937;599616246251981940;384.5686;14986
2024-05-20T22:21:54.945;599616246259673312;392.25998;15060
2024-05-20T22:21:54.952;599616246267364684;399.95135;14967
2024-05-20T22:21:54.960;599616246275056056;407.64273;14834
2024-05-20T22:21:54.968;599616246282747428;415.33408;14867
2024-05-20T22:21:54.976;599616246290438800;423.02548;14922
2024-05-20T22:21:54.983;599616246298130172;430.71683;14872
2024-05-20T22:21:54.991;599616246305821544;438.4082;14772
2024-05-20T22:21:54.999;599616246313512916;446.09958;14694
2024-05-20T22:21:55.006;599616246321204288;453.79095;14779
2024-05-20T22:21:55.014;599616246328895660;461.4823;14822
2024-05-20T22:21:55.022;599616246336587032;469.1737;14508
2024-05-20T22:21:55.029;599616246344278404;476.86505;14320
2024-05-20T22:21:55.037;599616246351969776;484.55646;14379
2024-05-20T22:21:55.045;599616246359661148;492.2478;14194
2024-05-20T22:21:55.052;599616246367352520;499.93918;14051
2024-05-20T22:21:55.060;599616246375043892;507.63055;14396
2024-05-20T22:21:55.068;599616246382735264;515.3219;14863
2024-05-20T22:21:55.076;599616246390426636;523.0133;14977
2024-05-20T22:21:55.083;599616246398118008;530.70465;14536
2024-05-20T22:21:55.091;599616246405809380;538.39606;13801
2024-05-20T22:21:55.099;599616246413500752;546.0874;13477
2024-05-20T22:21:55.106;599616246421192124;553.7788;13558
2024-05-20T22:21:55.114;599616246428883504;561.47015;13570
2024-05-20T22:21:55.122;599616246436574876;569.16156;13434
2024-05-20T22:21:55.129;599616246444266248;576.8529;13206
2024-05-20T22:21:55.137;599616246451957620;584.54425;12987
2024-05-20T22:21:55.145;599616246459648992;592.23566;12823
2024-05-20T22:21:55.152;599616246467340364;599.92706;12708
2024-05-20T22:21:55.160;599616246475031736;607.61835;12632
2024-05-20T22:21:55.168;599616246482723108;615.30975;12535
2024-05-20T22:21:55.176;599616246490414480;623.00116;12442
2024-05-20T22:21:55.183;599616246498105852;630.6925;12413
2024-05-20T22:21:55.191;599616246505797224;638.38385;12304
2024-05-20T22:21:55.199;599616246513488596;646.07526;12006
2024-05-20T22:21:55.206;599616246521179968;653.76666;11851
2024-05-20T22:21:55.214;599616246528871340;661.458;11916
2024-05-20T22:21:55.222;599616246536562712;669.14935;11823
2024-05-20T22:21:55.229;599616246544254084;676.84076;11585
2024-05-20T22:21:55.237;599616246551945456;684.5321;11520
2024-05-20T22:21:55.245;599616246559636828;692.2235;11540
2024-05-20T22:21:55.252;599616246567328200;699.91486;11423
2024-05-20T22:21:55.260;599616246575019572;707.6062;11304
2024-05-20T22:21:55.268;599616246582710944;715.2976;11273
2024-05-20T22:21:55.275;599616246590402316;722.989;11182
2024-05-20T22:21:55.283;599616246598093688;730.6803;11025
2024-05-20T22:21:55.291;599616246605785060;738.3717;10899
2024-05-20T22:21:55.299;599616246613476432;746.0631;10840
2024-05-20T22:21:55.306;599616246621167804;753.7545;10802
2024-05-20T22:21:55.314;599616246628859176;761.4458;10661
2024-05-20T22:21:55.322;599616246636550548;769.1372;10456
2024-05-20T22:21:55.329;599616246644241920;776.8286;10371
2024-05-20T22:21:55.337;599616246651933292;784.51996;10337
2024-05-20T22:21:55.345;599616246659624664;792.2113;10209
2024-05-20T22:21:55.352;599616246667316036;799.9027;10128
2024-05-20T22:21:55.360;599616246675007408;807.59406;10145
2024-05-20T22:21:55.368;599616246682698780;815.28546;10009
2024-05-20T22:21:55.375;599616246690390152;822.9768;9721
2024-05-20T22:21:55.383;599616246698081524;830.66815;9600
2024-05-20T22:21:55.391;599616246705772896;838.35956;9614
2024-05-20T22:21:55.399;599616246713464268;846.05096;9542
2024-05-20T22:21:55.406;599616246721155640;853.74225;9392
2024-05-20T22:21:55.414;599616246728847012;861.43365;9271
2024-05-20T22:21:55.422;599616246736538384;869.12506;9219
2024-05-20T22:21:55.429;599616246744229756;876.8164;9154
2024-05-20T22:21:55.437;599616246751921128;884.50775;9033
2024-05-20T22:21:55.445;599616246759612500;892.19916;8959
2024-05-20T22:21:55.452;599616246767303872;899.89056;8919
2024-05-20T22:21:55.460;599616246774995244;907.5819;8788
2024-05-20T22:21:55.468;599616246782686616;915.27325;8645
2024-05-20T22:21:55.475;599616246790377988;922.96466;8588
2024-05-20T22:21:55.483;599616246798069360;930.656;8555
2024-05-20T22:21:55.491;599616246805760732;938.3474;8471
2024-05-20T22:21:55.499;599616246813452104;946.03876;8336
2024-05-20T22:21:55.506;599616246821143476;953.7301;8238
2024-05-20T22:21:55.514;599616246828834848;961.4215;8228
2024-05-20T22:21:55.522;599616246836526220;969.1129;8107
2024-05-20T22:21:55.529;599616246844217592;976.8042;7845
2024-05-20T22:21:55.537;599616246851908964;984.4956;7771
2024-05-20T22:21:55.545;599616246859600336;992.187;7795
2024-05-20T22:21:55.552;599616246867291708;999.8784;7655
2024-05-20T22:21:55.560;599616246874983080;1007.5697;7512
2024-05-20T22:21:55.568;599616246882674452;1015.2611;7495
2024-05-20T22:21:55.575;599616246890365824;1022.9525;7460
2024-05-20T22:21:55.583;599616246898057196;1030.6438;7357
2024-05-20T22:21:55.591;599616246905748568;1038.3352;7257
2024-05-20T22:21:55.599;599616246913439940;1046.0266;7191
2024-05-20T22:21:55.606;599616246921131312;1053.7179;7145
2024-05-20T22:21:55.614;599616246928822684;1061.4093;7026
2024-05-20T22:21:55.622;599616246936514056;1069.1007;6857
2024-05-20T22:21:55.629;599616246944205428;1076.7921;6924
2024-05-20T22:21:55.637;599616246951896800;1084.4834;7262
2024-05-20T22:21:55.645;599616246959588172;1092.1748;7548
2024-05-20T22:21:55.652;599616246967279544;1099.8662;7479
2024-05-20T22:21:55.660;599616246974970916;1107.5576;6974
2024-05-20T22:21:55.668;599616246982662288;1115.2489;6457
2024-05-20T22:21:55.675;599616246990323572;1122.9102;6348
2024-05-20T22:21:55.683;599616246998015362;1130.6019;6327
2024-05-20T22:21:55.691;599616247005707152;1138.2937;6131
2024-05-20T22:21:55.698;599616247013398942;1145.9857;6017
2024-05-20T22:21:55.706;599616247021090732;1153.6775;6000
2024-05-20T22:21:55.714;599616247028782522;1161.3693;5915
2024-05-20T22:21:55.722;599616247036474312;1169.061;5834
2024-05-20T22:21:55.729;599616247044166102;1176.7528;5724
2024-05-20T22:21:55.737;599616247051857892;1184.4446;5443
2024-05-20T22:21:55.745;599616247059549682;1192.1364;5241
2024-05-20T22:21:55.752;599616247067241472;1199.8281;5260
2024-05-20T22:21:55.760;599616247074933262;1207.5199;5222
2024-05-20T22:21:55.768;599616247082625052;1215.2118;5103
2024-05-20T22:21:55.775;599616247090316842;1222.9036;5055
2024-05-20T22:21:55.783;599616247098008632;1230.5953;5027
2024-05-20T22:21:55.791;599616247105700422;1238.2871;4958
2024-05-20T22:21:55.798;599616247113392212;1245.9789;4905
2024-05-20T22:21:55.806;599616247121084002;1253.6707;4898
2024-05-20T22:21:55.814;599616247128775792;1261.3624;4896
2024-05-20T22:21:55.822;599616247136467582;1269.0542;4834
2024-05-20T22:21:55.829;599616247144159372;1276.746;4746
2024-05-20T22:21:55.837;599616247151851162;1284.4377;4720
2024-05-20T22:21:55.845;599616247159542952;1292.1296;4729
2024-05-20T22:21:55.852;599616247167234742;1299.8214;4703
2024-05-20T22:21:55.860;599616247174926532;1307.5132;4622
2024-05-20T22:21:55.868;599616247182618322;1315.205;4503
2024-05-20T22:21:55.875;599616247190310112;1322.8967;4420
2024-05-20T22:21:55.883;599616247198001902;1330.5885;4372
2024-05-20T22:21:55.891;599616247205693692;1338.2803;4310
2024-05-20T22:21:55.898;599616247213385482;1345.972;4270
2024-05-20T22:21:55.906;599616247221077272;1353.6638;4251
2024-05-20T22:21:55.914;599616247228769062;1361.3558;4175
2024-05-20T22:21:55.922;599616247236460852;1369.0476;4082
2024-05-20T22:21:55.929;599616247244152642;1376.7394;4068
2024-05-20T22:21:55.937;599616247251844432;1384.4312;4065
2024-05-20T22:21:55.945;599616247259536222;1392.1229;4010
2024-05-20T22:21:55.952;599616247267228012;1399.8147;3975
2024-05-20T22:21:55.960;599616247274919802;1407.5065;3960
2024-05-20T22:21:55.968;599616247282611592;1415.1982;3906
2024-05-20T22:21:55.975;599616247290303382;1422.89;3841
2024-05-20T22:21:55.983;599616247297995172;1430.5819;3825
2024-05-20T22:21:55.991;599616247305686962;1438.2737;3827
2024-05-20T22:21:55.998;599616247313378752;1445.9655;3791
2024-05-20T22:21:56.006;599616247321070542;1453.6572;3720
2024-05-20T22:21:56.014;599616247328762332;1461.349;3689
2024-05-20T22:21:56.022;599616247336454122;1469.0408;3637
2024-05-20T22:21:56.029;599616247344145912;1476.7325;3477
2024-05-20T22:21:56.037;599616247351837702;1484.4243;3375
2024-05-20T22:21:56.045;599616247359529492;1492.1161;3396
2024-05-20T22:21:56.052;599616247367221282;1499.808;3380
2024-05-20T22:21:56.060;599616247374913072;1507.4998;3306
2024-05-20T22:21:56.068;599616247382604862;1515.1915;3275
2024-05-20T22:21:56.075;599616247390296652;1522.8833;3277
2024-05-20T22:21:56.083;599616247397988442;1530.5751;3263
2024-05-20T22:21:56.091;599616247405680232;1538.2668;3227
2024-05-20T22:21:56.098;599616247413372022;1545.9586;3182
2024-05-20T22:21:56.106;599616247421063812;1553.6504;3115
2024-05-20T22:21:56.114;599616247428755602;1561.3422;3042
2024-05-20T22:21:56.122;599616247436447392;1569.034;3013
2024-05-20T22:21:56.129;599616247444139182;1576.7258;3011
2024-05-20T22:21:56.137;599616247451830972;1584.4177;3004
2024-05-20T22:21:56.145;599616247459522762;1592.1095;2973
2024-05-20T22:21:56.152;599616247467214552;1599.8013;2915
2024-05-20T22:21:56.160;599616247474906342;1607.493;2880
2024-05-20T22:21:56.168;599616247482598132;1615.1848;2889
2024-05-20T22:21:56.175;599616247490289922;1622.8766;2892
2024-05-20T22:21:56.183;599616247497981712;1630.5684;2846
2024-05-20T22:21:56.191;599616247505673502;1638.2603;2768
2024-05-20T22:21:56.198;599616247513365292;1645.952;2716
2024-05-20T22:21:56.206;599616247521057082;1653.6438;2808
2024-05-20T22:21:56.214;599616247528748872;1661.3356;3125
2024-05-20T22:21:56.222;599616247536440662;1669.0273;3530
2024-05-20T22:21:56.229;599616247544132452;1676.7191;3622
2024-05-20T22:21:56.237;599616247551854350;1684.4409;3139
2024-05-20T22:21:56.245;599616247559545722;1692.1323;2542
2024-05-20T22:21:56.252;599616247567237094;1699.8237;2451
2024-05-20T22:21:56.260;599616247574928466;1707.5151;2594
2024-05-20T22:21:56.268;599616247582619838;1715.2065;2527
2024-05-20T22:21:56.275;599616247590311210;1722.898;2432
2024-05-20T22:21:56.283;599616247598002582;1730.5892;2420
2024-05-20T22:21:56.291;599616247605693954;1738.2805;2354
2024-05-20T22:21:56.298;599616247613385326;1745.9719;2247
2024-05-20T22:21:56.306;599616247621076698;1753.6633;2163
2024-05-20T22:21:56.314;599616247628768070;1761.3547;2120
2024-05-20T22:21:56.322;599616247636459442;1769.0461;2082
2024-05-20T22:21:56.329;599616247644150814;1776.7375;1999
2024-05-20T22:21:56.337;599616247651842186;1784.4288;1913
2024-05-20T22:21:56.345;599616247659533558;1792.1202;1861
2024-05-20T22:21:56.352;599616247667224930;1799.8115;1794
2024-05-20T22:21:56.360;599616247674916302;1807.5029;1716
2024-05-20T22:21:56.368;599616247682607674;1815.1943;1687
2024-05-20T22:21:56.375;599616247690299046;1822.8857;1694
2024-05-20T22:21:56.383;599616247697990418;1830.577;1685
2024-05-20T22:21:56.391;599616247705681790;1838.2684;1673
2024-05-20T22:21:56.398;599616247713373162;1845.9598;1682
2024-05-20T22:21:56.406;599616247721064534;1853.6512;1706
2024-05-20T22:21:56.414;599616247728755906;1861.3427;1711
2024-05-20T22:21:56.422;599616247736447278;1869.0339;1682
2024-05-20T22:21:56.429;599616247744138650;1876.7252;1659
2024-05-20T22:21:56.437;599616247751830022;1884.4166;1671
2024-05-20T22:21:56.445;599616247759521394;1892.108;1673
2024-05-20T22:21:56.452;599616247767212766;1899.7994;1644
2024-05-20T22:21:56.460;599616247774904138;1907.4908;1632
2024-05-20T22:21:56.468;599616247782595510;1915.1823;1621
2024-05-20T22:21:56.475;599616247790286882;1922.8737;1582
2024-05-20T22:21:56.483;599616247797978254;1930.5648;1549
2024-05-20T22:21:56.491;599616247805669626;1938.2562;1549
2024-05-20T22:21:56.498;599616247813360998;1945.9476;1563
2024-05-20T22:21:56.506;599616247821052370;1953.639;1559
2024-05-20T22:21:56.514;599616247828743742;1961.3304;1525
2024-05-20T22:21:56.522;599616247836435114;1969.0219;1494
2024-05-20T22:21:56.529;599616247844126486;1976.7131;1447
2024-05-20T22:21:56.537;599616247851817858;1984.4045;1352
2024-05-20T22:21:56.545;599616247859509230;1992.0958;1318
2024-05-20T22:21:56.552;599616247867200602;1999.7872;1359
2024-05-20T22:21:56.560;599616247874891974;2007.4786;1363
2024-05-20T22:21:56.568;599616247882583346;2015.17;1337
2024-05-20T22:21:56.575;599616247890274718;2022.8615;1342
2024-05-20T22:21:56.583;599616247897966090;2030.5527;1359
2024-05-20T22:21:56.591;599616247905657462;2038.2441;1361
2024-05-20T22:21:56.598;599616247913348834;2045.9355;1328
2024-05-20T22:21:56.606;599616247921040206;2053.627;1285
2024-05-20T22:21:56.614;599616247928731578;2061.3184;1287
2024-05-20T22:21:56.622;599616247936422950;2069.0098;1311
2024-05-20T22:21:56.629;599616247944114322;2076.701;1306
2024-05-20T22:21:56.637;599616247951805694;2084.3923;1299
2024-05-20T22:21:56.645;599616247959497066;2092.0837;1309
2024-05-20T22:21:56.652;599616247967188438;2099.7751;1304
2024-05-20T22:21:56.660;599616247974879810;2107.4666;1280
2024-05-20T22:21:56.668;599616247982571182;2115.158;1280
2024-05-20T22:21:56.675;599616247990262554;2122.849;1306
2024-05-20T22:21:56.683;599616247997953926;2130.5405;1321
2024-05-20T22:21:56.691;599616248005645298;2138.232;1299
2024-05-20T22:21:56.698;599616248013336670;2145.9233;1285
2024-05-20T22:21:56.706;599616248021028042;2153.6145;1302
2024-05-20T22:21:56.714;599616248028719414;2161.3062;1309
2024-05-20T22:21:56.721;599616248036410786;2168.9973;1280
2024-05-20T22:21:56.729;599616248044102158;2176.689;1271
2024-05-20T22:21:56.737;599616248051793530;2184.3801;1292
2024-05-20T22:21:56.745;599616248059484902;2192.0718;1278
2024-05-20T22:21:56.752;599616248067176274;2199.763;1237
2024-05-20T22:21:56.760;599616248074867646;2207.454;1235
2024-05-20T22:21:56.768;599616248082559018;2215.1458;1228
2024-05-20T22:21:56.775;599616248090250390;2222.837;1202
2024-05-20T22:21:56.783;599616248097941762;2230.5286;1311
2024-05-20T22:21:56.791;599616248105633134;2238.2197;1673
2024-05-20T22:21:56.798;599616248113294418;2245.881;2089
2024-05-20T22:21:56.806;599616248120986208;2253.5728;2101
2024-05-20T22:21:56.814;599616248128677998;2261.2646;1575
2024-05-20T22:21:56.821;599616248136369788;2268.9563;1094
2024-05-20T22:21:56.829;599616248144061578;2276.6482;1102
2024-05-20T22:21:56.837;599616248151753368;2284.34;1190
2024-05-20T22:21:56.845;599616248159445158;2292.0317;1054
2024-05-20T22:21:56.852;599616248167136948;2299.7236;985
2024-05-20T22:21:56.860;599616248174828738;2307.4153;1044
2024-05-20T22:21:56.868;599616248182520528;2315.1072;1006
2024-05-20T22:21:56.875;599616248190212318;2322.799;904
2024-05-20T22:21:56.883;599616248197904108;2330.491;883
2024-05-20T22:21:56.891;599616248205595898;2338.1826;873
2024-05-20T22:21:56.898;599616248213287688;2345.8745;821
2024-05-20T22:21:56.906;599616248220979478;2353.5662;806
2024-05-20T22:21:56.914;599616248228671268;2361.258;835
2024-05-20T22:21:56.921;599616248236363058;2368.9497;821
2024-05-20T22:21:56.929;599616248244054848;2376.6416;756
2024-05-20T22:21:56.937;599616248251746638;2384.3333;706
2024-05-20T22:21:56.945;599616248259438428;2392.0251;692
2024-05-20T22:21:56.952;599616248267130218;2399.7168;671
2024-05-20T22:21:56.960;599616248274822008;2407.4087;652
2024-05-20T22:21:56.968;599616248282513798;2415.1003;656
2024-05-20T22:21:56.975;599616248290205588;2422.7922;661
2024-05-20T22:21:56.983;599616248297897378;2430.484;659
2024-05-20T22:21:56.991;599616248305589168;2438.1758;661
2024-05-20T22:21:56.998;599616248313280958;2445.8674;661
2024-05-20T22:21:57.006;599616248320972748;2453.5593;678
2024-05-20T22:21:57.014;599616248328664538;2461.251;685
2024-05-20T22:21:57.021;599616248336356328;2468.943;649
2024-05-20T22:21:57.029;599616248344048118;2476.6348;590
2024-05-20T22:21:57.037;599616248351739908;2484.3267;516
2024-05-20T22:21:57.045;599616248359431698;2492.0183;445
2024-05-20T22:21:57.052;599616248367123488;2499.7102;433
2024-05-20T22:21:57.060;599616248374815278;2507.402;445
2024-05-20T22:21:57.068;599616248382507068;2515.0938;433
2024-05-20T22:21:57.075;599616248390198858;2522.7856;426
2024-05-20T22:21:57.083;599616248397890648;2530.4773;423
2024-05-20T22:21:57.091;599616248405582438;2538.1692;404
2024-05-20T22:21:57.098;599616248413274228;2545.8608;397
2024-05-20T22:21:57.106;599616248420966018;2553.5527;414
2024-05-20T22:21:57.114;599616248428657808;2561.2444;411
2024-05-20T22:21:57.121;599616248436349598;2568.9363;416
2024-05-20T22:21:57.129;599616248444041388;2576.628;457
2024-05-20T22:21:57.137;599616248451733178;2584.3198;483
2024-05-20T22:21:57.145;599616248459424968;2592.0115;490
2024-05-20T22:21:57.152;599616248467116758;2599.7034;514
2024-05-20T22:21:57.160;599616248474808548;2607.3953;526
2024-05-20T22:21:57.168;599616248482500338;2615.0872;514
2024-05-20T22:21:57.175;599616248490192128;2622.7788;523
2024-05-20T22:21:57.183;599616248497883918;2630.4707;561
2024-05-20T22:21:57.191;599616248505575708;2638.1624;587
2024-05-20T22:21:57.198;599616248513267498;2645.8542;583
2024-05-20T22:21:57.206;599616248520959288;2653.546;564
2024-05-20T22:21:57.214;599616248528651078;2661.2378;571
2024-05-20T22:21:57.221;599616248536342868;2668.9294;597
2024-05-20T22:21:57.229;599616248544034658;2676.6213;604
2024-05-20T22:21:57.237;599616248551726448;2684.313;602
2024-05-20T22:21:57.245;599616248559418238;2692.005;618
2024-05-20T22:21:57.252;599616248567110028;2699.6965;623
2024-05-20T22:21:57.260;599616248574801818;2707.3884;611
2024-05-20T22:21:57.268;599616248582493608;2715.08;626
2024-05-20T22:21:57.275;599616248590185398;2722.772;666
2024-05-20T22:21:57.283;599616248597877188;2730.4636;678
2024-05-20T22:21:57.291;599616248605568978;2738.1555;661
2024-05-20T22:21:57.298;599616248613260768;2745.8477;652
2024-05-20T22:21:57.306;599616248620952558;2753.5393;661
2024-05-20T22:21:57.314;599616248628644348;2761.2312;678
2024-05-20T22:21:57.321;599616248636336138;2768.9229;678
2024-05-20T22:21:57.329;599616248644027928;2776.6147;649
2024-05-20T22:21:57.337;599616248651719718;2784.3064;573
2024-05-20T22:21:57.344;599616248659411508;2791.9983;523
2024-05-20T22:21:57.352;599616248667103298;2799.69;690
2024-05-20T22:21:57.360;599616248674825196;2807.4119;1125
2024-05-20T22:21:57.368;599616248682516568;2815.1033;1513
2024-05-20T22:21:57.375;599616248690207940;2822.7944;1404
2024-05-20T22:21:57.383;599616248697899312;2830.486;833
2024-05-20T22:21:57.391;599616248705590684;2838.1772;435
2024-05-20T22:21:57.398;599616248713282056;2845.869;495
2024-05-20T22:21:57.406;599616248720973428;2853.56;537
2024-05-20T22:21:57.414;599616248728664800;2861.2515;388
2024-05-20T22:21:57.421;599616248736356172;2868.9429;368
2024-05-20T22:21:57.429;599616248744047544;2876.634;447
2024-05-20T22:21:57.437;599616248751738916;2884.3257;416
2024-05-20T22:21:57.445;599616248759430288;2892.0168;378
2024-05-20T22:21:57.452;599616248767121660;2899.7085;423
2024-05-20T22:21:57.460;599616248774813032;2907.3997;461
2024-05-20T22:21:57.468;599616248782504404;2915.091;459
2024-05-20T22:21:57.475;599616248790195776;2922.7825;445
2024-05-20T22:21:57.483;599616248797887148;2930.4736;416
2024-05-20T22:21:57.491;599616248805578520;2938.1653;395
2024-05-20T22:21:57.498;599616248813269892;2945.8564;397
2024-05-20T22:21:57.506;599616248820961264;2953.548;397
2024-05-20T22:21:57.514;599616248828652636;2961.2393;380
2024-05-20T22:21:57.521;599616248836344008;2968.9307;349
2024-05-20T22:21:57.529;599616248844035380;2976.622;297
2024-05-20T22:21:57.537;599616248851726752;2984.3132;202
2024-05-20T22:21:57.545;599616248859418124;2992.005;130
2024-05-20T22:21:57.552;599616248867109496;2999.696;147
2024-05-20T22:21:57.560;599616248874800868;3007.3877;164
2024-05-20T22:21:57.568;599616248882492240;3015.0789;142
2024-05-20T22:21:57.575;599616248890183612;3022.7703;128
2024-05-20T22:21:57.583;599616248897874984;3030.4617;88
2024-05-20T22:21:57.591;599616248905566356;3038.153;35
2024-05-20T22:21:57.598;599616248913257728;3045.8445;38
2024-05-20T22:21:57.606;599616248920949100;3053.5356;66
2024-05-20T22:21:57.614;599616248928640472;3061.227;59
2024-05-20T22:21:57.621;599616248936331844;3068.9185;33
2024-05-20T22:21:57.629;599616248944023216;3076.6099;28
2024-05-20T22:21:57.637;599616248951714588;3084.3013;52
2024-05-20T22:21:57.644;599616248959405960;3091.9927;69
2024-05-20T22:21:57.652;599616248967097332;3099.684;80
2024-05-20T22:21:57.660;599616248974788704;3107.3752;102
2024-05-20T22:21:57.668;599616248982480076;3115.0667;109
2024-05-20T22:21:57.675;599616248990171448;3122.758;107
2024-05-20T22:21:57.683;599616248997862820;3130.4495;128
2024-05-20T22:21:57.691;599616249005554192;3138.1409;166
2024-05-20T22:21:57.698;599616249013245564;3145.8323;192
2024-05-20T22:21:57.706;599616249020936936;3153.5237;192
2024-05-20T22:21:57.714;599616249028628308;3161.215;185
2024-05-20T22:21:57.721;599616249036319680;3168.9062;195
2024-05-20T22:21:57.729;599616249044011052;3176.5977;218
2024-05-20T22:21:57.737;599616249051702424;3184.289;233
2024-05-20T22:21:57.744;599616249059393796;3191.9805;235
2024-05-20T22:21:57.752;599616249067085168;3199.6719;242
2024-05-20T22:21:57.760;599616249074776540;3207.363;245
2024-05-20T22:21:57.768;599616249082467912;3215.0547;245
2024-05-20T22:21:57.775;599616249090159284;3222.7458;249
2024-05-20T22:21:57.783;599616249097850656;3230.4373;271
2024-05-20T22:21:57.791;599616249105542028;3238.1287;295
2024-05-20T22:21:57.798;599616249113233400;3245.82;288
2024-05-20T22:21:57.806;599616249120924772;3253.5115;273
2024-05-20T22:21:57.814;599616249128616144;3261.2026;299
2024-05-20T22:21:57.821;599616249136307516;3268.8943;338
2024-05-20T22:21:57.829;599616249143998888;3276.5854;311
2024-05-20T22:21:57.837;599616249151690260;3284.277;280
2024-05-20T22:21:57.844;599616249159381632;3291.9683;304
2024-05-20T22:21:57.852;599616249167073004;3299.6597;314
2024-05-20T22:21:57.860;599616249174764376;3307.351;299
2024-05-20T22:21:57.868;599616249182455748;3315.0422;316
2024-05-20T22:21:57.875;599616249190147120;3322.734;345
2024-05-20T22:21:57.883;599616249197838492;3330.425;328
2024-05-20T22:21:57.891;599616249205529864;3338.1167;288
2024-05-20T22:21:57.898;599616249213221236;3345.8079;361
2024-05-20T22:21:57.906;599616249220912608;3353.4995;702
2024-05-20T22:21:57.914;599616249228603980;3361.1907;1178
2024-05-20T22:21:57.921;599616249236295360;3368.8818;1328
2024-05-20T22:21:57.929;599616249243986732;3376.5735;906
2024-05-20T22:21:57.937;599616249251678104;3384.2646;349
2024-05-20T22:21:57.944;599616249259369476;3391.9563;190
2024-05-20T22:21:57.952;599616249267060848;3399.6475;240
2024-05-20T22:21:57.960;599616249274752220;3407.339;197
2024-05-20T22:21:57.968;599616249282443592;3415.0303;183
2024-05-20T22:21:57.975;599616249290134964;3422.7214;230
2024-05-20T22:21:57.983;599616249297826336;3430.413;218
2024-05-20T22:21:57.991;599616249305517708;3438.1042;197
2024-05-20T22:21:57.998;599616249313209080;3445.796;233
2024-05-20T22:21:58.006;599616249320900452;3453.487;254
2024-05-20T22:21:58.014;599616249328591824;3461.1785;247
2024-05-20T22:21:58.021;599616249336283196;3468.8699;276
2024-05-20T22:21:58.029;599616249343974568;3476.561;295
2024-05-20T22:21:58.037;599616249351665940;3484.2527;233
2024-05-20T22:21:58.044;599616249359357312;3491.9438;147
2024-05-20T22:21:58.052;599616249367048684;3499.6355;133
2024-05-20T22:21:58.060;599616249374740056;3507.3267;140
2024-05-20T22:21:58.068;599616249382431428;3515.018;133
2024-05-20T22:21:58.075;599616249390122800;3522.7095;111
2024-05-20T22:21:58.083;599616249397814172;3530.401;69
2024-05-20T22:21:58.091;599616249405505544;3538.0923;35
2024-05-20T22:21:58.098;599616249413196916;3545.7834;23
2024-05-20T22:21:58.106;599616249420888288;3553.475;-2
2024-05-20T22:21:58.114;599616249428579660;3561.1663;-28
2024-05-20T22:21:58.121;599616249436271032;3568.8577;-33
2024-05-20T22:21:58.129;599616249443962404;3576.549;-47
2024-05-20T22:21:58.137;599616249451653776;3584.2405;-64
2024-05-20T22:21:58.144;599616249459345148;3591.932;-47
2024-05-20T22:21:58.152;599616249467036520;3599.623;-33
2024-05-20T22:21:58.160;599616249474727892;3607.3145;-54
2024-05-20T22:21:58.168;599616249482419264;3615.0059;-76
2024-05-20T22:21:58.175;599616249490110636;3622.6973;-78
2024-05-20T22:21:58.183;599616249497802008;3630.3887;-85
2024-05-20T22:21:58.191;599616249505493380;3638.08;-88
2024-05-20T22:21:58.198;599616249513184752;3645.7715;-66
2024-05-20T22:21:58.206;599616249520876124;3653.463;-28
2024-05-20T22:21:58.214;599616249528567496;3661.154;-19
2024-05-20T22:21:58.221;599616249536258868;3668.8455;-35
2024-05-20T22:21:58.229;599616249543950240;3676.5369;-23
2024-05-20T22:21:58.237;599616249551641612;3684.2283;23
2024-05-20T22:21:58.244;599616249559332984;3691.9197;38
2024-05-20T22:21:58.252;599616249567024356;3699.611;38
2024-05-20T22:21:58.260;599616249574715728;3707.3025;61
2024-05-20T22:21:58.267;599616249582407100;3714.9937;80
2024-05-20T22:21:58.275;599616249590098472;3722.6853;78
2024-05-20T22:21:58.283;599616249597789844;3730.3765;90
2024-05-20T22:21:58.291;599616249605481216;3738.0679;116
2024-05-20T22:21:58.298;599616249613172588;3745.7593;140
2024-05-20T22:21:58.306;599616249620863960;3753.4504;142
2024-05-20T22:21:58.314;599616249628555332;3761.142;109
2024-05-20T22:21:58.321;599616249636246704;3768.8333;64
2024-05-20T22:21:58.329;599616249643938076;3776.525;54
2024-05-20T22:21:58.337;599616249651629448;3784.216;76
2024-05-20T22:21:58.344;599616249659320820;3791.9075;95
2024-05-20T22:21:58.352;599616249667012192;3799.5989;116
2024-05-20T22:21:58.360;599616249674703564;3807.29;130
2024-05-20T22:21:58.367;599616249682394936;3814.9817;140
2024-05-20T22:21:58.375;599616249690086308;3822.6729;166
2024-05-20T22:21:58.383;599616249697777680;3830.3645;207
2024-05-20T22:21:58.391;599616249705469052;3838.0557;226
2024-05-20T22:21:58.398;599616249713160424;3845.7473;218
2024-05-20T22:21:58.406;599616249720851796;3853.4385;214
2024-05-20T22:21:58.414;599616249728543168;3861.1296;233
2024-05-20T22:21:58.421;599616249736234540;3868.8213;264
2024-05-20T22:21:58.429;599616249743925912;3876.5125;264
2024-05-20T22:21:58.437;599616249751617284;3884.204;233
2024-05-20T22:21:58.444;599616249759308656;3891.8953;240
2024-05-20T22:21:58.452;599616249767000028;3899.5867;407
2024-05-20T22:21:58.460;599616249774691400;3907.278;809
2024-05-20T22:21:58.467;599616249782382772;3914.9692;1230
2024-05-20T22:21:58.475;599616249790074144;3922.661;1202
2024-05-20T22:21:58.483;599616249797735428;3930.3223;649
2024-05-20T22:21:58.491;599616249805427218;3938.014;183
2024-05-20T22:21:58.498;599616249813119008;3945.7058;207
2024-05-20T22:21:58.506;599616249820810798;3953.3975;330
2024-05-20T22:21:58.514;599616249828502588;3961.0894;273
2024-05-20T22:21:58.521;599616249836194378;3968.781;242
2024-05-20T22:21:58.529;599616249843886168;3976.473;283
2024-05-20T22:21:58.537;599616249851577958;3984.1646;233
2024-05-20T22:21:58.544;599616249859269748;3991.8564;83
2024-05-20T22:21:58.552;599616249866961538;3999.548;-9
2024-05-20T22:21:58.560;599616249874653328;4007.24;-2
2024-05-20T22:21:58.567;599616249882345118;4014.9316;-2
2024-05-20T22:21:58.575;599616249890036908;4022.6235;-26
2024-05-20T22:21:58.583;599616249897728698;4030.3152;-16
2024-05-20T22:21:58.591;599616249905420488;4038.007;11
2024-05-20T22:21:58.598;599616249913112278;4045.6987;38
2024-05-20T22:21:58.606;599616249920804068;4053.3909;71
2024-05-20T22:21:58.614;599616249928495858;4061.0825;109
2024-05-20T22:21:58.621;599616249936187648;4068.7744;149
2024-05-20T22:21:58.629;599616249943879438;4076.466;166
2024-05-20T22:21:58.637;599616249951571228;4084.158;128
2024-05-20T22:21:58.644;599616249959263018;4091.8496;114
2024-05-20T22:21:58.652;599616249966954808;4099.5415;164
2024-05-20T22:21:58.660;599616249974646598;4107.2334;192
2024-05-20T22:21:58.667;599616249982338388;4114.9253;152
2024-05-20T22:21:58.675;599616249990030178;4122.6167;104
2024-05-20T22:21:58.683;599616249997721968;4130.3086;76
2024-05-20T22:21:58.691;599616250005413758;4138.0005;26
2024-05-20T22:21:58.698;599616250013105548;4145.6924;-23
2024-05-20T22:21:58.706;599616250020797338;4153.384;-30
2024-05-20T22:21:58.714;599616250028489128;4161.0757;-30
2024-05-20T22:21:58.721;599616250036180918;4168.7676;-59
2024-05-20T22:21:58.729;599616250043872708;4176.4595;-102
2024-05-20T22:21:58.737;599616250051564498;4184.151;-109
2024-05-20T22:21:58.744;599616250059256288;4191.8433;-80
2024-05-20T22:21:58.752;599616250066948078;4199.5347;-61
2024-05-20T22:21:58.760;599616250074639868;4207.2266;-57
2024-05-20T22:21:58.767;599616250082331658;4214.9185;-47
2024-05-20T22:21:58.775;599616250090023448;4222.6104;-35
2024-05-20T22:21:58.783;599616250097715238;4230.302;-28
2024-05-20T22:21:58.790;599616250105407028;4237.9937;-16
2024-05-20T22:21:58.798;599616250113098818;4245.6855;2
2024-05-20T22:21:58.806;599616250120790608;4253.3774;26
2024-05-20T22:21:58.814;599616250128482398;4261.069;-7
2024-05-20T22:21:58.821;599616250136174188;4268.7607;-66
2024-05-20T22:21:58.829;599616250143865978;4276.4526;-54
2024-05-20T22:21:58.837;599616250151557768;4284.1445;4
2024-05-20T22:21:58.844;599616250159249558;4291.836;23
2024-05-20T22:21:58.852;599616250166941348;4299.5283;26
2024-05-20T22:21:58.860;599616250174633138;4307.2197;54
2024-05-20T22:21:58.867;599616250182324928;4314.9116;76
2024-05-20T22:21:58.875;599616250190016718;4322.6035;73
2024-05-20T22:21:58.883;599616250197708508;4330.2954;83
2024-05-20T22:21:58.890;599616250205400298;4337.9873;114
2024-05-20T22:21:58.898;599616250213092088;4345.6787;147
2024-05-20T22:21:58.906;599616250220783878;4353.3706;164
2024-05-20T22:21:58.914;599616250228475668;4361.0625;149
2024-05-20T22:21:58.921;599616250236167458;4368.7544;161
2024-05-20T22:21:58.929;599616250243859248;4376.446;214
2024-05-20T22:21:58.937;599616250251551038;4384.1377;240
2024-05-20T22:21:58.944;599616250259242828;4391.8296;235
2024-05-20T22:21:58.952;599616250266934618;4399.5215;252
2024-05-20T22:21:58.960;599616250274626408;4407.213;266
2024-05-20T22:21:58.967;599616250282318198;4414.905;259
2024-05-20T22:21:58.975;599616250290009988;4422.5967;271
2024-05-20T22:21:58.983;599616250297701778;4430.2886;302
2024-05-20T22:21:58.990;599616250305393568;4437.98;299
2024-05-20T22:21:58.998;599616250313085358;4445.672;261
2024-05-20T22:21:59.006;599616250320777148;4453.364;314
2024-05-20T22:21:59.014;599616250328468938;4461.0557;623
2024-05-20T22:21:59.021;599616250336160728;4468.747;1104
2024-05-20T22:21:59.029;599616250343852518;4476.439;1321
2024-05-20T22:21:59.037;599616250351544308;4484.131;952
2024-05-20T22:21:59.044;599616250359266206;4491.853;342
2024-05-20T22:21:59.052;599616250366957578;4499.544;73
2024-05-20T22:21:59.060;599616250374648950;4507.236;107
2024-05-20T22:21:59.067;599616250382340322;4514.9272;90
2024-05-20T22:21:59.075;599616250390031694;4522.618;61
2024-05-20T22:21:59.083;599616250397723066;4530.3096;114
2024-05-20T22:21:59.091;599616250405414438;4538.001;133
2024-05-20T22:21:59.098;599616250413105810;4545.693;111
2024-05-20T22:21:59.106;599616250420797182;4553.384;135
2024-05-20T22:21:59.114;599616250428488554;4561.075;154
2024-05-20T22:21:59.121;599616250436179926;4568.7666;107
2024-05-20T22:21:59.129;599616250443871298;4576.4575;85
2024-05-20T22:21:59.137;599616250451562670;4584.1494;128
2024-05-20T22:21:59.144;599616250459254042;4591.841;138
2024-05-20T22:21:59.152;599616250466945414;4599.532;121
2024-05-20T22:21:59.160;599616250474636786;4607.223;161
2024-05-20T22:21:59.167;599616250482328158;4614.915;223
2024-05-20T22:21:59.175;599616250490019530;4622.6064;242
2024-05-20T22:21:59.183;599616250497710902;4630.2974;242
2024-05-20T22:21:59.190;599616250505402274;4637.989;261
2024-05-20T22:21:59.198;599616250513093646;4645.68;292
2024-05-20T22:21:59.206;599616250520785018;4653.372;288
2024-05-20T22:21:59.214;599616250528476390;4661.063;257
2024-05-20T22:21:59.221;599616250536167762;4668.7544;271
2024-05-20T22:21:59.229;599616250543859134;4676.446;295
2024-05-20T22:21:59.237;599616250551550506;4684.1367;247
2024-05-20T22:21:59.244;599616250559241878;4691.8286;173
2024-05-20T22:21:59.252;599616250566933250;4699.52;152
2024-05-20T22:21:59.260;599616250574624622;4707.2114;126
2024-05-20T22:21:59.267;599616250582315994;4714.9023;52
2024-05-20T22:21:59.275;599616250590007366;4722.5938;4
2024-05-20T22:21:59.283;599616250597698738;4730.2856;-2
2024-05-20T22:21:59.290;599616250605390110;4737.977;-16
2024-05-20T22:21:59.298;599616250613081482;4745.668;-23
2024-05-20T22:21:59.306;599616250620772854;4753.3594;-45
2024-05-20T22:21:59.314;599616250628464226;4761.0513;-69
2024-05-20T22:21:59.321;599616250636155598;4768.742;-69
2024-05-20T22:21:59.329;599616250643846970;4776.4336;-73
2024-05-20T22:21:59.337;599616250651538342;4784.125;-76
2024-05-20T22:21:59.344;599616250659229714;4791.8164;-38
2024-05-20T22:21:59.352;599616250666921086;4799.508;-2
2024-05-20T22:21:59.360;599616250674612458;4807.199;0
2024-05-20T22:21:59.367;599616250682303830;4814.8906;-2
2024-05-20T22:21:59.375;599616250689995202;4822.5815;11
2024-05-20T22:21:59.383;599616250697686574;4830.273;26
2024-05-20T22:21:59.390;599616250705377946;4837.965;35
2024-05-20T22:21:59.398;599616250713069318;4845.6562;57
2024-05-20T22:21:59.406;599616250720760690;4853.347;90
2024-05-20T22:21:59.414;599616250728452062;4861.0386;107
2024-05-20T22:21:59.421;599616250736143434;4868.73;90
2024-05-20T22:21:59.429;599616250743834806;4876.422;99
2024-05-20T22:21:59.437;599616250751526178;4884.113;145
2024-05-20T22:21:59.444;599616250759217550;4891.804;164
2024-05-20T22:21:59.452;599616250766908922;4899.4956;157
2024-05-20T22:21:59.460;599616250774600294;4907.187;166
2024-05-20T22:21:59.467;599616250782291666;4914.8784;180
2024-05-20T22:21:59.475;599616250789983038;4922.57;188
2024-05-20T22:21:59.483;599616250797674410;4930.261;197
2024-05-20T22:21:59.490;599616250805365782;4937.952;223
2024-05-20T22:21:59.498;599616250813057154;4945.644;266
2024-05-20T22:21:59.506;599616250820748526;4953.3354;285
2024-05-20T22:21:59.514;599616250828439898;4961.0264;264
2024-05-20T22:21:59.521;599616250836131270;4968.718;264
2024-05-20T22:21:59.529;599616250843822642;4976.409;302
2024-05-20T22:21:59.537;599616250851514014;4984.101;318
2024-05-20T22:21:59.544;599616250859205386;4991.792;304
2024-05-20T22:21:59.552;599616250866896758;4999.4834;247
2024-05-20T22:21:59.560;599616250874588130;5007.175;130
2024-05-20T22:21:59.567;599616250882279502;5014.8657;64
2024-05-20T22:21:59.575;599616250889970874;5022.5576;185
2024-05-20T22:21:59.583;599616250897662246;5030.249;545
2024-05-20T22:21:59.590;599616250905353618;5037.9404;1016
2024-05-20T22:21:59.598;599616250913044990;5045.6313;1164
2024-05-20T22:21:59.606;599616250920711314;5053.2983;721
2024-05-20T22:21:59.613;599616250928403034;5060.9893;173
2024-05-20T22:21:59.621;599616250936094754;5068.681;107
2024-05-20T22:21:59.629;599616250943786474;5076.373;247
2024-05-20T22:21:59.637;599616250951478194;5084.065;207
2024-05-20T22:21:59.644;599616250959169914;5091.7563;166
2024-05-20T22:21:59.652;599616250966861634;5099.448;190
2024-05-20T22:21:59.660;599616250974553354;5107.14;130
2024-05-20T22:21:59.667;599616250982245074;5114.832;80
2024-05-20T22:21:59.675;599616250989936794;5122.5234;133
2024-05-20T22:21:59.683;599616250997628514;5130.2153;176
2024-05-20T22:21:59.690;599616251005320234;5137.9067;161
2024-05-20T22:21:59.698;599616251013011954;5145.5986;169
2024-05-20T22:21:59.706;599616251020703674;5153.29;202
2024-05-20T22:21:59.713;599616251028395394;5160.982;216
2024-05-20T22:21:59.721;599616251036087114;5168.674;214
2024-05-20T22:21:59.729;599616251043778834;5176.3657;240
2024-05-20T22:21:59.737;599616251051470554;5184.057;278
2024-05-20T22:21:59.744;599616251059162274;5191.749;278
2024-05-20T22:21:59.752;599616251066853994;5199.441;271
2024-05-20T22:21:59.760;599616251074545714;5207.1323;311
2024-05-20T22:21:59.767;599616251082237434;5214.8237;366
2024-05-20T22:21:59.775;599616251089929154;5222.5156;371
2024-05-20T22:21:59.783;599616251097620874;5230.2075;330
2024-05-20T22:21:59.790;599616251105312594;5237.8994;271
2024-05-20T22:21:59.798;599616251113004314;5245.591;218
2024-05-20T22:21:59.806;599616251120696034;5253.2827;178
2024-05-20T22:21:59.813;599616251128387754;5260.9746;142
2024-05-20T22:21:59.821;599616251136079474;5268.6665;111
2024-05-20T22:21:59.829;599616251143771194;5276.3574;71
2024-05-20T22:21:59.837;599616251151462914;5284.0493;4
2024-05-20T22:21:59.844;599616251159154634;5291.741;-54
2024-05-20T22:21:59.852;599616251166846354;5299.433;-64
2024-05-20T22:21:59.860;599616251174538074;5307.1245;-59
2024-05-20T22:21:59.867;599616251182229794;5314.8164;-69
2024-05-20T22:21:59.875;599616251189921514;5322.5083;-76
2024-05-20T22:21:59.883;599616251197613234;5330.2;-80
2024-05-20T22:21:59.890;599616251205304954;5337.8916;-76
2024-05-20T22:21:59.898;599616251212996674;5345.583;-61
2024-05-20T22:21:59.906;599616251220688394;5353.275;-49
2024-05-20T22:21:59.913;599616251228380114;5360.967;-33
2024-05-20T22:21:59.921;599616251236071834;5368.658;-14
2024-05-20T22:21:59.929;599616251243763554;5376.35;-19
2024-05-20T22:21:59.937;599616251251455274;5384.042;-23
2024-05-20T22:21:59.944;599616251259146994;5391.734;9
2024-05-20T22:21:59.952;599616251266838714;5399.4253;40
2024-05-20T22:21:59.960;599616251274530434;5407.117;42
2024-05-20T22:21:59.967;599616251282222154;5414.8086;47
2024-05-20T22:21:59.975;599616251289913874;5422.5005;57
2024-05-20T22:21:59.983;599616251297605594;5430.192;64
2024-05-20T22:21:59.990;599616251305297314;5437.884;71
2024-05-20T22:21:59.998;599616251312989034;5445.5757;92
2024-05-20T22:22:00.006;599616251320680754;5453.2676;126
2024-05-20T22:22:00.013;599616251328372474;5460.9595;138
2024-05-20T22:22:00.021;599616251336064194;5468.651;121
2024-05-20T22:22:00.029;599616251343755914;5476.343;126
2024-05-20T22:22:00.037;599616251351447634;5484.034;149
2024-05-20T22:22:00.044;599616251359139354;5491.7256;133
2024-05-20T22:22:00.052;599616251366831074;5499.4175;64
2024-05-20T22:22:00.060;599616251374522794;5507.1094;-7
2024-05-20T22:22:00.067;599616251382214514;5514.8013;-21
2024-05-20T22:22:00.075;599616251389906234;5522.493;11
2024-05-20T22:22:00.083;599616251397597954;5530.1846;40
2024-05-20T22:22:00.090;599616251405289674;5537.8765;66
2024-05-20T22:22:00.098;599616251412981394;5545.5684;109
2024-05-20T22:22:00.106;599616251420673114;5553.2593;126
2024-05-20T22:22:00.113;599616251428364834;5560.951;116
2024-05-20T22:22:00.121;599616251436056554;5568.643;133
2024-05-20T22:22:00.129;599616251443748274;5576.335;173
2024-05-20T22:22:00.137;599616251451439994;5584.027;176
2024-05-20T22:22:00.144;599616251459131714;5591.7183;152
2024-05-20T22:22:00.152;599616251466823434;5599.41;188
2024-05-20T22:22:00.160;599616251474515154;5607.102;409
2024-05-20T22:22:00.167;599616251482226996;5614.8135;835
2024-05-20T22:22:00.175;599616251489918437;5622.505;1171
2024-05-20T22:22:00.183;599616251497609878;5630.197;1009
2024-05-20T22:22:00.190;599616251505301319;5637.888;459
2024-05-20T22:22:00.198;599616251512992760;5645.579;133
2024-05-20T22:22:00.206;599616251520684201;5653.271;202
2024-05-20T22:22:00.213;599616251528375642;5660.9624;257
2024-05-20T22:22:00.221;599616251536067083;5668.654;185
2024-05-20T22:22:00.229;599616251543758524;5676.345;140
2024-05-20T22:22:00.237;599616251551449965;5684.0366;128
2024-05-20T22:22:00.244;599616251559141406;5691.728;140
2024-05-20T22:22:00.252;599616251566832847;5699.4194;159
2024-05-20T22:22:00.260;599616251574524288;5707.111;159
2024-05-20T22:22:00.267;599616251582215729;5714.8022;169
2024-05-20T22:22:00.275;599616251589907170;5722.494;209
2024-05-20T22:22:00.283;599616251597598611;5730.185;235
2024-05-20T22:22:00.290;599616251605290052;5737.8765;211
2024-05-20T22:22:00.298;599616251612981493;5745.5684;173
2024-05-20T22:22:00.306;599616251620672934;5753.2593;192
2024-05-20T22:22:00.313;599616251628364375;5760.9507;238
2024-05-20T22:22:00.321;599616251636055816;5768.6426;252
2024-05-20T22:22:00.329;599616251643747257;5776.334;271
2024-05-20T22:22:00.337;599616251651438698;5784.0254;316
2024-05-20T22:22:00.344;599616251659130139;5791.717;330
2024-05-20T22:22:00.352;599616251666821580;5799.408;316
2024-05-20T22:22:00.360;599616251674513021;5807.1;304
2024-05-20T22:22:00.367;599616251682204462;5814.791;297
2024-05-20T22:22:00.375;599616251689895903;5822.4824;295
2024-05-20T22:22:00.383;599616251697587344;5830.1743;280
2024-05-20T22:22:00.390;599616251705278785;5837.865;238
2024-05-20T22:22:00.398;599616251712970226;5845.5566;183
2024-05-20T22:22:00.406;599616251720661667;5853.2485;145
2024-05-20T22:22:00.413;599616251728353108;5860.94;99
2024-05-20T22:22:00.421;599616251736044549;5868.631;42
2024-05-20T22:22:00.429;599616251743735990;5876.3228;9
2024-05-20T22:22:00.437;599616251751427431;5884.014;-16
2024-05-20T22:22:00.444;599616251759118872;5891.7056;-40
2024-05-20T22:22:00.452;599616251766810313;5899.397;-33
2024-05-20T22:22:00.460;599616251774501754;5907.0884;-11
2024-05-20T22:22:00.467;599616251782193195;5914.78;-16
2024-05-20T22:22:00.475;599616251789884636;5922.471;-28
2024-05-20T22:22:00.483;599616251797576077;5930.1626;-21
2024-05-20T22:22:00.490;599616251805267518;5937.854;-7
2024-05-20T22:22:00.498;599616251812958959;5945.546;0
2024-05-20T22:22:00.506;599616251820650400;5953.237;7
2024-05-20T22:22:00.513;599616251828341841;5960.928;33
2024-05-20T22:22:00.521;599616251836033282;5968.62;57
2024-05-20T22:22:00.529;599616251843724723;5976.3115;45
2024-05-20T22:22:00.537;599616251851416164;5984.003;7
2024-05-20T22:22:00.544;599616251859107605;5991.6943;-9
2024-05-20T22:22:00.552;599616251866799046;5999.3857;-19
2024-05-20T22:22:00.560;599616251874490487;6007.077;-78
2024-05-20T22:22:00.567;599616251882181928;6014.7686;-116
2024-05-20T22:22:00.575;599616251889873369;6022.46;-83
2024-05-20T22:22:00.583;599616251897564810;6030.152;-45
2024-05-20T22:22:00.590;599616251905256251;6037.843;-33
2024-05-20T22:22:00.598;599616251912947692;6045.534;-11
2024-05-20T22:22:00.606;599616251920639133;6053.226;30
2024-05-20T22:22:00.613;599616251928330574;6060.9175;47
2024-05-20T22:22:00.621;599616251936022015;6068.6084;38
2024-05-20T22:22:00.629;599616251943713456;6076.3003;49
2024-05-20T22:22:00.636;599616251951404897;6083.9917;90
2024-05-20T22:22:00.644;599616251959096338;6091.6826;126
2024-05-20T22:22:00.652;599616251966787779;6099.3745;142
2024-05-20T22:22:00.660;599616251974479220;6107.066;159
2024-05-20T22:22:00.667;599616251982170661;6114.7573;180
2024-05-20T22:22:00.675;599616251989862102;6122.4487;195
2024-05-20T22:22:00.683;599616251997553543;6130.14;202
2024-05-20T22:22:00.690;599616252005244984;6137.8315;223
2024-05-20T22:22:00.698;599616252012936425;6145.5234;257
2024-05-20T22:22:00.706;599616252020627866;6153.2144;268
2024-05-20T22:22:00.713;599616252028319307;6160.906;247
2024-05-20T22:22:00.721;599616252036010748;6168.5977;240
2024-05-20T22:22:00.729;599616252043707216;6176.294;242
2024-05-20T22:22:00.736;599616252051398588;6183.9854;228
2024-05-20T22:22:00.744;599616252059089960;6191.6763;316
2024-05-20T22:22:00.752;599616252066781332;6199.368;659
2024-05-20T22:22:00.760;599616252074472704;6207.0596;1111
2024-05-20T22:22:00.767;599616252082164076;6214.7505;1180
2024-05-20T22:22:00.775;599616252089855448;6222.442;645
2024-05-20T22:22:00.783;599616252097546820;6230.1333;52
2024-05-20T22:22:00.790;599616252105238192;6237.825;-45
2024-05-20T22:22:00.798;599616252112929564;6245.516;73
2024-05-20T22:22:00.806;599616252120620936;6253.2075;30
2024-05-20T22:22:00.813;599616252128312308;6260.899;-2
2024-05-20T22:22:00.821;599616252136003680;6268.591;78
2024-05-20T22:22:00.829;599616252143695052;6276.2817;109
2024-05-20T22:22:00.836;599616252151386424;6283.973;102
2024-05-20T22:22:00.844;599616252159077796;6291.6646;130
2024-05-20T22:22:00.852;599616252166769168;6299.3555;154
2024-05-20T22:22:00.860;599616252174460540;6307.0474;154
2024-05-20T22:22:00.867;599616252182151912;6314.739;178
2024-05-20T22:22:00.875;599616252189843284;6322.43;221
2024-05-20T22:22:00.883;599616252197534656;6330.121;247
2024-05-20T22:22:00.890;599616252205226028;6337.8125;247
2024-05-20T22:22:00.898;599616252212917400;6345.5044;242
2024-05-20T22:22:00.906;599616252220608772;6353.1953;271
2024-05-20T22:22:00.913;599616252228300144;6360.8867;304
2024-05-20T22:22:00.921;599616252235991516;6368.578;299
2024-05-20T22:22:00.929;599616252243682888;6376.2695;280
2024-05-20T22:22:00.936;599616252251374260;6383.961;280
2024-05-20T22:22:00.944;599616252259065632;6391.6523;280
2024-05-20T22:22:00.952;599616252266757004;6399.3438;266
2024-05-20T22:22:00.960;599616252274448376;6407.0347;254
2024-05-20T22:22:00.967;599616252282139748;6414.7266;233
2024-05-20T22:22:00.975;599616252289831120;6422.418;195
2024-05-20T22:22:00.983;599616252297522492;6430.1094;128
2024-05-20T22:22:00.990;599616252305213864;6437.8003;61
2024-05-20T22:22:00.998;599616252312905236;6445.4917;49
2024-05-20T22:22:01.006;599616252320596608;6453.1836;42
2024-05-20T22:22:01.013;599616252328287980;6460.8745;0
2024-05-20T22:22:01.021;599616252335979352;6468.566;-23
2024-05-20T22:22:01.029;599616252343670724;6476.2573;-61
2024-05-20T22:22:01.036;599616252351362096;6483.9487;-142
2024-05-20T22:22:01.044;599616252359053468;6491.64;-173
2024-05-20T22:22:01.052;599616252366744840;6499.3315;-140
2024-05-20T22:22:01.060;599616252374436212;6507.023;-159
2024-05-20T22:22:01.067;599616252382127584;6514.7144;-252
2024-05-20T22:22:01.075;599616252389818956;6522.4053;-285
2024-05-20T22:22:01.083;599616252397510328;6530.097;-240
2024-05-20T22:22:01.090;599616252405201700;6537.7886;-207
2024-05-20T22:22:01.098;599616252412893072;6545.4795;-192
2024-05-20T22:22:01.106;599616252420584444;6553.171;-161
2024-05-20T22:22:01.113;599616252428275816;6560.863;-119
2024-05-20T22:22:01.121;599616252435967188;6568.554;-99
2024-05-20T22:22:01.129;599616252443658560;6576.245;-111
2024-05-20T22:22:01.136;599616252451349932;6583.9365;-99
2024-05-20T22:22:01.144;599616252459041304;6591.628;-45
2024-05-20T22:22:01.152;599616252466732676;6599.3193;-7
2024-05-20T22:22:01.160;599616252474424048;6607.0107;0
2024-05-20T22:22:01.167;599616252482115420;6614.702;14
2024-05-20T22:22:01.175;599616252489806792;6622.3936;35
2024-05-20T22:22:01.183;599616252497498164;6630.0845;49
2024-05-20T22:22:01.190;599616252505189536;6637.7764;61
2024-05-20T22:22:01.198;599616252512880908;6645.468;85
2024-05-20T22:22:01.206;599616252520572280;6653.1587;123
2024-05-20T22:22:01.213;599616252528263652;6660.85;138
2024-05-20T22:22:01.221;599616252535955024;6668.5415;126
2024-05-20T22:22:01.229;599616252543646396;6676.2334;138
2024-05-20T22:22:01.236;599616252551337768;6683.9243;183
2024-05-20T22:22:01.244;599616252559029140;6691.6157;211
2024-05-20T22:22:01.252;599616252566720512;6699.307;226
2024-05-20T22:22:01.259;599616252574411884;6706.999;242
2024-05-20T22:22:01.267;599616252582103256;6714.69;242
2024-05-20T22:22:01.275;599616252589794628;6722.3813;226
2024-05-20T22:22:01.283;599616252597486000;6730.0728;216
2024-05-20T22:22:01.290;599616252605167372;6737.754;235
2024-05-20T22:22:01.298;599616252612858883;6745.4453;266
2024-05-20T22:22:01.306;599616252620550394;6753.137;252
2024-05-20T22:22:01.313;599616252628241905;6760.8286;195
2024-05-20T22:22:01.321;599616252635933416;6768.52;211
2024-05-20T22:22:01.329;599616252643624927;6776.2114;464
2024-05-20T22:22:01.336;599616252651316438;6783.9033;890
2024-05-20T22:22:01.344;599616252659007949;6791.5947;1164
2024-05-20T22:22:01.352;599616252666699460;6799.286;956
2024-05-20T22:22:01.359;599616252674390971;6806.9775;380
2024-05-20T22:22:01.367;599616252682082482;6814.6694;28
2024-05-20T22:22:01.375;599616252689773993;6822.3604;119
2024-05-20T22:22:01.383;599616252697465504;6830.0522;230
2024-05-20T22:22:01.390;599616252705157015;6837.7437;180
2024-05-20T22:22:01.398;599616252712848526;6845.4355;166
2024-05-20T22:22:01.406;599616252720540037;6853.1265;188
2024-05-20T22:22:01.413;599616252728231548;6860.8184;188
2024-05-20T22:22:01.421;599616252735923059;6868.51;211
2024-05-20T22:22:01.429;599616252743614570;6876.2017;238
2024-05-20T22:22:01.436;599616252751306081;6883.8926;247
2024-05-20T22:22:01.444;599616252758997592;6891.584;264
2024-05-20T22:22:01.452;599616252766689103;6899.276;278
2024-05-20T22:22:01.459;599616252774380614;6906.967;271
2024-05-20T22:22:01.467;599616252782072125;6914.6587;273
2024-05-20T22:22:01.475;599616252789763636;6922.35;278
2024-05-20T22:22:01.483;599616252797455147;6930.042;252
2024-05-20T22:22:01.490;599616252805146658;6937.733;226
2024-05-20T22:22:01.498;599616252812838169;6945.425;218
2024-05-20T22:22:01.506;599616252820529680;6953.116;218
2024-05-20T22:22:01.513;599616252828221191;6960.808;197
2024-05-20T22:22:01.521;599616252835912702;6968.499;145
2024-05-20T22:22:01.529;599616252843604213;6976.191;85
2024-05-20T22:22:01.536;599616252851295724;6983.8823;47
2024-05-20T22:22:01.544;599616252858987235;6991.574;16
2024-05-20T22:22:01.552;599616252866678746;6999.265;-7
2024-05-20T22:22:01.559;599616252874370257;7006.957;-16
2024-05-20T22:22:01.567;599616252882061768;7014.6484;-59
2024-05-20T22:22:01.575;599616252889753279;7022.3403;-157
2024-05-20T22:22:01.583;599616252897444790;7030.0312;-211
2024-05-20T22:22:01.590;599616252905136301;7037.723;-207
2024-05-20T22:22:01.598;599616252912827812;7045.4146;-202
2024-05-20T22:22:01.606;599616252920519323;7053.106;-204
2024-05-20T22:22:01.613;599616252928210834;7060.7974;-192
2024-05-20T22:22:01.621;599616252935902345;7068.4893;-159
2024-05-20T22:22:01.629;599616252943593856;7076.1807;-135
2024-05-20T22:22:01.636;599616252951285367;7083.872;-154
2024-05-20T22:22:01.644;599616252958976878;7091.5635;-154
2024-05-20T22:22:01.652;599616252966668389;7099.2554;-104
2024-05-20T22:22:01.659;599616252974359900;7106.947;-61
2024-05-20T22:22:01.667;599616252982051411;7114.6377;-49
2024-05-20T22:22:01.675;599616252989742922;7122.3296;-40
2024-05-20T22:22:01.683;599616252997434433;7130.021;-21
2024-05-20T22:22:01.690;599616253005125944;7137.7124;-2
2024-05-20T22:22:01.698;599616253012817455;7145.404;7
2024-05-20T22:22:01.706;599616253020508966;7153.0957;23
2024-05-20T22:22:01.713;599616253028200477;7160.787;57
2024-05-20T22:22:01.721;599616253035891988;7168.4785;73
2024-05-20T22:22:01.729;599616253043583499;7176.17;49
2024-05-20T22:22:01.736;599616253051275010;7183.862;47
2024-05-20T22:22:01.744;599616253058966521;7191.553;92
2024-05-20T22:22:01.752;599616253066658032;7199.2446;135
2024-05-20T22:22:01.759;599616253074349543;7206.936;149
2024-05-20T22:22:01.767;599616253082041054;7214.628;133
2024-05-20T22:22:01.775;599616253089732565;7222.3193;92
2024-05-20T22:22:01.783;599616253097424076;7230.0107;85
2024-05-20T22:22:01.790;599616253105115587;7237.702;109
2024-05-20T22:22:01.798;599616253112807098;7245.394;123
2024-05-20T22:22:01.806;599616253120498609;7253.085;147
2024-05-20T22:22:01.813;599616253128190120;7260.777;173
2024-05-20T22:22:01.821;599616253135881631;7268.4683;171
2024-05-20T22:22:01.829;599616253143573142;7276.16;173
2024-05-20T22:22:01.836;599616253151264653;7283.851;221
2024-05-20T22:22:01.844;599616253158956164;7291.543;261
2024-05-20T22:22:01.852;599616253166637700;7299.2246;264
2024-05-20T22:22:01.859;599616253174329350;7306.916;266
2024-05-20T22:22:01.867;599616253182021000;7314.6074;278
2024-05-20T22:22:01.875;599616253189712650;7322.2993;280
2024-05-20T22:22:01.882;599616253197404300;7329.991;280
2024-05-20T22:22:01.890;599616253205095950;7337.6826;302
2024-05-20T22:22:01.898;599616253212787600;7345.374;316
2024-05-20T22:22:01.906;599616253220479250;7353.066;276
2024-05-20T22:22:01.913;599616253228170900;7360.758;266
2024-05-20T22:22:01.921;599616253235862550;7368.449;490
2024-05-20T22:22:01.929;599616253243554200;7376.1406;959
2024-05-20T22:22:01.936;599616253251245850;7383.8325;1271
2024-05-20T22:22:01.944;599616253258937500;7391.5244;1004
2024-05-20T22:22:01.952;599616253266629150;7399.216;388
2024-05-20T22:22:01.959;599616253274320800;7406.907;78
2024-05-20T22:22:01.967;599616253282012450;7414.599;171
2024-05-20T22:22:01.975;599616253289704100;7422.291;216
2024-05-20T22:22:01.982;599616253297395750;7429.9824;154
2024-05-20T22:22:01.990;599616253305087400;7437.674;185
2024-05-20T22:22:01.998;599616253312779050;7445.3657;218
2024-05-20T22:22:02.006;599616253320470700;7453.0576;178
2024-05-20T22:22:02.013;599616253328162350;7460.749;149
2024-05-20T22:22:02.021;599616253335854000;7468.4404;133
2024-05-20T22:22:02.029;599616253343545650;7476.1323;90
2024-05-20T22:22:02.036;599616253351237300;7483.824;66
2024-05-20T22:22:02.044;599616253358928950;7491.5156;88
2024-05-20T22:22:02.052;599616253366620600;7499.207;95
2024-05-20T22:22:02.059;599616253374312250;7506.899;54
2024-05-20T22:22:02.067;599616253382003900;7514.591;-9
2024-05-20T22:22:02.075;599616253389695550;7522.282;-99
2024-05-20T22:22:02.082;599616253397387200;7529.9736;-192
2024-05-20T22:22:02.090;599616253405078850;7537.6655;-230
2024-05-20T22:22:02.098;599616253412770500;7545.3574;-218
2024-05-20T22:22:02.106;599616253420462150;7553.0483;-190
2024-05-20T22:22:02.113;599616253428153800;7560.74;-161
2024-05-20T22:22:02.121;599616253435845450;7568.432;-145
2024-05-20T22:22:02.129;599616253443537100;7576.124;-119
2024-05-20T22:22:02.136;599616253451228750;7583.815;-90
2024-05-20T22:22:02.144;599616253458920400;7591.507;-92
2024-05-20T22:22:02.152;599616253466612050;7599.1987;-102
2024-05-20T22:22:02.159;599616253474303700;7606.8906;-78
2024-05-20T22:22:02.167;599616253481995350;7614.5815;-45
2024-05-20T22:22:02.175;599616253489687000;7622.2734;-42
2024-05-20T22:22:02.182;599616253497378650;7629.9653;-57
2024-05-20T22:22:02.190;599616253505070300;7637.657;-64
2024-05-20T22:22:02.198;599616253512761950;7645.3486;-49
2024-05-20T22:22:02.206;599616253520453600;7653.04;-38
2024-05-20T22:22:02.213;599616253528145250;7660.732;-26
2024-05-20T22:22:02.221;599616253535836900;7668.424;2
2024-05-20T22:22:02.229;599616253543528550;7676.115;30
2024-05-20T22:22:02.236;599616253551220200;7683.8066;23
2024-05-20T22:22:02.244;599616253558911850;7691.4985;21
2024-05-20T22:22:02.252;599616253566603500;7699.1904;47
2024-05-20T22:22:02.259;599616253574295150;7706.882;42
2024-05-20T22:22:02.267;599616253581986800;7714.573;4
2024-05-20T22:22:02.275;599616253589678450;7722.265;0
2024-05-20T22:22:02.282;599616253597370100;7729.957;23
2024-05-20T22:22:02.290;599616253605061750;7737.6484;42
2024-05-20T22:22:02.298;599616253612753400;7745.34;64
2024-05-20T22:22:02.306;599616253620445050;7753.0317;88
2024-05-20T22:22:02.313;599616253628136700;7760.7236;116
2024-05-20T22:22:02.321;599616253635828350;7768.415;142
2024-05-20T22:22:02.329;599616253643520000;7776.1064;135
2024-05-20T22:22:02.336;599616253651211650;7783.7983;130
2024-05-20T22:22:02.344;599616253658903300;7791.49;171
2024-05-20T22:22:02.352;599616253666594950;7799.1816;209
2024-05-20T22:22:02.359;599616253674286600;7806.873;211
2024-05-20T22:22:02.367;599616253681978250;7814.565;211
2024-05-20T22:22:02.375;599616253689669900;7822.257;228
2024-05-20T22:22:02.382;599616253697361550;7829.948;238
2024-05-20T22:22:02.390;599616253705053200;7837.6396;240
2024-05-20T22:22:02.398;599616253712744850;7845.3315;254
2024-05-20T22:22:02.406;599616253720436500;7853.0234;278
2024-05-20T22:22:02.413;599616253728148226;7860.735;292
2024-05-20T22:22:02.421;599616253735839598;7868.4263;280
2024-05-20T22:22:02.429;599616253743530970;7876.1177;280
2024-05-20T22:22:02.436;599616253751222342;7883.8086;321
2024-05-20T22:22:02.444;599616253758913714;7891.5005;352
2024-05-20T22:22:02.452;599616253766605086;7899.192;347
2024-05-20T22:22:02.459;599616253774296458;7906.8833;342
2024-05-20T22:22:02.467;599616253781987830;7914.574;342
2024-05-20T22:22:02.475;599616253789679202;7922.266;314
2024-05-20T22:22:02.482;599616253797370574;7929.9575;254
2024-05-20T22:22:02.490;599616253805061946;7937.6484;235
2024-05-20T22:22:02.498;599616253812753318;7945.34;252
2024-05-20T22:22:02.506;599616253820444690;7953.0312;199
2024-05-20T22:22:02.513;599616253828136062;7960.723;130
2024-05-20T22:22:02.521;599616253835827434;7968.414;283
2024-05-20T22:22:02.529;599616253843518806;7976.1055;718
2024-05-20T22:22:02.536;599616253851210178;7983.797;1135
2024-05-20T22:22:02.544;599616253858901550;7991.488;1102
2024-05-20T22:22:02.552;599616253866592922;7999.1797;585
2024-05-20T22:22:02.559;599616253874284294;8006.871;145
2024-05-20T22:22:02.567;599616253881975666;8014.5625;154
2024-05-20T22:22:02.575;599616253889667038;8022.2534;230
2024-05-20T22:22:02.582;599616253897358410;8029.945;78
2024-05-20T22:22:02.590;599616253905049782;8037.6367;-47
2024-05-20T22:22:02.598;599616253912741154;8045.3276;-33
2024-05-20T22:22:02.606;599616253920432526;8053.019;-33
2024-05-20T22:22:02.613;599616253928123898;8060.7104;-54
2024-05-20T22:22:02.621;599616253935815270;8068.4023;-57
2024-05-20T22:22:02.629;599616253943506642;8076.0933;-83
2024-05-20T22:22:02.636;599616253951198014;8083.7847;-119
2024-05-20T22:22:02.644;599616253958889386;8091.476;-142
2024-05-20T22:22:02.652;599616253966580758;8099.167;-169
2024-05-20T22:22:02.659;599616253974272130;8106.859;-180
2024-05-20T22:22:02.667;599616253981963502;8114.5503;-166
2024-05-20T22:22:02.675;599616253989654874;8122.2417;-130
2024-05-20T22:22:02.682;599616253997346246;8129.9326;-102
2024-05-20T22:22:02.690;599616254005037618;8137.624;-107
2024-05-20T22:22:02.698;599616254012728990;8145.316;-109
2024-05-20T22:22:02.706;599616254020420362;8153.0073;-66
2024-05-20T22:22:02.713;599616254028111734;8160.698;-28
2024-05-20T22:22:02.721;599616254035803106;8168.3896;-35
2024-05-20T22:22:02.729;599616254043494478;8176.081;-23
2024-05-20T22:22:02.736;599616254051185850;8183.7725;16
2024-05-20T22:22:02.744;599616254058877222;8191.464;16
2024-05-20T22:22:02.752;599616254066568594;8199.155;-14
2024-05-20T22:22:02.759;599616254074259966;8206.847;-30
2024-05-20T22:22:02.767;599616254081951338;8214.538;-14
2024-05-20T22:22:02.775;599616254089642710;8222.2295;0
2024-05-20T22:22:02.782;599616254097334082;8229.921;-14
2024-05-20T22:22:02.790;599616254105025454;8237.612;-21
2024-05-20T22:22:02.798;599616254112716826;8245.304;-4
2024-05-20T22:22:02.805;599616254120408198;8252.995;4
2024-05-20T22:22:02.813;599616254128099570;8260.687;11
2024-05-20T22:22:02.821;599616254135790942;8268.378;42
2024-05-20T22:22:02.829;599616254143482314;8276.069;71
2024-05-20T22:22:02.836;599616254151173686;8283.76;61
2024-05-20T22:22:02.844;599616254158865058;8291.452;57
2024-05-20T22:22:02.852;599616254166556430;8299.144;97
2024-05-20T22:22:02.859;599616254174247802;8306.834;140
2024-05-20T22:22:02.867;599616254181939174;8314.525;147
2024-05-20T22:22:02.875;599616254189630546;8322.217;147
2024-05-20T22:22:02.882;599616254197321918;8329.909;157
2024-05-20T22:22:02.890;599616254205013290;8337.6;173
2024-05-20T22:22:02.898;599616254212704662;8345.291;183
2024-05-20T22:22:02.905;599616254220396034;8352.982;192
2024-05-20T22:22:02.913;599616254228087406;8360.674;221
2024-05-20T22:22:02.921;599616254235778778;8368.365;238
2024-05-20T22:22:02.929;599616254243470150;8376.057;221
2024-05-20T22:22:02.936;599616254251161522;8383.748;209
2024-05-20T22:22:02.944;599616254258852894;8391.439;238
2024-05-20T22:22:02.952;599616254266544266;8399.131;268
2024-05-20T22:22:02.959;599616254274235638;8406.822;276
2024-05-20T22:22:02.967;599616254281927010;8414.514;273
2024-05-20T22:22:02.975;599616254289593334;8422.18;276
2024-05-20T22:22:02.982;599616254297285054;8429.872;278
2024-05-20T22:22:02.990;599616254304976774;8437.563;273
2024-05-20T22:22:02.998;599616254312668494;8445.255;242
2024-05-20T22:22:03.005;599616254320360214;8452.947;204
2024-05-20T22:22:03.013;599616254328051934;8460.639;192
2024-05-20T22:22:03.021;599616254335743654;8468.33;188
2024-05-20T22:22:03.029;599616254343435374;8476.022;192
2024-05-20T22:22:03.036;599616254351127094;8483.714;228
2024-05-20T22:22:03.044;599616254358818814;8491.405;233
2024-05-20T22:22:03.052;599616254366510534;8499.097;173
2024-05-20T22:22:03.059;599616254374202254;8506.789;142
2024-05-20T22:22:03.067;599616254381893974;8514.48;161
2024-05-20T22:22:03.075;599616254389585694;8522.173;169
2024-05-20T22:22:03.082;599616254397277414;8529.864;152
2024-05-20T22:22:03.090;599616254404969134;8537.556;109
2024-05-20T22:22:03.098;599616254412660854;8545.248;54
2024-05-20T22:22:03.105;599616254420352574;8552.939;33
2024-05-20T22:22:03.113;599616254428044294;8560.631;16
2024-05-20T22:22:03.121;599616254435736014;8568.322;11
2024-05-20T22:22:03.129;599616254443427734;8576.015;154
2024-05-20T22:22:03.136;599616254451119454;8583.706;523
2024-05-20T22:22:03.144;599616254458811174;8591.397;945
2024-05-20T22:22:03.152;599616254466502894;8599.089;997
2024-05-20T22:22:03.159;599616254474194614;8606.781;487
2024-05-20T22:22:03.167;599616254481886334;8614.473;-42
2024-05-20T22:22:03.175;599616254489578054;8622.165;-73
2024-05-20T22:22:03.182;599616254497269774;8629.856;45
2024-05-20T22:22:03.190;599616254504961494;8637.549;-52
2024-05-20T22:22:03.198;599616254512653214;8645.24;-147
2024-05-20T22:22:03.205;599616254520344934;8652.932;-157
2024-05-20T22:22:03.213;599616254528036654;8660.623;-195
2024-05-20T22:22:03.221;599616254535728374;8668.314;-204
2024-05-20T22:22:03.229;599616254543420094;8676.007;-183
2024-05-20T22:22:03.236;599616254551111814;8683.698;-188
2024-05-20T22:22:03.244;599616254558803534;8691.391;-218
2024-05-20T22:22:03.252;599616254566495254;8699.082;-259
2024-05-20T22:22:03.259;599616254574186974;8706.774;-273
2024-05-20T22:22:03.267;599616254581878694;8714.465;-238
2024-05-20T22:22:03.275;599616254589570414;8722.157;-192
2024-05-20T22:22:03.282;599616254597262134;8729.849;-164
2024-05-20T22:22:03.290;599616254604953854;8737.54;-152
2024-05-20T22:22:03.298;599616254612645574;8745.232;-145
2024-05-20T22:22:03.305;599616254620337294;8752.924;-107
2024-05-20T22:22:03.313;599616254628029014;8760.616;-59
2024-05-20T22:22:03.321;599616254635720734;8768.308;-28
2024-05-20T22:22:03.328;599616254643412454;8775.999;2
2024-05-20T22:22:03.336;599616254651104174;8783.69;33
2024-05-20T22:22:03.344;599616254658795894;8791.383;40
2024-05-20T22:22:03.352;599616254666487614;8799.074;38
2024-05-20T22:22:03.359;599616254674179334;8806.766;64
2024-05-20T22:22:03.367;599616254681871054;8814.458;99
2024-05-20T22:22:03.375;599616254689562774;8822.149;111
2024-05-20T22:22:03.382;599616254697254494;8829.842;102
2024-05-20T22:22:03.390;599616254704946214;8837.532;97
2024-05-20T22:22:03.398;599616254712637934;8845.225;109
2024-05-20T22:22:03.405;599616254720329654;8852.916;114
2024-05-20T22:22:03.413;599616254728021374;8860.608;109
2024-05-20T22:22:03.421;599616254735713094;8868.3;128
2024-05-20T22:22:03.428;599616254743404814;8875.991;152
2024-05-20T22:22:03.436;599616254751096534;8883.684;142
2024-05-20T22:22:03.444;599616254758788254;8891.375;135
2024-05-20T22:22:03.452;599616254766479974;8899.066;173
2024-05-20T22:22:03.459;599616254774171694;8906.758;209
2024-05-20T22:22:03.467;599616254781863414;8914.45;204
2024-05-20T22:22:03.475;599616254789555134;8922.142;199
2024-05-20T22:22:03.482;599616254797246854;8929.834;207
2024-05-20T22:22:03.490;599616254804938574;8937.525;178
2024-05-20T22:22:03.498;599616254812630294;8945.217;128
2024-05-20T22:22:03.505;599616254820322014;8952.909;128
2024-05-20T22:22:03.513;599616254828013734;8960.6;171
2024-05-20T22:22:03.521;599616254835705454;8968.292;188
2024-05-20T22:22:03.528;599616254843397174;8975.983;164
2024-05-20T22:22:03.536;599616254851109016;8983.695;159
2024-05-20T22:22:03.544;599616254858800457;8991.387;195
2024-05-20T22:22:03.552;599616254866491898;8999.079;223
2024-05-20T22:22:03.559;599616254874183339;9006.7705;228
2024-05-20T22:22:03.567;599616254881874780;9014.462;230
2024-05-20T22:22:03.575;599616254889566221;9022.152;228
2024-05-20T22:22:03.582;599616254897257662;9029.844;214
2024-05-20T22:22:03.590;599616254904949103;9037.536;149
2024-05-20T22:22:03.598;599616254912640544;9045.228;40
2024-05-20T22:22:03.605;599616254920331985;9052.919;-21
2024-05-20T22:22:03.613;599616254928023426;9060.61;-4
2024-05-20T22:22:03.621;599616254935714867;9068.302;-4
2024-05-20T22:22:03.628;599616254943406308;9075.992;-7
2024-05-20T22:22:03.636;599616254951097749;9083.685;45
2024-05-20T22:22:03.644;599616254958789190;9091.376;78
2024-05-20T22:22:03.652;599616254966480631;9099.067;85
2024-05-20T22:22:03.659;599616254974172072;9106.759;119
2024-05-20T22:22:03.667;599616254981863513;9114.45;145
2024-05-20T22:22:03.675;599616254989554954;9122.142;145
2024-05-20T22:22:03.682;599616254997246395;9129.833;161
2024-05-20T22:22:03.690;599616255004937836;9137.524;197
2024-05-20T22:22:03.698;599616255012629277;9145.216;221
2024-05-20T22:22:03.705;599616255020320718;9152.907;221
2024-05-20T22:22:03.713;599616255028012159;9160.599;195
2024-05-20T22:22:03.721;599616255035703600;9168.29;159
2024-05-20T22:22:03.728;599616255043395041;9175.982;133
2024-05-20T22:22:03.736;599616255051086482;9183.674;190
2024-05-20T22:22:03.744;599616255058777923;9191.364;490
2024-05-20T22:22:03.752;599616255066469364;9199.056;925
2024-05-20T22:22:03.759;599616255074160805;9206.747;968
2024-05-20T22:22:03.767;599616255081852246;9214.438;407
2024-05-20T22:22:03.775;599616255089543687;9222.131;-138
2024-05-20T22:22:03.782;599616255097235128;9229.822;-159
2024-05-20T22:22:03.790;599616255104926569;9237.514;-61
2024-05-20T22:22:03.798;599616255112618010;9245.204;-178
2024-05-20T22:22:03.805;599616255120309451;9252.8955;-249
2024-05-20T22:22:03.813;599616255128000892;9260.588;-190
2024-05-20T22:22:03.821;599616255135692333;9268.279;-169
2024-05-20T22:22:03.828;599616255143383774;9275.971;-188
2024-05-20T22:22:03.836;599616255151075215;9283.662;-173
2024-05-20T22:22:03.844;599616255158766656;9291.354;-147
2024-05-20T22:22:03.852;599616255166458097;9299.044;-147
2024-05-20T22:22:03.859;599616255174149538;9306.736;-145
2024-05-20T22:22:03.867;599616255181840979;9314.428;-116
2024-05-20T22:22:03.875;599616255189532420;9322.119;-78
2024-05-20T22:22:03.882;599616255197223861;9329.811;-49
2024-05-20T22:22:03.890;599616255204915302;9337.502;-33
2024-05-20T22:22:03.898;599616255212606743;9345.193;-26
2024-05-20T22:22:03.905;599616255220298184;9352.885;2
2024-05-20T22:22:03.913;599616255227989625;9360.576;38
2024-05-20T22:22:03.921;599616255235681066;9368.268;57
2024-05-20T22:22:03.928;599616255243372507;9375.959;95
2024-05-20T22:22:03.936;599616255251063948;9383.65;145
2024-05-20T22:22:03.944;599616255258755389;9391.342;147
2024-05-20T22:22:03.952;599616255266446830;9399.034;138
2024-05-20T22:22:03.959;599616255274138271;9406.726;166
2024-05-20T22:22:03.967;599616255281829712;9414.416;204
2024-05-20T22:22:03.975;599616255289521153;9422.107;216
2024-05-20T22:22:03.982;599616255297212594;9429.799;197
2024-05-20T22:22:03.990;599616255304904035;9437.491;138
2024-05-20T22:22:03.998;599616255312595476;9445.183;109
2024-05-20T22:22:04.005;599616255320286917;9452.874;121
2024-05-20T22:22:04.013;599616255327978358;9460.565;121
2024-05-20T22:22:04.021;599616255335669799;9468.256;119
2024-05-20T22:22:04.028;599616255343361240;9475.947;133
2024-05-20T22:22:04.036;599616255351052681;9483.64;116
2024-05-20T22:22:04.044;599616255358744122;9491.331;97
2024-05-20T22:22:04.052;599616255366435563;9499.022;138
2024-05-20T22:22:04.059;599616255374127004;9506.714;190
2024-05-20T22:22:04.067;599616255381818445;9514.405;199
2024-05-20T22:22:04.075;599616255389509886;9522.096;185
2024-05-20T22:22:04.082;599616255397201327;9529.788;188
2024-05-20T22:22:04.090;599616255404892768;9537.4795;204
2024-05-20T22:22:04.098;599616255412589236;9545.176;202
2024-05-20T22:22:04.105;599616255420280608;9552.867;149
2024-05-20T22:22:04.113;599616255427971980;9560.559;80
2024-05-20T22:22:04.121;599616255435663352;9568.25;54
2024-05-20T22:22:04.128;599616255443354724;9575.941;4
2024-05-20T22:22:04.136;599616255451046096;9583.633;-59
2024-05-20T22:22:04.144;599616255458737468;9591.323;-30
2024-05-20T22:22:04.152;599616255466428840;9599.016;26
2024-05-20T22:22:04.159;599616255474120212;9606.707;23
2024-05-20T22:22:04.167;599616255481811584;9614.398;28
2024-05-20T22:22:04.175;599616255489502956;9622.09;59
2024-05-20T22:22:04.182;599616255497194328;9629.781;76
2024-05-20T22:22:04.190;599616255504885700;9637.473;83
2024-05-20T22:22:04.198;599616255512577072;9645.163;109
2024-05-20T22:22:04.205;599616255520268444;9652.8545;142
2024-05-20T22:22:04.213;599616255527959816;9660.546;152
2024-05-20T22:22:04.221;599616255535651188;9668.238;138
2024-05-20T22:22:04.228;599616255543342560;9675.93;111
2024-05-20T22:22:04.236;599616255551033932;9683.621;85
2024-05-20T22:22:04.244;599616255558725304;9691.3125;95
2024-05-20T22:22:04.252;599616255566416676;9699.003;128
2024-05-20T22:22:04.259;599616255574108048;9706.694;147
2024-05-20T22:22:04.267;599616255581799420;9714.386;154
2024-05-20T22:22:04.275;599616255589490792;9722.077;164
2024-05-20T22:22:04.282;599616255597182164;9729.769;173
2024-05-20T22:22:04.290;599616255604873536;9737.46;199
2024-05-20T22:22:04.298;599616255612564908;9745.152;233
2024-05-20T22:22:04.305;599616255620256280;9752.844;228
2024-05-20T22:22:04.313;599616255627947652;9760.534;161
2024-05-20T22:22:04.321;599616255635639024;9768.226;109
2024-05-20T22:22:04.328;599616255643330396;9775.917;235
2024-05-20T22:22:04.336;599616255651021768;9783.608;621
2024-05-20T22:22:04.344;599616255658713140;9791.3;1044
2024-05-20T22:22:04.351;599616255666404512;9798.991;1042
2024-05-20T22:22:04.359;599616255674095884;9806.682;466
2024-05-20T22:22:04.367;599616255681787256;9814.374;-92
2024-05-20T22:22:04.375;599616255689478628;9822.065;-149
2024-05-20T22:22:04.382;599616255697170000;9829.757;-47
2024-05-20T22:22:04.390;599616255704861372;9837.448;-107
2024-05-20T22:22:04.398;599616255712552744;9845.14;-164
2024-05-20T22:22:04.405;599616255720244116;9852.831;-152
2024-05-20T22:22:04.413;599616255727935488;9860.522;-145
2024-05-20T22:22:04.421;599616255735626860;9868.213;-138
2024-05-20T22:22:04.428;599616255743318232;9875.904;-123
2024-05-20T22:22:04.436;599616255751009604;9883.596;-111
2024-05-20T22:22:04.444;599616255758700976;9891.288;-92
2024-05-20T22:22:04.451;599616255766392348;9898.9795;-85
2024-05-20T22:22:04.459;599616255774083720;9906.671;-88
2024-05-20T22:22:04.467;599616255781775092;9914.362;-76
2024-05-20T22:22:04.475;599616255789466464;9922.053;-71
2024-05-20T22:22:04.482;599616255797157836;9929.744;-95
2024-05-20T22:22:04.490;599616255804849208;9937.436;-104
2024-05-20T22:22:04.498;599616255812540580;9945.127;-83
2024-05-20T22:22:04.505;599616255820231952;9952.818;-42
2024-05-20T22:22:04.513;599616255827923324;9960.511;-4
2024-05-20T22:22:04.521;599616255835614696;9968.202;26
2024-05-20T22:22:04.528;599616255843306068;9975.893;64
2024-05-20T22:22:04.536;599616255850997440;9983.584;104
2024-05-20T22:22:04.544;599616255858688812;9991.275;114
2024-05-20T22:22:04.551;599616255866380184;9998.967;109
2024-05-20T22:22:04.559;599616255874071556;10006.658;133
2024-05-20T22:22:04.567;599616255881762928;10014.35;171
2024-05-20T22:22:04.575;599616255889454300;10022.041;180
2024-05-20T22:22:04.582;599616255897145672;10029.731;159
2024-05-20T22:22:04.590;599616255904837044;10037.424;142
2024-05-20T22:22:04.598;599616255912528416;10045.115;149
2024-05-20T22:22:04.605;599616255920219788;10052.807;161
2024-05-20T22:22:04.613;599616255927911160;10060.498;123
2024-05-20T22:22:04.621;599616255935602532;10068.189;42
2024-05-20T22:22:04.628;599616255943293904;10075.881;14
2024-05-20T22:22:04.636;599616255950985276;10083.571;28
2024-05-20T22:22:04.644;599616255958676648;10091.263;30
2024-05-20T22:22:04.651;599616255966368020;10098.954;57
2024-05-20T22:22:04.659;599616255974049392;10106.637;104
2024-05-20T22:22:04.667;599616255981740903;10114.327;123
2024-05-20T22:22:04.675;599616255989432414;10122.019;119
2024-05-20T22:22:04.682;599616255997123925;10129.71;126
2024-05-20T22:22:04.690;599616256004815436;10137.402;135
2024-05-20T22:22:04.698;599616256012506947;10145.094;102
2024-05-20T22:22:04.705;599616256020198458;10152.785;49
2024-05-20T22:22:04.713;599616256027889969;10160.477;57
2024-05-20T22:22:04.721;599616256035581480;10168.168;52
2024-05-20T22:22:04.728;599616256043272991;10175.859;-26
2024-05-20T22:22:04.736;599616256050964502;10183.551;-47
2024-05-20T22:22:04.744;599616256058656013;10191.242;21
2024-05-20T22:22:04.751;599616256066347524;10198.935;54
2024-05-20T22:22:04.759;599616256074039035;10206.626;49
2024-05-20T22:22:04.767;599616256081730546;10214.317;71
2024-05-20T22:22:04.775;599616256089422057;10222.009;97
2024-05-20T22:22:04.782;599616256097113568;10229.7;107
2024-05-20T22:22:04.790;599616256104805079;10237.392;121
2024-05-20T22:22:04.798;599616256112496590;10245.083;142
2024-05-20T22:22:04.805;599616256120188101;10252.774;176
2024-05-20T22:22:04.813;599616256127879612;10260.467;195
2024-05-20T22:22:04.821;599616256135571123;10268.158;180
2024-05-20T22:22:04.828;599616256143262634;10275.85;180
2024-05-20T22:22:04.836;599616256150954145;10283.54;226
2024-05-20T22:22:04.844;599616256158645656;10291.232;257
2024-05-20T22:22:04.851;599616256166337167;10298.924;264
2024-05-20T22:22:04.859;599616256174028678;10306.615;288
2024-05-20T22:22:04.867;599616256181720189;10314.307;302
2024-05-20T22:22:04.874;599616256189411700;10321.999;288
2024-05-20T22:22:04.882;599616256197103211;10329.69;290
2024-05-20T22:22:04.890;599616256204794722;10337.382;309
2024-05-20T22:22:04.898;599616256212486233;10345.072;309
2024-05-20T22:22:04.905;599616256220177744;10352.764;264
2024-05-20T22:22:04.913;599616256227869255;10360.456;207
2024-05-20T22:22:04.921;599616256235560766;10368.147;169
2024-05-20T22:22:04.928;599616256243252277;10375.839;159
2024-05-20T22:22:04.936;599616256250943788;10383.53;259
2024-05-20T22:22:04.944;599616256258635299;10391.223;597
2024-05-20T22:22:04.951;599616256266326810;10398.913;997
2024-05-20T22:22:04.959;599616256274018321;10406.6045;952
2024-05-20T22:22:04.967;599616256281709832;10414.296;347
2024-05-20T22:22:04.974;599616256289401343;10421.988;-183
2024-05-20T22:22:04.982;599616256297092854;10429.68;-180
2024-05-20T22:22:04.990;599616256304784365;10437.371;-52
2024-05-20T22:22:04.998;599616256312475876;10445.0625;-142
2024-05-20T22:22:05.005;599616256320167387;10452.755;-199
2024-05-20T22:22:05.013;599616256327858898;10460.445;-130
2024-05-20T22:22:05.021;599616256335550409;10468.137;-102
2024-05-20T22:22:05.028;599616256343241920;10475.828;-116
2024-05-20T22:22:05.036;599616256350933431;10483.5205;-97
2024-05-20T22:22:05.044;599616256358624942;10491.212;-66
2024-05-20T22:22:05.051;599616256366316453;10498.903;-61
2024-05-20T22:22:05.059;599616256374007964;10506.595;-59
2024-05-20T22:22:05.067;599616256381699475;10514.286;-33
2024-05-20T22:22:05.074;599616256389390986;10521.978;4
2024-05-20T22:22:05.082;599616256397082497;10529.669;30
2024-05-20T22:22:05.090;599616256404774008;10537.36;40
2024-05-20T22:22:05.098;599616256412465519;10545.053;47
2024-05-20T22:22:05.105;599616256420157030;10552.744;78
2024-05-20T22:22:05.113;599616256427848541;10560.436;119
2024-05-20T22:22:05.121;599616256435540052;10568.126;102
2024-05-20T22:22:05.128;599616256443231563;10575.817;52
2024-05-20T22:22:05.136;599616256450923074;10583.51;59
2024-05-20T22:22:05.144;599616256458614585;10591.201;88
2024-05-20T22:22:05.151;599616256466306096;10598.893;88
2024-05-20T22:22:05.159;599616256473997607;10606.584;116
2024-05-20T22:22:05.167;599616256481689118;10614.276;161
2024-05-20T22:22:05.174;599616256489380629;10621.968;169
2024-05-20T22:22:05.182;599616256497072140;10629.658;152
2024-05-20T22:22:05.190;599616256504763651;10637.35;147
2024-05-20T22:22:05.198;599616256512455162;10645.042;152
2024-05-20T22:22:05.205;599616256520146673;10652.733;164
2024-05-20T22:22:05.213;599616256527838184;10660.425;154
2024-05-20T22:22:05.221;599616256535549816;10668.137;114
2024-05-20T22:22:05.228;599616256543241048;10675.828;102
2024-05-20T22:22:05.236;599616256550932280;10683.519;109
2024-05-20T22:22:05.244;599616256558623512;10691.21;109
2024-05-20T22:22:05.251;599616256566314744;10698.901;138
2024-05-20T22:22:05.259;599616256574005976;10706.593;183
2024-05-20T22:22:05.267;599616256581697208;10714.284;199
2024-05-20T22:22:05.274;599616256589388440;10721.976;195
2024-05-20T22:22:05.282;599616256597079672;10729.667;199
2024-05-20T22:22:05.290;599616256604770904;10737.357;204
2024-05-20T22:22:05.298;599616256612462136;10745.049;171
2024-05-20T22:22:05.305;599616256620153368;10752.74;121
2024-05-20T22:22:05.313;599616256627844600;10760.432;135
2024-05-20T22:22:05.321;599616256635535832;10768.123;173
2024-05-20T22:22:05.328;599616256643227064;10775.814;157
2024-05-20T22:22:05.336;599616256650918296;10783.506;140
2024-05-20T22:22:05.344;599616256658609528;10791.196;180
2024-05-20T22:22:05.351;599616256666300760;10798.887;216
2024-05-20T22:22:05.359;599616256673991992;10806.578;218
2024-05-20T22:22:05.367;599616256681683224;10814.27;221
2024-05-20T22:22:05.374;599616256689374456;10821.961;230
2024-05-20T22:22:05.382;599616256697065688;10829.652;240
2024-05-20T22:22:05.390;599616256704756920;10837.343;247
2024-05-20T22:22:05.398;599616256712448152;10845.034;259
2024-05-20T22:22:05.405;599616256720139384;10852.726;288
2024-05-20T22:22:05.413;599616256727830616;10860.417;297
2024-05-20T22:22:05.421;599616256735521848;10868.108;268
2024-05-20T22:22:05.428;599616256743213080;10875.8;271
2024-05-20T22:22:05.436;599616256750904312;10883.491;311
2024-05-20T22:22:05.444;599616256758595544;10891.182;333
2024-05-20T22:22:05.451;599616256766286776;10898.873;323
2024-05-20T22:22:05.459;599616256773978008;10906.564;307
2024-05-20T22:22:05.467;599616256781669240;10914.256;268
2024-05-20T22:22:05.474;599616256789360472;10921.947;238
2024-05-20T22:22:05.482;599616256797051704;10929.639;238
2024-05-20T22:22:05.490;599616256804742936;10937.33;230
2024-05-20T22:22:05.498;599616256812434168;10945.0205;202
2024-05-20T22:22:05.505;599616256820125400;10952.712;180
2024-05-20T22:22:05.513;599616256827816632;10960.403;161
2024-05-20T22:22:05.521;599616256835507864;10968.095;121
2024-05-20T22:22:05.528;599616256843199096;10975.786;61
2024-05-20T22:22:05.536;599616256850890328;10983.478;80
2024-05-20T22:22:05.544;599616256858581560;10991.169;323
2024-05-20T22:22:05.551;599616256866272792;10998.859;735
2024-05-20T22:22:05.559;599616256873964024;11006.551;918
2024-05-20T22:22:05.567;599616256881655256;11014.242;540
2024-05-20T22:22:05.574;599616256889346488;11021.934;-52
2024-05-20T22:22:05.582;599616256897037720;11029.625;-209
2024-05-20T22:22:05.590;599616256904728952;11037.316;-61
2024-05-20T22:22:05.598;599616256912420184;11045.006;-85
2024-05-20T22:22:05.605;599616256920111416;11052.697;-180
2024-05-20T22:22:05.613;599616256927802648;11060.389;-147
2024-05-20T22:22:05.621;599616256935493880;11068.08;-161
2024-05-20T22:22:05.628;599616256943185112;11075.771;-271
2024-05-20T22:22:05.636;599616256950876344;11083.463;-283
2024-05-20T22:22:05.644;599616256958567576;11091.154;-209
2024-05-20T22:22:05.651;599616256966258808;11098.845;-202
2024-05-20T22:22:05.659;599616256973950040;11106.536;-211
2024-05-20T22:22:05.667;599616256981641272;11114.228;-166
2024-05-20T22:22:05.674;599616256989332504;11121.919;-114
2024-05-20T22:22:05.682;599616256997023736;11129.61;-88
2024-05-20T22:22:05.690;599616257004714968;11137.302;-73
2024-05-20T22:22:05.697;599616257012406200;11144.993;-64
2024-05-20T22:22:05.705;599616257020097432;11152.684;-64
2024-05-20T22:22:05.713;599616257027788664;11160.375;-78
2024-05-20T22:22:05.721;599616257035479896;11168.066;-80
2024-05-20T22:22:05.728;599616257043171128;11175.758;-40
2024-05-20T22:22:05.736;599616257050862360;11183.449;16
2024-05-20T22:22:05.744;599616257058553592;11191.141;30
2024-05-20T22:22:05.751;599616257066244824;11198.832;30
2024-05-20T22:22:05.759;599616257073936056;11206.522;66
2024-05-20T22:22:05.767;599616257081627288;11214.214;109
2024-05-20T22:22:05.774;599616257089318520;11221.905;130
2024-05-20T22:22:05.782;599616257096999728;11229.587;126
2024-05-20T22:22:05.790;599616257104691100;11237.277;119
2024-05-20T22:22:05.797;599616257112382472;11244.969;128
2024-05-20T22:22:05.805;599616257120073844;11252.66;140
2024-05-20T22:22:05.813;599616257127765216;11260.352;138
2024-05-20T22:22:05.821;599616257135456588;11268.043;147
2024-05-20T22:22:05.828;599616257143147960;11275.735;157
2024-05-20T22:22:05.836;599616257150839332;11283.427;107
2024-05-20T22:22:05.844;599616257158530704;11291.117;35
2024-05-20T22:22:05.851;599616257166222076;11298.809;49
2024-05-20T22:22:05.859;599616257173913448;11306.5;109
2024-05-20T22:22:05.867;599616257181604820;11314.191;121
2024-05-20T22:22:05.874;599616257189296192;11321.883;114
2024-05-20T22:22:05.882;599616257196987564;11329.574;133
2024-05-20T22:22:05.890;599616257204678936;11337.266;157
2024-05-20T22:22:05.897;599616257212370308;11344.957;166
2024-05-20T22:22:05.905;599616257220061680;11352.648;178
2024-05-20T22:22:05.913;599616257227753052;11360.34;216
2024-05-20T22:22:05.921;599616257235444424;11368.031;238
2024-05-20T22:22:05.928;599616257243135796;11375.723;221
2024-05-20T22:22:05.936;599616257250827168;11383.414;211
2024-05-20T22:22:05.944;599616257258518540;11391.105;242
2024-05-20T22:22:05.951;599616257266209912;11398.796;242
2024-05-20T22:22:05.959;599616257273901284;11406.487;188
2024-05-20T22:22:05.967;599616257281592656;11414.179;159
2024-05-20T22:22:05.974;599616257289284028;11421.871;180
2024-05-20T22:22:05.982;599616257296975400;11429.5625;195
2024-05-20T22:22:05.990;599616257304666772;11437.254;197
2024-05-20T22:22:05.997;599616257312358144;11444.945;218
2024-05-20T22:22:06.005;599616257320049516;11452.636;252
2024-05-20T22:22:06.013;599616257327740888;11460.327;261
2024-05-20T22:22:06.021;599616257335432260;11468.019;240
2024-05-20T22:22:06.028;599616257343123632;11475.71;235
2024-05-20T22:22:06.036;599616257350815004;11483.401;266
2024-05-20T22:22:06.044;599616257358506376;11491.094;290
2024-05-20T22:22:06.051;599616257366197748;11498.785;290
2024-05-20T22:22:06.059;599616257373889120;11506.476;297
2024-05-20T22:22:06.067;599616257381580492;11514.167;316
2024-05-20T22:22:06.074;599616257389271864;11521.858;321
2024-05-20T22:22:06.082;599616257396963236;11529.55;318
2024-05-20T22:22:06.090;599616257404654608;11537.241;309
2024-05-20T22:22:06.097;599616257412345980;11544.933;283
2024-05-20T22:22:06.105;599616257420037352;11552.624;249
2024-05-20T22:22:06.113;599616257427728724;11560.314;218
2024-05-20T22:22:06.121;599616257435420096;11568.007;190
2024-05-20T22:22:06.128;599616257443111468;11575.698;104
2024-05-20T22:22:06.136;599616257450802840;11583.39;-57
2024-05-20T22:22:06.144;599616257458494212;11591.081;-97
2024-05-20T22:22:06.151;599616257466185584;11598.772;133
2024-05-20T22:22:06.159;599616257473876956;11606.464;540
2024-05-20T22:22:06.167;599616257481568328;11614.154;785
2024-05-20T22:22:06.174;599616257489259700;11621.846;516
2024-05-20T22:22:06.182;599616257496951072;11629.537;-42
2024-05-20T22:22:06.190;599616257504642444;11637.2295;-268
2024-05-20T22:22:06.197;599616257512333816;11644.921;-178
2024-05-20T22:22:06.205;599616257520025188;11652.612;-211
2024-05-20T22:22:06.213;599616257527716560;11660.304;-290
2024-05-20T22:22:06.220;599616257535407932;11667.994;-233
2024-05-20T22:22:06.228;599616257543099304;11675.686;-199
2024-05-20T22:22:06.236;599616257550790676;11683.377;-214
2024-05-20T22:22:06.244;599616257558482048;11691.068;-176
2024-05-20T22:22:06.251;599616257566173420;11698.76;-147
2024-05-20T22:22:06.259;599616257573864792;11706.451;-152
2024-05-20T22:22:06.267;599616257581556164;11714.144;-121
2024-05-20T22:22:06.274;599616257589247536;11721.835;-66
2024-05-20T22:22:06.282;599616257596938908;11729.525;-40
2024-05-20T22:22:06.290;599616257604630280;11737.217;-38
2024-05-20T22:22:06.297;599616257612321652;11744.908;-28
2024-05-20T22:22:06.305;599616257620013024;11752.6;0
2024-05-20T22:22:06.313;599616257627704396;11760.291;40
2024-05-20T22:22:06.320;599616257635395768;11767.982;78
2024-05-20T22:22:06.328;599616257643087140;11775.674;107
2024-05-20T22:22:06.336;599616257650778512;11783.365;135
2024-05-20T22:22:06.344;599616257658469892;11791.057;149
2024-05-20T22:22:06.351;599616257666161264;11798.748;157
2024-05-20T22:22:06.359;599616257673852636;11806.439;188
2024-05-20T22:22:06.367;599616257681544008;11814.131;228
2024-05-20T22:22:06.374;599616257689235380;11821.822;240
2024-05-20T22:22:06.382;599616257696926752;11829.514;223
2024-05-20T22:22:06.390;599616257704618124;11837.204;204
2024-05-20T22:22:06.397;599616257712309496;11844.8955;204
2024-05-20T22:22:06.405;599616257720000868;11852.588;183
2024-05-20T22:22:06.413;599616257727692240;11860.279;107
2024-05-20T22:22:06.420;599616257735383612;11867.971;73
2024-05-20T22:22:06.428;599616257743074984;11875.662;102
2024-05-20T22:22:06.436;599616257750766356;11883.354;102
2024-05-20T22:22:06.444;599616257758457728;11891.044;69
2024-05-20T22:22:06.451;599616257766149100;11898.735;54
2024-05-20T22:22:06.459;599616257773840472;11906.427;73
2024-05-20T22:22:06.467;599616257781531844;11914.118;85
2024-05-20T22:22:06.474;599616257789223216;11921.81;76
2024-05-20T22:22:06.482;599616257796914588;11929.502;85
2024-05-20T22:22:06.490;599616257804605960;11937.193;119
2024-05-20T22:22:06.497;599616257812297332;11944.884;128
2024-05-20T22:22:06.505;599616257819988704;11952.575;135
2024-05-20T22:22:06.513;599616257827680076;11960.267;166
2024-05-20T22:22:06.520;599616257835371448;11967.958;183
2024-05-20T22:22:06.528;599616257843062820;11975.649;164
2024-05-20T22:22:06.536;599616257850754192;11983.341;159
2024-05-20T22:22:06.544;599616257858445564;11991.032;190
2024-05-20T22:22:06.551;599616257866136936;11998.724;211
2024-05-20T22:22:06.559;599616257873828308;12006.415;211
2024-05-20T22:22:06.567;599616257881519680;12014.106;214
2024-05-20T22:22:06.574;599616257889211052;12021.798;218
2024-05-20T22:22:06.582;599616257896902424;12029.489;228
2024-05-20T22:22:06.590;599616257904593796;12037.181;238
2024-05-20T22:22:06.597;599616257912285168;12044.872;240
2024-05-20T22:22:06.605;599616257919976540;12052.5625;257
2024-05-20T22:22:06.613;599616257927667912;12060.254;268
2024-05-20T22:22:06.620;599616257935359284;12067.945;245
2024-05-20T22:22:06.628;599616257943050656;12075.638;192
2024-05-20T22:22:06.636;599616257950742028;12083.329;126
2024-05-20T22:22:06.644;599616257958433400;12091.0205;85
2024-05-20T22:22:06.651;599616257966124772;12098.712;99
2024-05-20T22:22:06.659;599616257973816144;12106.402;119
2024-05-20T22:22:06.667;599616257981507516;12114.094;119
2024-05-20T22:22:06.674;599616257989198888;12121.785;130
2024-05-20T22:22:06.682;599616257996890260;12129.477;145
2024-05-20T22:22:06.690;599616258004581632;12137.168;130
2024-05-20T22:22:06.697;599616258012273004;12144.86;80
2024-05-20T22:22:06.705;599616258019964376;12152.552;7
2024-05-20T22:22:06.713;599616258027655748;12160.243;-38
2024-05-20T22:22:06.720;599616258035347120;12167.934;-28
2024-05-20T22:22:06.728;599616258043038492;12175.625;-26
2024-05-20T22:22:06.736;599616258050729864;12183.316;-97
2024-05-20T22:22:06.744;599616258058421236;12191.008;-154
2024-05-20T22:22:06.751;599616258066112608;12198.699;-2
2024-05-20T22:22:06.759;599616258073803980;12206.391;380
2024-05-20T22:22:06.767;599616258081495352;12214.081;730
2024-05-20T22:22:06.774;599616258089186724;12221.773;642
2024-05-20T22:22:06.782;599616258096878096;12229.465;97
2024-05-20T22:22:06.790;599616258104569468;12237.156;-323
2024-05-20T22:22:06.797;599616258112260840;12244.848;-295
2024-05-20T22:22:06.805;599616258119952212;12252.539;-216
2024-05-20T22:22:06.813;599616258127643584;12260.23;-280
2024-05-20T22:22:06.820;599616258135334956;12267.922;-273
2024-05-20T22:22:06.828;599616258143026328;12275.612;-214
2024-05-20T22:22:06.836;599616258150717700;12283.304;-214
2024-05-20T22:22:06.843;599616258158409072;12290.996;-211
2024-05-20T22:22:06.851;599616258166100444;12298.6875;-185
2024-05-20T22:22:06.859;599616258173791816;12306.379;-180
2024-05-20T22:22:06.867;599616258181483188;12314.07;-166
2024-05-20T22:22:06.874;599616258189174560;12321.762;-119
2024-05-20T22:22:06.882;599616258196865932;12329.452;-85
2024-05-20T22:22:06.890;599616258204557304;12337.144;-92
2024-05-20T22:22:06.897;599616258212248676;12344.835;-92
2024-05-20T22:22:06.905;599616258219909960;12352.497;-52
2024-05-20T22:22:06.913;599616258227601750;12360.1875;-11
2024-05-20T22:22:06.920;599616258235293540;12367.88;2
2024-05-20T22:22:06.928;599616258242985330;12375.572;26
2024-05-20T22:22:06.936;599616258250677120;12383.264;40
2024-05-20T22:22:06.943;599616258258368910;12390.956;-23
2024-05-20T22:22:06.951;599616258266060700;12398.647;-102
2024-05-20T22:22:06.959;599616258273752490;12406.34;-88
2024-05-20T22:22:06.967;599616258281444280;12414.031;-28
2024-05-20T22:22:06.974;599616258289136070;12421.723;-9
2024-05-20T22:22:06.982;599616258296827860;12429.414;-14
2024-05-20T22:22:06.990;599616258304519650;12437.106;0
2024-05-20T22:22:06.997;599616258312211440;12444.798;19
2024-05-20T22:22:07.005;599616258319903230;12452.49;16
2024-05-20T22:22:07.013;599616258327595020;12460.182;7
2024-05-20T22:22:07.020;599616258335286810;12467.874;23
2024-05-20T22:22:07.028;599616258342978600;12475.565;33
2024-05-20T22:22:07.036;599616258350670390;12483.258;9
2024-05-20T22:22:07.043;599616258358362180;12490.948;-7
2024-05-20T22:22:07.051;599616258366053970;12498.641;23
2024-05-20T22:22:07.059;599616258373745760;12506.332;64
2024-05-20T22:22:07.067;599616258381437550;12514.024;78
2024-05-20T22:22:07.074;599616258389129340;12521.716;85
2024-05-20T22:22:07.082;599616258396821130;12529.408;92
2024-05-20T22:22:07.090;599616258404512920;12537.1;107
2024-05-20T22:22:07.097;599616258412204710;12544.792;121
2024-05-20T22:22:07.105;599616258419896500;12552.482;135
2024-05-20T22:22:07.113;599616258427588290;12560.175;154
2024-05-20T22:22:07.120;599616258435280080;12567.866;173
2024-05-20T22:22:07.128;599616258442971870;12575.559;166
2024-05-20T22:22:07.136;599616258450663660;12583.25;102
2024-05-20T22:22:07.143;599616258458355450;12590.942;40
2024-05-20T22:22:07.151;599616258466047240;12598.634;57
2024-05-20T22:22:07.159;599616258473739030;12606.326;83
2024-05-20T22:22:07.167;599616258481430820;12614.017;71
2024-05-20T22:22:07.174;599616258489122610;12621.709;73
2024-05-20T22:22:07.182;599616258496814400;12629.4;73
2024-05-20T22:22:07.190;599616258504506190;12637.093;45
2024-05-20T22:22:07.197;599616258512197980;12644.784;52
2024-05-20T22:22:07.205;599616258519889770;12652.477;107
2024-05-20T22:22:07.213;599616258527581560;12660.169;121
2024-05-20T22:22:07.220;599616258535273350;12667.86;90
2024-05-20T22:22:07.228;599616258542965140;12675.553;95
2024-05-20T22:22:07.236;599616258550656930;12683.243;133
2024-05-20T22:22:07.243;599616258558348720;12690.936;149
2024-05-20T22:22:07.251;599616258566040510;12698.627;154
2024-05-20T22:22:07.259;599616258573732300;12706.319;171
2024-05-20T22:22:07.267;599616258581424090;12714.011;183
2024-05-20T22:22:07.274;599616258589115880;12721.703;192
2024-05-20T22:22:07.282;599616258596807670;12729.395;199
2024-05-20T22:22:07.290;599616258604499460;12737.087;211
2024-05-20T22:22:07.297;599616258612191250;12744.777;238
2024-05-20T22:22:07.305;599616258619883040;12752.47;230
2024-05-20T22:22:07.313;599616258627574830;12760.161;178
2024-05-20T22:22:07.320;599616258635266620;12767.854;157
2024-05-20T22:22:07.328;599616258642958410;12775.545;171
2024-05-20T22:22:07.336;599616258650650200;12783.237;135
2024-05-20T22:22:07.343;599616258658341990;12790.929;57
2024-05-20T22:22:07.351;599616258666033780;12798.621;114
2024-05-20T22:22:07.359;599616258673725570;12806.312;433
2024-05-20T22:22:07.367;599616258681417360;12814.004;830
2024-05-20T22:22:07.374;599616258689109150;12821.695;885
2024-05-20T22:22:07.382;599616258696800940;12829.388;421
2024-05-20T22:22:07.390;599616258704492730;12837.079;-123
2024-05-20T22:22:07.397;599616258712184520;12844.771;-230
2024-05-20T22:22:07.405;599616258719876310;12852.463;-123
2024-05-20T22:22:07.413;599616258727568100;12860.155;-159
2024-05-20T22:22:07.420;599616258735259890;12867.846;-195
2024-05-20T22:22:07.428;599616258742951680;12875.538;-164
2024-05-20T22:22:07.436;599616258750643470;12883.2295;-190
2024-05-20T22:22:07.443;599616258758335260;12890.922;-218
2024-05-20T22:22:07.451;599616258766027050;12898.613;-192
2024-05-20T22:22:07.459;599616258773718840;12906.306;-178
2024-05-20T22:22:07.467;599616258781440738;12914.027;-173
2024-05-20T22:22:07.474;599616258789132110;12921.719;-135
2024-05-20T22:22:07.482;599616258796823482;12929.41;-97
2024-05-20T22:22:07.490;599616258804514854;12937.102;-102
2024-05-20T22:22:07.497;599616258812206226;12944.793;-104
2024-05-20T22:22:07.505;599616258819897598;12952.483;-69
2024-05-20T22:22:07.513;599616258827588970;12960.176;-49
2024-05-20T22:22:07.520;599616258835280342;12967.867;-85
2024-05-20T22:22:07.528;599616258842971714;12975.559;-99
2024-05-20T22:22:07.536;599616258850663086;12983.25;-54
2024-05-20T22:22:07.543;599616258858354458;12990.941;-26
2024-05-20T22:22:07.551;599616258866045830;12998.633;-23
2024-05-20T22:22:07.559;599616258873737202;13006.323;16
2024-05-20T22:22:07.567;599616258881428574;13014.015;66
2024-05-20T22:22:07.574;599616258889119946;13021.706;88
2024-05-20T22:22:07.582;599616258896811318;13029.397;90
2024-05-20T22:22:07.590;599616258904502690;13037.09;85
2024-05-20T22:22:07.597;599616258912194062;13044.781;95
2024-05-20T22:22:07.605;599616258919885434;13052.473;107
2024-05-20T22:22:07.613;599616258927576806;13060.164;95
2024-05-20T22:22:07.620;599616258935268178;13067.8545;97
2024-05-20T22:22:07.628;599616258942959550;13075.546;114
2024-05-20T22:22:07.636;599616258950650922;13083.237;83
2024-05-20T22:22:07.643;599616258958342294;13090.929;0
2024-05-20T22:22:07.651;599616258966033666;13098.62;-49
2024-05-20T22:22:07.659;599616258973725038;13106.3125;-16
2024-05-20T22:22:07.667;599616258981416410;13114.004;16
2024-05-20T22:22:07.674;599616258989107782;13121.694;-11
2024-05-20T22:22:07.682;599616258996799154;13129.386;-52
2024-05-20T22:22:07.690;599616259004490526;13137.077;-49
2024-05-20T22:22:07.697;599616259012181898;13144.769;-21
2024-05-20T22:22:07.705;599616259019873270;13152.46;0
2024-05-20T22:22:07.713;599616259027564642;13160.151;23
2024-05-20T22:22:07.720;599616259035256014;13167.843;42
2024-05-20T22:22:07.728;599616259042947386;13175.533;28
2024-05-20T22:22:07.736;599616259050638758;13183.226;26
2024-05-20T22:22:07.743;599616259058330130;13190.917;71
2024-05-20T22:22:07.751;599616259066021502;13198.608;104
2024-05-20T22:22:07.759;599616259073712874;13206.3;99
2024-05-20T22:22:07.766;599616259081404246;13213.991;102
2024-05-20T22:22:07.774;599616259089095618;13221.683;116
2024-05-20T22:22:07.782;599616259096786990;13229.373;126
2024-05-20T22:22:07.790;599616259104478362;13237.064;138
2024-05-20T22:22:07.797;599616259112169734;13244.756;159
2024-05-20T22:22:07.805;599616259119861106;13252.448;192
2024-05-20T22:22:07.813;599616259127552478;13260.14;207
2024-05-20T22:22:07.820;599616259135243850;13267.831;192
2024-05-20T22:22:07.828;599616259142935222;13275.522;185
2024-05-20T22:22:07.836;599616259150626594;13283.213;214
2024-05-20T22:22:07.843;599616259158317966;13290.904;235
2024-05-20T22:22:07.851;599616259166009338;13298.596;235
2024-05-20T22:22:07.859;599616259173700710;13306.287;242
2024-05-20T22:22:07.866;599616259181392082;13313.979;254
2024-05-20T22:22:07.874;599616259189083454;13321.67;252
2024-05-20T22:22:07.882;599616259196774826;13329.362;259
2024-05-20T22:22:07.890;599616259204466198;13337.053;285
2024-05-20T22:22:07.897;599616259212157570;13344.744;288
2024-05-20T22:22:07.905;599616259219848942;13352.436;238
2024-05-20T22:22:07.913;599616259227540314;13360.127;176
2024-05-20T22:22:07.920;599616259235231686;13367.818;145
2024-05-20T22:22:07.928;599616259242923058;13375.51;109
2024-05-20T22:22:07.936;599616259250614430;13383.201;49
2024-05-20T22:22:07.943;599616259258305802;13390.892;-11
2024-05-20T22:22:07.951;599616259265997174;13398.584;-66
2024-05-20T22:22:07.959;599616259273688546;13406.275;-102
2024-05-20T22:22:07.966;599616259281379918;13413.967;42
2024-05-20T22:22:07.974;599616259289071290;13421.658;457
2024-05-20T22:22:07.982;599616259296762662;13429.35;840
2024-05-20T22:22:07.990;599616259304454034;13437.041;716
2024-05-20T22:22:07.997;599616259312145406;13444.731;126
2024-05-20T22:22:08.005;599616259319836778;13452.423;-264
2024-05-20T22:22:08.013;599616259327528150;13460.114;-178
2024-05-20T22:22:08.020;599616259335219522;13467.806;-90
2024-05-20T22:22:08.028;599616259342900894;13475.487;-173
2024-05-20T22:22:08.036;599616259350592405;13483.179;-173
2024-05-20T22:22:08.043;599616259358283916;13490.87;-116
2024-05-20T22:22:08.051;599616259365975427;13498.5625;-149
2024-05-20T22:22:08.059;599616259373666938;13506.254;-216
2024-05-20T22:22:08.066;599616259381358449;13513.945;-228
2024-05-20T22:22:08.074;599616259389049960;13521.637;-188
2024-05-20T22:22:08.082;599616259396741471;13529.329;-152
2024-05-20T22:22:08.090;599616259404432982;13537.02;-152
2024-05-20T22:22:08.097;599616259412124493;13544.711;-149
2024-05-20T22:22:08.105;599616259419816004;13552.402;-107
2024-05-20T22:22:08.113;599616259427507515;13560.094;-57
2024-05-20T22:22:08.120;599616259435199026;13567.786;-40
2024-05-20T22:22:08.128;599616259442890537;13575.478;-16
2024-05-20T22:22:08.136;599616259450582048;13583.169;28
2024-05-20T22:22:08.143;599616259458273559;13590.859;38
2024-05-20T22:22:08.151;599616259465965070;13598.552;-4
2024-05-20T22:22:08.159;599616259473656581;13606.243;-40
2024-05-20T22:22:08.166;599616259481348092;13613.935;-23
2024-05-20T22:22:08.174;599616259489039603;13621.626;-23
2024-05-20T22:22:08.182;599616259496731114;13629.318;-52
2024-05-20T22:22:08.190;599616259504422625;13637.01;-38
2024-05-20T22:22:08.197;599616259512114136;13644.7;4
2024-05-20T22:22:08.205;599616259519805647;13652.392;23
2024-05-20T22:22:08.213;599616259527497158;13660.084;21
2024-05-20T22:22:08.220;599616259535188669;13667.775;38
2024-05-20T22:22:08.228;599616259542880180;13675.467;54
2024-05-20T22:22:08.236;599616259550571691;13683.158;45
2024-05-20T22:22:08.243;599616259558263202;13690.851;38
2024-05-20T22:22:08.251;599616259565954713;13698.542;66
2024-05-20T22:22:08.259;599616259573646224;13706.232;102
2024-05-20T22:22:08.266;599616259581337735;13713.924;119
2024-05-20T22:22:08.274;599616259589029246;13721.616;121
2024-05-20T22:22:08.282;599616259596720757;13729.308;126
2024-05-20T22:22:08.289;599616259604412268;13736.999;145
2024-05-20T22:22:08.297;599616259612103779;13744.69;164
2024-05-20T22:22:08.305;599616259619795290;13752.382;180
2024-05-20T22:22:08.313;599616259627486801;13760.073;207
2024-05-20T22:22:08.320;599616259635178312;13767.765;230
2024-05-20T22:22:08.328;599616259642869823;13775.456;216
2024-05-20T22:22:08.336;599616259650561334;13783.147;214
2024-05-20T22:22:08.343;599616259658252845;13790.84;249
2024-05-20T22:22:08.351;599616259665944356;13798.531;273
2024-05-20T22:22:08.359;599616259673635867;13806.223;271
2024-05-20T22:22:08.366;599616259681327378;13813.914;271
2024-05-20T22:22:08.374;599616259689018889;13821.605;278
2024-05-20T22:22:08.382;599616259696710400;13829.297;283
2024-05-20T22:22:08.389;599616259704401911;13836.988;280
2024-05-20T22:22:08.397;599616259712093422;13844.68;290
2024-05-20T22:22:08.405;599616259719784933;13852.372;321
2024-05-20T22:22:08.413;599616259727476444;13860.063;318
2024-05-20T22:22:08.420;599616259735167955;13867.755;261
2024-05-20T22:22:08.428;599616259742859466;13875.445;235
2024-05-20T22:22:08.436;599616259750550977;13883.138;273
2024-05-20T22:22:08.443;599616259758242488;13890.829;292
2024-05-20T22:22:08.451;599616259765933999;13898.5205;278
2024-05-20T22:22:08.459;599616259773625510;13906.212;278
2024-05-20T22:22:08.466;599616259781317021;13913.904;288
2024-05-20T22:22:08.474;599616259789008532;13921.596;288
2024-05-20T22:22:08.482;599616259796700043;13929.287;295
2024-05-20T22:22:08.489;599616259804391554;13936.978;316
2024-05-20T22:22:08.497;599616259812083065;13944.67;342
2024-05-20T22:22:08.505;599616259819774576;13952.361;333
2024-05-20T22:22:08.513;599616259827466087;13960.053;278
2024-05-20T22:22:08.520;599616259835157598;13967.744;247
2024-05-20T22:22:08.528;599616259842849109;13975.436;266
2024-05-20T22:22:08.536;599616259850540620;13983.128;264
2024-05-20T22:22:08.543;599616259858232131;13990.818;209
2024-05-20T22:22:08.551;599616259865923642;13998.51;159
2024-05-20T22:22:08.559;599616259873615153;14006.201;114
2024-05-20T22:22:08.566;599616259881306664;14013.894;21
2024-05-20T22:22:08.574;599616259888998175;14021.585;-35
2024-05-20T22:22:08.582;599616259896689686;14029.276;119
2024-05-20T22:22:08.589;599616259904401318;14036.988;518
2024-05-20T22:22:08.597;599616259912092550;14044.679;899
2024-05-20T22:22:08.605;599616259919783782;14052.37;835
2024-05-20T22:22:08.613;599616259927475014;14060.062;295
2024-05-20T22:22:08.620;599616259935166246;14067.753;-126
2024-05-20T22:22:08.628;599616259942857478;14075.444;-92
2024-05-20T22:22:08.636;599616259950548710;14083.136;-7
2024-05-20T22:22:08.643;599616259958239942;14090.827;-80
2024-05-20T22:22:08.651;599616259965931174;14098.518;-121
2024-05-20T22:22:08.659;599616259973622406;14106.209;-178
2024-05-20T22:22:08.666;599616259981313638;14113.9;-299
2024-05-20T22:22:08.674;599616259989004870;14121.592;-309
2024-05-20T22:22:08.682;599616259996696102;14129.283;-254
2024-05-20T22:22:08.689;599616260004387334;14136.975;-304
2024-05-20T22:22:08.697;599616260012078566;14144.666;-359
2024-05-20T22:22:08.705;599616260019769798;14152.356;-299
2024-05-20T22:22:08.713;599616260027461030;14160.048;-245
2024-05-20T22:22:08.720;599616260035152262;14167.739;-249
2024-05-20T22:22:08.728;599616260042843494;14175.431;-216
2024-05-20T22:22:08.736;599616260050534726;14183.121;-157
2024-05-20T22:22:08.743;599616260058225958;14190.8125;-140
2024-05-20T22:22:08.751;599616260065917190;14198.504;-133
2024-05-20T22:22:08.759;599616260073608422;14206.194;-80
2024-05-20T22:22:08.766;599616260081299654;14213.886;-14
2024-05-20T22:22:08.774;599616260088990886;14221.577;26
2024-05-20T22:22:08.782;599616260096682118;14229.269;45
2024-05-20T22:22:08.789;599616260104373350;14236.96;61
2024-05-20T22:22:08.797;599616260112064582;14244.651;92
2024-05-20T22:22:08.805;599616260119755814;14252.342;119
2024-05-20T22:22:08.813;599616260127447046;14260.033;130
2024-05-20T22:22:08.820;599616260135138278;14267.725;157
2024-05-20T22:22:08.828;599616260142829510;14275.416;178
2024-05-20T22:22:08.836;599616260150520742;14283.107;157
2024-05-20T22:22:08.843;599616260158211974;14290.799;133
2024-05-20T22:22:08.851;599616260165903206;14298.49;147
2024-05-20T22:22:08.859;599616260173594438;14306.181;169
2024-05-20T22:22:08.866;599616260181285670;14313.872;169
2024-05-20T22:22:08.874;599616260188976902;14321.563;161
2024-05-20T22:22:08.882;599616260196668134;14329.255;157
2024-05-20T22:22:08.889;599616260204359366;14336.946;173
2024-05-20T22:22:08.897;599616260212050598;14344.638;195
2024-05-20T22:22:08.905;599616260219741830;14352.329;180
2024-05-20T22:22:08.913;599616260227433062;14360.02;147
2024-05-20T22:22:08.920;599616260235124294;14367.711;140
2024-05-20T22:22:08.928;599616260242815526;14375.402;135
2024-05-20T22:22:08.936;599616260250506758;14383.094;128
2024-05-20T22:22:08.943;599616260258197990;14390.785;154
2024-05-20T22:22:08.951;599616260265889222;14398.477;197
2024-05-20T22:22:08.959;599616260273580454;14406.168;207
2024-05-20T22:22:08.966;599616260281271686;14413.858;207
2024-05-20T22:22:08.974;599616260288962918;14421.55;214
2024-05-20T22:22:08.982;599616260296654150;14429.24;211
2024-05-20T22:22:08.989;599616260304345382;14436.932;218
2024-05-20T22:22:08.997;599616260312036614;14444.623;242
2024-05-20T22:22:09.005;599616260319727846;14452.314;268
2024-05-20T22:22:09.013;599616260327419078;14460.006;273
2024-05-20T22:22:09.020;599616260335110310;14467.696;259
2024-05-20T22:22:09.028;599616260342801542;14475.388;254
2024-05-20T22:22:09.036;599616260350492774;14483.079;283
2024-05-20T22:22:09.043;599616260358184006;14490.7705;307
2024-05-20T22:22:09.051;599616260365875238;14498.462;302
2024-05-20T22:22:09.059;599616260373566470;14506.153;297
2024-05-20T22:22:09.066;599616260381257702;14513.844;304
2024-05-20T22:22:09.074;599616260388948934;14521.535;304
2024-05-20T22:22:09.082;599616260396640166;14529.227;297
2024-05-20T22:22:09.089;599616260404331398;14536.918;304
2024-05-20T22:22:09.097;599616260412022630;14544.609;333
2024-05-20T22:22:09.105;599616260419713862;14552.301;328
2024-05-20T22:22:09.112;599616260427405094;14559.992;268
2024-05-20T22:22:09.120;599616260435096326;14567.683;228
2024-05-20T22:22:09.128;599616260442787558;14575.374;247
2024-05-20T22:22:09.136;599616260450478790;14583.065;247
2024-05-20T22:22:09.143;599616260458170022;14590.757;197
2024-05-20T22:22:09.151;599616260465821134;14598.408;128
2024-05-20T22:22:09.159;599616260473512924;14606.1;28
2024-05-20T22:22:09.166;599616260481204714;14613.792;-109
2024-05-20T22:22:09.174;599616260488896504;14621.483;-211
2024-05-20T22:22:09.182;599616260496588294;14629.176;-233
2024-05-20T22:22:09.189;599616260504280084;14636.866;-216
2024-05-20T22:22:09.197;599616260511971874;14644.559;-102
2024-05-20T22:22:09.205;599616260519663664;14652.25;252
2024-05-20T22:22:09.212;599616260527355454;14659.942;685
2024-05-20T22:22:09.220;599616260535047244;14667.634;709
2024-05-20T22:22:09.228;599616260542739034;14675.326;149
2024-05-20T22:22:09.236;599616260550430824;14683.018;-378
2024-05-20T22:22:09.243;599616260558122614;14690.71;-364
2024-05-20T22:22:09.251;599616260565814404;14698.4;-228
2024-05-20T22:22:09.259;599616260573506194;14706.093;-309
2024-05-20T22:22:09.266;599616260581197984;14713.784;-323
2024-05-20T22:22:09.274;599616260588889774;14721.477;-226
2024-05-20T22:22:09.282;599616260596581564;14729.168;-197
2024-05-20T22:22:09.289;599616260604273354;14736.86;-211
2024-05-20T22:22:09.297;599616260611965144;14744.552;-195
2024-05-20T22:22:09.305;599616260619656934;14752.244;-154
2024-05-20T22:22:09.312;599616260627348724;14759.935;-123
2024-05-20T22:22:09.320;599616260635040514;14767.627;-116
2024-05-20T22:22:09.328;599616260642732304;14775.318;-80
2024-05-20T22:22:09.336;599616260650424094;14783.011;-28
2024-05-20T22:22:09.343;599616260658115884;14790.702;-23
2024-05-20T22:22:09.351;599616260665807674;14798.395;-26
2024-05-20T22:22:09.359;599616260673499464;14806.086;23
2024-05-20T22:22:09.366;599616260681191254;14813.778;90
2024-05-20T22:22:09.374;599616260688883044;14821.47;114
2024-05-20T22:22:09.382;599616260696574834;14829.161;116
2024-05-20T22:22:09.389;599616260704266624;14836.854;145
2024-05-20T22:22:09.397;599616260711958414;14844.545;180
2024-05-20T22:22:09.405;599616260719650204;14852.237;154
2024-05-20T22:22:09.412;599616260727341994;14859.929;116
2024-05-20T22:22:09.420;599616260735033784;14867.621;145
2024-05-20T22:22:09.428;599616260742725574;14875.3125;178
2024-05-20T22:22:09.436;599616260750417364;14883.005;164
2024-05-20T22:22:09.443;599616260758109154;14890.695;154
2024-05-20T22:22:09.451;599616260765800944;14898.388;171
2024-05-20T22:22:09.459;599616260773492734;14906.079;190
2024-05-20T22:22:09.466;599616260781184524;14913.771;183
2024-05-20T22:22:09.474;599616260788876314;14921.463;154
2024-05-20T22:22:09.482;599616260796568104;14929.155;140
2024-05-20T22:22:09.489;599616260804259894;14936.847;154
2024-05-20T22:22:09.497;599616260811951684;14944.539;166
2024-05-20T22:22:09.505;599616260819643474;14952.2295;171
2024-05-20T22:22:09.512;599616260827335264;14959.922;197
2024-05-20T22:22:09.520;599616260835027054;14967.613;223
2024-05-20T22:22:09.528;599616260842718844;14975.306;211
2024-05-20T22:22:09.535;599616260850410634;14982.997;207
2024-05-20T22:22:09.543;599616260858102424;14990.689;242
2024-05-20T22:22:09.551;599616260865794214;14998.381;271
2024-05-20T22:22:09.559;599616260873486004;15006.073;268
2024-05-20T22:22:09.566;599616260881177794;15013.764;264
2024-05-20T22:22:09.574;599616260888869584;15021.456;276
2024-05-20T22:22:09.582;599616260896561374;15029.147;283
2024-05-20T22:22:09.589;599616260904253164;15036.84;273
2024-05-20T22:22:09.597;599616260911944954;15044.531;278
2024-05-20T22:22:09.605;599616260919636744;15052.224;307
2024-05-20T22:22:09.612;599616260927328534;15059.915;314
2024-05-20T22:22:09.620;599616260935020324;15067.607;288
2024-05-20T22:22:09.628;599616260942712114;15075.298;283
2024-05-20T22:22:09.635;599616260950403904;15082.99;309
2024-05-20T22:22:09.643;599616260958095694;15090.682;307
2024-05-20T22:22:09.651;599616260965787484;15098.374;266
2024-05-20T22:22:09.659;599616260973479274;15106.066;240
2024-05-20T22:22:09.666;599616260981171064;15113.758;235
2024-05-20T22:22:09.674;599616260988862854;15121.45;180
2024-05-20T22:22:09.682;599616260996554644;15129.142;83
2024-05-20T22:22:09.689;599616261004246434;15136.834;71
2024-05-20T22:22:09.697;599616261011938224;15144.524;128
2024-05-20T22:22:09.705;599616261019630014;15152.217;140
2024-05-20T22:22:09.712;599616261027346944;15159.934;99
2024-05-20T22:22:09.720;599616261035038385;15167.625;76
2024-05-20T22:22:09.728;599616261042729826;15175.316;71
2024-05-20T22:22:09.736;599616261050421267;15183.008;64
2024-05-20T22:22:09.743;599616261058112708;15190.699;59
2024-05-20T22:22:09.751;599616261065804149;15198.392;45
2024-05-20T22:22:09.759;599616261073495590;15206.083;-7
2024-05-20T22:22:09.766;599616261081187031;15213.773;-102
2024-05-20T22:22:09.774;599616261088878472;15221.465;-209
2024-05-20T22:22:09.782;599616261096569913;15229.156;-261
2024-05-20T22:22:09.789;599616261104261354;15236.848;-276
2024-05-20T22:22:09.797;599616261111952795;15244.54;-307
2024-05-20T22:22:09.805;599616261119644236;15252.231;-226
2024-05-20T22:22:09.812;599616261127335677;15259.923;149
2024-05-20T22:22:09.820;599616261135027118;15267.613;633
2024-05-20T22:22:09.828;599616261142718559;15275.305;709
2024-05-20T22:22:09.835;599616261150410000;15282.996;214
2024-05-20T22:22:09.843;599616261158101441;15290.688;-288
2024-05-20T22:22:09.851;599616261165792882;15298.38;-318
2024-05-20T22:22:09.859;599616261173484323;15306.071;-199
2024-05-20T22:22:09.866;599616261181175764;15313.763;-242
2024-05-20T22:22:09.874;599616261188867205;15321.453;-252
2024-05-20T22:22:09.882;599616261196558646;15329.145;-173
2024-05-20T22:22:09.889;599616261204250087;15336.837;-171
2024-05-20T22:22:09.897;599616261211941528;15344.528;-230
2024-05-20T22:22:09.905;599616261219632969;15352.22;-221
2024-05-20T22:22:09.912;599616261227324410;15359.911;-166
2024-05-20T22:22:09.920;599616261235015851;15367.603;-147
2024-05-20T22:22:09.928;599616261242707292;15375.295;-135
2024-05-20T22:22:09.935;599616261250398733;15382.985;-95
2024-05-20T22:22:09.943;599616261258090174;15390.677;-73
2024-05-20T22:22:09.951;599616261265781615;15398.368;-71
2024-05-20T22:22:09.959;599616261273473056;15406.06;-38
2024-05-20T22:22:09.966;599616261281164497;15413.751;16
2024-05-20T22:22:09.974;599616261288855938;15421.443;57
2024-05-20T22:22:09.982;599616261296547379;15429.135;76
2024-05-20T22:22:09.989;599616261304238820;15436.825;88
2024-05-20T22:22:09.997;599616261311930261;15444.517;123
2024-05-20T22:22:10.005;599616261319621702;15452.208;164
2024-05-20T22:22:10.012;599616261327313143;15459.899;176
2024-05-20T22:22:10.020;599616261335004584;15467.592;199
2024-05-20T22:22:10.028;599616261342696025;15475.283;233
2024-05-20T22:22:10.035;599616261350387466;15482.975;228
2024-05-20T22:22:10.043;599616261358078907;15490.665;209
2024-05-20T22:22:10.051;599616261365770348;15498.356;221
2024-05-20T22:22:10.059;599616261373461789;15506.048;235
2024-05-20T22:22:10.066;599616261381153230;15513.74;223
2024-05-20T22:22:10.074;599616261388844671;15521.432;199
2024-05-20T22:22:10.082;599616261396536112;15529.123;185
2024-05-20T22:22:10.089;599616261404227553;15536.814;188
2024-05-20T22:22:10.097;599616261411918994;15544.505;192
2024-05-20T22:22:10.105;599616261419610435;15552.196;195
2024-05-20T22:22:10.112;599616261427301876;15559.889;221
2024-05-20T22:22:10.120;599616261434993317;15567.58;242
2024-05-20T22:22:10.128;599616261442684758;15575.271;226
2024-05-20T22:22:10.135;599616261450376199;15582.963;195
2024-05-20T22:22:10.143;599616261458067640;15590.654;171
2024-05-20T22:22:10.151;599616261465759081;15598.347;157
2024-05-20T22:22:10.159;599616261473450522;15606.037;164
2024-05-20T22:22:10.166;599616261481141963;15613.729;176
2024-05-20T22:22:10.174;599616261488833404;15621.42;149
2024-05-20T22:22:10.182;599616261496524845;15629.111;64
2024-05-20T22:22:10.189;599616261504216286;15636.803;-7
2024-05-20T22:22:10.197;599616261511907727;15644.495;7
2024-05-20T22:22:10.205;599616261519599168;15652.187;57
2024-05-20T22:22:10.212;599616261527290609;15659.877;69
2024-05-20T22:22:10.220;599616261534982050;15667.568;59
2024-05-20T22:22:10.228;599616261542673491;15675.26;66
2024-05-20T22:22:10.235;599616261550364932;15682.951;97
2024-05-20T22:22:10.243;599616261558056373;15690.644;128
2024-05-20T22:22:10.251;599616261565747814;15698.335;135
2024-05-20T22:22:10.259;599616261573439255;15706.026;142
2024-05-20T22:22:10.266;599616261581130696;15713.717;164
2024-05-20T22:22:10.274;599616261588832199;15721.419;169
2024-05-20T22:22:10.282;599616261596523501;15729.11;164
2024-05-20T22:22:10.289;599616261604214803;15736.802;180
2024-05-20T22:22:10.297;599616261611906105;15744.492;211
2024-05-20T22:22:10.305;599616261619597407;15752.184;216
2024-05-20T22:22:10.312;599616261627288709;15759.875;180
2024-05-20T22:22:10.320;599616261634980011;15767.566;154
2024-05-20T22:22:10.328;599616261642671313;15775.258;140
2024-05-20T22:22:10.335;599616261650362615;15782.949;95
2024-05-20T22:22:10.343;599616261658053917;15790.64;40
2024-05-20T22:22:10.351;599616261665745219;15798.331;19
2024-05-20T22:22:10.359;599616261673436521;15806.023;-19
2024-05-20T22:22:10.366;599616261681127823;15813.715;-83
2024-05-20T22:22:10.374;599616261688819125;15821.406;-126
2024-05-20T22:22:10.382;599616261696510427;15829.098;-164
2024-05-20T22:22:10.389;599616261704201729;15836.789;-228
2024-05-20T22:22:10.397;599616261711893031;15844.48;-278
2024-05-20T22:22:10.405;599616261719584333;15852.171;-304
2024-05-20T22:22:10.412;599616261727275635;15859.862;-323
2024-05-20T22:22:10.420;599616261734966937;15867.554;-297
2024-05-20T22:22:10.428;599616261742658239;15875.245;-107
2024-05-20T22:22:10.435;599616261750349541;15882.937;314
2024-05-20T22:22:10.443;599616261758040843;15890.628;716
2024-05-20T22:22:10.451;599616261765732145;15898.319;630
2024-05-20T22:22:10.459;599616261773423447;15906.01;61
2024-05-20T22:22:10.466;599616261781114749;15913.701;-316
2024-05-20T22:22:10.474;599616261788806051;15921.393;-223
2024-05-20T22:22:10.482;599616261796497353;15929.084;-130
2024-05-20T22:22:10.489;599616261804188655;15936.775;-214
2024-05-20T22:22:10.497;599616261811879957;15944.467;-226
2024-05-20T22:22:10.505;599616261819571259;15952.157;-157
2024-05-20T22:22:10.512;599616261827262561;15959.849;-135
