Phone timestamp;sensor timestamp [ns];timestamp [ms];ecg [uV]
2024-05-20T22:18:39.935;599616051247505896;0.0;59
2024-05-20T22:18:39.942;599616051255198173;7.692277;69
2024-05-20T22:18:39.950;599616051262890450;15.384554;528
2024-05-20T22:18:39.958;599616051270582727;23.076832;1411
2024-05-20T22:18:39.965;599616051278275004;30.769108;2197
2024-05-20T22:18:39.973;599616051285967281;38.461384;2789
2024-05-20T22:18:39.981;599616051293659558;46.153664;3425
2024-05-20T22:18:39.988;599616051301351835;53.84594;4075
2024-05-20T22:18:39.996;599616051309044112;61.538216;4656
2024-05-20T22:18:40.004;599616051316736389;69.2305;5182
2024-05-20T22:18:40.011;599616051324428666;76.92277;5677
2024-05-20T22:18:40.019;599616051332120943;84.61505;6191
2024-05-20T22:18:40.027;599616051339813220;92.30733;6688
2024-05-20T22:18:40.034;599616051347505497;99.9996;7067
2024-05-20T22:18:40.042;599616051355197774;107.69188;7412
2024-05-20T22:18:40.050;599616051362890051;115.384155;7798
2024-05-20T22:18:40.058;599616051370582328;123.07643;8169
2024-05-20T22:18:40.065;599616051378274605;130.7687;8605
2024-05-20T22:18:40.073;599616051385966882;138.461;9107
2024-05-20T22:18:40.081;599616051393659159;146.15326;9483
2024-05-20T22:18:40.088;599616051401351436;153.84554;9695
2024-05-20T22:18:40.096;599616051409043713;161.53783;9914
2024-05-20T22:18:40.104;599616051416735990;169.2301;10114
2024-05-20T22:18:40.111;599616051424428267;176.92236;10287
2024-05-20T22:18:40.119;599616051432120544;184.61465;10556
2024-05-20T22:18:40.127;599616051439812821;192.30693;10797
2024-05-20T22:18:40.134;599616051447505098;199.9992;10985
2024-05-20T22:18:40.142;599616051455197375;207.69147;11223
2024-05-20T22:18:40.150;599616051462889652;215.38376;11447
2024-05-20T22:18:40.158;599616051470581929;223.07603;11620
2024-05-20T22:18:40.165;599616051478274206;230.76831;11763
2024-05-20T22:18:40.173;599616051485966483;238.46059;11939
2024-05-20T22:18:40.181;599616051493658760;246.15286;12197
2024-05-20T22:18:40.188;599616051501351037;253.84514;12358
2024-05-20T22:18:40.196;599616051509043314;261.5374;12375
2024-05-20T22:18:40.204;599616051516735591;269.2297;12515
2024-05-20T22:18:40.211;599616051524427868;276.922;12763
2024-05-20T22:18:40.219;599616051532120145;284.61423;12865
2024-05-20T22:18:40.227;599616051539812422;292.30652;12918
2024-05-20T22:18:40.234;599616051547504699;299.9988;13051
2024-05-20T22:18:40.242;599616051555196976;307.69107;13111
2024-05-20T22:18:40.250;599616051562889253;315.38336;13072
2024-05-20T22:18:40.258;599616051570581530;323.07565;13220
2024-05-20T22:18:40.265;599616051578273807;330.7679;13729
2024-05-20T22:18:40.273;599616051585966084;338.4602;14351
2024-05-20T22:18:40.281;599616051593658361;346.15247;14501
2024-05-20T22:18:40.288;599616051601350638;353.84473;13987
2024-05-20T22:18:40.296;599616051609042915;361.53702;13422
2024-05-20T22:18:40.304;599616051616735192;369.2293;13430
2024-05-20T22:18:40.311;599616051624427469;376.92157;13670
2024-05-20T22:18:40.319;599616051632119746;384.61386;13587
2024-05-20T22:18:40.327;599616051639812023;392.30612;13418
2024-05-20T22:18:40.334;599616051647504300;399.9984;13430
2024-05-20T22:18:40.342;599616051655196577;407.69067;13415
2024-05-20T22:18:40.350;599616051662888854;415.38293;13382
2024-05-20T22:18:40.358;599616051670581131;423.07523;13475
2024-05-20T22:18:40.365;599616051678273408;430.76752;13563
2024-05-20T22:18:40.373;599616051685965685;438.45978;13510
2024-05-20T22:18:40.381;599616051693657962;446.15207;13439
2024-05-20T22:18:40.388;599616051701350239;453.84436;13484
2024-05-20T22:18:40.396;599616051709042516;461.53662;13510
2024-05-20T22:18:40.404;599616051716734793;469.22888;13437
2024-05-20T22:18:40.411;599616051724427070;476.92117;13441
2024-05-20T22:18:40.419;599616051732119347;484.61343;13491
2024-05-20T22:18:40.427;599616051739811624;492.30573;13394
2024-05-20T22:18:40.434;599616051747503901;499.99802;13251
2024-05-20T22:18:40.442;599616051755196178;507.69028;13242
2024-05-20T22:18:40.450;599616051762888455;515.38257;13263
2024-05-20T22:18:40.458;599616051770580732;523.0748;13213
2024-05-20T22:18:40.465;599616051778273009;530.7671;13115
2024-05-20T22:18:40.473;599616051785965286;538.4594;13025
2024-05-20T22:18:40.481;599616051793657563;546.1517;12987
2024-05-20T22:18:40.488;599616051801349840;553.844;12927
2024-05-20T22:18:40.496;599616051809042182;561.53625;12815
2024-05-20T22:18:40.504;599616051816734459;569.2285;12811
2024-05-20T22:18:40.511;599616051824426736;576.92084;12889
2024-05-20T22:18:40.519;599616051832119013;584.6131;12784
2024-05-20T22:18:40.527;599616051839811290;592.3054;12518
2024-05-20T22:18:40.534;599616051847503567;599.9977;12389
2024-05-20T22:18:40.542;599616051855195844;607.68994;12416
2024-05-20T22:18:40.550;599616051862888121;615.3822;12437
2024-05-20T22:18:40.558;599616051870580398;623.0745;12339
2024-05-20T22:18:40.565;599616051878272675;630.7668;12066
2024-05-20T22:18:40.573;599616051885964952;638.45905;11925
2024-05-20T22:18:40.581;599616051893657229;646.15137;11908
2024-05-20T22:18:40.588;599616051901349506;653.84357;11599
2024-05-20T22:18:40.596;599616051909041783;661.5359;11332
2024-05-20T22:18:40.604;599616051916734060;669.22815;11366
2024-05-20T22:18:40.611;599616051924426337;676.9205;11123
2024-05-20T22:18:40.619;599616051932118614;684.61273;10764
2024-05-20T22:18:40.627;599616051939810891;692.30505;10785
2024-05-20T22:18:40.634;599616051947503168;699.99725;10814
2024-05-20T22:18:40.642;599616051955195445;707.6895;10637
2024-05-20T22:18:40.650;599616051962887722;715.38184;10535
2024-05-20T22:18:40.658;599616051970579999;723.0741;10499
2024-05-20T22:18:40.665;599616051978272276;730.7664;10397
2024-05-20T22:18:40.673;599616051985964553;738.4587;10271
2024-05-20T22:18:40.681;599616051993656830;746.15094;10204
2024-05-20T22:18:40.688;599616052001349107;753.8432;10202
2024-05-20T22:18:40.696;599616052009041384;761.53546;10116
2024-05-20T22:18:40.704;599616052016733661;769.2278;9916
2024-05-20T22:18:40.711;599616052024425938;776.92004;9797
2024-05-20T22:18:40.719;599616052032118215;784.6123;9757
2024-05-20T22:18:40.727;599616052039810492;792.30457;9692
2024-05-20T22:18:40.734;599616052047502769;799.9969;9819
2024-05-20T22:18:40.742;599616052055195046;807.68915;10211
2024-05-20T22:18:40.750;599616052062887323;815.3815;10445
2024-05-20T22:18:40.758;599616052070579600;823.0737;10083
2024-05-20T22:18:40.765;599616052078271877;830.7659;9364
2024-05-20T22:18:40.773;599616052085964154;838.45825;8995
2024-05-20T22:18:40.781;599616052093656431;846.1505;9083
2024-05-20T22:18:40.788;599616052101348708;853.84283;9021
2024-05-20T22:18:40.796;599616052109040985;861.5351;8793
2024-05-20T22:18:40.804;599616052116733262;869.2274;8762
2024-05-20T22:18:40.811;599616052124425539;876.9196;8700
2024-05-20T22:18:40.819;599616052132117816;884.6119;8471
2024-05-20T22:18:40.827;599616052139810093;892.3042;8388
2024-05-20T22:18:40.834;599616052147502370;899.99646;8405
2024-05-20T22:18:40.842;599616052155194647;907.6888;8297
2024-05-20T22:18:40.850;599616052162886924;915.38104;8167
2024-05-20T22:18:40.858;599616052170579201;923.0733;8112
2024-05-20T22:18:40.865;599616052178271478;930.76556;8090
2024-05-20T22:18:40.873;599616052185963755;938.4579;8067
2024-05-20T22:18:40.881;599616052193656032;946.15015;7983
2024-05-20T22:18:40.888;599616052201348309;953.8424;7862
2024-05-20T22:18:40.896;599616052209040586;961.5347;7817
2024-05-20T22:18:40.904;599616052216732863;969.2269;7783
2024-05-20T22:18:40.911;599616052224425140;976.91925;7662
2024-05-20T22:18:40.919;599616052232117417;984.6115;7560
2024-05-20T22:18:40.927;599616052239809694;992.30383;7514
2024-05-20T22:18:40.934;599616052247501971;999.9961;7410
2024-05-20T22:18:40.942;599616052255194248;1007.6883;7255
2024-05-20T22:18:40.950;599616052262886525;1015.3806;7157
2024-05-20T22:18:40.958;599616052270578802;1023.0729;7117
2024-05-20T22:18:40.965;599616052278271079;1030.7651;7055
2024-05-20T22:18:40.973;599616052285963356;1038.4575;6943
2024-05-20T22:18:40.981;599616052293655633;1046.1498;6853
2024-05-20T22:18:40.988;599616052301347910;1053.842;6805
2024-05-20T22:18:40.996;599616052309040187;1061.5343;6672
2024-05-20T22:18:41.004;599616052316732464;1069.2266;6486
2024-05-20T22:18:41.011;599616052324424741;1076.9188;6415
2024-05-20T22:18:41.019;599616052332117018;1084.6111;6384
2024-05-20T22:18:41.027;599616052339809295;1092.3033;6229
2024-05-20T22:18:41.034;599616052347501572;1099.9956;6060
2024-05-20T22:18:41.042;599616052355193849;1107.688;6012
2024-05-20T22:18:41.050;599616052362886126;1115.3802;5922
2024-05-20T22:18:41.058;599616052370598484;1123.0927;5710
2024-05-20T22:18:41.065;599616052378290483;1130.7847;5553
2024-05-20T22:18:41.073;599616052385982482;1138.4766;5484
2024-05-20T22:18:41.081;599616052393674481;1146.1686;5432
2024-05-20T22:18:41.088;599616052401366480;1153.8606;5351
2024-05-20T22:18:41.096;599616052409058479;1161.5526;5177
2024-05-20T22:18:41.104;599616052416750478;1169.2445;5063
2024-05-20T22:18:41.111;599616052424442477;1176.9365;5044
2024-05-20T22:18:41.119;599616052432134476;1184.6287;4872
2024-05-20T22:18:41.127;599616052439826475;1192.3207;4677
2024-05-20T22:18:41.135;599616052447518474;1200.0126;4689
2024-05-20T22:18:41.142;599616052455210473;1207.7046;4705
2024-05-20T22:18:41.150;599616052462902472;1215.3966;4598
2024-05-20T22:18:41.158;599616052470594471;1223.0885;4534
2024-05-20T22:18:41.165;599616052478286470;1230.7805;4539
2024-05-20T22:18:41.173;599616052485978469;1238.4725;4496
2024-05-20T22:18:41.181;599616052493670468;1246.1646;4437
2024-05-20T22:18:41.188;599616052501362467;1253.8566;4398
2024-05-20T22:18:41.196;599616052509054466;1261.5486;4344
2024-05-20T22:18:41.204;599616052516746465;1269.2406;4315
2024-05-20T22:18:41.211;599616052524438464;1276.9326;4494
2024-05-20T22:18:41.219;599616052532130463;1284.6245;4898
2024-05-20T22:18:41.227;599616052539822462;1292.3165;5143
2024-05-20T22:18:41.235;599616052547514461;1300.0085;4805
2024-05-20T22:18:41.242;599616052555206460;1307.7006;4177
2024-05-20T22:18:41.250;599616052562898459;1315.3925;3918
2024-05-20T22:18:41.258;599616052570590458;1323.0846;3989
2024-05-20T22:18:41.265;599616052578282457;1330.7766;3941
2024-05-20T22:18:41.273;599616052585974456;1338.4686;3813
2024-05-20T22:18:41.281;599616052593666455;1346.1605;3813
2024-05-20T22:18:41.288;599616052601358454;1353.8525;3849
2024-05-20T22:18:41.296;599616052609050453;1361.5446;3780
2024-05-20T22:18:41.304;599616052616742452;1369.2366;3658
2024-05-20T22:18:41.311;599616052624434451;1376.9285;3601
2024-05-20T22:18:41.319;599616052632126450;1384.6205;3618
2024-05-20T22:18:41.327;599616052639818449;1392.3126;3608
2024-05-20T22:18:41.335;599616052647510448;1400.0046;3558
2024-05-20T22:18:41.342;599616052655202447;1407.6965;3515
2024-05-20T22:18:41.350;599616052662894446;1415.3885;3482
2024-05-20T22:18:41.358;599616052670586445;1423.0806;3465
2024-05-20T22:18:41.365;599616052678278444;1430.7726;3463
2024-05-20T22:18:41.373;599616052685970443;1438.4645;3458
2024-05-20T22:18:41.381;599616052693662442;1446.1565;3425
2024-05-20T22:18:41.388;599616052701354441;1453.8486;3349
2024-05-20T22:18:41.396;599616052709046440;1461.5406;3263
2024-05-20T22:18:41.404;599616052716738439;1469.2325;3234
2024-05-20T22:18:41.411;599616052724430438;1476.9246;3215
2024-05-20T22:18:41.419;599616052732122437;1484.6166;3144
2024-05-20T22:18:41.427;599616052739814436;1492.3085;3094
2024-05-20T22:18:41.435;599616052747506435;1500.0005;3084
2024-05-20T22:18:41.442;599616052755198434;1507.6925;3037
2024-05-20T22:18:41.450;599616052762890433;1515.3845;2965
2024-05-20T22:18:41.458;599616052770582432;1523.0765;2930
2024-05-20T22:18:41.465;599616052778274431;1530.7686;2899
2024-05-20T22:18:41.473;599616052785966430;1538.4606;2813
2024-05-20T22:18:41.481;599616052793658429;1546.1526;2704
2024-05-20T22:18:41.488;599616052801350428;1553.8445;2651
2024-05-20T22:18:41.496;599616052809042427;1561.5365;2639
2024-05-20T22:18:41.504;599616052816734426;1569.2285;2568
2024-05-20T22:18:41.511;599616052824426425;1576.9205;2456
2024-05-20T22:18:41.519;599616052832118424;1584.6124;2387
2024-05-20T22:18:41.527;599616052839810423;1592.3046;2306
2024-05-20T22:18:41.534;599616052847502422;1599.9966;2197
2024-05-20T22:18:41.542;599616052855194421;1607.6886;2111
2024-05-20T22:18:41.550;599616052862886420;1615.3805;2035
2024-05-20T22:18:41.558;599616052870578419;1623.0725;1978
2024-05-20T22:18:41.565;599616052878270418;1630.7645;1951
2024-05-20T22:18:41.573;599616052885962417;1638.4565;1904
2024-05-20T22:18:41.581;599616052893654416;1646.1484;1866
2024-05-20T22:18:41.588;599616052901346415;1653.8405;1875
2024-05-20T22:18:41.596;599616052909038414;1661.5326;1856
2024-05-20T22:18:41.604;599616052916730413;1669.2246;1754
2024-05-20T22:18:41.611;599616052924422412;1676.9165;1671
2024-05-20T22:18:41.619;599616052932104418;1684.5985;1659
2024-05-20T22:18:41.627;599616052939796556;1692.2906;1651
2024-05-20T22:18:41.634;599616052947488694;1699.9828;1640
2024-05-20T22:18:41.642;599616052955180832;1707.6749;1644
2024-05-20T22:18:41.650;599616052962872970;1715.3671;1649
2024-05-20T22:18:41.658;599616052970565108;1723.0592;1618
2024-05-20T22:18:41.665;599616052978257246;1730.7513;1530
2024-05-20T22:18:41.673;599616052985949384;1738.4435;1532
2024-05-20T22:18:41.681;599616052993641522;1746.1356;1816
2024-05-20T22:18:41.688;599616053001333660;1753.8278;2251
2024-05-20T22:18:41.696;599616053009025798;1761.5199;2456
2024-05-20T22:18:41.704;599616053016717936;1769.212;2154
2024-05-20T22:18:41.711;599616053024410074;1776.9042;1554
2024-05-20T22:18:41.719;599616053032102212;1784.5963;1259
2024-05-20T22:18:41.727;599616053039794350;1792.2885;1366
2024-05-20T22:18:41.734;599616053047486488;1799.9806;1435
2024-05-20T22:18:41.742;599616053055178626;1807.6727;1380
2024-05-20T22:18:41.750;599616053062870764;1815.3649;1366
2024-05-20T22:18:41.758;599616053070562902;1823.057;1380
2024-05-20T22:18:41.765;599616053078255040;1830.7491;1387
2024-05-20T22:18:41.773;599616053085947178;1838.4413;1394
2024-05-20T22:18:41.781;599616053093639316;1846.1334;1390
2024-05-20T22:18:41.788;599616053101331454;1853.8256;1371
2024-05-20T22:18:41.796;599616053109023592;1861.5177;1325
2024-05-20T22:18:41.804;599616053116715730;1869.2098;1275
2024-05-20T22:18:41.811;599616053124407868;1876.902;1278
2024-05-20T22:18:41.819;599616053132100006;1884.594;1321
2024-05-20T22:18:41.827;599616053139792144;1892.2863;1368
2024-05-20T22:18:41.834;599616053147484282;1899.9784;1387
2024-05-20T22:18:41.842;599616053155176420;1907.6705;1392
2024-05-20T22:18:41.850;599616053162868558;1915.3627;1382
2024-05-20T22:18:41.858;599616053170560696;1923.0548;1366
2024-05-20T22:18:41.865;599616053178252834;1930.7468;1368
2024-05-20T22:18:41.873;599616053185944972;1938.4391;1380
2024-05-20T22:18:41.881;599616053193637110;1946.1312;1387
2024-05-20T22:18:41.888;599616053201329248;1953.8234;1366
2024-05-20T22:18:41.896;599616053209021386;1961.5155;1306
2024-05-20T22:18:41.904;599616053216713524;1969.2076;1256
2024-05-20T22:18:41.911;599616053224405662;1976.8997;1249
2024-05-20T22:18:41.919;599616053232097800;1984.5919;1247
2024-05-20T22:18:41.927;599616053239789938;1992.284;1237
2024-05-20T22:18:41.934;599616053247482076;1999.9762;1228
2024-05-20T22:18:41.942;599616053255174214;2007.6683;1180
2024-05-20T22:18:41.950;599616053262866352;2015.3605;1097
2024-05-20T22:18:41.958;599616053270558490;2023.0525;1049
2024-05-20T22:18:41.965;599616053278250628;2030.7448;1049
2024-05-20T22:18:41.973;599616053285942766;2038.4369;1042
2024-05-20T22:18:41.981;599616053293634904;2046.129;980
2024-05-20T22:18:41.988;599616053301327042;2053.8213;885
2024-05-20T22:18:41.996;599616053309019180;2061.5134;811
2024-05-20T22:18:42.004;599616053316711318;2069.2053;756
2024-05-20T22:18:42.011;599616053324403456;2076.8975;714
2024-05-20T22:18:42.019;599616053332095594;2084.5896;673
2024-05-20T22:18:42.027;599616053339787732;2092.2817;645
2024-05-20T22:18:42.034;599616053347479870;2099.974;599
2024-05-20T22:18:42.042;599616053355172008;2107.6663;530
2024-05-20T22:18:42.050;599616053362864146;2115.3582;504
2024-05-20T22:18:42.058;599616053370556284;2123.0503;535
2024-05-20T22:18:42.065;599616053378248422;2130.7424;571
2024-05-20T22:18:42.073;599616053385940560;2138.4346;578
2024-05-20T22:18:42.081;599616053393632698;2146.127;552
2024-05-20T22:18:42.088;599616053401324836;2153.8188;554
2024-05-20T22:18:42.096;599616053409016974;2161.5112;583
2024-05-20T22:18:42.104;599616053416709112;2169.2031;545
2024-05-20T22:18:42.111;599616053424401250;2176.8953;452
2024-05-20T22:18:42.119;599616053432093388;2184.5874;416
2024-05-20T22:18:42.127;599616053439785526;2192.2795;404
2024-05-20T22:18:42.134;599616053447477664;2199.972;368
2024-05-20T22:18:42.142;599616053455169802;2207.6638;426
2024-05-20T22:18:42.150;599616053462861940;2215.3562;764
2024-05-20T22:18:42.158;599616053470554078;2223.048;1294
2024-05-20T22:18:42.165;599616053478246216;2230.7402;1559
2024-05-20T22:18:42.173;599616053485938354;2238.4326;1213
2024-05-20T22:18:42.181;599616053493620522;2246.1145;630
2024-05-20T22:18:42.188;599616053501312799;2253.807;440
2024-05-20T22:18:42.196;599616053509005076;2261.499;568
2024-05-20T22:18:42.204;599616053516697353;2269.1914;583
2024-05-20T22:18:42.211;599616053524389630;2276.8838;530
2024-05-20T22:18:42.219;599616053532081907;2284.576;535
2024-05-20T22:18:42.227;599616053539774184;2292.2683;476
2024-05-20T22:18:42.234;599616053547466461;2299.9607;421
2024-05-20T22:18:42.242;599616053555158738;2307.6528;483
2024-05-20T22:18:42.250;599616053562851015;2315.3452;537
2024-05-20T22:18:42.258;599616053570543292;2323.0374;523
2024-05-20T22:18:42.265;599616053578235569;2330.7297;528
2024-05-20T22:18:42.273;599616053585927846;2338.422;559
2024-05-20T22:18:42.281;599616053593620123;2346.1143;564
2024-05-20T22:18:42.288;599616053601312400;2353.8066;552
2024-05-20T22:18:42.296;599616053609004677;2361.4988;573
2024-05-20T22:18:42.304;599616053616696954;2369.1912;614
2024-05-20T22:18:42.311;599616053624389231;2376.8835;640
2024-05-20T22:18:42.319;599616053632081508;2384.5754;642
2024-05-20T22:18:42.327;599616053639773785;2392.2678;649
2024-05-20T22:18:42.334;599616053647466062;2399.96;671
2024-05-20T22:18:42.342;599616053655158339;2407.6523;671
2024-05-20T22:18:42.350;599616053662850616;2415.3447;654
2024-05-20T22:18:42.358;599616053670542893;2423.0369;635
2024-05-20T22:18:42.365;599616053678235170;2430.7292;626
2024-05-20T22:18:42.373;599616053685927447;2438.4214;633
2024-05-20T22:18:42.381;599616053693619724;2446.1138;649
2024-05-20T22:18:42.388;599616053701312001;2453.8062;668
2024-05-20T22:18:42.396;599616053709004278;2461.4983;685
2024-05-20T22:18:42.404;599616053716696555;2469.1907;676
2024-05-20T22:18:42.411;599616053724388832;2476.883;649
2024-05-20T22:18:42.419;599616053732081109;2484.5752;633
2024-05-20T22:18:42.427;599616053739773386;2492.2676;602
2024-05-20T22:18:42.434;599616053747465663;2499.9597;561
2024-05-20T22:18:42.442;599616053755157940;2507.652;552
2024-05-20T22:18:42.450;599616053762850217;2515.3445;540
2024-05-20T22:18:42.458;599616053770542494;2523.0366;466
2024-05-20T22:18:42.465;599616053778234771;2530.729;385
2024-05-20T22:18:42.473;599616053785927048;2538.4211;345
2024-05-20T22:18:42.481;599616053793619325;2546.1135;307
2024-05-20T22:18:42.488;599616053801311602;2553.806;257
2024-05-20T22:18:42.496;599616053809003879;2561.4978;211
2024-05-20T22:18:42.504;599616053816696156;2569.1902;192
2024-05-20T22:18:42.511;599616053824388433;2576.8823;214
2024-05-20T22:18:42.519;599616053832080710;2584.5747;233
2024-05-20T22:18:42.527;599616053839772987;2592.267;190
2024-05-20T22:18:42.534;599616053847465264;2599.9592;152
2024-05-20T22:18:42.542;599616053855157541;2607.6516;176
2024-05-20T22:18:42.550;599616053862849818;2615.3438;197
2024-05-20T22:18:42.558;599616053870542095;2623.0361;192
2024-05-20T22:18:42.565;599616053878234372;2630.7285;216
2024-05-20T22:18:42.573;599616053885926649;2638.4207;238
2024-05-20T22:18:42.581;599616053893618926;2646.113;223
2024-05-20T22:18:42.588;599616053901311203;2653.8054;207
2024-05-20T22:18:42.596;599616053909003480;2661.4976;221
2024-05-20T22:18:42.604;599616053916695757;2669.19;226
2024-05-20T22:18:42.611;599616053924388034;2676.882;173
2024-05-20T22:18:42.619;599616053932080311;2684.5745;223
2024-05-20T22:18:42.627;599616053939772588;2692.2668;611
2024-05-20T22:18:42.634;599616053947464865;2699.959;1102
2024-05-20T22:18:42.642;599616053955157142;2707.6514;1142
2024-05-20T22:18:42.650;599616053962849419;2715.3435;630
2024-05-20T22:18:42.658;599616053970541696;2723.036;133
2024-05-20T22:18:42.665;599616053978233973;2730.7283;111
2024-05-20T22:18:42.673;599616053985926250;2738.4204;240
2024-05-20T22:18:42.681;599616053993618527;2746.1125;176
2024-05-20T22:18:42.688;599616054001310804;2753.8047;142
2024-05-20T22:18:42.696;599616054009003081;2761.497;218
2024-05-20T22:18:42.704;599616054016695358;2769.1895;245
2024-05-20T22:18:42.711;599616054024387635;2776.8816;264
2024-05-20T22:18:42.719;599616054032079912;2784.574;302
2024-05-20T22:18:42.727;599616054039772189;2792.2664;297
2024-05-20T22:18:42.734;599616054047464466;2799.9585;311
2024-05-20T22:18:42.742;599616054055161776;2807.656;359
2024-05-20T22:18:42.750;599616054062853984;2815.348;373
2024-05-20T22:18:42.758;599616054070546192;2823.0403;388
2024-05-20T22:18:42.765;599616054078238400;2830.7327;407
2024-05-20T22:18:42.773;599616054085930608;2838.4248;390
2024-05-20T22:18:42.781;599616054093622816;2846.117;366
2024-05-20T22:18:42.788;599616054101315024;2853.809;342
2024-05-20T22:18:42.796;599616054109007232;2861.5015;276
2024-05-20T22:18:42.804;599616054116699440;2869.1934;240
2024-05-20T22:18:42.811;599616054124391648;2876.8857;278
2024-05-20T22:18:42.819;599616054132083856;2884.5781;252
2024-05-20T22:18:42.827;599616054139776064;2892.27;145
2024-05-20T22:18:42.834;599616054147468272;2899.9624;121
2024-05-20T22:18:42.842;599616054155160480;2907.6545;185
2024-05-20T22:18:42.850;599616054162852688;2915.3467;209
2024-05-20T22:18:42.858;599616054170544896;2923.039;192
2024-05-20T22:18:42.865;599616054178237104;2930.7312;207
2024-05-20T22:18:42.873;599616054185929312;2938.4233;240
2024-05-20T22:18:42.881;599616054193621520;2946.1155;268
2024-05-20T22:18:42.888;599616054201313728;2953.8079;276
2024-05-20T22:18:42.896;599616054209005936;2961.5002;257
2024-05-20T22:18:42.904;599616054216698144;2969.1921;242
2024-05-20T22:18:42.911;599616054224390352;2976.8845;228
2024-05-20T22:18:42.919;599616054232082560;2984.5767;202
2024-05-20T22:18:42.927;599616054239774768;2992.2688;180
2024-05-20T22:18:42.934;599616054247466976;2999.9612;164
2024-05-20T22:18:42.942;599616054255159184;3007.6533;126
2024-05-20T22:18:42.950;599616054262851392;3015.3455;69
2024-05-20T22:18:42.958;599616054270543600;3023.0376;23
2024-05-20T22:18:42.965;599616054278235808;3030.73;19
2024-05-20T22:18:42.973;599616054285928016;3038.422;16
2024-05-20T22:18:42.981;599616054293620224;3046.1143;-4
2024-05-20T22:18:42.988;599616054301312432;3053.8066;4
2024-05-20T22:18:42.996;599616054309004640;3061.4985;30
2024-05-20T22:18:43.004;599616054316696848;3069.191;2
2024-05-20T22:18:43.011;599616054324389056;3076.8833;-16
2024-05-20T22:18:43.019;599616054332081264;3084.5754;4
2024-05-20T22:18:43.027;599616054339773472;3092.2676;-26
2024-05-20T22:18:43.034;599616054347465680;3099.9597;-78
2024-05-20T22:18:43.042;599616054355157888;3107.652;-71
2024-05-20T22:18:43.050;599616054362850096;3115.3442;-40
2024-05-20T22:18:43.058;599616054370542304;3123.0364;-30
2024-05-20T22:18:43.065;599616054378234512;3130.7288;-26
2024-05-20T22:18:43.073;599616054385926720;3138.4207;-16
2024-05-20T22:18:43.081;599616054393618928;3146.113;-19
2024-05-20T22:18:43.088;599616054401311136;3153.8054;-33
2024-05-20T22:18:43.096;599616054409003344;3161.4973;52
2024-05-20T22:18:43.104;599616054416695552;3169.1897;402
2024-05-20T22:18:43.111;599616054424387760;3176.8818;856
2024-05-20T22:18:43.119;599616054432079968;3184.574;897
2024-05-20T22:18:43.127;599616054439772176;3192.2664;380
2024-05-20T22:18:43.134;599616054447464384;3199.9585;-109
2024-05-20T22:18:43.142;599616054455156592;3207.651;-140
2024-05-20T22:18:43.150;599616054462848800;3215.3428;-21
2024-05-20T22:18:43.158;599616054470541008;3223.0352;-49
2024-05-20T22:18:43.165;599616054478233216;3230.7275;-52
2024-05-20T22:18:43.173;599616054485925424;3238.4194;38
2024-05-20T22:18:43.181;599616054493617632;3246.1118;61
2024-05-20T22:18:43.188;599616054501309840;3253.804;40
2024-05-20T22:18:43.196;599616054509002048;3261.496;76
2024-05-20T22:18:43.204;599616054516694256;3269.1882;138
2024-05-20T22:18:43.211;599616054524386464;3276.8806;169
2024-05-20T22:18:43.219;599616054532078672;3284.5728;192
2024-05-20T22:18:43.227;599616054539770880;3292.265;226
2024-05-20T22:18:43.234;599616054547463088;3299.9573;257
2024-05-20T22:18:43.242;599616054555155296;3307.6492;283
2024-05-20T22:18:43.250;599616054562847504;3315.3416;309
2024-05-20T22:18:43.258;599616054570539712;3323.034;338
2024-05-20T22:18:43.265;599616054578231920;3330.726;345
2024-05-20T22:18:43.273;599616054585924128;3338.4182;297
2024-05-20T22:18:43.281;599616054593616336;3346.1104;245
2024-05-20T22:18:43.288;599616054601308544;3353.8027;240
2024-05-20T22:18:43.296;599616054609000752;3361.4949;249
2024-05-20T22:18:43.304;599616054616692978;3369.187;252
2024-05-20T22:18:43.311;599616054624385186;3376.8794;280
2024-05-20T22:18:43.319;599616054632077394;3384.5713;302
2024-05-20T22:18:43.327;599616054639769602;3392.2637;252
2024-05-20T22:18:43.334;599616054647461810;3399.956;145
2024-05-20T22:18:43.342;599616054655154018;3407.648;83
2024-05-20T22:18:43.350;599616054662846226;3415.3403;121
2024-05-20T22:18:43.358;599616054670538434;3423.0325;138
2024-05-20T22:18:43.365;599616054678230642;3430.7249;61
2024-05-20T22:18:43.373;599616054685922850;3438.417;19
2024-05-20T22:18:43.381;599616054693615058;3446.1091;54
2024-05-20T22:18:43.388;599616054701307266;3453.8015;64
2024-05-20T22:18:43.396;599616054708999474;3461.4934;23
2024-05-20T22:18:43.404;599616054716691682;3469.1858;-7
2024-05-20T22:18:43.411;599616054724383890;3476.8782;-45
2024-05-20T22:18:43.419;599616054732076098;3484.57;-149
2024-05-20T22:18:43.427;599616054739768306;3492.2625;-254
2024-05-20T22:18:43.434;599616054747460514;3499.9546;-259
2024-05-20T22:18:43.442;599616054755152722;3507.6467;-230
2024-05-20T22:18:43.450;599616054762844930;3515.339;-245
2024-05-20T22:18:43.458;599616054770537138;3523.0312;-235
2024-05-20T22:18:43.465;599616054778229346;3530.7234;-178
2024-05-20T22:18:43.473;599616054785921554;3538.4155;-138
2024-05-20T22:18:43.481;599616054793613762;3546.108;-121
2024-05-20T22:18:43.488;599616054801305970;3553.8003;-114
2024-05-20T22:18:43.496;599616054808998178;3561.4922;-85
2024-05-20T22:18:43.504;599616054816690386;3569.1846;-61
2024-05-20T22:18:43.511;599616054824382594;3576.8767;-102
2024-05-20T22:18:43.519;599616054832074802;3584.5688;-147
2024-05-20T22:18:43.527;599616054839767010;3592.2612;-121
2024-05-20T22:18:43.534;599616054847459218;3599.9534;-71
2024-05-20T22:18:43.542;599616054855151426;3607.6455;-61
2024-05-20T22:18:43.550;599616054862843634;3615.3376;-80
2024-05-20T22:18:43.558;599616054870535842;3623.03;-104
2024-05-20T22:18:43.565;599616054878228050;3630.7222;-97
2024-05-20T22:18:43.573;599616054885920258;3638.4143;16
2024-05-20T22:18:43.581;599616054893612466;3646.1067;342
2024-05-20T22:18:43.588;599616054901304674;3653.7986;787
2024-05-20T22:18:43.596;599616054908996882;3661.491;909
2024-05-20T22:18:43.604;599616054916689090;3669.1833;459
2024-05-20T22:18:43.611;599616054924381298;3676.8755;-42
2024-05-20T22:18:43.619;599616054932073506;3684.5676;-107
2024-05-20T22:18:43.627;599616054939765714;3692.2598;-57
2024-05-20T22:18:43.634;599616054947457922;3699.9521;-157
2024-05-20T22:18:43.642;599616054955150130;3707.644;-173
2024-05-20T22:18:43.650;599616054962842338;3715.3364;-102
2024-05-20T22:18:43.658;599616054970534546;3723.0288;-88
2024-05-20T22:18:43.665;599616054978226754;3730.7207;-69
2024-05-20T22:18:43.673;599616054985918962;3738.413;-16
2024-05-20T22:18:43.681;599616054993611170;3746.1052;16
2024-05-20T22:18:43.688;599616055001303378;3753.7974;21
2024-05-20T22:18:43.696;599616055008995586;3761.4897;26
2024-05-20T22:18:43.704;599616055016687794;3769.182;52
2024-05-20T22:18:43.711;599616055024380002;3776.874;111
2024-05-20T22:18:43.719;599616055032072210;3784.5662;154
2024-05-20T22:18:43.727;599616055039764418;3792.2585;166
2024-05-20T22:18:43.734;599616055047456626;3799.951;202
2024-05-20T22:18:43.742;599616055055148834;3807.6428;240
2024-05-20T22:18:43.750;599616055062841042;3815.3352;242
2024-05-20T22:18:43.758;599616055070533250;3823.0273;226
2024-05-20T22:18:43.765;599616055078225458;3830.7195;197
2024-05-20T22:18:43.773;599616055085917666;3838.4119;178
2024-05-20T22:18:43.781;599616055093609874;3846.104;164
2024-05-20T22:18:43.788;599616055101302082;3853.7961;135
2024-05-20T22:18:43.796;599616055108994290;3861.4883;135
2024-05-20T22:18:43.804;599616055116686498;3869.1807;176
2024-05-20T22:18:43.811;599616055124378706;3876.8728;178
2024-05-20T22:18:43.819;599616055132070914;3884.565;149
2024-05-20T22:18:43.827;599616055139763122;3892.2573;140
2024-05-20T22:18:43.834;599616055147455330;3899.9492;111
2024-05-20T22:18:43.842;599616055155147538;3907.6416;59
2024-05-20T22:18:43.850;599616055162839746;3915.334;35
2024-05-20T22:18:43.858;599616055170531954;3923.0261;38
2024-05-20T22:18:43.865;599616055178239226;3930.7334;19
2024-05-20T22:18:43.873;599616055185931225;3938.4253;-61
2024-05-20T22:18:43.881;599616055193623224;3946.1174;-157
2024-05-20T22:18:43.888;599616055201315223;3953.8093;-188
2024-05-20T22:18:43.896;599616055209007222;3961.5015;-209
2024-05-20T22:18:43.904;599616055216699221;3969.193;-257
2024-05-20T22:18:43.911;599616055224391220;3976.8853;-257
2024-05-20T22:18:43.919;599616055232083219;3984.5774;-247
2024-05-20T22:18:43.927;599616055239775218;3992.2693;-295
2024-05-20T22:18:43.934;599616055247467217;3999.9614;-354
2024-05-20T22:18:43.942;599616055255159216;4007.6533;-378
2024-05-20T22:18:43.950;599616055262851215;4015.3455;-359
2024-05-20T22:18:43.958;599616055270543214;4023.0374;-314
2024-05-20T22:18:43.965;599616055278235213;4030.7292;-311
2024-05-20T22:18:43.973;599616055285927212;4038.4211;-359
2024-05-20T22:18:43.981;599616055293619211;4046.1133;-345
2024-05-20T22:18:43.988;599616055301311210;4053.8054;-278
2024-05-20T22:18:43.996;599616055309003209;4061.4973;-259
2024-05-20T22:18:44.004;599616055316695208;4069.1895;-290
2024-05-20T22:18:44.011;599616055324387207;4076.8813;-321
2024-05-20T22:18:44.019;599616055332079206;4084.5732;-326
2024-05-20T22:18:44.027;599616055339771205;4092.2651;-309
2024-05-20T22:18:44.034;599616055347463204;4099.957;-292
2024-05-20T22:18:44.042;599616055355155203;4107.6494;-288
2024-05-20T22:18:44.050;599616055362847202;4115.3413;-245
2024-05-20T22:18:44.058;599616055370539201;4123.033;-49
2024-05-20T22:18:44.065;599616055378231200;4130.7256;364
2024-05-20T22:18:44.073;599616055385923199;4138.4175;737
2024-05-20T22:18:44.081;599616055393615198;4146.1094;633
2024-05-20T22:18:44.088;599616055401307197;4153.8013;102
2024-05-20T22:18:44.096;599616055408999196;4161.493;-221
2024-05-20T22:18:44.104;599616055416691195;4169.185;-121
2024-05-20T22:18:44.111;599616055424383194;4176.8774;-54
2024-05-20T22:18:44.119;599616055432075193;4184.5693;-145
2024-05-20T22:18:44.127;599616055439767192;4192.261;-190
2024-05-20T22:18:44.134;599616055447459191;4199.9536;-223
2024-05-20T22:18:44.142;599616055455151190;4207.645;-257
2024-05-20T22:18:44.150;599616055462843189;4215.3374;-238
2024-05-20T22:18:44.158;599616055470535188;4223.0293;-171
2024-05-20T22:18:44.165;599616055478227187;4230.721;-69
2024-05-20T22:18:44.173;599616055485919186;4238.413;9
2024-05-20T22:18:44.181;599616055493611185;4246.1055;42
2024-05-20T22:18:44.188;599616055501303184;4253.7974;88
2024-05-20T22:18:44.196;599616055508995183;4261.4893;142
2024-05-20T22:18:44.204;599616055516687182;4269.181;161
2024-05-20T22:18:44.211;599616055524379181;4276.873;188
2024-05-20T22:18:44.219;599616055532071180;4284.5654;247
2024-05-20T22:18:44.227;599616055539763179;4292.2573;295
2024-05-20T22:18:44.234;599616055547455178;4299.949;304
2024-05-20T22:18:44.242;599616055555147177;4307.641;288
2024-05-20T22:18:44.250;599616055562839176;4315.333;252
2024-05-20T22:18:44.258;599616055570531175;4323.0254;195
2024-05-20T22:18:44.265;599616055578223174;4330.7173;147
2024-05-20T22:18:44.273;599616055585915173;4338.4097;152
2024-05-20T22:18:44.281;599616055593607172;4346.101;188
2024-05-20T22:18:44.288;599616055601299171;4353.793;192
2024-05-20T22:18:44.296;599616055608991170;4361.4854;152
2024-05-20T22:18:44.304;599616055616683169;4369.1772;104
2024-05-20T22:18:44.311;599616055624375168;4376.869;85
2024-05-20T22:18:44.319;599616055632067167;4384.561;95
2024-05-20T22:18:44.327;599616055639759166;4392.2534;95
2024-05-20T22:18:44.334;599616055647451165;4399.9453;69
2024-05-20T22:18:44.342;599616055655143164;4407.6377;16
2024-05-20T22:18:44.350;599616055662835163;4415.329;-33
2024-05-20T22:18:44.358;599616055670527162;4423.021;-80
2024-05-20T22:18:44.365;599616055678219161;4430.7134;-128
2024-05-20T22:18:44.373;599616055685911160;4438.4053;-149
2024-05-20T22:18:44.381;599616055693603159;4446.097;-169
2024-05-20T22:18:44.388;599616055701295158;4453.789;-197
2024-05-20T22:18:44.396;599616055708987157;4461.4814;-188
2024-05-20T22:18:44.404;599616055716679156;4469.1733;-161
2024-05-20T22:18:44.411;599616055724371155;4476.865;-173
2024-05-20T22:18:44.419;599616055732063154;4484.557;-169
2024-05-20T22:18:44.427;599616055739755166;4492.249;-138
2024-05-20T22:18:44.434;599616055747447165;4499.9414;-140
2024-05-20T22:18:44.442;599616055755139164;4507.6333;-152
2024-05-20T22:18:44.450;599616055762831163;4515.3257;-123
2024-05-20T22:18:44.458;599616055770523162;4523.017;-85
2024-05-20T22:18:44.465;599616055778215161;4530.7095;-59
2024-05-20T22:18:44.473;599616055785907160;4538.4014;-49
2024-05-20T22:18:44.481;599616055793599159;4546.0933;-66
2024-05-20T22:18:44.488;599616055801291158;4553.785;-64
2024-05-20T22:18:44.496;599616055808983157;4561.477;-57
2024-05-20T22:18:44.504;599616055816675156;4569.1694;-173
2024-05-20T22:18:44.511;599616055824367155;4576.8613;-328
2024-05-20T22:18:44.519;599616055832059154;4584.5537;-323
2024-05-20T22:18:44.527;599616055839751153;4592.245;-128
2024-05-20T22:18:44.534;599616055847443152;4599.937;264
2024-05-20T22:18:44.542;599616055855135151;4607.6294;685
2024-05-20T22:18:44.550;599616055862827150;4615.3213;680
2024-05-20T22:18:44.558;599616055870519149;4623.013;178
2024-05-20T22:18:44.565;599616055878211148;4630.705;-233
2024-05-20T22:18:44.573;599616055885903147;4638.3975;-204
2024-05-20T22:18:44.581;599616055893595146;4646.0894;-97
2024-05-20T22:18:44.588;599616055901287145;4653.7817;-138
2024-05-20T22:18:44.596;599616055908979144;4661.473;-130
2024-05-20T22:18:44.604;599616055916671143;4669.165;-59
2024-05-20T22:18:44.611;599616055924363142;4676.8574;-35
2024-05-20T22:18:44.619;599616055932055141;4684.5493;-14
2024-05-20T22:18:44.627;599616055939747140;4692.241;9
2024-05-20T22:18:44.634;599616055947439139;4699.933;-38
2024-05-20T22:18:44.642;599616055955131138;4707.6255;-85
2024-05-20T22:18:44.650;599616055962823137;4715.3174;-38
2024-05-20T22:18:44.658;599616055970515136;4723.009;11
2024-05-20T22:18:44.665;599616055978207135;4730.701;11
2024-05-20T22:18:44.673;599616055985899134;4738.393;30
2024-05-20T22:18:44.681;599616055993591133;4746.0854;92
2024-05-20T22:18:44.688;599616056001283132;4753.7773;149
2024-05-20T22:18:44.696;599616056008975131;4761.469;171
2024-05-20T22:18:44.704;599616056016667130;4769.161;178
2024-05-20T22:18:44.711;599616056024359129;4776.853;154
2024-05-20T22:18:44.719;599616056032051128;4784.5454;119
2024-05-20T22:18:44.727;599616056039743127;4792.237;140
2024-05-20T22:18:44.734;599616056047435126;4799.929;192
2024-05-20T22:18:44.742;599616056055127125;4807.621;178
2024-05-20T22:18:44.750;599616056062819124;4815.3135;111
2024-05-20T22:18:44.758;599616056070511123;4823.0054;76
2024-05-20T22:18:44.765;599616056078203122;4830.6973;92
2024-05-20T22:18:44.773;599616056085895121;4838.389;99
2024-05-20T22:18:44.781;599616056093587120;4846.081;52
2024-05-20T22:18:44.788;599616056101279119;4853.7734;9
2024-05-20T22:18:44.796;599616056108971118;4861.4653;19
2024-05-20T22:18:44.804;599616056116663117;4869.157;7
2024-05-20T22:18:44.811;599616056124355116;4876.849;-42
2024-05-20T22:18:44.819;599616056132047115;4884.5415;-71
2024-05-20T22:18:44.827;599616056139739114;4892.2334;-80
2024-05-20T22:18:44.834;599616056147431113;4899.925;-130
2024-05-20T22:18:44.842;599616056155123112;4907.617;-223
2024-05-20T22:18:44.850;599616056162815111;4915.309;-264
2024-05-20T22:18:44.858;599616056170507110;4923.0015;-249
2024-05-20T22:18:44.865;599616056178199109;4930.6934;-259
2024-05-20T22:18:44.873;599616056185891108;4938.3853;-273
2024-05-20T22:18:44.881;599616056193583107;4946.077;-230
2024-05-20T22:18:44.888;599616056201275106;4953.769;-204
2024-05-20T22:18:44.896;599616056208967105;4961.4614;-242
2024-05-20T22:18:44.904;599616056216659104;4969.153;-240
2024-05-20T22:18:44.911;599616056224351103;4976.845;-166
2024-05-20T22:18:44.919;599616056232043102;4984.537;-130
2024-05-20T22:18:44.927;599616056239735101;4992.2295;-142
2024-05-20T22:18:44.934;599616056247427100;4999.9214;-135
2024-05-20T22:18:44.942;599616056255119099;5007.6133;-128
2024-05-20T22:18:44.950;599616056262811098;5015.305;-121
2024-05-20T22:18:44.957;599616056270503097;5022.997;-92
2024-05-20T22:18:44.965;599616056278195096;5030.6895;-71
2024-05-20T22:18:44.973;599616056285887095;5038.381;-83
2024-05-20T22:18:44.981;599616056293579094;5046.073;-90
2024-05-20T22:18:44.988;599616056301256060;5053.7505;38
2024-05-20T22:18:44.996;599616056308948268;5061.4424;407
2024-05-20T22:18:45.004;599616056316640476;5069.1343;840
2024-05-20T22:18:45.011;599616056324332684;5076.8267;873
2024-05-20T22:18:45.019;599616056332024892;5084.519;340
2024-05-20T22:18:45.027;599616056339717100;5092.2114;-154
2024-05-20T22:18:45.034;599616056347409308;5099.9033;-152
2024-05-20T22:18:45.042;599616056355101516;5107.5957;-88
2024-05-20T22:18:45.050;599616056362793724;5115.288;-228
2024-05-20T22:18:45.057;599616056370485932;5122.98;-235
2024-05-20T22:18:45.065;599616056378178140;5130.6724;-116
2024-05-20T22:18:45.073;599616056385870348;5138.3643;-119
2024-05-20T22:18:45.081;599616056393562556;5146.0566;-147
2024-05-20T22:18:45.088;599616056401254764;5153.749;-83
2024-05-20T22:18:45.096;599616056408946972;5161.4414;-14
2024-05-20T22:18:45.104;599616056416639180;5169.133;-4
2024-05-20T22:18:45.111;599616056424331388;5176.825;11
2024-05-20T22:18:45.119;599616056432023596;5184.5176;54
2024-05-20T22:18:45.127;599616056439715804;5192.21;97
2024-05-20T22:18:45.134;599616056447408012;5199.9023;133
2024-05-20T22:18:45.142;599616056455100220;5207.5947;109
2024-05-20T22:18:45.150;599616056462792428;5215.2866;57
2024-05-20T22:18:45.157;599616056470484636;5222.9785;76
2024-05-20T22:18:45.165;599616056478176844;5230.671;102
2024-05-20T22:18:45.173;599616056485869052;5238.3633;71
2024-05-20T22:18:45.181;599616056493561260;5246.0557;73
2024-05-20T22:18:45.188;599616056501253468;5253.7476;109
2024-05-20T22:18:45.196;599616056508945676;5261.44;107
2024-05-20T22:18:45.204;599616056516637884;5269.132;102
2024-05-20T22:18:45.211;599616056524330092;5276.824;123
2024-05-20T22:18:45.219;599616056532022300;5284.516;116
2024-05-20T22:18:45.227;599616056539714508;5292.2085;92
2024-05-20T22:18:45.234;599616056547406716;5299.901;83
2024-05-20T22:18:45.242;599616056555098924;5307.5933;42
2024-05-20T22:18:45.250;599616056562791132;5315.285;-33
2024-05-20T22:18:45.257;599616056570483340;5322.977;-76
2024-05-20T22:18:45.265;599616056578175548;5330.6694;-76
2024-05-20T22:18:45.273;599616056585867756;5338.362;-59
2024-05-20T22:18:45.281;599616056593559964;5346.054;-73
2024-05-20T22:18:45.288;599616056601252172;5353.7466;-133
2024-05-20T22:18:45.296;599616056608944380;5361.4385;-157
2024-05-20T22:18:45.304;599616056616636588;5369.1304;-166
2024-05-20T22:18:45.311;599616056624328796;5376.8228;-242
2024-05-20T22:18:45.319;599616056632021004;5384.515;-307
2024-05-20T22:18:45.327;599616056639713212;5392.2075;-288
2024-05-20T22:18:45.334;599616056647405420;5399.8994;-249
2024-05-20T22:18:45.342;599616056655097628;5407.592;-249
2024-05-20T22:18:45.350;599616056662789836;5415.2837;-261
2024-05-20T22:18:45.357;599616056670482044;5422.976;-252
2024-05-20T22:18:45.365;599616056678174252;5430.6685;-235
2024-05-20T22:18:45.373;599616056685866460;5438.3604;-209
2024-05-20T22:18:45.381;599616056693558668;5446.0527;-180
2024-05-20T22:18:45.388;599616056701250876;5453.745;-152
2024-05-20T22:18:45.396;599616056708943084;5461.4375;-121
2024-05-20T22:18:45.404;599616056716635292;5469.1294;-126
2024-05-20T22:18:45.411;599616056724327500;5476.8213;-142
2024-05-20T22:18:45.419;599616056732019708;5484.5137;-104
2024-05-20T22:18:45.427;599616056739711916;5492.206;-54
2024-05-20T22:18:45.434;599616056747404124;5499.8984;-59
2024-05-20T22:18:45.442;599616056755096332;5507.591;-92
2024-05-20T22:18:45.450;599616056762788540;5515.282;-47
2024-05-20T22:18:45.457;599616056770480748;5522.9746;228
2024-05-20T22:18:45.465;599616056778172956;5530.667;706
2024-05-20T22:18:45.473;599616056785865164;5538.3594;1023
2024-05-20T22:18:45.481;599616056793557372;5546.052;790
2024-05-20T22:18:45.488;599616056801249580;5553.7437;135
2024-05-20T22:18:45.496;599616056808941788;5561.4355;-235
2024-05-20T22:18:45.504;599616056816633996;5569.128;-128
2024-05-20T22:18:45.511;599616056824326204;5576.8203;-42
2024-05-20T22:18:45.519;599616056832018412;5584.5127;-97
2024-05-20T22:18:45.527;599616056839710620;5592.2046;-71
2024-05-20T22:18:45.534;599616056847402828;5599.897;-19
2024-05-20T22:18:45.542;599616056855095036;5607.5894;-21
2024-05-20T22:18:45.550;599616056862787260;5615.2812;-7
2024-05-20T22:18:45.557;599616056870479468;5622.9736;21
2024-05-20T22:18:45.565;599616056878171676;5630.6655;49
2024-05-20T22:18:45.573;599616056885863884;5638.358;104
2024-05-20T22:18:45.581;599616056893556092;5646.0503;145
2024-05-20T22:18:45.588;599616056901248300;5653.7427;135
2024-05-20T22:18:45.596;599616056908940508;5661.4346;149
2024-05-20T22:18:45.604;599616056916632716;5669.1265;209
2024-05-20T22:18:45.611;599616056924324924;5676.819;209
2024-05-20T22:18:45.619;599616056932017132;5684.511;138
2024-05-20T22:18:45.627;599616056939709340;5692.2036;104
2024-05-20T22:18:45.634;599616056947401548;5699.896;121
2024-05-20T22:18:45.642;599616056955093756;5707.588;95
2024-05-20T22:18:45.650;599616056962785964;5715.28;11
2024-05-20T22:18:45.657;599616056970478172;5722.972;-45
2024-05-20T22:18:45.665;599616056978170380;5730.6646;-28
2024-05-20T22:18:45.673;599616056985862588;5738.357;-19
2024-05-20T22:18:45.681;599616056993554796;5746.049;-49
2024-05-20T22:18:45.688;599616057001247004;5753.741;-30
2024-05-20T22:18:45.696;599616057008939212;5761.433;35
2024-05-20T22:18:45.704;599616057016631420;5769.1255;61
2024-05-20T22:18:45.711;599616057024323628;5776.818;47
2024-05-20T22:18:45.719;599616057032015836;5784.51;19
2024-05-20T22:18:45.727;599616057039708044;5792.202;-49
2024-05-20T22:18:45.734;599616057047400252;5799.8945;-130
2024-05-20T22:18:45.742;599616057055092460;5807.587;-161
2024-05-20T22:18:45.750;599616057062784668;5815.279;-161
2024-05-20T22:18:45.757;599616057070476876;5822.9707;-188
2024-05-20T22:18:45.765;599616057078169084;5830.663;-230
2024-05-20T22:18:45.773;599616057085861292;5838.3555;-283
2024-05-20T22:18:45.781;599616057093553500;5846.048;-335
2024-05-20T22:18:45.788;599616057101245708;5853.74;-352
2024-05-20T22:18:45.796;599616057108937916;5861.4316;-342
2024-05-20T22:18:45.804;599616057116630124;5869.124;-338
2024-05-20T22:18:45.811;599616057124322332;5876.8164;-338
2024-05-20T22:18:45.819;599616057132014540;5884.509;-352
2024-05-20T22:18:45.827;599616057139706748;5892.201;-366
2024-05-20T22:18:45.834;599616057147398956;5899.893;-342
2024-05-20T22:18:45.842;599616057155091164;5907.585;-283
2024-05-20T22:18:45.850;599616057162783372;5915.2773;-242
2024-05-20T22:18:45.857;599616057170475580;5922.9697;-259
2024-05-20T22:18:45.865;599616057178167788;5930.662;-271
2024-05-20T22:18:45.873;599616057185859996;5938.354;-245
2024-05-20T22:18:45.881;599616057193552204;5946.0464;-223
2024-05-20T22:18:45.888;599616057201244412;5953.739;-204
2024-05-20T22:18:45.896;599616057208936620;5961.4307;-171
2024-05-20T22:18:45.904;599616057216628828;5969.123;-161
2024-05-20T22:18:45.911;599616057224321036;5976.815;-199
2024-05-20T22:18:45.919;599616057232013244;5984.5073;-135
2024-05-20T22:18:45.927;599616057239705452;5992.1997;202
2024-05-20T22:18:45.934;599616057247397660;5999.892;692
2024-05-20T22:18:45.942;599616057255089868;6007.584;918
2024-05-20T22:18:45.950;599616057262782076;6015.276;564
2024-05-20T22:18:45.957;599616057270474284;6022.9683;-33
2024-05-20T22:18:45.965;599616057278166492;6030.6606;-209
2024-05-20T22:18:45.973;599616057285858700;6038.353;-69
2024-05-20T22:18:45.981;599616057293550908;6046.0454;-97
2024-05-20T22:18:45.988;599616057301243116;6053.7373;-159
2024-05-20T22:18:45.996;599616057308935324;6061.429;-76
2024-05-20T22:18:46.004;599616057316627532;6069.1216;-47
2024-05-20T22:18:46.011;599616057324319740;6076.814;-78
2024-05-20T22:18:46.019;599616057332011948;6084.5063;-14
2024-05-20T22:18:46.027;599616057339704156;6092.198;54
2024-05-20T22:18:46.034;599616057347396364;6099.8906;49
2024-05-20T22:18:46.042;599616057355088572;6107.5825;54
2024-05-20T22:18:46.050;599616057362780780;6115.275;88
2024-05-20T22:18:46.057;599616057370472988;6122.967;114
2024-05-20T22:18:46.065;599616057378165196;6130.659;135
2024-05-20T22:18:46.073;599616057385857404;6138.3516;164
2024-05-20T22:18:46.081;599616057393549612;6146.044;202
2024-05-20T22:18:46.088;599616057401241820;6153.736;216
2024-05-20T22:18:46.096;599616057408934028;6161.4277;195
2024-05-20T22:18:46.104;599616057416626236;6169.12;183
2024-05-20T22:18:46.111;599616057424318458;6176.8125;199
2024-05-20T22:18:46.119;599616057432010666;6184.505;202
2024-05-20T22:18:46.127;599616057439702874;6192.1973;185
2024-05-20T22:18:46.134;599616057447395082;6199.8896;180
2024-05-20T22:18:46.142;599616057455087290;6207.581;138
2024-05-20T22:18:46.150;599616057462779498;6215.2734;-11
2024-05-20T22:18:46.157;599616057470471706;6222.966;-166
2024-05-20T22:18:46.165;599616057478163914;6230.658;-161
2024-05-20T22:18:46.173;599616057485856122;6238.35;-92
2024-05-20T22:18:46.181;599616057493548330;6246.0425;-109
2024-05-20T22:18:46.188;599616057501240538;6253.7344;-171
2024-05-20T22:18:46.196;599616057508932746;6261.427;-192
2024-05-20T22:18:46.204;599616057516624954;6269.119;-169
2024-05-20T22:18:46.211;599616057524317162;6276.811;-133
2024-05-20T22:18:46.219;599616057532009370;6284.5034;-142
2024-05-20T22:18:46.227;599616057539701578;6292.196;-238
2024-05-20T22:18:46.234;599616057547393786;6299.888;-349
2024-05-20T22:18:46.242;599616057555085994;6307.58;-399
2024-05-20T22:18:46.250;599616057562778202;6315.272;-430
2024-05-20T22:18:46.257;599616057570470410;6322.9644;-440
2024-05-20T22:18:46.265;599616057578162618;6330.6567;-418
2024-05-20T22:18:46.273;599616057585854826;6338.349;-433
2024-05-20T22:18:46.281;599616057593547034;6346.0415;-471
2024-05-20T22:18:46.288;599616057601239242;6353.733;-457
2024-05-20T22:18:46.296;599616057608931450;6361.4253;-407
2024-05-20T22:18:46.304;599616057616623658;6369.1177;-395
2024-05-20T22:18:46.311;599616057624315866;6376.81;-399
2024-05-20T22:18:46.319;599616057632008074;6384.5024;-368
2024-05-20T22:18:46.327;599616057639700282;6392.1943;-330
2024-05-20T22:18:46.334;599616057647392490;6399.8867;-321
2024-05-20T22:18:46.342;599616057655084698;6407.5786;-292
2024-05-20T22:18:46.350;599616057662776906;6415.271;-235
2024-05-20T22:18:46.357;599616057670469114;6422.9634;-202
2024-05-20T22:18:46.365;599616057678161322;6430.6553;-207
2024-05-20T22:18:46.373;599616057685853530;6438.3477;-214
2024-05-20T22:18:46.381;599616057693545738;6446.04;-209
2024-05-20T22:18:46.388;599616057701237946;6453.732;-207
2024-05-20T22:18:46.396;599616057708930154;6461.4243;-152
2024-05-20T22:18:46.404;599616057716622362;6469.116;114
2024-05-20T22:18:46.411;599616057724314570;6476.8086;590
2024-05-20T22:18:46.419;599616057732006778;6484.501;878
2024-05-20T22:18:46.427;599616057739698986;6492.1934;614
2024-05-20T22:18:46.434;599616057747391194;6499.8853;69
2024-05-20T22:18:46.442;599616057755083402;6507.577;-154
2024-05-20T22:18:46.450;599616057762775610;6515.2695;-49
2024-05-20T22:18:46.457;599616057770467818;6522.962;-38
2024-05-20T22:18:46.465;599616057778160026;6530.6543;-133
2024-05-20T22:18:46.473;599616057785852234;6538.3467;-149
2024-05-20T22:18:46.481;599616057793544442;6546.0386;-114
2024-05-20T22:18:46.488;599616057801236650;6553.7305;-104
2024-05-20T22:18:46.496;599616057808928858;6561.423;-95
2024-05-20T22:18:46.504;599616057816621066;6569.115;-45
2024-05-20T22:18:46.511;599616057824313274;6576.8076;-19
2024-05-20T22:18:46.519;599616057832005482;6584.4995;-26
2024-05-20T22:18:46.527;599616057839697690;6592.192;11
2024-05-20T22:18:46.534;599616057847389898;6599.884;71
2024-05-20T22:18:46.542;599616057855082106;6607.576;102
2024-05-20T22:18:46.550;599616057862774314;6615.2686;128
2024-05-20T22:18:46.557;599616057870466522;6622.9604;145
2024-05-20T22:18:46.565;599616057878158730;6630.653;152
2024-05-20T22:18:46.573;599616057885850938;6638.345;173
2024-05-20T22:18:46.581;599616057893543146;6646.0376;185
2024-05-20T22:18:46.588;599616057901235354;6653.7295;209
2024-05-20T22:18:46.596;599616057908927562;6661.4214;240
2024-05-20T22:18:46.604;599616057916619770;6669.114;214
2024-05-20T22:18:46.611;599616057924311978;6676.806;173
2024-05-20T22:18:46.619;599616057932004186;6684.4985;190
2024-05-20T22:18:46.627;599616057939696394;6692.191;221
2024-05-20T22:18:46.634;599616057947388602;6699.8823;209
2024-05-20T22:18:46.642;599616057955080810;6707.5747;183
2024-05-20T22:18:46.650;599616057962773018;6715.267;138
2024-05-20T22:18:46.657;599616057970465226;6722.9595;45
2024-05-20T22:18:46.665;599616057978157434;6730.652;-26
2024-05-20T22:18:46.673;599616057985849660;6738.3438;-57
2024-05-20T22:18:46.681;599616057993541868;6746.036;-69
2024-05-20T22:18:46.688;599616058001234076;6753.728;-99
2024-05-20T22:18:46.696;599616058008926284;6761.4204;-211
2024-05-20T22:18:46.704;599616058016618492;6769.113;-330
2024-05-20T22:18:46.711;599616058024310700;6776.8047;-383
2024-05-20T22:18:46.719;599616058032002908;6784.497;-457
2024-05-20T22:18:46.727;599616058039695116;6792.1895;-547
2024-05-20T22:18:46.734;599616058047387324;6799.8813;-564
2024-05-20T22:18:46.742;599616058055079532;6807.5737;-557
2024-05-20T22:18:46.750;599616058062771740;6815.2656;-571
2024-05-20T22:18:46.757;599616058070463948;6822.958;-576
2024-05-20T22:18:46.765;599616058078156156;6830.6504;-533
2024-05-20T22:18:46.773;599616058085848364;6838.343;-468
2024-05-20T22:18:46.781;599616058093540572;6846.0347;-445
2024-05-20T22:18:46.788;599616058101232780;6853.7266;-459
2024-05-20T22:18:46.796;599616058108924988;6861.419;-445
2024-05-20T22:18:46.804;599616058116617196;6869.1113;-392
2024-05-20T22:18:46.811;599616058124309404;6876.8037;-349
2024-05-20T22:18:46.819;599616058132001612;6884.496;-326
2024-05-20T22:18:46.827;599616058139693820;6892.188;-292
2024-05-20T22:18:46.834;599616058147386028;6899.88;-264
2024-05-20T22:18:46.842;599616058155078236;6907.5723;-254
2024-05-20T22:18:46.850;599616058162770444;6915.2646;-242
2024-05-20T22:18:46.857;599616058170462652;6922.957;-233
2024-05-20T22:18:46.865;599616058178154860;6930.649;-240
2024-05-20T22:18:46.873;599616058185847068;6938.3413;-180
2024-05-20T22:18:46.881;599616058193539276;6946.033;111
2024-05-20T22:18:46.888;599616058201231484;6953.7256;609
2024-05-20T22:18:46.896;599616058208923692;6961.418;902
2024-05-20T22:18:46.904;599616058216615900;6969.11;592
2024-05-20T22:18:46.911;599616058224308108;6976.8022;-7
2024-05-20T22:18:46.919;599616058232000316;6984.4946;-223
2024-05-20T22:18:46.927;599616058239692524;6992.187;-83
2024-05-20T22:18:46.934;599616058247384732;6999.8784;-57
2024-05-20T22:18:46.942;599616058255076940;7007.571;-123
2024-05-20T22:18:46.950;599616058262769148;7015.263;-59
2024-05-20T22:18:46.957;599616058270461356;7022.9556;4
2024-05-20T22:18:46.965;599616058278153564;7030.648;-45
2024-05-20T22:18:46.973;599616058285845772;7038.3403;-71
2024-05-20T22:18:46.981;599616058293537980;7046.0317;-19
2024-05-20T22:18:46.988;599616058301230188;7053.724;19
2024-05-20T22:18:46.996;599616058308922396;7061.4165;26
2024-05-20T22:18:47.004;599616058316614604;7069.109;69
2024-05-20T22:18:47.011;599616058324306812;7076.801;126
2024-05-20T22:18:47.019;599616058331999020;7084.493;140
2024-05-20T22:18:47.027;599616058339691228;7092.185;142
2024-05-20T22:18:47.034;599616058347383436;7099.8774;188
2024-05-20T22:18:47.042;599616058355075644;7107.57;257
2024-05-20T22:18:47.050;599616058362767852;7115.2617;295
2024-05-20T22:18:47.057;599616058370460060;7122.954;292
2024-05-20T22:18:47.065;599616058378152268;7130.6465;278
2024-05-20T22:18:47.073;599616058385844476;7138.339;276
2024-05-20T22:18:47.081;599616058393536684;7146.031;280
2024-05-20T22:18:47.088;599616058401228892;7153.7227;285
2024-05-20T22:18:47.096;599616058408921100;7161.415;288
2024-05-20T22:18:47.104;599616058416613308;7169.1074;273
2024-05-20T22:18:47.111;599616058424305516;7176.8;240
2024-05-20T22:18:47.119;599616058431997724;7184.492;228
2024-05-20T22:18:47.127;599616058439689932;7192.1836;249
2024-05-20T22:18:47.134;599616058447382140;7199.876;273
2024-05-20T22:18:47.142;599616058455074348;7207.5684;259
2024-05-20T22:18:47.150;599616058462766556;7215.2607;157
2024-05-20T22:18:47.157;599616058470458764;7222.953;4
2024-05-20T22:18:47.165;599616058478150972;7230.645;-66
2024-05-20T22:18:47.173;599616058485843180;7238.3374;-61
2024-05-20T22:18:47.181;599616058493535388;7246.0293;-95
2024-05-20T22:18:47.188;599616058501227596;7253.7217;-147
2024-05-20T22:18:47.196;599616058508919804;7261.414;-161
2024-05-20T22:18:47.204;599616058516612012;7269.106;-216
2024-05-20T22:18:47.211;599616058524304220;7276.7983;-316
2024-05-20T22:18:47.219;599616058531996428;7284.4907;-335
2024-05-20T22:18:47.227;599616058539688636;7292.1826;-292
2024-05-20T22:18:47.234;599616058547380860;7299.875;-290
2024-05-20T22:18:47.242;599616058555073068;7307.567;-318
2024-05-20T22:18:47.250;599616058562765276;7315.2593;-321
2024-05-20T22:18:47.257;599616058570457484;7322.9517;-290
2024-05-20T22:18:47.265;599616058578149692;7330.644;-261
2024-05-20T22:18:47.273;599616058585841900;7338.3364;-242
2024-05-20T22:18:47.281;599616058593534108;7346.028;-202
2024-05-20T22:18:47.288;599616058601226316;7353.72;-199
2024-05-20T22:18:47.296;599616058608918524;7361.4126;-292
2024-05-20T22:18:47.304;599616058616610732;7369.105;-347
2024-05-20T22:18:47.311;599616058624302940;7376.7974;-273
2024-05-20T22:18:47.319;599616058631995148;7384.4893;-214
2024-05-20T22:18:47.327;599616058639687356;7392.181;-238
2024-05-20T22:18:47.334;599616058647379564;7399.8735;-271
2024-05-20T22:18:47.342;599616058655071772;7407.566;-257
2024-05-20T22:18:47.350;599616058662763980;7415.2583;-78
2024-05-20T22:18:47.357;599616058670456188;7422.95;361
2024-05-20T22:18:47.365;599616058678148396;7430.6426;833
2024-05-20T22:18:47.373;599616058685840604;7438.3345;847
2024-05-20T22:18:47.381;599616058693532812;7446.027;288
2024-05-20T22:18:47.388;599616058701225020;7453.719;-228
2024-05-20T22:18:47.396;599616058708917228;7461.411;-199
2024-05-20T22:18:47.404;599616058716609436;7469.1035;-21
2024-05-20T22:18:47.411;599616058724301644;7476.796;-64
2024-05-20T22:18:47.419;599616058731993852;7484.4883;-85
2024-05-20T22:18:47.427;599616058739686060;7492.18;-4
2024-05-20T22:18:47.434;599616058747378268;7499.872;14
2024-05-20T22:18:47.442;599616058755070476;7507.5645;-4
2024-05-20T22:18:47.450;599616058762762684;7515.257;2
2024-05-20T22:18:47.457;599616058770454892;7522.949;4
2024-05-20T22:18:47.465;599616058778147100;7530.6416;14
2024-05-20T22:18:47.473;599616058785839308;7538.333;45
2024-05-20T22:18:47.481;599616058793531516;7546.0254;49
2024-05-20T22:18:47.488;599616058801223724;7553.718;71
2024-05-20T22:18:47.496;599616058808915932;7561.41;145
2024-05-20T22:18:47.504;599616058816608140;7569.1025;197
2024-05-20T22:18:47.511;599616058824300348;7576.7944;204
2024-05-20T22:18:47.519;599616058831992556;7584.487;230
2024-05-20T22:18:47.527;599616058839684764;7592.1787;247
2024-05-20T22:18:47.534;599616058847376972;7599.871;216
2024-05-20T22:18:47.542;599616058855069180;7607.5635;209
2024-05-20T22:18:47.550;599616058862761388;7615.2554;252
2024-05-20T22:18:47.557;599616058870453596;7622.9478;288
2024-05-20T22:18:47.565;599616058878145804;7630.64;247
2024-05-20T22:18:47.573;599616058885838012;7638.332;176
2024-05-20T22:18:47.581;599616058893530220;7646.0244;183
2024-05-20T22:18:47.588;599616058901222428;7653.7163;226
2024-05-20T22:18:47.596;599616058908914636;7661.4087;207
2024-05-20T22:18:47.604;599616058916606844;7669.101;207
2024-05-20T22:18:47.611;599616058924299052;7676.7935;261
2024-05-20T22:18:47.619;599616058931991260;7684.4854;259
2024-05-20T22:18:47.627;599616058939683468;7692.1772;197
2024-05-20T22:18:47.634;599616058947375676;7699.8696;147
2024-05-20T22:18:47.642;599616058955067884;7707.562;133
2024-05-20T22:18:47.650;599616058962760092;7715.2544;111
2024-05-20T22:18:47.657;599616058970452300;7722.947;2
2024-05-20T22:18:47.665;599616058978144508;7730.6387;-142
2024-05-20T22:18:47.673;599616058985836716;7738.3306;-180
2024-05-20T22:18:47.681;599616058993528924;7746.023;-178
2024-05-20T22:18:47.688;599616059001221132;7753.7153;-247
2024-05-20T22:18:47.696;599616059008913340;7761.4077;-302
2024-05-20T22:18:47.704;599616059016605548;7769.0996;-342
2024-05-20T22:18:47.711;599616059024297756;7776.792;-402
2024-05-20T22:18:47.719;599616059031989964;7784.484;-426
2024-05-20T22:18:47.727;599616059039682172;7792.1763;-383
2024-05-20T22:18:47.734;599616059047374380;7799.8687;-330
2024-05-20T22:18:47.742;599616059055066588;7807.5605;-323
2024-05-20T22:18:47.750;599616059062758796;7815.253;-333
2024-05-20T22:18:47.757;599616059070451004;7822.9453;-314
2024-05-20T22:18:47.765;599616059078143212;7830.6377;-273
2024-05-20T22:18:47.773;599616059085835420;7838.329;-247
2024-05-20T22:18:47.781;599616059093527628;7846.0215;-233
2024-05-20T22:18:47.788;599616059101219836;7853.714;-185
2024-05-20T22:18:47.796;599616059108922140;7861.4165;-135
2024-05-20T22:18:47.804;599616059116614208;7869.1084;-135
2024-05-20T22:18:47.811;599616059124306276;7876.8003;-140
2024-05-20T22:18:47.819;599616059131998344;7884.492;-116
2024-05-20T22:18:47.827;599616059139690412;7892.1846;-45
2024-05-20T22:18:47.834;599616059147382480;7899.8765;211
2024-05-20T22:18:47.842;599616059155074548;7907.569;680
2024-05-20T22:18:47.850;599616059162766616;7915.2607;1035
2024-05-20T22:18:47.857;599616059170458684;7922.9526;854
2024-05-20T22:18:47.865;599616059178150752;7930.645;211
2024-05-20T22:18:47.873;599616059185842820;7938.337;-209
2024-05-20T22:18:47.881;599616059193534888;7946.0293;-111
2024-05-20T22:18:47.888;599616059201226956;7953.7207;-14
2024-05-20T22:18:47.896;599616059208919024;7961.413;-102
2024-05-20T22:18:47.904;599616059216611092;7969.1055;-76
2024-05-20T22:18:47.911;599616059224303160;7976.7974;14
2024-05-20T22:18:47.919;599616059231995228;7984.4893;16
2024-05-20T22:18:47.927;599616059239687296;7992.181;30
2024-05-20T22:18:47.934;599616059247379364;7999.8735;85
2024-05-20T22:18:47.942;599616059255071432;8007.5654;92
2024-05-20T22:18:47.950;599616059262763500;8015.258;49
2024-05-20T22:18:47.957;599616059270455568;8022.9497;38
2024-05-20T22:18:47.965;599616059278147636;8030.6416;85
2024-05-20T22:18:47.973;599616059285839704;8038.334;138
2024-05-20T22:18:47.981;599616059293531772;8046.026;159
2024-05-20T22:18:47.988;599616059301223840;8053.718;178
2024-05-20T22:18:47.996;599616059308915908;8061.4097;214
2024-05-20T22:18:48.004;599616059316607976;8069.102;254
2024-05-20T22:18:48.011;599616059324300044;8076.7944;268
2024-05-20T22:18:48.019;599616059331992112;8084.4863;245
2024-05-20T22:18:48.027;599616059339684180;8092.178;228
2024-05-20T22:18:48.034;599616059347376248;8099.87;221
2024-05-20T22:18:48.042;599616059355068316;8107.5625;195
2024-05-20T22:18:48.050;599616059362760384;8115.2544;199
2024-05-20T22:18:48.057;599616059370452452;8122.947;273
2024-05-20T22:18:48.065;599616059378144520;8130.6387;330
2024-05-20T22:18:48.073;599616059385836588;8138.3306;318
2024-05-20T22:18:48.081;599616059393528656;8146.023;295
2024-05-20T22:18:48.088;599616059401220724;8153.715;307
2024-05-20T22:18:48.096;599616059408912792;8161.4067;302
2024-05-20T22:18:48.104;599616059416604860;8169.0986;254
2024-05-20T22:18:48.111;599616059424296928;8176.791;211
2024-05-20T22:18:48.119;599616059431988996;8184.4834;207
2024-05-20T22:18:48.127;599616059439681064;8192.175;180
2024-05-20T22:18:48.134;599616059447373132;8199.867;99
2024-05-20T22:18:48.142;599616059455065200;8207.56;47
2024-05-20T22:18:48.150;599616059462757268;8215.251;47
2024-05-20T22:18:48.157;599616059470449336;8222.943;2
2024-05-20T22:18:48.165;599616059478141404;8230.636;-121
2024-05-20T22:18:48.173;599616059485833472;8238.328;-233
2024-05-20T22:18:48.181;599616059493525540;8246.02;-245
2024-05-20T22:18:48.188;599616059501217608;8253.712;-209
2024-05-20T22:18:48.196;599616059508909676;8261.403;-218
2024-05-20T22:18:48.204;599616059516601744;8269.096;-233
2024-05-20T22:18:48.211;599616059524293812;8276.788;-197
2024-05-20T22:18:48.219;599616059531985880;8284.48;-180
2024-05-20T22:18:48.227;599616059539677948;8292.172;-197
2024-05-20T22:18:48.234;599616059547370016;8299.864;-173
2024-05-20T22:18:48.242;599616059555062084;8307.557;-123
2024-05-20T22:18:48.250;599616059562754152;8315.248;-95
2024-05-20T22:18:48.257;599616059570446220;8322.94;-80
2024-05-20T22:18:48.265;599616059578138288;8330.632;-57
2024-05-20T22:18:48.273;599616059585830356;8338.324;-26
2024-05-20T22:18:48.281;599616059593522424;8346.017;-4
2024-05-20T22:18:48.288;599616059601214492;8353.709;4
2024-05-20T22:18:48.296;599616059608906560;8361.4;19
2024-05-20T22:18:48.304;599616059616598628;8369.093;7
2024-05-20T22:18:48.311;599616059624290696;8376.785;-28
2024-05-20T22:18:48.319;599616059631982764;8384.477;59
2024-05-20T22:18:48.327;599616059639674832;8392.169;416
2024-05-20T22:18:48.334;599616059647366900;8399.861;880
2024-05-20T22:18:48.342;599616059655058968;8407.553;1004
2024-05-20T22:18:48.350;599616059662751036;8415.245;571
2024-05-20T22:18:48.357;599616059670453174;8422.947;42
2024-05-20T22:18:48.365;599616059678145103;8430.639;-49
2024-05-20T22:18:48.373;599616059685837032;8438.331;80
2024-05-20T22:18:48.381;599616059693528961;8446.023;57
2024-05-20T22:18:48.388;599616059701220890;8453.715;30
2024-05-20T22:18:48.396;599616059708912819;8461.406;97
2024-05-20T22:18:48.404;599616059716604748;8469.099;69
2024-05-20T22:18:48.411;599616059724296677;8476.791;-16
2024-05-20T22:18:48.419;599616059731988606;8484.482;9
2024-05-20T22:18:48.427;599616059739680535;8492.175;76
2024-05-20T22:18:48.434;599616059747372464;8499.866;66
2024-05-20T22:18:48.442;599616059755064393;8507.559;14
2024-05-20T22:18:48.450;599616059762756322;8515.25;-16
2024-05-20T22:18:48.457;599616059770448251;8522.942;-7
2024-05-20T22:18:48.465;599616059778140180;8530.634;45
2024-05-20T22:18:48.473;599616059785832109;8538.326;114
2024-05-20T22:18:48.481;599616059793524038;8546.019;159
2024-05-20T22:18:48.488;599616059801215967;8553.71;171
2024-05-20T22:18:48.496;599616059808907896;8561.402;166
2024-05-20T22:18:48.504;599616059816599825;8569.094;173
2024-05-20T22:18:48.511;599616059824291754;8576.786;216
2024-05-20T22:18:48.519;599616059831983683;8584.478;257
2024-05-20T22:18:48.527;599616059839675612;8592.17;259
2024-05-20T22:18:48.534;599616059847367541;8599.861;252
2024-05-20T22:18:48.542;599616059855059470;8607.554;249
2024-05-20T22:18:48.550;599616059862751399;8615.246;247
2024-05-20T22:18:48.557;599616059870443328;8622.9375;230
2024-05-20T22:18:48.565;599616059878135257;8630.629;197
2024-05-20T22:18:48.573;599616059885827186;8638.321;190
2024-05-20T22:18:48.581;599616059893519115;8646.013;199
2024-05-20T22:18:48.588;599616059901211044;8653.705;149
2024-05-20T22:18:48.596;599616059908902973;8661.397;76
2024-05-20T22:18:48.604;599616059916594902;8669.089;52
2024-05-20T22:18:48.611;599616059924286831;8676.781;26
2024-05-20T22:18:48.619;599616059931978760;8684.474;-40
2024-05-20T22:18:48.627;599616059939670689;8692.165;-71
2024-05-20T22:18:48.634;599616059947362618;8699.856;-64
2024-05-20T22:18:48.642;599616059955054547;8707.548;-85
2024-05-20T22:18:48.650;599616059962746476;8715.24;-111
2024-05-20T22:18:48.657;599616059970438405;8722.933;-92
2024-05-20T22:18:48.665;599616059978130334;8730.624;-76
2024-05-20T22:18:48.673;599616059985822263;8738.316;-142
2024-05-20T22:18:48.681;599616059993514192;8746.009;-276
2024-05-20T22:18:48.688;599616060001206121;8753.7;-354
2024-05-20T22:18:48.696;599616060008898050;8761.393;-349
2024-05-20T22:18:48.704;599616060016589979;8769.084;-330
2024-05-20T22:18:48.711;599616060024281908;8776.775;-302
2024-05-20T22:18:48.719;599616060031973837;8784.468;-273
2024-05-20T22:18:48.727;599616060039665766;8792.16;-259
2024-05-20T22:18:48.734;599616060047357695;8799.852;-240
2024-05-20T22:18:48.742;599616060055049624;8807.544;-207
2024-05-20T22:18:48.750;599616060062741553;8815.236;-173
2024-05-20T22:18:48.757;599616060070433482;8822.928;-138
2024-05-20T22:18:48.765;599616060078125411;8830.62;-123
2024-05-20T22:18:48.773;599616060085817340;8838.312;-128
2024-05-20T22:18:48.781;599616060093509269;8846.003;-102
2024-05-20T22:18:48.788;599616060101201198;8853.695;-85
2024-05-20T22:18:48.796;599616060108893127;8861.387;-123
2024-05-20T22:18:48.804;599616060116585056;8869.079;-104
2024-05-20T22:18:48.811;599616060124276985;8876.771;157
2024-05-20T22:18:48.819;599616060131968914;8884.463;611
2024-05-20T22:18:48.827;599616060139660843;8892.155;933
2024-05-20T22:18:48.834;599616060147352772;8899.848;787
2024-05-20T22:18:48.842;599616060155044701;8907.538;280
2024-05-20T22:18:48.850;599616060162736630;8915.23;-49
2024-05-20T22:18:48.857;599616060170428559;8922.923;19
2024-05-20T22:18:48.865;599616060178120488;8930.614;109
2024-05-20T22:18:48.873;599616060185812417;8938.307;73
2024-05-20T22:18:48.880;599616060193504346;8945.999;92
2024-05-20T22:18:48.888;599616060201196275;8953.69;135
2024-05-20T22:18:48.896;599616060208888204;8961.383;138
2024-05-20T22:18:48.904;599616060216580133;8969.074;159
2024-05-20T22:18:48.911;599616060224272062;8976.766;185
2024-05-20T22:18:48.919;599616060231943942;8984.4375;188
2024-05-20T22:18:48.927;599616060239636150;8992.13;195
2024-05-20T22:18:48.934;599616060247328358;8999.822;171
2024-05-20T22:18:48.942;599616060255020566;9007.515;121
2024-05-20T22:18:48.950;599616060262712774;9015.207;130
2024-05-20T22:18:48.957;599616060270404982;9022.899;173
2024-05-20T22:18:48.965;599616060278097190;9030.592;195
2024-05-20T22:18:48.973;599616060285789398;9038.284;171
2024-05-20T22:18:48.980;599616060293481606;9045.976;109
2024-05-20T22:18:48.988;599616060301173814;9053.668;114
2024-05-20T22:18:48.996;599616060308866022;9061.359;171
2024-05-20T22:18:49.004;599616060316558230;9069.052;161
2024-05-20T22:18:49.011;599616060324250438;9076.744;126
2024-05-20T22:18:49.019;599616060331942646;9084.437;140
2024-05-20T22:18:49.027;599616060339634854;9092.129;128
2024-05-20T22:18:49.034;599616060347327062;9099.821;52
2024-05-20T22:18:49.042;599616060355019270;9107.514;7
2024-05-20T22:18:49.050;599616060362711478;9115.206;16
2024-05-20T22:18:49.057;599616060370403686;9122.897;0
2024-05-20T22:18:49.065;599616060378095894;9130.59;-61
2024-05-20T22:18:49.073;599616060385788102;9138.282;-107
2024-05-20T22:18:49.080;599616060393480310;9145.975;-133
2024-05-20T22:18:49.088;599616060401172518;9153.667;-190
2024-05-20T22:18:49.096;599616060408864726;9161.358;-252
2024-05-20T22:18:49.104;599616060416556934;9169.051;-257
2024-05-20T22:18:49.111;599616060424249142;9176.743;-235
2024-05-20T22:18:49.119;599616060431941350;9184.436;-238
2024-05-20T22:18:49.127;599616060439633558;9192.128;-238
2024-05-20T22:18:49.134;599616060447325766;9199.819;-226
2024-05-20T22:18:49.142;599616060455017974;9207.512;-223
2024-05-20T22:18:49.150;599616060462710182;9215.204;-226
2024-05-20T22:18:49.157;599616060470402390;9222.896;-204
2024-05-20T22:18:49.165;599616060478094598;9230.589;-166
2024-05-20T22:18:49.173;599616060485786806;9238.281;-185
2024-05-20T22:18:49.180;599616060493479014;9245.974;-292
2024-05-20T22:18:49.188;599616060501171222;9253.666;-361
2024-05-20T22:18:49.196;599616060508863430;9261.357;-316
2024-05-20T22:18:49.204;599616060516555638;9269.05;-247
2024-05-20T22:18:49.211;599616060524247846;9276.741;-209
2024-05-20T22:18:49.219;599616060531940054;9284.434;-190
2024-05-20T22:18:49.227;599616060539632262;9292.126;-176
2024-05-20T22:18:49.234;599616060547324470;9299.818;-157
2024-05-20T22:18:49.242;599616060555016678;9307.511;-138
2024-05-20T22:18:49.250;599616060562708886;9315.203;-119
2024-05-20T22:18:49.257;599616060570401094;9322.8955;-78
2024-05-20T22:18:49.265;599616060578093302;9330.588;-52
2024-05-20T22:18:49.273;599616060585785510;9338.28;-85
2024-05-20T22:18:49.280;599616060593477718;9345.973;-107
2024-05-20T22:18:49.288;599616060601169926;9353.664;76
2024-05-20T22:18:49.296;599616060608862134;9361.355;537
2024-05-20T22:18:49.304;599616060616554342;9369.048;994
2024-05-20T22:18:49.311;599616060624246550;9376.74;980
2024-05-20T22:18:49.319;599616060631938758;9384.433;442
2024-05-20T22:18:49.327;599616060639630966;9392.125;-45
2024-05-20T22:18:49.334;599616060647323174;9399.817;-54
2024-05-20T22:18:49.342;599616060655015382;9407.51;88
2024-05-20T22:18:49.350;599616060662707590;9415.202;71
2024-05-20T22:18:49.357;599616060670399798;9422.895;54
2024-05-20T22:18:49.365;599616060678092006;9430.586;90
2024-05-20T22:18:49.373;599616060685784214;9438.278;92
2024-05-20T22:18:49.380;599616060693476422;9445.971;107
2024-05-20T22:18:49.388;599616060701168630;9453.663;147
2024-05-20T22:18:49.396;599616060708860838;9461.3545;161
2024-05-20T22:18:49.404;599616060716553046;9469.047;173
2024-05-20T22:18:49.411;599616060724245254;9476.739;218
2024-05-20T22:18:49.419;599616060731937462;9484.432;235
2024-05-20T22:18:49.427;599616060739629670;9492.124;202
2024-05-20T22:18:49.434;599616060747321878;9499.816;207
2024-05-20T22:18:49.442;599616060755014086;9507.508;271
2024-05-20T22:18:49.450;599616060762706294;9515.2;309
2024-05-20T22:18:49.457;599616060770398502;9522.893;299
2024-05-20T22:18:49.465;599616060778090710;9530.585;304
2024-05-20T22:18:49.473;599616060785782918;9538.277;321
2024-05-20T22:18:49.480;599616060793475142;9545.97;321
2024-05-20T22:18:49.488;599616060801167350;9553.662;299
2024-05-20T22:18:49.496;599616060808859558;9561.354;273
2024-05-20T22:18:49.504;599616060816551766;9569.046;230
2024-05-20T22:18:49.511;599616060824243974;9576.737;133
2024-05-20T22:18:49.519;599616060831936182;9584.43;9
2024-05-20T22:18:49.527;599616060839628390;9592.122;-54
2024-05-20T22:18:49.534;599616060847320598;9599.814;-61
2024-05-20T22:18:49.542;599616060855012806;9607.507;-92
2024-05-20T22:18:49.550;599616060862705014;9615.199;-176
2024-05-20T22:18:49.557;599616060870397222;9622.892;-228
2024-05-20T22:18:49.565;599616060878089430;9630.584;-221
2024-05-20T22:18:49.573;599616060885781638;9638.276;-235
2024-05-20T22:18:49.580;599616060893473846;9645.969;-264
2024-05-20T22:18:49.588;599616060901166054;9653.659;-233
2024-05-20T22:18:49.596;599616060908858262;9661.352;-209
2024-05-20T22:18:49.604;599616060916550470;9669.044;-247
2024-05-20T22:18:49.611;599616060924242678;9676.736;-252
2024-05-20T22:18:49.619;599616060931934886;9684.429;-197
2024-05-20T22:18:49.627;599616060939627094;9692.121;-176
2024-05-20T22:18:49.634;599616060947319302;9699.813;-183
2024-05-20T22:18:49.642;599616060955011510;9707.506;-180
2024-05-20T22:18:49.650;599616060962703718;9715.198;-188
2024-05-20T22:18:49.657;599616060970395926;9722.891;-192
2024-05-20T22:18:49.665;599616060978088134;9730.583;-171
2024-05-20T22:18:49.673;599616060985780342;9738.274;-197
2024-05-20T22:18:49.680;599616060993472550;9745.967;-288
2024-05-20T22:18:49.688;599616061001164758;9753.658;-349
2024-05-20T22:18:49.696;599616061008856966;9761.351;-340
2024-05-20T22:18:49.704;599616061016549174;9769.043;-311
2024-05-20T22:18:49.711;599616061024241382;9776.735;-280
2024-05-20T22:18:49.719;599616061031933590;9784.428;-254
2024-05-20T22:18:49.727;599616061039625798;9792.12;-230
2024-05-20T22:18:49.734;599616061047318006;9799.8125;-207
2024-05-20T22:18:49.742;599616061055010214;9807.504;-207
2024-05-20T22:18:49.750;599616061062702422;9815.196;-233
2024-05-20T22:18:49.757;599616061070394630;9822.889;-223
2024-05-20T22:18:49.765;599616061078086838;9830.581;-21
2024-05-20T22:18:49.773;599616061085779046;9838.273;445
2024-05-20T22:18:49.780;599616061093471254;9845.966;904
2024-05-20T22:18:49.788;599616061101163462;9853.657;921
2024-05-20T22:18:49.796;599616061108855670;9861.35;421
2024-05-20T22:18:49.804;599616061116547878;9869.042;-42
2024-05-20T22:18:49.811;599616061124240086;9876.734;-35
2024-05-20T22:18:49.819;599616061131932294;9884.426;102
2024-05-20T22:18:49.827;599616061139624502;9892.118;59
2024-05-20T22:18:49.834;599616061147316710;9899.811;49
2024-05-20T22:18:49.842;599616061155008918;9907.503;119
2024-05-20T22:18:49.850;599616061162701126;9915.195;123
2024-05-20T22:18:49.857;599616061170393334;9922.888;133
2024-05-20T22:18:49.865;599616061178085542;9930.58;202
2024-05-20T22:18:49.873;599616061185777750;9938.272;218
2024-05-20T22:18:49.880;599616061193469958;9945.965;178
2024-05-20T22:18:49.888;599616061201162166;9953.656;197
2024-05-20T22:18:49.896;599616061208854374;9961.348;268
2024-05-20T22:18:49.904;599616061216546582;9969.04;304
2024-05-20T22:18:49.911;599616061224238790;9976.732;295
2024-05-20T22:18:49.919;599616061231930998;9984.425;264
2024-05-20T22:18:49.927;599616061239623206;9992.117;230
2024-05-20T22:18:49.934;599616061247315414;9999.81;242
2024-05-20T22:18:49.942;599616061255007622;10007.502;276
2024-05-20T22:18:49.950;599616061262699830;10015.194;285
2024-05-20T22:18:49.957;599616061270392038;10022.887;290
2024-05-20T22:18:49.965;599616061278084246;10030.579;264
2024-05-20T22:18:49.973;599616061285776454;10038.2705;197
2024-05-20T22:18:49.980;599616061293468662;10045.963;169
2024-05-20T22:18:49.988;599616061301160870;10053.654;180
2024-05-20T22:18:49.996;599616061308853078;10061.347;149
2024-05-20T22:18:50.004;599616061316545286;10069.039;90
2024-05-20T22:18:50.011;599616061324237494;10076.731;45
2024-05-20T22:18:50.019;599616061331929702;10084.424;2
2024-05-20T22:18:50.027;599616061339621910;10092.116;-61
2024-05-20T22:18:50.034;599616061347314118;10099.809;-102
2024-05-20T22:18:50.042;599616061355006342;10107.501;-90
2024-05-20T22:18:50.050;599616061362698550;10115.192;-73
2024-05-20T22:18:50.057;599616061370390758;10122.885;-97
2024-05-20T22:18:50.065;599616061378082966;10130.577;-133
2024-05-20T22:18:50.073;599616061385775174;10138.27;-140
2024-05-20T22:18:50.080;599616061393467382;10145.962;-161
2024-05-20T22:18:50.088;599616061401159590;10153.653;-240
2024-05-20T22:18:50.096;599616061408851798;10161.346;-280
2024-05-20T22:18:50.104;599616061416544006;10169.038;-240
2024-05-20T22:18:50.111;599616061424236214;10176.73;-240
2024-05-20T22:18:50.119;599616061431928422;10184.423;-266
2024-05-20T22:18:50.127;599616061439620630;10192.114;-226
2024-05-20T22:18:50.134;599616061447312838;10199.807;-171
2024-05-20T22:18:50.142;599616061455005046;10207.499;-159
2024-05-20T22:18:50.150;599616061462697254;10215.191;-159
2024-05-20T22:18:50.157;599616061470389462;10222.884;-164
2024-05-20T22:18:50.165;599616061478081670;10230.576;-183
2024-05-20T22:18:50.173;599616061485773878;10238.269;-197
2024-05-20T22:18:50.180;599616061493466086;10245.96;-202
2024-05-20T22:18:50.188;599616061501158294;10253.652;-242
2024-05-20T22:18:50.196;599616061508850502;10261.345;-299
2024-05-20T22:18:50.204;599616061516542710;10269.036;-311
2024-05-20T22:18:50.211;599616061524234918;10276.729;-283
2024-05-20T22:18:50.219;599616061531927126;10284.421;-247
2024-05-20T22:18:50.227;599616061539619334;10292.113;-228
2024-05-20T22:18:50.234;599616061547311542;10299.806;-221
2024-05-20T22:18:50.242;599616061555003750;10307.498;-90
2024-05-20T22:18:50.250;599616061562695958;10315.19;295
2024-05-20T22:18:50.257;599616061570388166;10322.883;787
2024-05-20T22:18:50.265;599616061578080374;10330.575;928
2024-05-20T22:18:50.273;599616061585772582;10338.268;492
2024-05-20T22:18:50.280;599616061593464790;10345.958;-35
2024-05-20T22:18:50.288;599616061601156998;10353.65;-119
2024-05-20T22:18:50.296;599616061608849206;10361.343;-4
2024-05-20T22:18:50.304;599616061616541414;10369.035;-38
2024-05-20T22:18:50.311;599616061624233622;10376.728;-26
2024-05-20T22:18:50.319;599616061631925830;10384.42;71
2024-05-20T22:18:50.327;599616061639618038;10392.112;78
2024-05-20T22:18:50.334;599616061647310246;10399.805;64
2024-05-20T22:18:50.342;599616061655002454;10407.497;102
2024-05-20T22:18:50.350;599616061662694662;10415.189;135
2024-05-20T22:18:50.357;599616061670386870;10422.881;161
2024-05-20T22:18:50.365;599616061678079078;10430.573;209
2024-05-20T22:18:50.373;599616061685771286;10438.266;266
2024-05-20T22:18:50.380;599616061693463494;10445.957;288
2024-05-20T22:18:50.388;599616061701155702;10453.649;285
2024-05-20T22:18:50.396;599616061708847910;10461.342;314
2024-05-20T22:18:50.404;599616061716540118;10469.034;335
2024-05-20T22:18:50.411;599616061724232326;10476.727;302
2024-05-20T22:18:50.419;599616061731924534;10484.419;261
2024-05-20T22:18:50.427;599616061739616742;10492.111;259
2024-05-20T22:18:50.434;599616061747308950;10499.803;259
2024-05-20T22:18:50.442;599616061755001158;10507.495;221
2024-05-20T22:18:50.450;599616061762693366;10515.1875;171
2024-05-20T22:18:50.457;599616061770385574;10522.88;145
2024-05-20T22:18:50.465;599616061778077782;10530.572;154
2024-05-20T22:18:50.473;599616061785769990;10538.265;147
2024-05-20T22:18:50.480;599616061793462198;10545.956;66
2024-05-20T22:18:50.488;599616061801154406;10553.648;-33
2024-05-20T22:18:50.496;599616061808846614;10561.341;-66
2024-05-20T22:18:50.504;599616061816538822;10569.032;-69
2024-05-20T22:18:50.511;599616061824231030;10576.725;-99
2024-05-20T22:18:50.519;599616061831923238;10584.417;-128
2024-05-20T22:18:50.527;599616061839615446;10592.109;-145
2024-05-20T22:18:50.534;599616061847307654;10599.802;-166
2024-05-20T22:18:50.542;599616061854999862;10607.494;-161
2024-05-20T22:18:50.550;599616061862692070;10615.187;-130
2024-05-20T22:18:50.557;599616061870384278;10622.879;-119
2024-05-20T22:18:50.565;599616061878076486;10630.571;-133
2024-05-20T22:18:50.573;599616061885768694;10638.264;-152
2024-05-20T22:18:50.580;599616061893460902;10645.954;-130
2024-05-20T22:18:50.588;599616061901153110;10653.646;-92
2024-05-20T22:18:50.596;599616061908845318;10661.339;-95
2024-05-20T22:18:50.604;599616061916552590;10669.047;-99
2024-05-20T22:18:50.611;599616061924244589;10676.739;-71
2024-05-20T22:18:50.619;599616061931936588;10684.431;-64
2024-05-20T22:18:50.627;599616061939628587;10692.123;-76
2024-05-20T22:18:50.634;599616061947320586;10699.814;-57
2024-05-20T22:18:50.642;599616061955012585;10707.507;-14
2024-05-20T22:18:50.650;599616061962704584;10715.198;7
2024-05-20T22:18:50.657;599616061970396583;10722.891;-33
2024-05-20T22:18:50.665;599616061978088582;10730.583;-73
2024-05-20T22:18:50.673;599616061985780581;10738.274;-40
2024-05-20T22:18:50.680;599616061993472580;10745.967;-19
2024-05-20T22:18:50.688;599616062001164579;10753.659;-92
2024-05-20T22:18:50.696;599616062008856578;10761.352;-173
2024-05-20T22:18:50.704;599616062016548577;10769.042;-180
2024-05-20T22:18:50.711;599616062024240576;10776.734;-257
2024-05-20T22:18:50.719;599616062031932575;10784.427;-335
2024-05-20T22:18:50.727;599616062039624574;10792.118;-88
2024-05-20T22:18:50.734;599616062047316573;10799.811;442
2024-05-20T22:18:50.742;599616062055008572;10807.503;756
2024-05-20T22:18:50.750;599616062062700571;10815.195;504
2024-05-20T22:18:50.757;599616062070392570;10822.887;-57
2024-05-20T22:18:50.765;599616062078084569;10830.579;-321
2024-05-20T22:18:50.773;599616062085776568;10838.2705;-216
2024-05-20T22:18:50.780;599616062093468567;10845.962;-157
2024-05-20T22:18:50.788;599616062101160566;10853.654;-183
2024-05-20T22:18:50.796;599616062108852565;10861.347;-142
2024-05-20T22:18:50.804;599616062116544564;10869.039;-114
2024-05-20T22:18:50.811;599616062124236563;10876.73;-114
2024-05-20T22:18:50.819;599616062131928562;10884.423;-52
2024-05-20T22:18:50.827;599616062139620561;10892.115;19
2024-05-20T22:18:50.834;599616062147312560;10899.807;38
2024-05-20T22:18:50.842;599616062155004559;10907.498;47
2024-05-20T22:18:50.850;599616062162696558;10915.19;73
2024-05-20T22:18:50.857;599616062170388557;10922.883;102
2024-05-20T22:18:50.865;599616062178080556;10930.574;126
2024-05-20T22:18:50.873;599616062185772555;10938.267;166
2024-05-20T22:18:50.880;599616062193464554;10945.959;233
2024-05-20T22:18:50.888;599616062201156553;10953.65;283
2024-05-20T22:18:50.896;599616062208848552;10961.343;271
2024-05-20T22:18:50.904;599616062216540551;10969.035;223
2024-05-20T22:18:50.911;599616062224232550;10976.727;188
2024-05-20T22:18:50.919;599616062231924549;10984.418;159
2024-05-20T22:18:50.927;599616062239616548;10992.11;97
2024-05-20T22:18:50.934;599616062247308547;10999.803;42
2024-05-20T22:18:50.942;599616062255000546;11007.494;33
2024-05-20T22:18:50.950;599616062262692545;11015.187;14
2024-05-20T22:18:50.957;599616062270384544;11022.879;-47
2024-05-20T22:18:50.965;599616062278076543;11030.571;-88
2024-05-20T22:18:50.973;599616062285768542;11038.263;-97
2024-05-20T22:18:50.980;599616062293460541;11045.954;-159
2024-05-20T22:18:50.988;599616062301152540;11053.646;-245
2024-05-20T22:18:50.996;599616062308844539;11061.339;-257
2024-05-20T22:18:51.004;599616062316536538;11069.03;-230
2024-05-20T22:18:51.011;599616062324228537;11076.723;-233
2024-05-20T22:18:51.019;599616062331920536;11084.415;-247
2024-05-20T22:18:51.027;599616062339612535;11092.106;-238
2024-05-20T22:18:51.034;599616062347304534;11099.799;-221
2024-05-20T22:18:51.042;599616062354996533;11107.491;-218
2024-05-20T22:18:51.050;599616062362688532;11115.183;-223
2024-05-20T22:18:51.057;599616062370380531;11122.874;-197
2024-05-20T22:18:51.065;599616062378072530;11130.566;-154
2024-05-20T22:18:51.073;599616062385764529;11138.259;-161
2024-05-20T22:18:51.080;599616062393456528;11145.95;-199
2024-05-20T22:18:51.088;599616062401148527;11153.643;-173
2024-05-20T22:18:51.096;599616062408840526;11161.335;-109
2024-05-20T22:18:51.104;599616062416532525;11169.027;-92
2024-05-20T22:18:51.111;599616062424224524;11176.719;-92
2024-05-20T22:18:51.119;599616062431916523;11184.41;-59
2024-05-20T22:18:51.127;599616062439608522;11192.103;-47
2024-05-20T22:18:51.134;599616062447300521;11199.794;-64
2024-05-20T22:18:51.142;599616062454992520;11207.486;-57
2024-05-20T22:18:51.150;599616062462684519;11215.179;-47
2024-05-20T22:18:51.157;599616062470376518;11222.871;-64
2024-05-20T22:18:51.165;599616062478068530;11230.5625;-78
2024-05-20T22:18:51.173;599616062485760529;11238.255;-83
2024-05-20T22:18:51.180;599616062493452528;11245.947;-88
2024-05-20T22:18:51.188;599616062501144527;11253.638;-138
2024-05-20T22:18:51.196;599616062508836526;11261.33;-207
2024-05-20T22:18:51.204;599616062516528525;11269.022;-26
2024-05-20T22:18:51.211;599616062524220524;11276.715;464
2024-05-20T22:18:51.219;599616062531912523;11284.406;818
2024-05-20T22:18:51.227;599616062539604522;11292.099;597
2024-05-20T22:18:51.234;599616062547296521;11299.791;19
2024-05-20T22:18:51.242;599616062554988520;11307.483;-295
2024-05-20T22:18:51.250;599616062562680519;11315.175;-207
2024-05-20T22:18:51.257;599616062570372518;11322.866;-133
2024-05-20T22:18:51.265;599616062578064517;11330.559;-190
2024-05-20T22:18:51.273;599616062585756516;11338.25;-164
2024-05-20T22:18:51.280;599616062593448515;11345.942;-83
2024-05-20T22:18:51.288;599616062601140514;11353.635;-90
2024-05-20T22:18:51.296;599616062608832513;11361.327;-126
2024-05-20T22:18:51.304;599616062616524512;11369.019;-104
2024-05-20T22:18:51.311;599616062624216511;11376.711;-61
2024-05-20T22:18:51.319;599616062631908510;11384.403;-14
2024-05-20T22:18:51.327;599616062639600509;11392.094;57
2024-05-20T22:18:51.334;599616062647292508;11399.786;123
2024-05-20T22:18:51.342;599616062654984507;11407.479;171
2024-05-20T22:18:51.350;599616062662676506;11415.171;207
2024-05-20T22:18:51.357;599616062670368505;11422.862;233
2024-05-20T22:18:51.365;599616062678060504;11430.555;259
2024-05-20T22:18:51.373;599616062685752503;11438.247;288
2024-05-20T22:18:51.380;599616062693444502;11445.938;292
2024-05-20T22:18:51.388;599616062701136501;11453.631;297
2024-05-20T22:18:51.396;599616062708828500;11461.322;264
2024-05-20T22:18:51.404;599616062716520499;11469.015;154
2024-05-20T22:18:51.411;599616062724212498;11476.706;76
2024-05-20T22:18:51.419;599616062731904497;11484.398;80
2024-05-20T22:18:51.427;599616062739596496;11492.091;83
2024-05-20T22:18:51.434;599616062747288495;11499.782;33
2024-05-20T22:18:51.442;599616062754980494;11507.475;-30
2024-05-20T22:18:51.450;599616062762672493;11515.167;-54
2024-05-20T22:18:51.457;599616062770364492;11522.859;-64
2024-05-20T22:18:51.465;599616062778056491;11530.55;-111
2024-05-20T22:18:51.473;599616062785748490;11538.242;-135
2024-05-20T22:18:51.480;599616062793440489;11545.935;-111
2024-05-20T22:18:51.488;599616062801132488;11553.626;-116
2024-05-20T22:18:51.496;599616062808824487;11561.318;-169
2024-05-20T22:18:51.504;599616062816516486;11569.011;-195
2024-05-20T22:18:51.511;599616062824208485;11576.703;-171
2024-05-20T22:18:51.519;599616062831900484;11584.395;-157
2024-05-20T22:18:51.527;599616062839592483;11592.087;-176
2024-05-20T22:18:51.534;599616062847284482;11599.779;-183
2024-05-20T22:18:51.542;599616062854976481;11607.47;-159
2024-05-20T22:18:51.550;599616062862668480;11615.162;-164
2024-05-20T22:18:51.557;599616062870360479;11622.8545;-199
2024-05-20T22:18:51.565;599616062878052478;11630.547;-185
2024-05-20T22:18:51.573;599616062885744477;11638.238;-123
2024-05-20T22:18:51.580;599616062893436476;11645.931;-116
2024-05-20T22:18:51.588;599616062901128475;11653.623;-152
2024-05-20T22:18:51.596;599616062908820474;11661.315;-123
2024-05-20T22:18:51.604;599616062916512473;11669.006;-47
2024-05-20T22:18:51.611;599616062924204472;11676.698;-28
2024-05-20T22:18:51.619;599616062931896471;11684.391;-38
2024-05-20T22:18:51.627;599616062939588470;11692.082;-7
2024-05-20T22:18:51.634;599616062947280469;11699.774;14
2024-05-20T22:18:51.642;599616062954972468;11707.467;-11
2024-05-20T22:18:51.650;599616062962664467;11715.159;-30
2024-05-20T22:18:51.657;599616062970356466;11722.851;-26
2024-05-20T22:18:51.665;599616062978048465;11730.543;-28
2024-05-20T22:18:51.673;599616062985740464;11738.235;-9
2024-05-20T22:18:51.680;599616062993432463;11745.926;223
2024-05-20T22:18:51.688;599616063001124462;11753.618;723
2024-05-20T22:18:51.696;599616063008816461;11761.311;1052
2024-05-20T22:18:51.704;599616063016508460;11769.003;737
2024-05-20T22:18:51.711;599616063024200459;11776.694;66
2024-05-20T22:18:51.719;599616063031892458;11784.387;-240
2024-05-20T22:18:51.727;599616063039569424;11792.063;-130
2024-05-20T22:18:51.734;599616063047261632;11799.756;-73
2024-05-20T22:18:51.742;599616063054953840;11807.448;-116
2024-05-20T22:18:51.750;599616063062646048;11815.141;-64
2024-05-20T22:18:51.757;599616063070338256;11822.833;-2
2024-05-20T22:18:51.765;599616063078030464;11830.525;-23
2024-05-20T22:18:51.773;599616063085722672;11838.217;-30
2024-05-20T22:18:51.780;599616063093414880;11845.908;35
2024-05-20T22:18:51.788;599616063101107088;11853.601;71
2024-05-20T22:18:51.796;599616063108799296;11861.293;7
2024-05-20T22:18:51.803;599616063116491504;11868.985;-21
2024-05-20T22:18:51.811;599616063124183712;11876.678;59
2024-05-20T22:18:51.819;599616063131875920;11884.37;99
2024-05-20T22:18:51.827;599616063139568128;11892.0625;78
2024-05-20T22:18:51.834;599616063147260336;11899.755;116
2024-05-20T22:18:51.842;599616063154952544;11907.447;197
2024-05-20T22:18:51.850;599616063162644752;11915.139;228
2024-05-20T22:18:51.857;599616063170336960;11922.831;202
2024-05-20T22:18:51.865;599616063178029168;11930.523;185
2024-05-20T22:18:51.873;599616063185721376;11938.216;207
2024-05-20T22:18:51.880;599616063193413584;11945.907;211
2024-05-20T22:18:51.888;599616063201105792;11953.6;140
2024-05-20T22:18:51.896;599616063208798000;11961.292;35
2024-05-20T22:18:51.903;599616063216490208;11968.984;2
2024-05-20T22:18:51.911;599616063224182416;11976.677;-4
2024-05-20T22:18:51.919;599616063231874624;11984.368;-47
2024-05-20T22:18:51.927;599616063239566832;11992.061;-85
2024-05-20T22:18:51.934;599616063247259040;11999.753;-99
2024-05-20T22:18:51.942;599616063254951248;12007.445;-114
2024-05-20T22:18:51.950;599616063262643456;12015.138;-164
2024-05-20T22:18:51.957;599616063270335664;12022.83;-221
2024-05-20T22:18:51.965;599616063278027872;12030.522;-235
2024-05-20T22:18:51.973;599616063285720080;12038.215;-235
2024-05-20T22:18:51.980;599616063293412288;12045.906;-245
2024-05-20T22:18:51.988;599616063301104496;12053.599;-242
2024-05-20T22:18:51.996;599616063308796704;12061.29;-233
2024-05-20T22:18:52.003;599616063316488912;12068.982;-242
2024-05-20T22:18:52.011;599616063324181120;12076.675;-257
2024-05-20T22:18:52.019;599616063331873328;12084.367;-235
2024-05-20T22:18:52.027;599616063339565536;12092.06;-202
2024-05-20T22:18:52.034;599616063347257744;12099.752;-192
2024-05-20T22:18:52.042;599616063354949952;12107.444;-199
2024-05-20T22:18:52.050;599616063362642160;12115.137;-204
2024-05-20T22:18:52.057;599616063370334368;12122.829;-188
2024-05-20T22:18:52.065;599616063378026576;12130.521;-161
2024-05-20T22:18:52.073;599616063385718784;12138.213;-128
2024-05-20T22:18:52.080;599616063393410992;12145.904;-85
2024-05-20T22:18:52.088;599616063401103200;12153.597;-61
2024-05-20T22:18:52.096;599616063408795408;12161.289;-69
2024-05-20T22:18:52.103;599616063416487616;12168.981;-52
2024-05-20T22:18:52.111;599616063424179824;12176.674;2
2024-05-20T22:18:52.119;599616063431872032;12184.366;45
2024-05-20T22:18:52.127;599616063439564240;12192.059;49
2024-05-20T22:18:52.134;599616063447256448;12199.751;-9
2024-05-20T22:18:52.142;599616063454948656;12207.443;-92
2024-05-20T22:18:52.150;599616063462640864;12215.135;16
2024-05-20T22:18:52.157;599616063470333072;12222.827;440
2024-05-20T22:18:52.165;599616063478025280;12230.52;937
2024-05-20T22:18:52.173;599616063485717488;12238.212;1056
2024-05-20T22:18:52.180;599616063493409696;12245.903;585
2024-05-20T22:18:52.188;599616063501101904;12253.596;-26
2024-05-20T22:18:52.196;599616063508794112;12261.288;-185
2024-05-20T22:18:52.203;599616063516486320;12268.98;-95
2024-05-20T22:18:52.211;599616063524178528;12276.673;-147
2024-05-20T22:18:52.219;599616063531870736;12284.365;-183
2024-05-20T22:18:52.227;599616063539562944;12292.057;-111
2024-05-20T22:18:52.234;599616063547255152;12299.749;-90
2024-05-20T22:18:52.242;599616063554947360;12307.441;-99
2024-05-20T22:18:52.250;599616063562639568;12315.134;-64
2024-05-20T22:18:52.257;599616063570331776;12322.826;-11
2024-05-20T22:18:52.265;599616063578023984;12330.519;40
2024-05-20T22:18:52.273;599616063585716192;12338.21;73
2024-05-20T22:18:52.280;599616063593408400;12345.902;71
2024-05-20T22:18:52.288;599616063601100624;12353.595;83
2024-05-20T22:18:52.296;599616063608792832;12361.287;138
2024-05-20T22:18:52.303;599616063616485040;12368.979;185
2024-05-20T22:18:52.311;599616063624177248;12376.671;199
2024-05-20T22:18:52.319;599616063631869456;12384.363;230
2024-05-20T22:18:52.327;599616063639561664;12392.056;223
2024-05-20T22:18:52.334;599616063647253872;12399.748;97
2024-05-20T22:18:52.342;599616063654946080;12407.44;-16
2024-05-20T22:18:52.350;599616063662638288;12415.133;21
2024-05-20T22:18:52.357;599616063670330496;12422.825;71
2024-05-20T22:18:52.365;599616063678022704;12430.518;23
2024-05-20T22:18:52.373;599616063685714912;12438.209;-40
2024-05-20T22:18:52.380;599616063693407120;12445.9;-104
2024-05-20T22:18:52.388;599616063701099328;12453.593;-176
2024-05-20T22:18:52.396;599616063708791536;12461.285;-188
2024-05-20T22:18:52.403;599616063716483744;12468.978;-161
2024-05-20T22:18:52.411;599616063724175952;12476.67;-176
2024-05-20T22:18:52.419;599616063731868160;12484.362;-233
2024-05-20T22:18:52.427;599616063739560368;12492.055;-278
2024-05-20T22:18:52.434;599616063747252576;12499.747;-302
2024-05-20T22:18:52.442;599616063754944784;12507.439;-328
2024-05-20T22:18:52.450;599616063762636992;12515.132;-347
2024-05-20T22:18:52.457;599616063770329200;12522.823;-366
2024-05-20T22:18:52.465;599616063778021408;12530.516;-383
2024-05-20T22:18:52.473;599616063785713616;12538.207;-371
2024-05-20T22:18:52.480;599616063793405824;12545.899;-357
2024-05-20T22:18:52.488;599616063801098032;12553.592;-364
2024-05-20T22:18:52.496;599616063808790240;12561.284;-345
2024-05-20T22:18:52.503;599616063816482448;12568.977;-309
2024-05-20T22:18:52.511;599616063824174656;12576.669;-321
2024-05-20T22:18:52.519;599616063831866864;12584.361;-340
2024-05-20T22:18:52.527;599616063839559072;12592.054;-297
2024-05-20T22:18:52.534;599616063847251280;12599.745;-238
2024-05-20T22:18:52.542;599616063854943488;12607.4375;-216
2024-05-20T22:18:52.550;599616063862635696;12615.13;-207
2024-05-20T22:18:52.557;599616063870327904;12622.822;-183
2024-05-20T22:18:52.565;599616063878020112;12630.515;-157
2024-05-20T22:18:52.573;599616063885712320;12638.206;-138
2024-05-20T22:18:52.580;599616063893404528;12645.898;-121
2024-05-20T22:18:52.588;599616063901096736;12653.591;-85
2024-05-20T22:18:52.596;599616063908788944;12661.283;-47
2024-05-20T22:18:52.603;599616063916481152;12668.976;-54
2024-05-20T22:18:52.611;599616063924173360;12676.667;-90
2024-05-20T22:18:52.619;599616063931865568;12684.359;-116
2024-05-20T22:18:52.627;599616063939557776;12692.052;-92
2024-05-20T22:18:52.634;599616063947249984;12699.744;133
2024-05-20T22:18:52.642;599616063954942192;12707.437;592
2024-05-20T22:18:52.650;599616063962634400;12715.129;902
2024-05-20T22:18:52.657;599616063970326608;12722.821;642
2024-05-20T22:18:52.665;599616063978018816;12730.514;30
2024-05-20T22:18:52.673;599616063985711024;12738.205;-238
2024-05-20T22:18:52.680;599616063993403232;12745.896;-78
2024-05-20T22:18:52.688;599616064001095440;12753.589;-26
2024-05-20T22:18:52.696;599616064008787648;12761.281;-123
2024-05-20T22:18:52.703;599616064016479856;12768.974;-128
2024-05-20T22:18:52.711;599616064024172064;12776.666;-130
2024-05-20T22:18:52.719;599616064031864272;12784.358;-190
2024-05-20T22:18:52.727;599616064039556480;12792.051;-185
2024-05-20T22:18:52.734;599616064047248688;12799.743;-140
2024-05-20T22:18:52.742;599616064054940896;12807.436;-107
2024-05-20T22:18:52.750;599616064062633104;12815.128;-71
2024-05-20T22:18:52.757;599616064070325312;12822.82;-42
2024-05-20T22:18:52.765;599616064078017520;12830.512;7
2024-05-20T22:18:52.773;599616064085709728;12838.203;95
2024-05-20T22:18:52.780;599616064093401936;12845.8955;147
2024-05-20T22:18:52.788;599616064101094144;12853.588;149
2024-05-20T22:18:52.796;599616064108786352;12861.28;180
2024-05-20T22:18:52.803;599616064116478560;12868.973;223
2024-05-20T22:18:52.811;599616064124170768;12876.665;235
2024-05-20T22:18:52.819;599616064131862976;12884.357;235
2024-05-20T22:18:52.827;599616064139555184;12892.05;233
2024-05-20T22:18:52.834;599616064147247392;12899.741;223
2024-05-20T22:18:52.842;599616064154939600;12907.434;209
2024-05-20T22:18:52.850;599616064162631824;12915.126;183
2024-05-20T22:18:52.857;599616064170324032;12922.818;152
2024-05-20T22:18:52.865;599616064178016240;12930.511;121
2024-05-20T22:18:52.873;599616064185708448;12938.202;78
2024-05-20T22:18:52.880;599616064193400656;12945.895;16
2024-05-20T22:18:52.888;599616064201092864;12953.587;-4
2024-05-20T22:18:52.896;599616064208785072;12961.279;-21
2024-05-20T22:18:52.903;599616064216477280;12968.972;-121
2024-05-20T22:18:52.911;599616064224169488;12976.663;-238
2024-05-20T22:18:52.919;599616064231861696;12984.355;-299
2024-05-20T22:18:52.927;599616064239553904;12992.048;-330
2024-05-20T22:18:52.934;599616064247246112;12999.74;-359
2024-05-20T22:18:52.942;599616064254938320;13007.433;-364
2024-05-20T22:18:52.950;599616064262630528;13015.125;-340
2024-05-20T22:18:52.957;599616064270322736;13022.817;-318
2024-05-20T22:18:52.965;599616064278014944;13030.509;-321
2024-05-20T22:18:52.973;599616064285707152;13038.201;-330
2024-05-20T22:18:52.980;599616064293399360;13045.894;-316
2024-05-20T22:18:52.988;599616064301091568;13053.585;-276
2024-05-20T22:18:52.996;599616064308783776;13061.277;-245
2024-05-20T22:18:53.003;599616064316475984;13068.97;-235
2024-05-20T22:18:53.011;599616064324168192;13076.662;-221
2024-05-20T22:18:53.019;599616064331860400;13084.3545;-199
2024-05-20T22:18:53.027;599616064339552608;13092.047;-180
2024-05-20T22:18:53.034;599616064347244816;13099.739;-145
2024-05-20T22:18:53.042;599616064354937024;13107.432;-97
2024-05-20T22:18:53.050;599616064362629232;13115.124;-64
2024-05-20T22:18:53.057;599616064370321440;13122.816;-61
2024-05-20T22:18:53.065;599616064378013648;13130.507;-69
2024-05-20T22:18:53.073;599616064385705856;13138.199;-49
2024-05-20T22:18:53.080;599616064393398064;13145.892;-28
2024-05-20T22:18:53.088;599616064401090272;13153.584;-16
2024-05-20T22:18:53.096;599616064408782480;13161.276;16
2024-05-20T22:18:53.103;599616064416474688;13168.969;47
2024-05-20T22:18:53.111;599616064424166896;13176.661;9
2024-05-20T22:18:53.119;599616064431859104;13184.354;-19
2024-05-20T22:18:53.127;599616064439551312;13192.046;183
2024-05-20T22:18:53.134;599616064447243520;13199.738;659
2024-05-20T22:18:53.142;599616064454935728;13207.43;1037
2024-05-20T22:18:53.150;599616064462627936;13215.122;868
2024-05-20T22:18:53.157;599616064470320144;13222.814;280
2024-05-20T22:18:53.165;599616064478012352;13230.506;-69
2024-05-20T22:18:53.173;599616064485704560;13238.198;19
2024-05-20T22:18:53.180;599616064493396768;13245.891;95
2024-05-20T22:18:53.188;599616064501088976;13253.583;40
2024-05-20T22:18:53.196;599616064508781184;13261.275;71
2024-05-20T22:18:53.203;599616064516473392;13268.968;109
2024-05-20T22:18:53.211;599616064524165600;13276.66;42
2024-05-20T22:18:53.219;599616064531857808;13284.352;-40
2024-05-20T22:18:53.227;599616064539550016;13292.044;-64
2024-05-20T22:18:53.234;599616064547242224;13299.736;-30
2024-05-20T22:18:53.242;599616064554934432;13307.429;7
2024-05-20T22:18:53.250;599616064562626640;13315.121;30
2024-05-20T22:18:53.257;599616064570318848;13322.813;54
2024-05-20T22:18:53.265;599616064578011056;13330.505;85
2024-05-20T22:18:53.273;599616064585703264;13338.197;133
2024-05-20T22:18:53.280;599616064593395472;13345.89;199
2024-05-20T22:18:53.288;599616064601087680;13353.582;240
2024-05-20T22:18:53.296;599616064608779888;13361.273;228
2024-05-20T22:18:53.303;599616064616472096;13368.966;216
2024-05-20T22:18:53.311;599616064624164304;13376.658;240
2024-05-20T22:18:53.319;599616064631856512;13384.351;261
2024-05-20T22:18:53.327;599616064639548720;13392.043;252
2024-05-20T22:18:53.334;599616064647240928;13399.735;204
2024-05-20T22:18:53.342;599616064654933136;13407.428;135
2024-05-20T22:18:53.350;599616064662625344;13415.12;83
2024-05-20T22:18:53.357;599616064670317552;13422.8125;66
2024-05-20T22:18:53.365;599616064678009760;13430.504;16
2024-05-20T22:18:53.373;599616064685701968;13438.195;-78
2024-05-20T22:18:53.380;599616064693394176;13445.888;-149
2024-05-20T22:18:53.388;599616064701086384;13453.58;-207
2024-05-20T22:18:53.396;599616064708778592;13461.272;-266
2024-05-20T22:18:53.403;599616064716470800;13468.965;-278
2024-05-20T22:18:53.411;599616064724163024;13476.657;-259
2024-05-20T22:18:53.419;599616064731855232;13484.35;-259
2024-05-20T22:18:53.427;599616064739547440;13492.042;-273
2024-05-20T22:18:53.434;599616064747239648;13499.734;-304
2024-05-20T22:18:53.442;599616064754931856;13507.427;-388
2024-05-20T22:18:53.450;599616064762624064;13515.118;-516
2024-05-20T22:18:53.457;599616064770316272;13522.811;-578
2024-05-20T22:18:53.465;599616064778008480;13530.502;-530
2024-05-20T22:18:53.473;599616064785700688;13538.194;-504
2024-05-20T22:18:53.480;599616064793392896;13545.887;-521
2024-05-20T22:18:53.488;599616064801085104;13553.579;-464
2024-05-20T22:18:53.496;599616064808777312;13561.271;-385
2024-05-20T22:18:53.503;599616064816469520;13568.964;-392
2024-05-20T22:18:53.511;599616064824161728;13576.656;-395
2024-05-20T22:18:53.519;599616064831853936;13584.349;-328
2024-05-20T22:18:53.527;599616064839546144;13592.04;-297
2024-05-20T22:18:53.534;599616064847238352;13599.732;-297
2024-05-20T22:18:53.542;599616064854930560;13607.425;-247
2024-05-20T22:18:53.550;599616064862622768;13615.117;-180
2024-05-20T22:18:53.557;599616064870314976;13622.809;-140
2024-05-20T22:18:53.565;599616064878007184;13630.501;-149
2024-05-20T22:18:53.573;599616064885699392;13638.193;-190
2024-05-20T22:18:53.580;599616064893391600;13645.886;-178
2024-05-20T22:18:53.588;599616064901083808;13653.578;-116
2024-05-20T22:18:53.596;599616064908776016;13661.27;-95
2024-05-20T22:18:53.603;599616064916468224;13668.962;-97
2024-05-20T22:18:53.611;599616064924160432;13676.654;-92
2024-05-20T22:18:53.619;599616064931852640;13684.347;-169
2024-05-20T22:18:53.627;599616064939544848;13692.039;-233
2024-05-20T22:18:53.634;599616064947237056;13699.731;-49
2024-05-20T22:18:53.642;599616064954929264;13707.424;421
2024-05-20T22:18:53.650;599616064962621472;13715.116;852
2024-05-20T22:18:53.657;599616064970313680;13722.808;797
2024-05-20T22:18:53.665;599616064978005888;13730.5;245
2024-05-20T22:18:53.673;599616064985698096;13738.191;-221
2024-05-20T22:18:53.680;599616064993390304;13745.884;-228
2024-05-20T22:18:53.688;599616065001082512;13753.576;-102
2024-05-20T22:18:53.696;599616065008774720;13761.269;-99
2024-05-20T22:18:53.703;599616065016466928;13768.961;-80
2024-05-20T22:18:53.711;599616065024159136;13776.653;-45
2024-05-20T22:18:53.719;599616065031851344;13784.346;-99
2024-05-20T22:18:53.727;599616065039543552;13792.038;-161
2024-05-20T22:18:53.734;599616065047235760;13799.73;-135
2024-05-20T22:18:53.742;599616065054927968;13807.423;-76
2024-05-20T22:18:53.750;599616065062620176;13815.115;-38
2024-05-20T22:18:53.757;599616065070312384;13822.806;-7
2024-05-20T22:18:53.765;599616065078004592;13830.498;23
2024-05-20T22:18:53.773;599616065085696800;13838.19;66
2024-05-20T22:18:53.780;599616065093389008;13845.883;114
2024-05-20T22:18:53.788;599616065101081216;13853.575;178
2024-05-20T22:18:53.796;599616065108773424;13861.268;238
2024-05-20T22:18:53.803;599616065116465632;13868.96;254
2024-05-20T22:18:53.811;599616065124157840;13876.652;235
2024-05-20T22:18:53.819;599616065131850048;13884.345;218
2024-05-20T22:18:53.827;599616065139542256;13892.036;209
2024-05-20T22:18:53.834;599616065147234464;13899.729;192
2024-05-20T22:18:53.842;599616065154926672;13907.421;152
2024-05-20T22:18:53.850;599616065162618880;13915.113;61
2024-05-20T22:18:53.857;599616065170311088;13922.805;-64
2024-05-20T22:18:53.865;599616065178003296;13930.497;-159
2024-05-20T22:18:53.873;599616065185695504;13938.189;-192
2024-05-20T22:18:53.880;599616065193387712;13945.882;-202
2024-05-20T22:18:53.888;599616065201079920;13953.574;-235
2024-05-20T22:18:53.896;599616065208772128;13961.267;-283
2024-05-20T22:18:53.903;599616065216464336;13968.958;-285
2024-05-20T22:18:53.911;599616065224156544;13976.65;-245
2024-05-20T22:18:53.919;599616065231848752;13984.343;-226
2024-05-20T22:18:53.927;599616065239540960;13992.035;-254
2024-05-20T22:18:53.934;599616065247233168;13999.728;-280
2024-05-20T22:18:53.942;599616065254925376;14007.42;-264
2024-05-20T22:18:53.950;599616065262617584;14015.112;-249
2024-05-20T22:18:53.957;599616065270309792;14022.804;-257
2024-05-20T22:18:53.965;599616065278002000;14030.496;-254
2024-05-20T22:18:53.973;599616065285694224;14038.188;-226
2024-05-20T22:18:53.980;599616065293386432;14045.88;-197
2024-05-20T22:18:53.988;599616065301078640;14053.572;-195
2024-05-20T22:18:53.996;599616065308770848;14061.265;-192
2024-05-20T22:18:54.003;599616065316463056;14068.957;-147
2024-05-20T22:18:54.011;599616065324155264;14076.649;-104
2024-05-20T22:18:54.019;599616065331847472;14084.342;-97
2024-05-20T22:18:54.027;599616065339539680;14092.034;-95
2024-05-20T22:18:54.034;599616065347231888;14099.727;-97
2024-05-20T22:18:54.042;599616065354924096;14107.419;-128
2024-05-20T22:18:54.050;599616065362616304;14115.111;-161
2024-05-20T22:18:54.057;599616065370308512;14122.802;-152
2024-05-20T22:18:54.065;599616065378000720;14130.494;-111
2024-05-20T22:18:54.073;599616065385692928;14138.187;-107
2024-05-20T22:18:54.080;599616065393385136;14145.879;-133
2024-05-20T22:18:54.088;599616065401077344;14153.571;-130
2024-05-20T22:18:54.096;599616065408769552;14161.264;-99
2024-05-20T22:18:54.103;599616065416461760;14168.956;-99
2024-05-20T22:18:54.111;599616065424153968;14176.648;-138
2024-05-20T22:18:54.119;599616065431846176;14184.341;-164
2024-05-20T22:18:54.127;599616065439538384;14192.033;-69
2024-05-20T22:18:54.134;599616065447230592;14199.725;290
2024-05-20T22:18:54.142;599616065454922800;14207.417;823
2024-05-20T22:18:54.150;599616065462615008;14215.108;1054
2024-05-20T22:18:54.157;599616065470307216;14222.801;635
2024-05-20T22:18:54.165;599616065477999424;14230.493;4
2024-05-20T22:18:54.173;599616065485691632;14238.186;-130
2024-05-20T22:18:54.180;599616065493383840;14245.878;71
2024-05-20T22:18:54.188;599616065501076048;14253.57;97
2024-05-20T22:18:54.196;599616065508768256;14261.263;45
2024-05-20T22:18:54.203;599616065516460464;14268.955;107
2024-05-20T22:18:54.211;599616065524152672;14276.646;157
2024-05-20T22:18:54.219;599616065531844880;14284.339;145
2024-05-20T22:18:54.227;599616065539537088;14292.031;119
2024-05-20T22:18:54.234;599616065547229296;14299.724;64
2024-05-20T22:18:54.242;599616065554921504;14307.416;49
2024-05-20T22:18:54.250;599616065562613712;14315.107;99
2024-05-20T22:18:54.257;599616065570305920;14322.8;123
2024-05-20T22:18:54.265;599616065577998128;14330.492;135
2024-05-20T22:18:54.273;599616065585690336;14338.185;185
2024-05-20T22:18:54.280;599616065593382544;14345.877;249
2024-05-20T22:18:54.288;599616065601074752;14353.568;268
2024-05-20T22:18:54.296;599616065608766960;14361.261;249
2024-05-20T22:18:54.303;599616065616459168;14368.953;240
2024-05-20T22:18:54.311;599616065624151376;14376.6455;221
2024-05-20T22:18:54.319;599616065631843584;14384.338;185
2024-05-20T22:18:54.327;599616065639535792;14392.03;159
2024-05-20T22:18:54.334;599616065647228000;14399.723;123
2024-05-20T22:18:54.342;599616065654920208;14407.415;54
2024-05-20T22:18:54.350;599616065662612416;14415.106;-71
2024-05-20T22:18:54.357;599616065670304624;14422.798;-202
2024-05-20T22:18:54.365;599616065677996832;14430.49;-228
2024-05-20T22:18:54.373;599616065685689040;14438.183;-188
2024-05-20T22:18:54.380;599616065693381248;14445.875;-180
2024-05-20T22:18:54.388;599616065701073456;14453.567;-178
2024-05-20T22:18:54.396;599616065708765664;14461.26;-154
2024-05-20T22:18:54.403;599616065716457872;14468.952;-152
2024-05-20T22:18:54.411;599616065724150080;14476.645;-159
2024-05-20T22:18:54.419;599616065731842288;14484.337;-121
2024-05-20T22:18:54.427;599616065739534496;14492.029;-76
2024-05-20T22:18:54.434;599616065747226704;14499.722;-99
2024-05-20T22:18:54.442;599616065754918912;14507.413;-154
2024-05-20T22:18:54.450;599616065762611120;14515.1045;-178
2024-05-20T22:18:54.457;599616065770303328;14522.797;-183
2024-05-20T22:18:54.465;599616065777995536;14530.489;-159
2024-05-20T22:18:54.473;599616065785687744;14538.182;-85
2024-05-20T22:18:54.480;599616065793379952;14545.874;-19
2024-05-20T22:18:54.488;599616065801072160;14553.566;-7
2024-05-20T22:18:54.496;599616065808764368;14561.259;-21
2024-05-20T22:18:54.503;599616065816456576;14568.951;-11
2024-05-20T22:18:54.511;599616065824148784;14576.644;40
2024-05-20T22:18:54.519;599616065831840992;14584.335;90
2024-05-20T22:18:54.527;599616065839533200;14592.027;99
2024-05-20T22:18:54.534;599616065847235504;14599.7295;95
2024-05-20T22:18:54.542;599616065854927572;14607.422;83
2024-05-20T22:18:54.550;599616065862619640;14615.113;80
2024-05-20T22:18:54.557;599616065870311708;14622.806;102
2024-05-20T22:18:54.565;599616065878003776;14630.498;111
2024-05-20T22:18:54.573;599616065885695844;14638.189;121
2024-05-20T22:18:54.580;599616065893387912;14645.882;128
2024-05-20T22:18:54.588;599616065901079980;14653.574;97
2024-05-20T22:18:54.596;599616065908772048;14661.267;57
2024-05-20T22:18:54.603;599616065916464116;14668.959;40
2024-05-20T22:18:54.611;599616065924156184;14676.65;0
2024-05-20T22:18:54.619;599616065931848252;14684.342;-73
2024-05-20T22:18:54.627;599616065939540320;14692.034;-97
2024-05-20T22:18:54.634;599616065947232388;14699.727;-57
2024-05-20T22:18:54.642;599616065954924456;14707.418;97
2024-05-20T22:18:54.650;599616065962616524;14715.11;497
2024-05-20T22:18:54.657;599616065970308592;14722.803;978
2024-05-20T22:18:54.665;599616065978000660;14730.495;1016
2024-05-20T22:18:54.673;599616065985692728;14738.1875;468
2024-05-20T22:18:54.680;599616065993384796;14745.879;-45
2024-05-20T22:18:54.688;599616066001076864;14753.571;-26
2024-05-20T22:18:54.696;599616066008768932;14761.263;128
2024-05-20T22:18:54.703;599616066016461000;14768.955;78
2024-05-20T22:18:54.711;599616066024153068;14776.647;66
2024-05-20T22:18:54.719;599616066031845136;14784.339;140
2024-05-20T22:18:54.727;599616066039537204;14792.031;135
2024-05-20T22:18:54.734;599616066047229272;14799.724;71
2024-05-20T22:18:54.742;599616066054921340;14807.416;30
2024-05-20T22:18:54.750;599616066062613408;14815.107;45
2024-05-20T22:18:54.757;599616066070305476;14822.8;97
2024-05-20T22:18:54.765;599616066077997544;14830.491;116
2024-05-20T22:18:54.773;599616066085689612;14838.184;83
2024-05-20T22:18:54.780;599616066093381680;14845.876;76
2024-05-20T22:18:54.788;599616066101073748;14853.567;116
2024-05-20T22:18:54.796;599616066108765816;14861.26;135
2024-05-20T22:18:54.803;599616066116457884;14868.952;119
2024-05-20T22:18:54.811;599616066124149952;14876.645;90
2024-05-20T22:18:54.819;599616066131842020;14884.336;38
2024-05-20T22:18:54.827;599616066139534088;14892.028;-35
2024-05-20T22:18:54.834;599616066147226156;14899.72;-107
2024-05-20T22:18:54.842;599616066154918224;14907.412;-173
2024-05-20T22:18:54.850;599616066162610292;14915.1045;-245
2024-05-20T22:18:54.857;599616066170302360;14922.796;-302
2024-05-20T22:18:54.865;599616066177994428;14930.488;-323
2024-05-20T22:18:54.873;599616066185686496;14938.181;-314
2024-05-20T22:18:54.880;599616066193378564;14945.873;-304
2024-05-20T22:18:54.888;599616066201070632;14953.565;-309
2024-05-20T22:18:54.896;599616066208762700;14961.257;-295
2024-05-20T22:18:54.903;599616066216454768;14968.949;-266
2024-05-20T22:18:54.911;599616066224146836;14976.641;-276
2024-05-20T22:18:54.919;599616066231838904;14984.333;-297
2024-05-20T22:18:54.927;599616066239530972;14992.024;-259
2024-05-20T22:18:54.934;599616066247223040;14999.717;-180
2024-05-20T22:18:54.942;599616066254915108;15007.409;-138
2024-05-20T22:18:54.950;599616066262607176;15015.102;-135
2024-05-20T22:18:54.957;599616066270299244;15022.794;-121
2024-05-20T22:18:54.965;599616066277991312;15030.485;-83
2024-05-20T22:18:54.973;599616066285683380;15038.178;-66
2024-05-20T22:18:54.980;599616066293375448;15045.869;-45
2024-05-20T22:18:54.988;599616066301067516;15053.562;16
2024-05-20T22:18:54.996;599616066308759584;15061.254;45
2024-05-20T22:18:55.003;599616066316451652;15068.945;7
2024-05-20T22:18:55.011;599616066324143720;15076.638;-9
2024-05-20T22:18:55.019;599616066331835788;15084.33;33
2024-05-20T22:18:55.027;599616066339527856;15092.022;71
2024-05-20T22:18:55.034;599616066347219924;15099.714;71
2024-05-20T22:18:55.042;599616066354911992;15107.406;64
2024-05-20T22:18:55.050;599616066362604060;15115.098;83
2024-05-20T22:18:55.057;599616066370296128;15122.79;114
2024-05-20T22:18:55.065;599616066377988196;15130.482;138
2024-05-20T22:18:55.073;599616066385680264;15138.174;173
2024-05-20T22:18:55.080;599616066393372332;15145.866;216
2024-05-20T22:18:55.088;599616066401064400;15153.559;211
2024-05-20T22:18:55.096;599616066408766538;15161.261;171
2024-05-20T22:18:55.103;599616066416458467;15168.952;169
2024-05-20T22:18:55.111;599616066424150396;15176.645;221
2024-05-20T22:18:55.119;599616066431842325;15184.337;264
2024-05-20T22:18:55.127;599616066439534254;15192.028;266
2024-05-20T22:18:55.134;599616066447226183;15199.721;235
2024-05-20T22:18:55.142;599616066454918112;15207.412;197
2024-05-20T22:18:55.150;599616066462610041;15215.104;249
2024-05-20T22:18:55.157;599616066470301970;15222.796;490
2024-05-20T22:18:55.165;599616066477993899;15230.487;911
2024-05-20T22:18:55.173;599616066485685828;15238.18;1171
2024-05-20T22:18:55.180;599616066493377757;15245.872;837
2024-05-20T22:18:55.188;599616066501069686;15253.563;207
2024-05-20T22:18:55.196;599616066508761615;15261.256;33
2024-05-20T22:18:55.203;599616066516453544;15268.948;214
2024-05-20T22:18:55.211;599616066524145473;15276.64;211
2024-05-20T22:18:55.219;599616066531837402;15284.331;130
2024-05-20T22:18:55.227;599616066539529331;15292.023;173
2024-05-20T22:18:55.234;599616066547221260;15299.715;171
2024-05-20T22:18:55.242;599616066554913189;15307.407;40
2024-05-20T22:18:55.250;599616066562605118;15315.1;-92
2024-05-20T22:18:55.257;599616066570297047;15322.791;-99
2024-05-20T22:18:55.265;599616066577988976;15330.483;-33
2024-05-20T22:18:55.273;599616066585680905;15338.176;-45
2024-05-20T22:18:55.280;599616066593372834;15345.867;-126
2024-05-20T22:18:55.288;599616066601064763;15353.559;-157
2024-05-20T22:18:55.296;599616066608756692;15361.25;-135
2024-05-20T22:18:55.303;599616066616448621;15368.942;-152
2024-05-20T22:18:55.311;599616066624140550;15376.635;-199
2024-05-20T22:18:55.319;599616066631832479;15384.326;-171
2024-05-20T22:18:55.327;599616066639524408;15392.019;-135
2024-05-20T22:18:55.334;599616066647216337;15399.711;-207
2024-05-20T22:18:55.342;599616066654908266;15407.402;-264
2024-05-20T22:18:55.350;599616066662600195;15415.095;-230
2024-05-20T22:18:55.357;599616066670292124;15422.786;-207
2024-05-20T22:18:55.365;599616066677984053;15430.478;-228
2024-05-20T22:18:55.373;599616066685675982;15438.17;-233
2024-05-20T22:18:55.380;599616066693367911;15445.862;-214
2024-05-20T22:18:55.388;599616066701059840;15453.554;-199
2024-05-20T22:18:55.396;599616066708751769;15461.246;-185
2024-05-20T22:18:55.403;599616066716443698;15468.938;-166
2024-05-20T22:18:55.411;599616066724135627;15476.63;-166
2024-05-20T22:18:55.419;599616066731827556;15484.322;-183
2024-05-20T22:18:55.427;599616066739519485;15492.014;-154
2024-05-20T22:18:55.434;599616066747211414;15499.705;-97
2024-05-20T22:18:55.442;599616066754903343;15507.397;-35
2024-05-20T22:18:55.450;599616066762595272;15515.089;38
2024-05-20T22:18:55.457;599616066770287201;15522.781;69
2024-05-20T22:18:55.465;599616066777979130;15530.474;49
2024-05-20T22:18:55.473;599616066785671059;15538.165;61
2024-05-20T22:18:55.480;599616066793362988;15545.857;102
2024-05-20T22:18:55.488;599616066801054917;15553.549;121
2024-05-20T22:18:55.496;599616066808746846;15561.24;147
2024-05-20T22:18:55.503;599616066816438775;15568.933;171
2024-05-20T22:18:55.511;599616066824130704;15576.625;149
2024-05-20T22:18:55.519;599616066831822633;15584.316;138
2024-05-20T22:18:55.527;599616066839514562;15592.009;169
2024-05-20T22:18:55.534;599616066847206491;15599.701;197
2024-05-20T22:18:55.542;599616066854898420;15607.393;207
2024-05-20T22:18:55.550;599616066862590349;15615.085;204
2024-05-20T22:18:55.557;599616066870282278;15622.776;199
2024-05-20T22:18:55.565;599616066877974207;15630.468;226
2024-05-20T22:18:55.573;599616066885666136;15638.16;261
2024-05-20T22:18:55.580;599616066893358065;15645.853;254
2024-05-20T22:18:55.588;599616066901049994;15653.544;228
2024-05-20T22:18:55.596;599616066908741923;15661.236;221
2024-05-20T22:18:55.603;599616066916433852;15668.928;211
2024-05-20T22:18:55.611;599616066924125781;15676.62;199
2024-05-20T22:18:55.619;599616066931817710;15684.3125;221
2024-05-20T22:18:55.627;599616066939509639;15692.003;259
2024-05-20T22:18:55.634;599616066947201568;15699.695;271
2024-05-20T22:18:55.642;599616066954893497;15707.388;259
2024-05-20T22:18:55.650;599616066962585426;15715.079;240
2024-05-20T22:18:55.657;599616066970257306;15722.751;216
2024-05-20T22:18:55.665;599616066977949514;15730.443;240
2024-05-20T22:18:55.673;599616066985641722;15738.136;445
2024-05-20T22:18:55.680;599616066993333930;15745.828;885
2024-05-20T22:18:55.688;599616067001026138;15753.5205;1230
2024-05-20T22:18:55.696;599616067008718346;15761.213;985
2024-05-20T22:18:55.703;599616067016410554;15768.904;314
2024-05-20T22:18:55.711;599616067024102762;15776.597;-30
2024-05-20T22:18:55.719;599616067031794970;15784.289;59
2024-05-20T22:18:55.726;599616067039487178;15791.981;52
2024-05-20T22:18:55.734;599616067047179386;15799.674;-85
2024-05-20T22:18:55.742;599616067054871594;15807.366;-142
2024-05-20T22:18:55.750;599616067062563802;15815.058;-216
2024-05-20T22:18:55.757;599616067070256010;15822.75;-299
2024-05-20T22:18:55.765;599616067077948218;15830.442;-299
2024-05-20T22:18:55.773;599616067085640426;15838.134;-280
2024-05-20T22:18:55.780;599616067093332634;15845.826;-326
2024-05-20T22:18:55.788;599616067101024842;15853.519;-371
2024-05-20T22:18:55.796;599616067108717050;15861.211;-345
2024-05-20T22:18:55.803;599616067116409258;15868.903;-290
2024-05-20T22:18:55.811;599616067124101466;15876.596;-273
2024-05-20T22:18:55.819;599616067131793674;15884.288;-278
2024-05-20T22:18:55.826;599616067139485882;15891.98;-283
2024-05-20T22:18:55.834;599616067147178090;15899.673;-297
