Phone timestamp;sensor timestamp [ns];timestamp [ms];ecg [uV]
2024-05-21T20:58:57.245;599616724572364606;0.0;3800
2024-05-21T20:58:57.252;599616724580055978;7.691372;4482
2024-05-21T20:58:57.260;599616724587747350;15.382744;5477
2024-05-21T20:58:57.268;599616724595438722;23.074116;6054
2024-05-21T20:58:57.275;599616724603130094;30.765488;6561
2024-05-21T20:58:57.283;599616724610821466;38.45686;7301
2024-05-21T20:58:57.291;599616724618512838;46.14823;7878
2024-05-21T20:58:57.298;599616724626204210;53.839603;8314
2024-05-21T20:58:57.306;599616724633895582;61.530975;8874
2024-05-21T20:58:57.314;599616724641586954;69.22235;9380
2024-05-21T20:58:57.321;599616724649278326;76.91372;9740
2024-05-21T20:58:57.329;599616724656969698;84.60509;10133
2024-05-21T20:58:57.337;599616724664661070;92.29646;10586
2024-05-21T20:58:57.344;599616724672352442;99.98784;11016
2024-05-21T20:58:57.352;599616724680043814;107.67921;11407
2024-05-21T20:58:57.360;599616724687735186;115.370575;11740
2024-05-21T20:58:57.368;599616724695426558;123.06195;12043
2024-05-21T20:58:57.375;599616724703117930;130.75333;12442
2024-05-21T20:58:57.383;599616724710809302;138.4447;12823
2024-05-21T20:58:57.391;599616724718500674;146.13606;13019
2024-05-21T20:58:57.398;599616724726192046;153.82744;13274
2024-05-21T20:58:57.406;599616724733883418;161.51881;13624
2024-05-21T20:58:57.414;599616724741574790;169.21017;13796
2024-05-21T20:58:57.421;599616724749266162;176.90155;13917
2024-05-21T20:58:57.429;599616724756957534;184.59293;14180
2024-05-21T20:58:57.437;599616724764648906;192.2843;14423
2024-05-21T20:58:57.444;599616724772340278;199.97568;14566
2024-05-21T20:58:57.452;599616724780031650;207.66704;14690
2024-05-21T20:58:57.460;599616724787723022;215.35841;14833
2024-05-21T20:58:57.468;599616724795414394;223.04979;14979
2024-05-21T20:58:57.475;599616724803105766;230.74115;15079
2024-05-21T20:58:57.483;599616724810797138;238.43253;15191
2024-05-21T20:58:57.491;599616724818488510;246.1239;15403
2024-05-21T20:58:57.498;599616724826179882;253.81528;15551
2024-05-21T20:58:57.506;599616724833871254;261.50665;15520
2024-05-21T20:58:57.514;599616724841562626;269.19803;15570
2024-05-21T20:58:57.521;599616724849253998;276.8894;15763
2024-05-21T20:58:57.529;599616724856945370;284.58078;15863
2024-05-21T20:58:57.537;599616724864636742;292.27213;15875
2024-05-21T20:58:57.544;599616724872328114;299.96353;15923
2024-05-21T20:58:57.552;599616724880019486;307.65488;15975
2024-05-21T20:58:57.560;599616724887710858;315.34625;16001
2024-05-21T20:58:57.568;599616724895402230;323.03763;15999
2024-05-21T20:58:57.575;599616724903093602;330.729;16021
2024-05-21T20:58:57.583;599616724910784974;338.42035;16128
2024-05-21T20:58:57.591;599616724918476346;346.11176;16154
2024-05-21T20:58:57.598;599616724926167718;353.8031;16028
2024-05-21T20:58:57.606;599616724933859090;361.4945;16004
2024-05-21T20:58:57.614;599616724941550462;369.18585;16104
2024-05-21T20:58:57.621;599616724949241834;376.87723;16164
2024-05-21T20:58:57.629;599616724956933206;384.5686;16145
2024-05-21T20:58:57.637;599616724964624578;392.25998;16001
2024-05-21T20:58:57.644;599616724972315950;399.95135;15887
2024-05-21T20:58:57.652;599616724980007322;407.64273;15880
2024-05-21T20:58:57.660;599616724987698694;415.33408;15875
2024-05-21T20:58:57.668;599616724995390066;423.02548;15904
2024-05-21T20:58:57.675;599616725003081438;430.71683;15885
2024-05-21T20:58:57.683;599616725010772810;438.4082;15715
2024-05-21T20:58:57.691;599616725018464182;446.09958;15539
2024-05-21T20:58:57.698;599616725026155554;453.79095;15558
2024-05-21T20:58:57.706;599616725033846926;461.4823;15641
2024-05-21T20:58:57.714;599616725041538298;469.1737;15501
2024-05-21T20:58:57.721;599616725049229670;476.86505;15341
2024-05-21T20:58:57.729;599616725056921042;484.55646;15331
2024-05-21T20:58:57.737;599616725064612414;492.2478;15153
2024-05-21T20:58:57.744;599616725072303786;499.93918;14921
2024-05-21T20:58:57.752;599616725079995158;507.63055;15069
2024-05-21T20:58:57.760;599616725087686530;515.3219;15613
2024-05-21T20:58:57.768;599616725095377902;523.0133;15873
2024-05-21T20:58:57.775;599616725103069274;530.70465;15229
2024-05-21T20:58:57.783;599616725110760646;538.39606;14390
2024-05-21T20:58:57.791;599616725118452018;546.0874;14189
2024-05-21T20:58:57.798;599616725126143390;553.7788;14235
2024-05-21T20:58:57.806;599616725133849818;561.48517;14068
2024-05-21T20:58:57.814;599616725141540981;569.1764;13937
2024-05-21T20:58:57.821;599616725149232144;576.8675;13941
2024-05-21T20:58:57.829;599616725156923307;584.5587;13810
2024-05-21T20:58:57.837;599616725164614470;592.2499;13617
2024-05-21T20:58:57.844;599616725172305633;599.94104;13555
2024-05-21T20:58:57.852;599616725179996796;607.6322;13550
2024-05-21T20:58:57.860;599616725187687959;615.3233;13493
2024-05-21T20:58:57.868;599616725195379122;623.0145;13405
2024-05-21T20:58:57.875;599616725203070285;630.7057;13295
2024-05-21T20:58:57.883;599616725210761448;638.39685;13190
2024-05-21T20:58:57.891;599616725218452611;646.088;13045
2024-05-21T20:58:57.898;599616725226143774;653.7792;12787
2024-05-21T20:58:57.906;599616725233834937;661.47034;12680
2024-05-21T20:58:57.914;599616725241526100;669.1615;12711
2024-05-21T20:58:57.921;599616725249217263;676.85266;12563
2024-05-21T20:58:57.929;599616725256908426;684.5438;12380
2024-05-21T20:58:57.937;599616725264599589;692.235;12353
2024-05-21T20:58:57.944;599616725272290752;699.92615;12339
2024-05-21T20:58:57.952;599616725279981915;707.6173;12229
2024-05-21T20:58:57.960;599616725287673078;715.3085;12081
2024-05-21T20:58:57.967;599616725295364241;722.99963;11960
2024-05-21T20:58:57.975;599616725303055404;730.6908;11879
2024-05-21T20:58:57.983;599616725310746567;738.38196;11752
2024-05-21T20:58:57.991;599616725318437730;746.0732;11595
2024-05-21T20:58:57.998;599616725326128893;753.7643;11533
2024-05-21T20:58:58.006;599616725333820056;761.45544;11466
2024-05-21T20:58:58.014;599616725341511219;769.1466;11278
2024-05-21T20:58:58.021;599616725349202382;776.83777;11118
2024-05-21T20:58:58.029;599616725356893545;784.52893;11078
2024-05-21T20:58:58.037;599616725364584708;792.2201;11028
2024-05-21T20:58:58.044;599616725372275871;799.9113;10918
2024-05-21T20:58:58.052;599616725379967034;807.6024;10791
2024-05-21T20:58:58.060;599616725387658197;815.2936;10672
2024-05-21T20:58:58.067;599616725395349360;822.98474;10582
2024-05-21T20:58:58.075;599616725403040523;830.6759;10472
2024-05-21T20:58:58.083;599616725410731686;838.3671;10362
2024-05-21T20:58:58.091;599616725418422849;846.0582;10322
2024-05-21T20:58:58.098;599616725426114012;853.7494;10238
2024-05-21T20:58:58.106;599616725433805175;861.44055;10045
2024-05-21T20:58:58.114;599616725441496338;869.1317;9955
2024-05-21T20:58:58.121;599616725449187501;876.82294;9938
2024-05-21T20:58:58.129;599616725456878664;884.51404;9742
2024-05-21T20:58:58.137;599616725464569827;892.20526;9535
2024-05-21T20:58:58.144;599616725472260990;899.89636;9473
2024-05-21T20:58:58.152;599616725479952153;907.5875;9397
2024-05-21T20:58:58.160;599616725487643316;915.27875;9275
2024-05-21T20:58:58.167;599616725495334479;922.96985;9161
2024-05-21T20:58:58.175;599616725503025642;930.6611;9075
2024-05-21T20:58:58.183;599616725510716805;938.3522;9029
2024-05-21T20:58:58.191;599616725518407968;946.0434;8929
2024-05-21T20:58:58.198;599616725526099131;953.73456;8760
2024-05-21T20:58:58.206;599616725533790294;961.42566;8681
2024-05-21T20:58:58.214;599616725541481457;969.1169;8657
2024-05-21T20:58:58.221;599616725549172620;976.808;8557
2024-05-21T20:58:58.229;599616725556863783;984.4992;8450
2024-05-21T20:58:58.237;599616725564554946;992.1903;8386
2024-05-21T20:58:58.244;599616725572246109;999.8815;8278
2024-05-21T20:58:58.252;599616725579937272;1007.5727;8150
2024-05-21T20:58:58.260;599616725587628435;1015.2638;8085
2024-05-21T20:58:58.267;599616725595319598;1022.955;8080
2024-05-21T20:58:58.275;599616725603010761;1030.6461;7956
2024-05-21T20:58:58.283;599616725610701924;1038.3374;7654
2024-05-21T20:58:58.291;599616725618393087;1046.0284;7470
2024-05-21T20:58:58.298;599616725626084250;1053.7196;7537
2024-05-21T20:58:58.306;599616725633775413;1061.4108;7699
2024-05-21T20:58:58.314;599616725641466576;1069.1019;7899
2024-05-21T20:58:58.321;599616725649157739;1076.7931;8004
2024-05-21T20:58:58.329;599616725656848902;1084.4844;7663
2024-05-21T20:58:58.337;599616725664540065;1092.1755;7043
2024-05-21T20:58:58.344;599616725672231228;1099.8666;6762
2024-05-21T20:58:58.352;599616725679922391;1107.5577;6759
2024-05-21T20:58:58.360;599616725687613554;1115.2489;6685
2024-05-21T20:58:58.367;599616725695304722;1122.9402;6533
2024-05-21T20:58:58.375;599616725702995885;1130.6313;6340
2024-05-21T20:58:58.383;599616725710687048;1138.3224;6194
2024-05-21T20:58:58.391;599616725718378211;1146.0135;6161
2024-05-21T20:58:58.398;599616725726069374;1153.7047;6116
2024-05-21T20:58:58.406;599616725733760537;1161.396;6008
2024-05-21T20:58:58.414;599616725741451700;1169.0872;5953
2024-05-21T20:58:58.421;599616725749142863;1176.7782;5951
2024-05-21T20:58:58.429;599616725756834026;1184.4694;5837
2024-05-21T20:58:58.437;599616725764525189;1192.1606;5624
2024-05-21T20:58:58.444;599616725772216352;1199.8518;5536
2024-05-21T20:58:58.452;599616725779907515;1207.543;5567
2024-05-21T20:58:58.460;599616725787598678;1215.234;5524
2024-05-21T20:58:58.467;599616725795289841;1222.9252;5422
2024-05-21T20:58:58.475;599616725802981004;1230.6165;5372
2024-05-21T20:58:58.483;599616725810672167;1238.3076;5369
2024-05-21T20:58:58.490;599616725818363330;1245.9988;5329
2024-05-21T20:58:58.498;599616725826054493;1253.6898;5260
2024-05-21T20:58:58.506;599616725833745656;1261.381;5233
2024-05-21T20:58:58.514;599616725841436819;1269.0723;5193
2024-05-21T20:58:58.521;599616725849127982;1276.7634;5086
2024-05-21T20:58:58.529;599616725856819145;1284.4545;4997
2024-05-21T20:58:58.537;599616725864510308;1292.1456;4959
2024-05-21T20:58:58.544;599616725872201471;1299.8369;4911
2024-05-21T20:58:58.552;599616725879892634;1307.5281;4840
2024-05-21T20:58:58.560;599616725887583797;1315.2192;4752
2024-05-21T20:58:58.567;599616725895274960;1322.9103;4683
2024-05-21T20:58:58.575;599616725902966123;1330.6014;4647
2024-05-21T20:58:58.583;599616725910657286;1338.2927;4592
2024-05-21T20:58:58.590;599616725918348449;1345.9839;4535
2024-05-21T20:58:58.598;599616725926039612;1353.675;4520
2024-05-21T20:58:58.606;599616725933730775;1361.3661;4489
2024-05-21T20:58:58.614;599616725941421938;1369.0573;4394
2024-05-21T20:58:58.621;599616725949113101;1376.7485;4291
2024-05-21T20:58:58.629;599616725956804264;1384.4397;4260
2024-05-21T20:58:58.637;599616725964495427;1392.1309;4241
2024-05-21T20:58:58.644;599616725972186590;1399.8219;4168
2024-05-21T20:58:58.652;599616725979877753;1407.5131;4108
2024-05-21T20:58:58.660;599616725987568916;1415.2043;4082
2024-05-21T20:58:58.667;599616725995260079;1422.8955;4044
2024-05-21T20:58:58.675;599616726002951242;1430.5867;3991
2024-05-21T20:58:58.683;599616726010642405;1438.2777;3960
2024-05-21T20:58:58.690;599616726018333568;1445.969;3939
2024-05-21T20:58:58.698;599616726026024731;1453.6602;3886
2024-05-21T20:58:58.706;599616726033715894;1461.3513;3805
2024-05-21T20:58:58.714;599616726041407057;1469.0425;3760
2024-05-21T20:58:58.721;599616726049098220;1476.7335;3741
2024-05-21T20:58:58.729;599616726056789383;1484.4248;3693
2024-05-21T20:58:58.737;599616726064480546;1492.116;3629
2024-05-21T20:58:58.744;599616726072171709;1499.8071;3586
2024-05-21T20:58:58.752;599616726079862872;1507.4983;3555
2024-05-21T20:58:58.760;599616726087554035;1515.1893;3519
2024-05-21T20:58:58.767;599616726095245198;1522.8806;3483
2024-05-21T20:58:58.775;599616726102936361;1530.5718;3469
2024-05-21T20:58:58.783;599616726110627524;1538.263;3393
2024-05-21T20:58:58.790;599616726118318687;1545.9541;3228
2024-05-21T20:58:58.798;599616726126009850;1553.6451;3147
2024-05-21T20:58:58.806;599616726133701013;1561.3364;3166
2024-05-21T20:58:58.814;599616726141392176;1569.0276;3152
2024-05-21T20:58:58.821;599616726149083339;1576.7188;3111
2024-05-21T20:58:58.829;599616726156774502;1584.4099;3087
2024-05-21T20:58:58.837;599616726164465665;1592.1011;3023
2024-05-21T20:58:58.844;599616726172156828;1599.7922;2892
2024-05-21T20:58:58.852;599616726179847991;1607.4834;2873
2024-05-21T20:58:58.860;599616726187539154;1615.1746;3085
2024-05-21T20:58:58.867;599616726195230317;1622.8657;3412
2024-05-21T20:58:58.875;599616726202921480;1630.5569;3507
2024-05-21T20:58:58.883;599616726210612643;1638.248;3068
2024-05-21T20:58:58.890;599616726218303806;1645.9392;2489
2024-05-21T20:58:58.898;599616726225994969;1653.6304;2355
2024-05-21T20:58:58.906;599616726233686132;1661.3214;2417
2024-05-21T20:58:58.914;599616726241377295;1669.0127;2322
2024-05-21T20:58:58.921;599616726249068458;1676.7039;2243
2024-05-21T20:58:58.929;599616726256744580;1684.38;2262
2024-05-21T20:58:58.937;599616726264435952;1692.0713;2238
2024-05-21T20:58:58.944;599616726272127324;1699.7627;2188
2024-05-21T20:58:58.952;599616726279818696;1707.4541;2193
2024-05-21T20:58:58.960;599616726287510068;1715.1455;2205
2024-05-21T20:58:58.967;599616726295201440;1722.8369;2174
2024-05-21T20:58:58.975;599616726302892812;1730.5282;2131
2024-05-21T20:58:58.983;599616726310584184;1738.2195;2119
2024-05-21T20:58:58.990;599616726318275556;1745.9109;2126
2024-05-21T20:58:58.998;599616726325966928;1753.6023;2081
2024-05-21T20:58:59.006;599616726333658300;1761.2937;2002
2024-05-21T20:58:59.013;599616726341349672;1768.9851;1991
2024-05-21T20:58:59.021;599616726349041044;1776.6765;2019
2024-05-21T20:58:59.029;599616726356732416;1784.3679;2014
2024-05-21T20:58:59.037;599616726364423788;1792.0591;2005
2024-05-21T20:58:59.044;599616726372115160;1799.7505;2022
2024-05-21T20:58:59.052;599616726379806532;1807.4419;2043
2024-05-21T20:58:59.060;599616726387497904;1815.1333;2038
2024-05-21T20:58:59.067;599616726395189276;1822.8247;2002
2024-05-21T20:58:59.075;599616726402880648;1830.5161;1974
2024-05-21T20:58:59.083;599616726410572020;1838.2074;1957
2024-05-21T20:58:59.090;599616726418263392;1845.8988;1931
2024-05-21T20:58:59.098;599616726425954764;1853.5901;1888
2024-05-21T20:58:59.106;599616726433646136;1861.2815;1831
2024-05-21T20:58:59.113;599616726441337508;1868.9729;1754
2024-05-21T20:58:59.121;599616726449028880;1876.6643;1707
2024-05-21T20:58:59.129;599616726456720252;1884.3556;1707
2024-05-21T20:58:59.137;599616726464411624;1892.047;1712
2024-05-21T20:58:59.144;599616726472102996;1899.7384;1704
2024-05-21T20:58:59.152;599616726479794368;1907.4298;1688
2024-05-21T20:58:59.160;599616726487485740;1915.1211;1664
2024-05-21T20:58:59.167;599616726495177112;1922.8125;1657
2024-05-21T20:58:59.175;599616726502868484;1930.5039;1657
2024-05-21T20:58:59.183;599616726510559856;1938.1952;1642
2024-05-21T20:58:59.190;599616726518251228;1945.8866;1642
2024-05-21T20:58:59.198;599616726525942600;1953.578;1650
2024-05-21T20:58:59.206;599616726533633972;1961.2694;1623
2024-05-21T20:58:59.213;599616726541325344;1968.9608;1585
2024-05-21T20:58:59.221;599616726549016716;1976.6521;1583
2024-05-21T20:58:59.229;599616726556708088;1984.3434;1592
2024-05-21T20:58:59.237;599616726564399460;1992.0348;1578
2024-05-21T20:58:59.244;599616726572090832;1999.7262;1549
2024-05-21T20:58:59.252;599616726579782204;2007.4176;1533
2024-05-21T20:58:59.260;599616726587473576;2015.109;1533
2024-05-21T20:58:59.267;599616726595164948;2022.8004;1516
2024-05-21T20:58:59.275;599616726602856320;2030.4918;1487
2024-05-21T20:58:59.283;599616726610547692;2038.183;1456
2024-05-21T20:58:59.290;599616726618239064;2045.8744;1382
2024-05-21T20:58:59.298;599616726625930436;2053.566;1292
2024-05-21T20:58:59.306;599616726633621808;2061.2573;1282
2024-05-21T20:58:59.313;599616726641313180;2068.9485;1320
2024-05-21T20:58:59.321;599616726649004552;2076.64;1320
2024-05-21T20:58:59.329;599616726656695924;2084.3313;1301
2024-05-21T20:58:59.337;599616726664387296;2092.0227;1297
2024-05-21T20:58:59.344;599616726672078668;2099.714;1282
2024-05-21T20:58:59.352;599616726679770040;2107.4055;1237
2024-05-21T20:58:59.360;599616726687461412;2115.097;1175
2024-05-21T20:58:59.367;599616726695152784;2122.7883;1118
2024-05-21T20:58:59.375;599616726702844156;2130.4795;1065
2024-05-21T20:58:59.383;599616726710535528;2138.171;1037
2024-05-21T20:58:59.390;599616726718226900;2145.8623;1108
2024-05-21T20:58:59.398;599616726725918272;2153.5537;1404
2024-05-21T20:58:59.406;599616726733609644;2161.2449;1778
2024-05-21T20:58:59.413;599616726741301016;2168.9365;1778
2024-05-21T20:58:59.421;599616726748992388;2176.6277;1266
2024-05-21T20:58:59.429;599616726756683760;2184.3193;753
2024-05-21T20:58:59.437;599616726764375132;2192.0105;686
2024-05-21T20:58:59.444;599616726772066504;2199.702;794
2024-05-21T20:58:59.452;599616726779757876;2207.3933;748
2024-05-21T20:58:59.460;599616726787449248;2215.0845;698
2024-05-21T20:58:59.467;599616726795140620;2222.7761;748
2024-05-21T20:58:59.475;599616726802831992;2230.4673;758
2024-05-21T20:58:59.483;599616726810523364;2238.159;708
2024-05-21T20:58:59.490;599616726818214744;2245.85;703
2024-05-21T20:58:59.498;599616726825906116;2253.5417;739
2024-05-21T20:58:59.506;599616726833597488;2261.233;743
2024-05-21T20:58:59.513;599616726841288860;2268.924;736
2024-05-21T20:58:59.521;599616726848980232;2276.6157;753
2024-05-21T20:58:59.529;599616726856671604;2284.307;748
2024-05-21T20:58:59.536;599616726864362976;2291.9985;698
2024-05-21T20:58:59.544;599616726872054348;2299.6897;655
2024-05-21T20:58:59.552;599616726879745720;2307.381;681
2024-05-21T20:58:59.560;599616726887437092;2315.0725;727
2024-05-21T20:58:59.567;599616726895128464;2322.7637;724
2024-05-21T20:58:59.575;599616726902819836;2330.4553;715
2024-05-21T20:58:59.583;599616726910511208;2338.1465;753
2024-05-21T20:58:59.590;599616726918202580;2345.8381;784
2024-05-21T20:58:59.598;599616726925893952;2353.5293;755
2024-05-21T20:58:59.606;599616726933585324;2361.2207;724
2024-05-21T20:58:59.613;599616726941276696;2368.912;724
2024-05-21T20:58:59.621;599616726948968068;2376.6033;715
2024-05-21T20:58:59.629;599616726956659440;2384.295;686
2024-05-21T20:58:59.636;599616726964350812;2391.986;672
2024-05-21T20:58:59.644;599616726972042184;2399.6777;674
2024-05-21T20:58:59.652;599616726979733556;2407.369;674
2024-05-21T20:58:59.660;599616726987424928;2415.0603;650
2024-05-21T20:58:59.667;599616726995116300;2422.7517;634
2024-05-21T20:58:59.675;599616727002807672;2430.443;658
2024-05-21T20:58:59.683;599616727010499044;2438.1345;684
2024-05-21T20:58:59.690;599616727018190416;2445.8257;681
2024-05-21T20:58:59.698;599616727025881788;2453.517;674
2024-05-21T20:58:59.706;599616727033573160;2461.2085;684
2024-05-21T20:58:59.713;599616727041264532;2468.9;677
2024-05-21T20:58:59.721;599616727048955904;2476.5913;658
2024-05-21T20:58:59.729;599616727056647276;2484.2827;662
2024-05-21T20:58:59.736;599616727064338648;2491.974;686
2024-05-21T20:58:59.744;599616727072030020;2499.6655;686
2024-05-21T20:58:59.752;599616727079721392;2507.3567;665
2024-05-21T20:58:59.760;599616727087412764;2515.048;653
2024-05-21T20:58:59.767;599616727095104136;2522.7395;667
2024-05-21T20:58:59.775;599616727102795508;2530.431;674
2024-05-21T20:58:59.783;599616727110486880;2538.1223;636
2024-05-21T20:58:59.790;599616727118178252;2545.8137;562
2024-05-21T20:58:59.798;599616727125869624;2553.5051;517
2024-05-21T20:58:59.806;599616727133560996;2561.1963;510
2024-05-21T20:58:59.813;599616727141252368;2568.8877;503
2024-05-21T20:58:59.821;599616727148943740;2576.579;510
2024-05-21T20:58:59.829;599616727156635112;2584.2705;550
2024-05-21T20:58:59.836;599616727164326484;2591.962;574
2024-05-21T20:58:59.844;599616727172017856;2599.6533;543
2024-05-21T20:58:59.852;599616727179709228;2607.3447;503
2024-05-21T20:58:59.860;599616727187400600;2615.036;519
2024-05-21T20:58:59.867;599616727195091972;2622.7275;543
2024-05-21T20:58:59.875;599616727202783344;2630.4187;531
2024-05-21T20:58:59.883;599616727210474716;2638.11;550
2024-05-21T20:58:59.890;599616727218166088;2645.8015;579
2024-05-21T20:58:59.898;599616727225857460;2653.4927;557
2024-05-21T20:58:59.906;599616727233548832;2661.1843;526
2024-05-21T20:58:59.913;599616727241240204;2668.8755;515
2024-05-21T20:58:59.921;599616727248931576;2676.5671;474
2024-05-21T20:58:59.929;599616727256622948;2684.2583;438
2024-05-21T20:58:59.936;599616727264314320;2691.9497;541
2024-05-21T20:58:59.944;599616727272005692;2699.641;856
2024-05-21T20:58:59.952;599616727279697064;2707.3323;1220
2024-05-21T20:58:59.960;599616727287388436;2715.024;1239
2024-05-21T20:58:59.967;599616727295079808;2722.715;743
2024-05-21T20:58:59.975;599616727302771180;2730.4067;224
2024-05-21T20:58:59.983;599616727310462552;2738.098;169
2024-05-21T20:58:59.990;599616727318153924;2745.7896;257
2024-05-21T20:58:59.998;599616727325845296;2753.4807;183
2024-05-21T20:59:00.006;599616727333536668;2761.1719;157
2024-05-21T20:59:00.013;599616727341228040;2768.8635;214
2024-05-21T20:59:00.021;599616727348919412;2776.5547;214
2024-05-21T20:59:00.029;599616727356610784;2784.2463;202
2024-05-21T20:59:00.036;599616727364302156;2791.9375;221
2024-05-21T20:59:00.044;599616727371993528;2799.629;228
2024-05-21T20:59:00.052;599616727379715004;2807.3503;228
2024-05-21T20:59:00.060;599616727387405958;2815.0413;255
2024-05-21T20:59:00.067;599616727395096912;2822.7322;290
2024-05-21T20:59:00.075;599616727402787866;2830.4233;298
2024-05-21T20:59:00.083;599616727410478820;2838.1143;269
2024-05-21T20:59:00.090;599616727418169774;2845.8052;240
2024-05-21T20:59:00.098;599616727425860728;2853.496;236
2024-05-21T20:59:00.106;599616727433551682;2861.187;231
2024-05-21T20:59:00.113;599616727441242636;2868.8782;209
2024-05-21T20:59:00.121;599616727448933590;2876.569;224
2024-05-21T20:59:00.129;599616727456624544;2884.2598;267
2024-05-21T20:59:00.136;599616727464315498;2891.951;271
2024-05-21T20:59:00.144;599616727472006452;2899.6418;267
2024-05-21T20:59:00.152;599616727479697406;2907.3328;300
2024-05-21T20:59:00.160;599616727487388360;2915.024;329
2024-05-21T20:59:00.167;599616727495079314;2922.7146;305
2024-05-21T20:59:00.175;599616727502770268;2930.4055;271
2024-05-21T20:59:00.183;599616727510461222;2938.0967;283
2024-05-21T20:59:00.190;599616727518152176;2945.7876;302
2024-05-21T20:59:00.198;599616727525843130;2953.4785;302
2024-05-21T20:59:00.206;599616727533534084;2961.1694;312
2024-05-21T20:59:00.213;599616727541225038;2968.8604;326
2024-05-21T20:59:00.221;599616727548915992;2976.5515;321
2024-05-21T20:59:00.229;599616727556606946;2984.2424;324
2024-05-21T20:59:00.236;599616727564297900;2991.933;348
2024-05-21T20:59:00.244;599616727571988854;2999.6243;371
2024-05-21T20:59:00.252;599616727579679808;3007.3152;386
2024-05-21T20:59:00.260;599616727587370762;3015.006;395
2024-05-21T20:59:00.267;599616727595061716;3022.6973;393
2024-05-21T20:59:00.275;599616727602752670;3030.388;398
2024-05-21T20:59:00.283;599616727610443624;3038.0789;417
2024-05-21T20:59:00.290;599616727618134578;3045.77;412
2024-05-21T20:59:00.298;599616727625825532;3053.461;360
2024-05-21T20:59:00.306;599616727633516486;3061.152;319
2024-05-21T20:59:00.313;599616727641207440;3068.8428;321
2024-05-21T20:59:00.321;599616727648898394;3076.5337;314
2024-05-21T20:59:00.329;599616727656589348;3084.2249;317
2024-05-21T20:59:00.336;599616727664280302;3091.9158;317
2024-05-21T20:59:00.344;599616727671971256;3099.6064;281
2024-05-21T20:59:00.352;599616727679662210;3107.2976;259
2024-05-21T20:59:00.359;599616727687353164;3114.9885;274
2024-05-21T20:59:00.367;599616727695044118;3122.6794;290
2024-05-21T20:59:00.375;599616727702735072;3130.3706;309
2024-05-21T20:59:00.383;599616727710426026;3138.0613;324
2024-05-21T20:59:00.390;599616727718116980;3145.7524;343
2024-05-21T20:59:00.398;599616727725807934;3153.4434;371
2024-05-21T20:59:00.406;599616727733498888;3161.1343;379
2024-05-21T20:59:00.413;599616727741189842;3168.8254;364
2024-05-21T20:59:00.421;599616727748880796;3176.516;379
2024-05-21T20:59:00.429;599616727756571750;3184.207;410
2024-05-21T20:59:00.436;599616727764262704;3191.8982;417
2024-05-21T20:59:00.444;599616727771953658;3199.589;398
2024-05-21T20:59:00.452;599616727779644612;3207.28;360
2024-05-21T20:59:00.459;599616727787335566;3214.971;314
2024-05-21T20:59:00.467;599616727795026520;3222.6619;298
2024-05-21T20:59:00.475;599616727802717474;3230.3528;398
2024-05-21T20:59:00.483;599616727810408428;3238.044;724
2024-05-21T20:59:00.490;599616727818099382;3245.7346;1111
2024-05-21T20:59:00.498;599616727825790336;3253.4258;1101
2024-05-21T20:59:00.506;599616727833481290;3261.1167;569
2024-05-21T20:59:00.513;599616727841172244;3268.8076;73
2024-05-21T20:59:00.521;599616727848863198;3276.4988;50
2024-05-21T20:59:00.529;599616727856554152;3284.1895;150
2024-05-21T20:59:00.536;599616727864245106;3291.8804;71
2024-05-21T20:59:00.544;599616727871936060;3299.5715;33
2024-05-21T20:59:00.552;599616727879627014;3307.2625;78
2024-05-21T20:59:00.559;599616727887317968;3314.9534;76
2024-05-21T20:59:00.567;599616727895008922;3322.6443;73
2024-05-21T20:59:00.575;599616727902699876;3330.3352;107
2024-05-21T20:59:00.583;599616727910390830;3338.0261;83
2024-05-21T20:59:00.590;599616727918081784;3345.7173;14
2024-05-21T20:59:00.598;599616727925772738;3353.4082;19
2024-05-21T20:59:00.606;599616727933463692;3361.099;83
2024-05-21T20:59:00.613;599616727941124554;3368.76;107
2024-05-21T20:59:00.621;599616727948815926;3376.4514;109
2024-05-21T20:59:00.629;599616727956507298;3384.1426;140
2024-05-21T20:59:00.636;599616727964198670;3391.8342;169
2024-05-21T20:59:00.644;599616727971890042;3399.5254;154
2024-05-21T20:59:00.652;599616727979581414;3407.2168;114
2024-05-21T20:59:00.659;599616727987272786;3414.9082;128
2024-05-21T20:59:00.667;599616727994964158;3422.5996;188
2024-05-21T20:59:00.675;599616728002655530;3430.291;197
2024-05-21T20:59:00.682;599616728010346902;3437.9822;171
2024-05-21T20:59:00.690;599616728018038274;3445.6738;183
2024-05-21T20:59:00.698;599616728025729646;3453.365;214
2024-05-21T20:59:00.706;599616728033421018;3461.0564;212
2024-05-21T20:59:00.713;599616728041112390;3468.7478;193
2024-05-21T20:59:00.721;599616728048803762;3476.439;193
2024-05-21T20:59:00.729;599616728056495134;3484.1306;195
2024-05-21T20:59:00.736;599616728064186506;3491.8218;188
2024-05-21T20:59:00.744;599616728071877878;3499.5134;193
2024-05-21T20:59:00.752;599616728079569250;3507.2046;216
2024-05-21T20:59:00.759;599616728087260622;3514.8962;240
2024-05-21T20:59:00.767;599616728094951994;3522.5874;240
2024-05-21T20:59:00.775;599616728102643366;3530.2786;224
2024-05-21T20:59:00.782;599616728110334738;3537.9702;233
2024-05-21T20:59:00.790;599616728118026110;3545.6614;262
2024-05-21T20:59:00.798;599616728125717482;3553.353;236
2024-05-21T20:59:00.806;599616728133408854;3561.0442;174
2024-05-21T20:59:00.813;599616728141100226;3568.7358;171
2024-05-21T20:59:00.821;599616728148791598;3576.427;200
2024-05-21T20:59:00.829;599616728156482970;3584.1182;178
2024-05-21T20:59:00.836;599616728164174342;3591.8098;150
2024-05-21T20:59:00.844;599616728171865714;3599.501;183
2024-05-21T20:59:00.852;599616728179557086;3607.1926;214
2024-05-21T20:59:00.859;599616728187248458;3614.8838;202
2024-05-21T20:59:00.867;599616728194939830;3622.5752;195
2024-05-21T20:59:00.875;599616728202631202;3630.2666;224
2024-05-21T20:59:00.882;599616728210322574;3637.958;238
2024-05-21T20:59:00.890;599616728218013946;3645.6494;233
2024-05-21T20:59:00.898;599616728225705318;3653.3406;252
2024-05-21T20:59:00.906;599616728233396690;3661.0322;274
2024-05-21T20:59:00.913;599616728241088062;3668.7234;264
2024-05-21T20:59:00.921;599616728248779434;3676.4148;267
2024-05-21T20:59:00.929;599616728256470806;3684.1062;300
2024-05-21T20:59:00.936;599616728264162178;3691.7976;331
2024-05-21T20:59:00.944;599616728271853550;3699.489;333
2024-05-21T20:59:00.952;599616728279544922;3707.1802;331
2024-05-21T20:59:00.959;599616728287236294;3714.8718;338
2024-05-21T20:59:00.967;599616728294927666;3722.563;348
2024-05-21T20:59:00.975;599616728302619038;3730.2544;348
2024-05-21T20:59:00.982;599616728310310410;3737.9458;350
2024-05-21T20:59:00.990;599616728318001782;3745.6372;374
2024-05-21T20:59:00.998;599616728325693154;3753.3286;374
2024-05-21T20:59:01.006;599616728333384526;3761.02;314
2024-05-21T20:59:01.013;599616728341075898;3768.7112;309
2024-05-21T20:59:01.021;599616728348767270;3776.4026;538
2024-05-21T20:59:01.029;599616728356458642;3784.094;970
2024-05-21T20:59:01.036;599616728364150014;3791.7854;1239
2024-05-21T20:59:01.044;599616728371841386;3799.4768;968
2024-05-21T20:59:01.052;599616728379532758;3807.1682;410
2024-05-21T20:59:01.059;599616728387224130;3814.8596;197
2024-05-21T20:59:01.067;599616728394915502;3822.5508;331
2024-05-21T20:59:01.075;599616728402606874;3830.2422;333
2024-05-21T20:59:01.082;599616728410298246;3837.9336;224
2024-05-21T20:59:01.090;599616728417989618;3845.625;238
2024-05-21T20:59:01.098;599616728425680990;3853.3164;259
2024-05-21T20:59:01.106;599616728433372362;3861.0078;226
2024-05-21T20:59:01.113;599616728441063734;3868.6992;255
2024-05-21T20:59:01.121;599616728448755106;3876.3904;300
2024-05-21T20:59:01.129;599616728456446478;3884.082;288
2024-05-21T20:59:01.136;599616728464137850;3891.7732;276
2024-05-21T20:59:01.144;599616728471829222;3899.4646;295
2024-05-21T20:59:01.152;599616728479520594;3907.156;314
2024-05-21T20:59:01.159;599616728487211966;3914.8472;319
2024-05-21T20:59:01.167;599616728494903338;3922.5388;324
2024-05-21T20:59:01.175;599616728502609766;3930.245;355
2024-05-21T20:59:01.182;599616728510300929;3937.9363;383
2024-05-21T20:59:01.190;599616728517992092;3945.6274;379
2024-05-21T20:59:01.198;599616728525683255;3953.3186;381
2024-05-21T20:59:01.206;599616728533374418;3961.01;424
2024-05-21T20:59:01.213;599616728541065581;3968.701;455
2024-05-21T20:59:01.221;599616728548756744;3976.392;450
2024-05-21T20:59:01.229;599616728556447907;3984.0833;441
2024-05-21T20:59:01.236;599616728564139070;3991.7744;431
2024-05-21T20:59:01.244;599616728571830233;3999.4658;386
2024-05-21T20:59:01.252;599616728579521396;4007.1567;312
2024-05-21T20:59:01.259;599616728587212559;4014.848;274
2024-05-21T20:59:01.267;599616728594903722;4022.539;288
2024-05-21T20:59:01.275;599616728602594885;4030.2302;274
2024-05-21T20:59:01.282;599616728610286048;4037.9216;219
2024-05-21T20:59:01.290;599616728617977211;4045.6125;205
2024-05-21T20:59:01.298;599616728625668374;4053.3037;193
2024-05-21T20:59:01.305;599616728633359537;4060.9949;114
2024-05-21T20:59:01.313;599616728641050700;4068.686;61
2024-05-21T20:59:01.321;599616728648741863;4076.3774;61
2024-05-21T20:59:01.329;599616728656433026;4084.0684;35
2024-05-21T20:59:01.336;599616728664124189;4091.7595;16
2024-05-21T20:59:01.344;599616728671815352;4099.4507;45
2024-05-21T20:59:01.352;599616728679506515;4107.142;73
2024-05-21T20:59:01.359;599616728687197678;4114.833;95
2024-05-21T20:59:01.367;599616728694888841;4122.524;107
2024-05-21T20:59:01.375;599616728702580004;4130.2153;95
2024-05-21T20:59:01.382;599616728710271167;4137.9067;104
2024-05-21T20:59:01.390;599616728717962330;4145.5977;138
2024-05-21T20:59:01.398;599616728725653493;4153.289;140
2024-05-21T20:59:01.405;599616728733344656;4160.98;138
2024-05-21T20:59:01.413;599616728741035819;4168.6714;171
2024-05-21T20:59:01.421;599616728748726982;4176.3623;185
2024-05-21T20:59:01.429;599616728756418145;4184.0537;169
2024-05-21T20:59:01.436;599616728764109308;4191.7446;178
2024-05-21T20:59:01.444;599616728771800471;4199.4355;221
2024-05-21T20:59:01.452;599616728779491634;4207.127;240
2024-05-21T20:59:01.459;599616728787182797;4214.8184;228
2024-05-21T20:59:01.467;599616728794873960;4222.5093;226
2024-05-21T20:59:01.475;599616728802565123;4230.2007;252
2024-05-21T20:59:01.482;599616728810256286;4237.8916;264
2024-05-21T20:59:01.490;599616728817947449;4245.583;262
2024-05-21T20:59:01.498;599616728825638612;4253.274;276
2024-05-21T20:59:01.505;599616728833329775;4260.9653;298
2024-05-21T20:59:01.513;599616728841020938;4268.6562;276
2024-05-21T20:59:01.521;599616728848712101;4276.347;188
2024-05-21T20:59:01.529;599616728856403264;4284.0386;112
2024-05-21T20:59:01.536;599616728864094427;4291.73;185
2024-05-21T20:59:01.544;599616728871785590;4299.4214;491
2024-05-21T20:59:01.552;599616728879476753;4307.112;882
2024-05-21T20:59:01.559;599616728887167916;4314.803;958
2024-05-21T20:59:01.567;599616728894859079;4322.4946;479
2024-05-21T20:59:01.575;599616728902550242;4330.1855;-112
2024-05-21T20:59:01.582;599616728910241405;4337.877;-247
2024-05-21T20:59:01.590;599616728917932568;4345.568;-121
2024-05-21T20:59:01.598;599616728925623731;4353.259;-140
2024-05-21T20:59:01.605;599616728933314894;4360.95;-219
2024-05-21T20:59:01.613;599616728941006057;4368.6416;-200
2024-05-21T20:59:01.621;599616728948697220;4376.333;-159
2024-05-21T20:59:01.629;599616728956388383;4384.0234;-150
2024-05-21T20:59:01.636;599616728964079546;4391.715;-135
2024-05-21T20:59:01.644;599616728971770709;4399.4062;-126
2024-05-21T20:59:01.652;599616728979461872;4407.097;-123
2024-05-21T20:59:01.659;599616728987153035;4414.7886;-100
2024-05-21T20:59:01.667;599616728994844198;4422.4795;-73
2024-05-21T20:59:01.675;599616729002535361;4430.1704;-52
2024-05-21T20:59:01.682;599616729010226524;4437.862;-11
2024-05-21T20:59:01.690;599616729017917687;4445.553;21
2024-05-21T20:59:01.698;599616729025608850;4453.2446;16
2024-05-21T20:59:01.705;599616729033300013;4460.935;30
2024-05-21T20:59:01.713;599616729040991176;4468.6265;88
2024-05-21T20:59:01.721;599616729048682339;4476.318;147
2024-05-21T20:59:01.729;599616729056373502;4484.009;181
2024-05-21T20:59:01.736;599616729064064670;4491.7;183
2024-05-21T20:59:01.744;599616729071755833;4499.391;185
2024-05-21T20:59:01.752;599616729079446996;4507.082;212
2024-05-21T20:59:01.759;599616729087138159;4514.7734;226
2024-05-21T20:59:01.767;599616729094829322;4522.465;214
2024-05-21T20:59:01.775;599616729102520485;4530.1562;221
2024-05-21T20:59:01.782;599616729110211648;4537.847;205
2024-05-21T20:59:01.790;599616729117902811;4545.538;104
2024-05-21T20:59:01.798;599616729125593974;4553.2295;14
2024-05-21T20:59:01.805;599616729133285137;4560.9204;-21
2024-05-21T20:59:01.813;599616729140976300;4568.612;-109
2024-05-21T20:59:01.821;599616729148667463;4576.303;-190
2024-05-21T20:59:01.828;599616729156358626;4583.9937;-166
2024-05-21T20:59:01.836;599616729164049789;4591.685;-131
2024-05-21T20:59:01.844;599616729171740952;4599.3765;-126
2024-05-21T20:59:01.852;599616729179432115;4607.068;-102
2024-05-21T20:59:01.859;599616729187123278;4614.759;-54
2024-05-21T20:59:01.867;599616729194814441;4622.4497;-23
2024-05-21T20:59:01.875;599616729202505604;4630.141;-23
2024-05-21T20:59:01.882;599616729210196767;4637.832;-28
2024-05-21T20:59:01.890;599616729217887930;4645.5234;-2
2024-05-21T20:59:01.898;599616729225579093;4653.215;40
2024-05-21T20:59:01.905;599616729233270256;4660.9053;54
2024-05-21T20:59:01.913;599616729240961419;4668.5967;59
2024-05-21T20:59:01.921;599616729248652582;4676.288;85
2024-05-21T20:59:01.928;599616729256343745;4683.9795;90
2024-05-21T20:59:01.936;599616729264034908;4691.6704;85
2024-05-21T20:59:01.944;599616729271726071;4699.3613;107
2024-05-21T20:59:01.952;599616729279417234;4707.0527;145
2024-05-21T20:59:01.959;599616729287108397;4714.7437;171
2024-05-21T20:59:01.967;599616729294799560;4722.435;169
2024-05-21T20:59:01.975;599616729302490723;4730.1265;162
2024-05-21T20:59:01.982;599616729310181886;4737.817;195
2024-05-21T20:59:01.990;599616729317873049;4745.5083;243
2024-05-21T20:59:01.998;599616729325564212;4753.1997;262
2024-05-21T20:59:02.005;599616729333255375;4760.891;271
2024-05-21T20:59:02.013;599616729340946538;4768.582;293
2024-05-21T20:59:02.021;599616729348637701;4776.273;298
2024-05-21T20:59:02.028;599616729356328864;4783.9644;281
2024-05-21T20:59:02.036;599616729364020027;4791.6553;286
2024-05-21T20:59:02.044;599616729371711190;4799.3467;288
2024-05-21T20:59:02.052;599616729379402353;4807.038;264
2024-05-21T20:59:02.059;599616729387093516;4814.7285;326
2024-05-21T20:59:02.067;599616729394784679;4822.42;610
2024-05-21T20:59:02.075;599616729402475842;4830.1113;980
2024-05-21T20:59:02.082;599616729410167005;4837.8027;994
2024-05-21T20:59:02.090;599616729417858168;4845.4937;493
2024-05-21T20:59:02.098;599616729425549331;4853.1846;23
2024-05-21T20:59:02.105;599616729433240494;4860.876;23
2024-05-21T20:59:02.113;599616729440931657;4868.567;102
2024-05-21T20:59:02.121;599616729448622820;4876.2583;-16
2024-05-21T20:59:02.128;599616729456313983;4883.9497;-66
2024-05-21T20:59:02.136;599616729464005146;4891.64;-26
2024-05-21T20:59:02.144;599616729471696309;4899.3315;-57
2024-05-21T20:59:02.152;599616729479387472;4907.023;-92
2024-05-21T20:59:02.159;599616729487078635;4914.7144;-73
2024-05-21T20:59:02.167;599616729494769798;4922.4053;-52
2024-05-21T20:59:02.175;599616729502460961;4930.096;-47
2024-05-21T20:59:02.182;599616729510152124;4937.7876;-40
2024-05-21T20:59:02.190;599616729517843287;4945.4785;-16
2024-05-21T20:59:02.198;599616729525534450;4953.17;-2
2024-05-21T20:59:02.205;599616729533225613;4960.8613;-4
2024-05-21T20:59:02.213;599616729540916776;4968.552;2
2024-05-21T20:59:02.221;599616729548607939;4976.243;52
2024-05-21T20:59:02.228;599616729556299102;4983.9346;114
2024-05-21T20:59:02.236;599616729563990265;4991.6255;150
2024-05-21T20:59:02.244;599616729571681428;4999.317;159
2024-05-21T20:59:02.252;599616729579372591;5007.008;171
2024-05-21T20:59:02.259;599616729587063754;5014.699;195
2024-05-21T20:59:02.267;599616729594754917;5022.39;202
2024-05-21T20:59:02.275;599616729602446080;5030.0815;190
2024-05-21T20:59:02.282;599616729610137243;5037.773;197
2024-05-21T20:59:02.290;599616729617828406;5045.4634;202
2024-05-21T20:59:02.298;599616729625504528;5053.14;174
2024-05-21T20:59:02.305;599616729633195900;5060.831;126
2024-05-21T20:59:02.313;599616729640887272;5068.5225;59
2024-05-21T20:59:02.321;599616729648578644;5076.2144;7
2024-05-21T20:59:02.328;599616729656270016;5083.906;23
2024-05-21T20:59:02.336;599616729663961388;5091.5967;42
2024-05-21T20:59:02.344;599616729671652760;5099.288;33
2024-05-21T20:59:02.351;599616729679344132;5106.9795;28
2024-05-21T20:59:02.359;599616729687035504;5114.671;7
2024-05-21T20:59:02.367;599616729694726876;5122.3623;-14
2024-05-21T20:59:02.375;599616729702418248;5130.0537;23
2024-05-21T20:59:02.382;599616729710109620;5137.745;57
2024-05-21T20:59:02.390;599616729717800992;5145.436;40
2024-05-21T20:59:02.398;599616729725492364;5153.128;45
2024-05-21T20:59:02.405;599616729733183736;5160.8193;88
2024-05-21T20:59:02.413;599616729740875108;5168.5103;119
2024-05-21T20:59:02.421;599616729748566480;5176.2017;123
2024-05-21T20:59:02.428;599616729756257852;5183.893;135
2024-05-21T20:59:02.436;599616729763949224;5191.585;152
2024-05-21T20:59:02.444;599616729771640596;5199.276;162
2024-05-21T20:59:02.451;599616729779331968;5206.9673;174
2024-05-21T20:59:02.459;599616729787023340;5214.6587;190
2024-05-21T20:59:02.467;599616729794714712;5222.35;212
2024-05-21T20:59:02.475;599616729802406084;5230.0415;226
2024-05-21T20:59:02.482;599616729810097456;5237.733;214
2024-05-21T20:59:02.490;599616729817788828;5245.4243;221
2024-05-21T20:59:02.498;599616729825480200;5253.115;267
2024-05-21T20:59:02.505;599616729833171572;5260.807;290
2024-05-21T20:59:02.513;599616729840862944;5268.4985;281
2024-05-21T20:59:02.521;599616729848554316;5276.1895;290
2024-05-21T20:59:02.528;599616729856245688;5283.881;302
2024-05-21T20:59:02.536;599616729863937060;5291.5723;290
2024-05-21T20:59:02.544;599616729871628432;5299.264;281
2024-05-21T20:59:02.551;599616729879319804;5306.955;274
2024-05-21T20:59:02.559;599616729887011176;5314.6465;224
2024-05-21T20:59:02.567;599616729894702548;5322.338;174
2024-05-21T20:59:02.575;599616729902393920;5330.03;252
2024-05-21T20:59:02.582;599616729910085292;5337.7207;593
2024-05-21T20:59:02.590;599616729917776664;5345.412;1053
2024-05-21T20:59:02.598;599616729925468036;5353.1035;1161
2024-05-21T20:59:02.605;599616729933159408;5360.7944;701
2024-05-21T20:59:02.613;599616729940850780;5368.4863;197
2024-05-21T20:59:02.621;599616729948542152;5376.1777;140
2024-05-21T20:59:02.628;599616729956233524;5383.869;207
2024-05-21T20:59:02.636;599616729963924896;5391.56;116
2024-05-21T20:59:02.644;599616729971616268;5399.2515;97
2024-05-21T20:59:02.651;599616729979307640;5406.9434;166
2024-05-21T20:59:02.659;599616729986999012;5414.6343;143
2024-05-21T20:59:02.667;599616729994690384;5422.3257;81
2024-05-21T20:59:02.675;599616730002381756;5430.017;81
2024-05-21T20:59:02.682;599616730010073128;5437.7085;76
2024-05-21T20:59:02.690;599616730017764500;5445.4;26
2024-05-21T20:59:02.698;599616730025455872;5453.0913;14
2024-05-21T20:59:02.705;599616730033147244;5460.7827;33
2024-05-21T20:59:02.713;599616730040838616;5468.4736;11
2024-05-21T20:59:02.721;599616730048529988;5476.1655;-9
2024-05-21T20:59:02.728;599616730056221360;5483.857;19
2024-05-21T20:59:02.736;599616730063912732;5491.5483;61
2024-05-21T20:59:02.744;599616730071604104;5499.2393;78
2024-05-21T20:59:02.751;599616730079295476;5506.9307;81
2024-05-21T20:59:02.759;599616730086986848;5514.6226;92
2024-05-21T20:59:02.767;599616730094678220;5522.314;121
2024-05-21T20:59:02.775;599616730102369592;5530.005;138
2024-05-21T20:59:02.782;599616730110060964;5537.6963;135
2024-05-21T20:59:02.790;599616730117752336;5545.3877;133
2024-05-21T20:59:02.798;599616730125443708;5553.079;104
2024-05-21T20:59:02.805;599616730133135080;5560.7705;35
2024-05-21T20:59:02.813;599616730140826452;5568.462;-16
2024-05-21T20:59:02.821;599616730148517824;5576.1533;-59
2024-05-21T20:59:02.828;599616730156209196;5583.844;-112
2024-05-21T20:59:02.836;599616730163900568;5591.536;-109
2024-05-21T20:59:02.844;599616730171591940;5599.2275;-83
2024-05-21T20:59:02.851;599616730179283312;5606.9185;-76
2024-05-21T20:59:02.859;599616730186974692;5614.61;-50
2024-05-21T20:59:02.867;599616730194666064;5622.302;-9
2024-05-21T20:59:02.874;599616730202357436;5629.993;11
2024-05-21T20:59:02.882;599616730210048808;5637.684;35
2024-05-21T20:59:02.890;599616730217740180;5645.3755;54
2024-05-21T20:59:02.898;599616730225431552;5653.067;4
2024-05-21T20:59:02.905;599616730233122924;5660.7583;-59
2024-05-21T20:59:02.913;599616730240814296;5668.4497;-21
2024-05-21T20:59:02.921;599616730248505668;5676.141;42
2024-05-21T20:59:02.928;599616730256197040;5683.8325;38
2024-05-21T20:59:02.936;599616730263888412;5691.5234;35
2024-05-21T20:59:02.944;599616730271579784;5699.2153;64
2024-05-21T20:59:02.951;599616730279271156;5706.9067;83
2024-05-21T20:59:02.959;599616730286962528;5714.5977;92
2024-05-21T20:59:02.967;599616730294653900;5722.289;116
2024-05-21T20:59:02.974;599616730302345272;5729.9805;145
2024-05-21T20:59:02.982;599616730310036644;5737.6724;154
2024-05-21T20:59:02.990;599616730317728016;5745.3633;150
2024-05-21T20:59:02.998;599616730325419388;5753.0547;164
2024-05-21T20:59:03.005;599616730333110760;5760.746;197
2024-05-21T20:59:03.013;599616730340802132;5768.438;224
2024-05-21T20:59:03.021;599616730348493504;5776.129;238
2024-05-21T20:59:03.028;599616730356184876;5783.8203;252
2024-05-21T20:59:03.036;599616730363876248;5791.5117;252
2024-05-21T20:59:03.044;599616730371567620;5799.2026;228
2024-05-21T20:59:03.051;599616730379258992;5806.8945;207
2024-05-21T20:59:03.059;599616730386950364;5814.586;226
2024-05-21T20:59:03.067;599616730394641736;5822.2773;267
2024-05-21T20:59:03.074;599616730402333108;5829.9683;264
2024-05-21T20:59:03.082;599616730410024480;5837.6597;209
2024-05-21T20:59:03.090;599616730417715852;5845.3516;202
2024-05-21T20:59:03.098;599616730425407224;5853.0425;391
2024-05-21T20:59:03.105;599616730433098596;5860.734;803
2024-05-21T20:59:03.113;599616730440789968;5868.4253;1168
2024-05-21T20:59:03.121;599616730448481340;5876.1167;1063
2024-05-21T20:59:03.128;599616730456172712;5883.808;519
2024-05-21T20:59:03.136;599616730463864084;5891.4995;154
2024-05-21T20:59:03.144;599616730471555456;5899.191;228
2024-05-21T20:59:03.151;599616730479246828;5906.882;314
2024-05-21T20:59:03.159;599616730486938200;5914.5737;228
2024-05-21T20:59:03.167;599616730494629572;5922.265;174
2024-05-21T20:59:03.174;599616730502320944;5929.9565;166
2024-05-21T20:59:03.182;599616730510012316;5937.6475;174
2024-05-21T20:59:03.190;599616730517703688;5945.339;205
2024-05-21T20:59:03.198;599616730525395060;5953.031;193
2024-05-21T20:59:03.205;599616730533086432;5960.7217;138
2024-05-21T20:59:03.213;599616730540777804;5968.413;116
2024-05-21T20:59:03.221;599616730548469176;5976.1045;90
2024-05-21T20:59:03.228;599616730556160548;5983.796;35
2024-05-21T20:59:03.236;599616730563851920;5991.4873;30
2024-05-21T20:59:03.244;599616730571543292;5999.1787;71
2024-05-21T20:59:03.251;599616730579234664;6006.87;88
2024-05-21T20:59:03.259;599616730586926036;6014.5615;78
2024-05-21T20:59:03.267;599616730594617408;6022.253;73
2024-05-21T20:59:03.274;599616730602308780;6029.9443;102
2024-05-21T20:59:03.282;599616730610000152;6037.6357;138
2024-05-21T20:59:03.290;599616730617691524;6045.3267;133
2024-05-21T20:59:03.298;599616730625382896;6053.018;97
2024-05-21T20:59:03.305;599616730633074268;6060.71;95
2024-05-21T20:59:03.313;599616730640765640;6068.4014;97
2024-05-21T20:59:03.321;599616730648457012;6076.0923;40
2024-05-21T20:59:03.328;599616730656148384;6083.7837;-30
2024-05-21T20:59:03.336;599616730663839756;6091.475;-28
2024-05-21T20:59:03.344;599616730671531128;6099.1665;-7
2024-05-21T20:59:03.351;599616730679222500;6106.858;-33
2024-05-21T20:59:03.359;599616730686913872;6114.5493;-50
2024-05-21T20:59:03.367;599616730694605244;6122.2407;-19
2024-05-21T20:59:03.374;599616730702296616;6129.9316;7
2024-05-21T20:59:03.382;599616730709987988;6137.6235;23
2024-05-21T20:59:03.390;599616730717679360;6145.315;45
2024-05-21T20:59:03.398;599616730725370732;6153.006;66
2024-05-21T20:59:03.405;599616730733062104;6160.6973;66
2024-05-21T20:59:03.413;599616730740753476;6168.389;69
2024-05-21T20:59:03.421;599616730748444856;6176.0806;90
2024-05-21T20:59:03.428;599616730756136228;6183.7715;114
2024-05-21T20:59:03.436;599616730763827600;6191.463;126
2024-05-21T20:59:03.444;599616730771518972;6199.1543;126
2024-05-21T20:59:03.451;599616730779210344;6206.846;133
2024-05-21T20:59:03.459;599616730786901716;6214.537;140
2024-05-21T20:59:03.467;599616730794593088;6222.2285;112
2024-05-21T20:59:03.474;599616730802284460;6229.92;69
2024-05-21T20:59:03.482;599616730809975832;6237.611;81
2024-05-21T20:59:03.490;599616730817667204;6245.3027;112
2024-05-21T20:59:03.497;599616730825358576;6252.994;95
2024-05-21T20:59:03.505;599616730833049948;6260.6855;78
2024-05-21T20:59:03.513;599616730840741320;6268.3765;114
2024-05-21T20:59:03.521;599616730848432692;6276.068;157
2024-05-21T20:59:03.528;599616730856124064;6283.76;154
2024-05-21T20:59:03.536;599616730863815436;6291.4507;128
2024-05-21T20:59:03.544;599616730871506808;6299.142;104
2024-05-21T20:59:03.551;599616730879198180;6306.8335;107
2024-05-21T20:59:03.559;599616730886889552;6314.5254;121
2024-05-21T20:59:03.567;599616730894580924;6322.2163;126
2024-05-21T20:59:03.574;599616730902272296;6329.9077;152
2024-05-21T20:59:03.582;599616730909963668;6337.599;183
2024-05-21T20:59:03.590;599616730917655040;6345.29;174
2024-05-21T20:59:03.597;599616730925346412;6352.982;150
2024-05-21T20:59:03.605;599616730933037784;6360.6733;143
2024-05-21T20:59:03.613;599616730940729156;6368.3647;178
2024-05-21T20:59:03.621;599616730948420528;6376.0557;395
2024-05-21T20:59:03.628;599616730956111900;6383.747;829
2024-05-21T20:59:03.636;599616730963803272;6391.439;1120
2024-05-21T20:59:03.644;599616730971494644;6399.13;865
2024-05-21T20:59:03.651;599616730979186016;6406.8213;305
2024-05-21T20:59:03.659;599616730986877388;6414.5127;90
2024-05-21T20:59:03.667;599616730994568760;6422.204;236
2024-05-21T20:59:03.674;599616731002260132;6429.8955;259
2024-05-21T20:59:03.682;599616731009951504;6437.587;159
2024-05-21T20:59:03.690;599616731017642876;6445.2783;176
2024-05-21T20:59:03.697;599616731025334248;6452.969;236
2024-05-21T20:59:03.705;599616731033025620;6460.661;209
2024-05-21T20:59:03.713;599616731040716992;6468.3525;164
2024-05-21T20:59:03.721;599616731048408364;6476.044;166
2024-05-21T20:59:03.728;599616731056099736;6483.735;174
2024-05-21T20:59:03.736;599616731063791108;6491.4263;159
2024-05-21T20:59:03.744;599616731071482480;6499.118;145
2024-05-21T20:59:03.751;599616731079173852;6506.8096;128
2024-05-21T20:59:03.759;599616731086865224;6514.5005;116
2024-05-21T20:59:03.767;599616731094556596;6522.192;88
2024-05-21T20:59:03.774;599616731102247968;6529.8833;38
2024-05-21T20:59:03.782;599616731109939340;6537.5747;4
2024-05-21T20:59:03.790;599616731117630712;6545.266;-4
2024-05-21T20:59:03.797;599616731125322084;6552.9575;-7
2024-05-21T20:59:03.805;599616731133013456;6560.649;11
2024-05-21T20:59:03.813;599616731140704828;6568.34;35
2024-05-21T20:59:03.821;599616731148396200;6576.0317;38
2024-05-21T20:59:03.828;599616731156087572;6583.723;2
2024-05-21T20:59:03.836;599616731163778944;6591.414;-52
2024-05-21T20:59:03.844;599616731171470316;6599.1055;-76
2024-05-21T20:59:03.851;599616731179161688;6606.7974;-57
2024-05-21T20:59:03.859;599616731186853060;6614.489;-61
2024-05-21T20:59:03.867;599616731194544432;6622.1797;-83
2024-05-21T20:59:03.874;599616731202235804;6629.871;-73
2024-05-21T20:59:03.882;599616731209927176;6637.5625;-54
2024-05-21T20:59:03.890;599616731217618548;6645.254;-50
2024-05-21T20:59:03.897;599616731225309920;6652.9453;-30
2024-05-21T20:59:03.905;599616731233001292;6660.6367;-2
2024-05-21T20:59:03.913;599616731240692664;6668.328;2
2024-05-21T20:59:03.921;599616731248384036;6676.019;0
2024-05-21T20:59:03.928;599616731256075408;6683.711;28
2024-05-21T20:59:03.936;599616731263766780;6691.4023;69
2024-05-21T20:59:03.944;599616731271458152;6699.0933;85
2024-05-21T20:59:03.951;599616731279149524;6706.7847;81
2024-05-21T20:59:03.959;599616731286840896;6714.4766;88
2024-05-21T20:59:03.967;599616731294532268;6722.168;109
2024-05-21T20:59:03.974;599616731302223640;6729.859;123
2024-05-21T20:59:03.982;599616731309915020;6737.5503;126
2024-05-21T20:59:03.990;599616731317606392;6745.2417;145
2024-05-21T20:59:03.997;599616731325297764;6752.9336;159
2024-05-21T20:59:04.005;599616731332989136;6760.6245;114
2024-05-21T20:59:04.013;599616731340680508;6768.316;42
2024-05-21T20:59:04.021;599616731348371880;6776.0073;42
2024-05-21T20:59:04.028;599616731356063252;6783.698;54
2024-05-21T20:59:04.036;599616731363754624;6791.39;21
2024-05-21T20:59:04.044;599616731371445996;6799.0815;11
2024-05-21T20:59:04.051;599616731379137368;6806.773;47
2024-05-21T20:59:04.059;599616731386828740;6814.464;78
2024-05-21T20:59:04.067;599616731394520112;6822.1553;95
2024-05-21T20:59:04.074;599616731402211484;6829.847;107
2024-05-21T20:59:04.082;599616731409902856;6837.538;131
2024-05-21T20:59:04.090;599616731417594228;6845.2295;150
2024-05-21T20:59:04.097;599616731425285600;6852.921;147
2024-05-21T20:59:04.105;599616731432976972;6860.613;147
2024-05-21T20:59:04.113;599616731440668344;6868.3037;164
2024-05-21T20:59:04.120;599616731448359716;6875.995;152
2024-05-21T20:59:04.128;599616731456051088;6883.6865;138
2024-05-21T20:59:04.136;599616731463742460;6891.3774;286
2024-05-21T20:59:04.144;599616731471433832;6899.0693;679
2024-05-21T20:59:04.151;599616731479125204;6906.7607;1053
2024-05-21T20:59:04.159;599616731486816576;6914.452;958
2024-05-21T20:59:04.167;599616731494507948;6922.143;441
2024-05-21T20:59:04.174;599616731502199320;6929.8345;116
2024-05-21T20:59:04.182;599616731509890692;6937.5264;195
2024-05-21T20:59:04.190;599616731517582064;6945.218;243
2024-05-21T20:59:04.197;599616731525273436;6952.9087;164
2024-05-21T20:59:04.205;599616731532964808;6960.6;193
2024-05-21T20:59:04.213;599616731540656180;6968.2915;250
2024-05-21T20:59:04.220;599616731548347552;6975.983;236
2024-05-21T20:59:04.228;599616731556038924;6983.6743;236
2024-05-21T20:59:04.236;599616731563730296;6991.3657;259
2024-05-21T20:59:04.244;599616731571421668;6999.057;236
2024-05-21T20:59:04.251;599616731579113040;7006.7485;188
2024-05-21T20:59:04.259;599616731586804412;7014.44;190
2024-05-21T20:59:04.267;599616731594495784;7022.1313;219
2024-05-21T20:59:04.274;599616731602187156;7029.8223;202
2024-05-21T20:59:04.282;599616731609878528;7037.5137;140
2024-05-21T20:59:04.290;599616731617569900;7045.2056;107
2024-05-21T20:59:04.297;599616731625261272;7052.897;116
2024-05-21T20:59:04.305;599616731632952644;7060.588;102
2024-05-21T20:59:04.313;599616731640644016;7068.2793;71
2024-05-21T20:59:04.320;599616731648335388;7075.9707;76
2024-05-21T20:59:04.328;599616731656026760;7083.662;95
2024-05-21T20:59:04.336;599616731663718132;7091.3535;76
2024-05-21T20:59:04.344;599616731671409504;7099.045;4
2024-05-21T20:59:04.351;599616731679100876;7106.7363;-45
2024-05-21T20:59:04.359;599616731686792248;7114.4272;-23
2024-05-21T20:59:04.367;599616731694483620;7122.119;-19
2024-05-21T20:59:04.374;599616731702174992;7129.8105;-64
2024-05-21T20:59:04.382;599616731709866364;7137.5015;-78
2024-05-21T20:59:04.390;599616731717557736;7145.193;-50
2024-05-21T20:59:04.397;599616731725249108;7152.885;-42
2024-05-21T20:59:04.405;599616731732940480;7160.576;-52
2024-05-21T20:59:04.413;599616731740631852;7168.267;-35
2024-05-21T20:59:04.420;599616731748323224;7175.9585;-19
2024-05-21T20:59:04.428;599616731756014596;7183.65;-28
2024-05-21T20:59:04.436;599616731763705968;7191.342;-14
2024-05-21T20:59:04.444;599616731771397340;7199.0327;30
2024-05-21T20:59:04.451;599616731779088712;7206.724;59
2024-05-21T20:59:04.459;599616731786780084;7214.4155;47
2024-05-21T20:59:04.467;599616731794471456;7222.1064;42
2024-05-21T20:59:04.474;599616731802162828;7229.7983;73
2024-05-21T20:59:04.482;599616731809854200;7237.4897;102
2024-05-21T20:59:04.490;599616731817545572;7245.181;97
2024-05-21T20:59:04.497;599616731825236944;7252.872;104
2024-05-21T20:59:04.505;599616731832928316;7260.5635;131
2024-05-21T20:59:04.513;599616731840619688;7268.2554;135
2024-05-21T20:59:04.520;599616731848311060;7275.9463;112
2024-05-21T20:59:04.528;599616731856002432;7283.6377;88
2024-05-21T20:59:04.536;599616731863693804;7291.329;102
2024-05-21T20:59:04.544;599616731871400232;7299.0356;140
2024-05-21T20:59:04.551;599616731879091395;7306.727;135
2024-05-21T20:59:04.559;599616731886782558;7314.418;123
2024-05-21T20:59:04.567;599616731894473721;7322.109;162
2024-05-21T20:59:04.574;599616731902164884;7329.8003;185
2024-05-21T20:59:04.582;599616731909856047;7337.4917;178
2024-05-21T20:59:04.590;599616731917547210;7345.1826;200
2024-05-21T20:59:04.597;599616731925238373;7352.874;221
2024-05-21T20:59:04.605;599616731932929536;7360.565;166
2024-05-21T20:59:04.613;599616731940620699;7368.256;95
2024-05-21T20:59:04.620;599616731948311862;7375.9473;92
2024-05-21T20:59:04.628;599616731956003025;7383.6387;95
2024-05-21T20:59:04.636;599616731963694188;7391.3296;90
2024-05-21T20:59:04.644;599616731971385351;7399.0205;255
2024-05-21T20:59:04.651;599616731979076514;7406.712;662
2024-05-21T20:59:04.659;599616731986767677;7414.403;975
2024-05-21T20:59:04.667;599616731994458840;7422.094;774
2024-05-21T20:59:04.674;599616732002150003;7429.7856;252
2024-05-21T20:59:04.682;599616732009841166;7437.4766;28
2024-05-21T20:59:04.690;599616732017532329;7445.1675;159
2024-05-21T20:59:04.697;599616732025223492;7452.859;197
2024-05-21T20:59:04.705;599616732032914655;7460.5503;112
2024-05-21T20:59:04.713;599616732040605818;7468.241;133
2024-05-21T20:59:04.720;599616732048296981;7475.932;185
2024-05-21T20:59:04.728;599616732055988144;7483.6235;183
2024-05-21T20:59:04.736;599616732063679307;7491.3145;181
2024-05-21T20:59:04.744;599616732071370470;7499.006;190
2024-05-21T20:59:04.751;599616732079061633;7506.6973;197
2024-05-21T20:59:04.759;599616732086752796;7514.388;207
2024-05-21T20:59:04.767;599616732094443959;7522.079;193
2024-05-21T20:59:04.774;599616732102135122;7529.7705;162
2024-05-21T20:59:04.782;599616732109826285;7537.462;145
2024-05-21T20:59:04.790;599616732117517448;7545.153;126
2024-05-21T20:59:04.797;599616732125208611;7552.8438;119
2024-05-21T20:59:04.805;599616732132899774;7560.535;154
2024-05-21T20:59:04.813;599616732140590937;7568.226;190
2024-05-21T20:59:04.820;599616732148282100;7575.9175;183
2024-05-21T20:59:04.828;599616732155973263;7583.609;162
2024-05-21T20:59:04.836;599616732163664426;7591.3;145
2024-05-21T20:59:04.843;599616732171355589;7598.9907;104
2024-05-21T20:59:04.851;599616732179046752;7606.682;11
2024-05-21T20:59:04.859;599616732186737915;7614.3735;-71
2024-05-21T20:59:04.867;599616732194429078;7622.0645;-59
2024-05-21T20:59:04.874;599616732202120241;7629.7554;-54
2024-05-21T20:59:04.882;599616732209811404;7637.447;-112
2024-05-21T20:59:04.890;599616732217502567;7645.1377;-131
2024-05-21T20:59:04.897;599616732225193730;7652.829;-107
2024-05-21T20:59:04.905;599616732232884893;7660.5205;-114
2024-05-21T20:59:04.913;599616732240576056;7668.2114;-123
2024-05-21T20:59:04.920;599616732248267219;7675.9023;-107
2024-05-21T20:59:04.928;599616732255958382;7683.5938;-107
2024-05-21T20:59:04.936;599616732263649545;7691.285;-100
2024-05-21T20:59:04.943;599616732271340708;7698.976;-66
2024-05-21T20:59:04.951;599616732279031871;7706.6675;-42
2024-05-21T20:59:04.959;599616732286723034;7714.3584;-30
2024-05-21T20:59:04.967;599616732294414197;7722.0493;-23
2024-05-21T20:59:04.974;599616732302105360;7729.7407;-16
2024-05-21T20:59:04.982;599616732309796523;7737.432;7
2024-05-21T20:59:04.990;599616732317487686;7745.1235;40
2024-05-21T20:59:04.997;599616732325178849;7752.814;47
2024-05-21T20:59:05.005;599616732332870012;7760.5054;50
2024-05-21T20:59:05.013;599616732340561175;7768.197;45
2024-05-21T20:59:05.020;599616732348252338;7775.8877;7
2024-05-21T20:59:05.028;599616732355943501;7783.579;-19
2024-05-21T20:59:05.036;599616732363634664;7791.27;4
2024-05-21T20:59:05.043;599616732371325827;7798.961;47
2024-05-21T20:59:05.051;599616732379016990;7806.6523;64
2024-05-21T20:59:05.059;599616732386708153;7814.3438;64
2024-05-21T20:59:05.067;599616732394399316;7822.035;81
2024-05-21T20:59:05.074;599616732402090479;7829.7256;114
2024-05-21T20:59:05.082;599616732409781642;7837.417;133
2024-05-21T20:59:05.090;599616732417472805;7845.1084;140
2024-05-21T20:59:05.097;599616732425163968;7852.7993;157
2024-05-21T20:59:05.105;599616732432855136;7860.4907;183
2024-05-21T20:59:05.113;599616732440546299;7868.1816;181
2024-05-21T20:59:05.120;599616732448237462;7875.8726;157
2024-05-21T20:59:05.128;599616732455928625;7883.564;133
2024-05-21T20:59:05.136;599616732463619788;7891.2554;138
2024-05-21T20:59:05.143;599616732471310951;7898.947;288
2024-05-21T20:59:05.151;599616732479002114;7906.637;667
2024-05-21T20:59:05.159;599616732486693277;7914.3286;1022
2024-05-21T20:59:05.167;599616732494384440;7922.02;934
2024-05-21T20:59:05.174;599616732502075603;7929.711;388
2024-05-21T20:59:05.182;599616732509766766;7937.4023;-26
2024-05-21T20:59:05.190;599616732517457929;7945.0933;38
2024-05-21T20:59:05.197;599616732525149092;7952.784;164
2024-05-21T20:59:05.205;599616732532840255;7960.4756;78
2024-05-21T20:59:05.213;599616732540531418;7968.167;38
2024-05-21T20:59:05.220;599616732548222581;7975.8584;112
2024-05-21T20:59:05.228;599616732555913744;7983.549;145
2024-05-21T20:59:05.236;599616732563604907;7991.24;145
2024-05-21T20:59:05.243;599616732571296070;7998.9316;157
2024-05-21T20:59:05.251;599616732578987233;8006.6226;171
2024-05-21T20:59:05.259;599616732586678396;8014.314;159
2024-05-21T20:59:05.267;599616732594369559;8022.005;119
2024-05-21T20:59:05.274;599616732602060722;8029.696;104
2024-05-21T20:59:05.282;599616732609751885;8037.387;147
2024-05-21T20:59:05.290;599616732617443048;8045.0786;183
2024-05-21T20:59:05.297;599616732625134211;8052.77;174
2024-05-21T20:59:05.305;599616732632825374;8060.4604;159
2024-05-21T20:59:05.313;599616732640516537;8068.152;166
2024-05-21T20:59:05.320;599616732648207700;8075.8433;185
2024-05-21T20:59:05.328;599616732655898863;8083.534;202
2024-05-21T20:59:05.336;599616732663590026;8091.2256;202
2024-05-21T20:59:05.343;599616732671281189;8098.9165;185
2024-05-21T20:59:05.351;599616732678972352;8106.6074;121
2024-05-21T20:59:05.359;599616732686663515;8114.299;11
2024-05-21T20:59:05.366;599616732694354678;8121.99;-64
2024-05-21T20:59:05.374;599616732702045841;8129.6816;-78
2024-05-21T20:59:05.382;599616732709737004;8137.372;-97
2024-05-21T20:59:05.390;599616732717428167;8145.0635;-140
2024-05-21T20:59:05.397;599616732725119330;8152.755;-154
2024-05-21T20:59:05.405;599616732732810493;8160.446;-128
2024-05-21T20:59:05.413;599616732740501656;8168.137;-121
2024-05-21T20:59:05.420;599616732748192819;8175.828;-128
2024-05-21T20:59:05.428;599616732755883982;8183.519;-114
2024-05-21T20:59:05.436;599616732763575145;8191.2104;-102
2024-05-21T20:59:05.443;599616732771266308;8198.901;-95
2024-05-21T20:59:05.451;599616732778957471;8206.593;-76
2024-05-21T20:59:05.459;599616732786648634;8214.284;-54
2024-05-21T20:59:05.466;599616732794339797;8221.975;-28
2024-05-21T20:59:05.474;599616732802030960;8229.666;-14
2024-05-21T20:59:05.482;599616732809722123;8237.357;-23
2024-05-21T20:59:05.490;599616732817413286;8245.049;-26
2024-05-21T20:59:05.497;599616732825104449;8252.74;2
2024-05-21T20:59:05.505;599616732832795612;8260.431;11
2024-05-21T20:59:05.513;599616732840486775;8268.122;-16
2024-05-21T20:59:05.520;599616732848177938;8275.813;-19
2024-05-21T20:59:05.528;599616732855869101;8283.505;2
2024-05-21T20:59:05.536;599616732863560264;8291.196;0
2024-05-21T20:59:05.543;599616732871251427;8298.887;-2
2024-05-21T20:59:05.551;599616732878942590;8306.578;40
2024-05-21T20:59:05.559;599616732886633753;8314.27;81
2024-05-21T20:59:05.566;599616732894324916;8321.96;76
2024-05-21T20:59:05.574;599616732902016079;8329.651;76
2024-05-21T20:59:05.582;599616732909707242;8337.343;107
2024-05-21T20:59:05.590;599616732917398405;8345.034;138
2024-05-21T20:59:05.597;599616732925089568;8352.725;147
2024-05-21T20:59:05.605;599616732932780731;8360.416;154
2024-05-21T20:59:05.613;599616732940471894;8368.107;169
2024-05-21T20:59:05.620;599616732948163057;8375.798;178
2024-05-21T20:59:05.628;599616732955854220;8383.489;174
2024-05-21T20:59:05.636;599616732963545383;8391.181;145
2024-05-21T20:59:05.643;599616732971236546;8398.872;135
2024-05-21T20:59:05.651;599616732978927709;8406.563;269
2024-05-21T20:59:05.659;599616732986618872;8414.254;622
2024-05-21T20:59:05.666;599616732994294994;8421.931;1015
2024-05-21T20:59:05.674;599616733001986366;8429.622;1053
2024-05-21T20:59:05.682;599616733009677738;8437.313;588
2024-05-21T20:59:05.690;599616733017369110;8445.004;133
2024-05-21T20:59:05.697;599616733025060482;8452.696;138
2024-05-21T20:59:05.705;599616733032751854;8460.388;250
2024-05-21T20:59:05.713;599616733040443226;8468.078;140
2024-05-21T20:59:05.720;599616733048134598;8475.77;33
2024-05-21T20:59:05.728;599616733055825970;8483.461;50
2024-05-21T20:59:05.736;599616733063517342;8491.153;83
2024-05-21T20:59:05.743;599616733071208714;8498.844;107
2024-05-21T20:59:05.751;599616733078900086;8506.535;114
2024-05-21T20:59:05.759;599616733086591458;8514.227;85
2024-05-21T20:59:05.766;599616733094282830;8521.919;81
2024-05-21T20:59:05.774;599616733101974202;8529.609;109
2024-05-21T20:59:05.782;599616733109665574;8537.301;123
2024-05-21T20:59:05.789;599616733117356946;8544.992;145
2024-05-21T20:59:05.797;599616733125048318;8552.684;183
2024-05-21T20:59:05.805;599616733132739690;8560.375;188
2024-05-21T20:59:05.813;599616733140431062;8568.066;183
2024-05-21T20:59:05.820;599616733148122434;8575.758;216
2024-05-21T20:59:05.828;599616733155813806;8583.449;243
2024-05-21T20:59:05.836;599616733163505178;8591.141;224
2024-05-21T20:59:05.843;599616733171196550;8598.832;202
2024-05-21T20:59:05.851;599616733178887922;8606.523;185
2024-05-21T20:59:05.859;599616733186579294;8614.215;119
2024-05-21T20:59:05.866;599616733194270666;8621.906;21
2024-05-21T20:59:05.874;599616733201962038;8629.598;-26
2024-05-21T20:59:05.882;599616733209653410;8637.288;-30
2024-05-21T20:59:05.889;599616733217344782;8644.9795;-69
2024-05-21T20:59:05.897;599616733225036154;8652.672;-145
2024-05-21T20:59:05.905;599616733232727526;8660.363;-171
2024-05-21T20:59:05.913;599616733240418898;8668.055;-140
2024-05-21T20:59:05.920;599616733248110270;8675.746;-131
2024-05-21T20:59:05.928;599616733255801642;8683.4375;-140
2024-05-21T20:59:05.936;599616733263493014;8691.128;-131
2024-05-21T20:59:05.943;599616733271184386;8698.819;-114
2024-05-21T20:59:05.951;599616733278875758;8706.511;-112
2024-05-21T20:59:05.959;599616733286567130;8714.202;-100
2024-05-21T20:59:05.966;599616733294258502;8721.895;-71
2024-05-21T20:59:05.974;599616733301949874;8729.586;-42
2024-05-21T20:59:05.982;599616733309641246;8737.277;-30
2024-05-21T20:59:05.989;599616733317332618;8744.968;-47
2024-05-21T20:59:05.997;599616733325023990;8752.659;-71
2024-05-21T20:59:06.005;599616733332715362;8760.351;-83
2024-05-21T20:59:06.013;599616733340406734;8768.042;-78
2024-05-21T20:59:06.020;599616733348098106;8775.733;-66
2024-05-21T20:59:06.028;599616733355789478;8783.425;-59
2024-05-21T20:59:06.036;599616733363480850;8791.116;-45
2024-05-21T20:59:06.043;599616733371172222;8798.808;-33
2024-05-21T20:59:06.051;599616733378863594;8806.499;-28
2024-05-21T20:59:06.059;599616733386554966;8814.19;-7
2024-05-21T20:59:06.066;599616733394246338;8821.882;33
2024-05-21T20:59:06.074;599616733401937710;8829.573;50
2024-05-21T20:59:06.082;599616733409629082;8837.265;38
2024-05-21T20:59:06.089;599616733417320454;8844.956;59
2024-05-21T20:59:06.097;599616733425011826;8852.646;112
2024-05-21T20:59:06.105;599616733432703198;8860.338;126
2024-05-21T20:59:06.113;599616733440394570;8868.03;119
2024-05-21T20:59:06.120;599616733448085942;8875.722;140
2024-05-21T20:59:06.128;599616733455777314;8883.413;162
2024-05-21T20:59:06.136;599616733463468686;8891.1045;154
2024-05-21T20:59:06.143;599616733471160058;8898.796;154
2024-05-21T20:59:06.151;599616733478851430;8906.486;166
2024-05-21T20:59:06.159;599616733486542802;8914.178;145
2024-05-21T20:59:06.166;599616733494234174;8921.869;166
2024-05-21T20:59:06.174;599616733501925546;8929.561;405
2024-05-21T20:59:06.182;599616733509616918;8937.252;851
2024-05-21T20:59:06.189;599616733517308290;8944.944;1111
2024-05-21T20:59:06.197;599616733524999662;8952.636;810
2024-05-21T20:59:06.205;599616733532691034;8960.326;257
2024-05-21T20:59:06.213;599616733540382406;8968.018;85
2024-05-21T20:59:06.220;599616733548073778;8975.709;205
2024-05-21T20:59:06.228;599616733555765158;8983.4;190
2024-05-21T20:59:06.236;599616733563456530;8991.092;131
2024-05-21T20:59:06.243;599616733571147902;8998.783;159
2024-05-21T20:59:06.251;599616733578839274;9006.475;145
2024-05-21T20:59:06.259;599616733586530646;9014.167;92
2024-05-21T20:59:06.266;599616733594222018;9021.857;102
2024-05-21T20:59:06.274;599616733601913390;9029.549;135
2024-05-21T20:59:06.282;599616733609604762;9037.24;138
2024-05-21T20:59:06.289;599616733617296134;9044.932;92
2024-05-21T20:59:06.297;599616733624987506;9052.623;54
2024-05-21T20:59:06.305;599616733632678878;9060.314;78
2024-05-21T20:59:06.313;599616733640370250;9068.006;112
2024-05-21T20:59:06.320;599616733648061622;9075.696;112
2024-05-21T20:59:06.328;599616733655752994;9083.388;140
2024-05-21T20:59:06.336;599616733663444366;9091.08;195
2024-05-21T20:59:06.343;599616733671135738;9098.771;205
2024-05-21T20:59:06.351;599616733678827110;9106.463;166
2024-05-21T20:59:06.359;599616733686518482;9114.154;107
2024-05-21T20:59:06.366;599616733694209854;9121.846;47
2024-05-21T20:59:06.374;599616733701901226;9129.536;38
2024-05-21T20:59:06.382;599616733709592598;9137.228;45
2024-05-21T20:59:06.389;599616733717283970;9144.919;11
2024-05-21T20:59:06.397;599616733724975342;9152.61;-19
2024-05-21T20:59:06.405;599616733732666714;9160.303;-59
2024-05-21T20:59:06.412;599616733740358086;9167.994;-121
2024-05-21T20:59:06.420;599616733748049458;9175.686;-135
2024-05-21T20:59:06.428;599616733755740830;9183.376;-114
2024-05-21T20:59:06.436;599616733763432202;9191.067;-119
2024-05-21T20:59:06.443;599616733771123574;9198.759;-135
2024-05-21T20:59:06.451;599616733778814946;9206.45;-135
2024-05-21T20:59:06.459;599616733786506318;9214.142;-114
2024-05-21T20:59:06.466;599616733794197690;9221.833;-95
2024-05-21T20:59:06.474;599616733801889062;9229.524;-81
2024-05-21T20:59:06.482;599616733809580434;9237.216;-59
2024-05-21T20:59:06.489;599616733817271806;9244.907;-61
2024-05-21T20:59:06.497;599616733824963178;9252.599;-114
2024-05-21T20:59:06.505;599616733832654550;9260.29;-135
2024-05-21T20:59:06.512;599616733840345922;9267.981;-88
2024-05-21T20:59:06.520;599616733848037294;9275.673;-52
2024-05-21T20:59:06.528;599616733855728666;9283.364;-54
2024-05-21T20:59:06.536;599616733863420038;9291.055;-50
2024-05-21T20:59:06.543;599616733871111410;9298.746;-38
2024-05-21T20:59:06.551;599616733878802782;9306.438;-23
2024-05-21T20:59:06.559;599616733886494154;9314.13;-11
2024-05-21T20:59:06.566;599616733894185526;9321.821;-4
2024-05-21T20:59:06.574;599616733901876898;9329.513;19
2024-05-21T20:59:06.582;599616733909568270;9337.204;45
2024-05-21T20:59:06.589;599616733917259642;9344.895;40
2024-05-21T20:59:06.597;599616733924951014;9352.586;40
2024-05-21T20:59:06.605;599616733932642386;9360.277;73
2024-05-21T20:59:06.612;599616733940333758;9367.969;100
2024-05-21T20:59:06.620;599616733948025130;9375.66;112
2024-05-21T20:59:06.628;599616733955716502;9383.353;135
2024-05-21T20:59:06.636;599616733963407874;9391.044;152
2024-05-21T20:59:06.643;599616733971099246;9398.734;145
2024-05-21T20:59:06.651;599616733978790618;9406.426;147
2024-05-21T20:59:06.659;599616733986481990;9414.117;174
2024-05-21T20:59:06.666;599616733994173362;9421.809;197
2024-05-21T20:59:06.674;599616734001864734;9429.5;195
2024-05-21T20:59:06.682;599616734009556106;9437.191;171
2024-05-21T20:59:06.689;599616734017247478;9444.883;152
2024-05-21T20:59:06.697;599616734024938850;9452.575;150
2024-05-21T20:59:06.705;599616734032630222;9460.266;247
2024-05-21T20:59:06.712;599616734040321594;9467.957;560
2024-05-21T20:59:06.720;599616734048012966;9475.648;956
2024-05-21T20:59:06.728;599616734055704338;9483.34;1008
2024-05-21T20:59:06.736;599616734063395710;9491.031;543
2024-05-21T20:59:06.743;599616734071087082;9498.723;64
2024-05-21T20:59:06.751;599616734078778454;9506.413;47
2024-05-21T20:59:06.759;599616734086469826;9514.1045;185
2024-05-21T20:59:06.766;599616734094161198;9521.796;131
2024-05-21T20:59:06.774;599616734101852570;9529.488;61
2024-05-21T20:59:06.782;599616734109543942;9537.18;109
2024-05-21T20:59:06.789;599616734117260450;9544.8955;145
2024-05-21T20:59:06.797;599616734124951473;9552.587;138
2024-05-21T20:59:06.805;599616734132642496;9560.278;145
2024-05-21T20:59:06.812;599616734140333519;9567.97;166
2024-05-21T20:59:06.820;599616734148024542;9575.659;154
2024-05-21T20:59:06.828;599616734155715565;9583.351;104
2024-05-21T20:59:06.836;599616734163406588;9591.042;76
2024-05-21T20:59:06.843;599616734171097611;9598.733;104
2024-05-21T20:59:06.851;599616734178788634;9606.424;140
2024-05-21T20:59:06.859;599616734186479657;9614.115;114
2024-05-21T20:59:06.866;599616734194170680;9621.806;30
2024-05-21T20:59:06.874;599616734201861703;9629.497;-2
2024-05-21T20:59:06.882;599616734209552726;9637.188;23
2024-05-21T20:59:06.889;599616734217243749;9644.879;-7
2024-05-21T20:59:06.897;599616734224934772;9652.57;-42
2024-05-21T20:59:06.905;599616734232625795;9660.262;-19
2024-05-21T20:59:06.912;599616734240316818;9667.953;-38
2024-05-21T20:59:06.920;599616734248007841;9675.643;-97
2024-05-21T20:59:06.928;599616734255698864;9683.334;-123
2024-05-21T20:59:06.936;599616734263389887;9691.025;-133
2024-05-21T20:59:06.943;599616734271080910;9698.717;-152
2024-05-21T20:59:06.951;599616734278771933;9706.407;-171
2024-05-21T20:59:06.959;599616734286462956;9714.099;-188
2024-05-21T20:59:06.966;599616734294153979;9721.789;-183
2024-05-21T20:59:06.974;599616734301845002;9729.48;-171
2024-05-21T20:59:06.982;599616734309536025;9737.171;-174
2024-05-21T20:59:06.989;599616734317227048;9744.862;-193
2024-05-21T20:59:06.997;599616734324918071;9752.554;-205
2024-05-21T20:59:07.005;599616734332609094;9760.245;-202
2024-05-21T20:59:07.012;599616734340300117;9767.936;-200
2024-05-21T20:59:07.020;599616734347991140;9775.626;-171
2024-05-21T20:59:07.028;599616734355682163;9783.317;-133
2024-05-21T20:59:07.036;599616734363373186;9791.009;-116
2024-05-21T20:59:07.043;599616734371064209;9798.7;-109
2024-05-21T20:59:07.051;599616734378755232;9806.391;-97
2024-05-21T20:59:07.059;599616734386446255;9814.081;-73
2024-05-21T20:59:07.066;599616734394137278;9821.772;-57
2024-05-21T20:59:07.074;599616734401828301;9829.464;-54
2024-05-21T20:59:07.082;599616734409519324;9837.154;-35
2024-05-21T20:59:07.089;599616734417210347;9844.846;-4
2024-05-21T20:59:07.097;599616734424901370;9852.537;-4
2024-05-21T20:59:07.105;599616734432592393;9860.229;-14
2024-05-21T20:59:07.112;599616734440283416;9867.918;16
2024-05-21T20:59:07.120;599616734447974439;9875.609;50
2024-05-21T20:59:07.128;599616734455665462;9883.301;50
2024-05-21T20:59:07.135;599616734463356485;9890.992;52
2024-05-21T20:59:07.143;599616734471047508;9898.684;71
2024-05-21T20:59:07.151;599616734478738531;9906.374;90
2024-05-21T20:59:07.159;599616734486429554;9914.064;109
2024-05-21T20:59:07.166;599616734494120577;9921.756;126
2024-05-21T20:59:07.174;599616734501811600;9929.447;147
2024-05-21T20:59:07.182;599616734509502623;9937.138;166
2024-05-21T20:59:07.189;599616734517193646;9944.829;150
2024-05-21T20:59:07.197;599616734524884669;9952.5205;143
2024-05-21T20:59:07.205;599616734532575692;9960.212;178
2024-05-21T20:59:07.212;599616734540266715;9967.901;193
2024-05-21T20:59:07.220;599616734547957738;9975.593;140
2024-05-21T20:59:07.228;599616734555648761;9983.284;92
2024-05-21T20:59:07.235;599616734563339784;9990.976;174
2024-05-21T20:59:07.243;599616734571030807;9998.666;495
2024-05-21T20:59:07.251;599616734578721830;10006.357;879
2024-05-21T20:59:07.259;599616734586412853;10014.048;858
2024-05-21T20:59:07.266;599616734594103876;10021.739;379
2024-05-21T20:59:07.274;599616734601794899;10029.431;11
2024-05-21T20:59:07.282;599616734609485922;10037.121;40
2024-05-21T20:59:07.289;599616734617176945;10044.8125;126
2024-05-21T20:59:07.297;599616734624867968;10052.504;100
2024-05-21T20:59:07.305;599616734632558991;10060.194;104
2024-05-21T20:59:07.312;599616734640250014;10067.885;133
2024-05-21T20:59:07.320;599616734647941037;10075.576;131
2024-05-21T20:59:07.328;599616734655632060;10083.268;126
2024-05-21T20:59:07.335;599616734663323083;10090.959;140
2024-05-21T20:59:07.343;599616734671014106;10098.649;154
2024-05-21T20:59:07.351;599616734678675086;10106.311;171
2024-05-21T20:59:07.359;599616734686366527;10114.002;190
2024-05-21T20:59:07.366;599616734694057968;10121.693;154
2024-05-21T20:59:07.374;599616734701749409;10129.385;71
2024-05-21T20:59:07.382;599616734709440850;10137.077;52
2024-05-21T20:59:07.389;599616734717132291;10144.768;78
2024-05-21T20:59:07.397;599616734724823732;10152.459;19
2024-05-21T20:59:07.405;599616734732515173;10160.15;-54
2024-05-21T20:59:07.412;599616734740206614;10167.842;-21
2024-05-21T20:59:07.420;599616734747898055;10175.533;14
2024-05-21T20:59:07.428;599616734755589496;10183.226;-19
2024-05-21T20:59:07.435;599616734763280937;10190.917;-42
2024-05-21T20:59:07.443;599616734770972378;10198.607;-35
2024-05-21T20:59:07.451;599616734778663819;10206.299;-69
2024-05-21T20:59:07.458;599616734786355260;10213.99;-126
2024-05-21T20:59:07.466;599616734794046701;10221.682;-150
2024-05-21T20:59:07.474;599616734801738142;10229.374;-176
2024-05-21T20:59:07.482;599616734809429583;10237.065;-233
2024-05-21T20:59:07.489;599616734817121024;10244.757;-276
2024-05-21T20:59:07.497;599616734824812465;10252.447;-264
2024-05-21T20:59:07.505;599616734832503906;10260.139;-245
2024-05-21T20:59:07.512;599616734840195347;10267.83;-257
2024-05-21T20:59:07.520;599616734847886788;10275.522;-267
2024-05-21T20:59:07.528;599616734855578229;10283.214;-243
2024-05-21T20:59:07.535;599616734863269670;10290.905;-205
2024-05-21T20:59:07.543;599616734870961111;10298.597;-178
2024-05-21T20:59:07.551;599616734878652552;10306.288;-183
2024-05-21T20:59:07.558;599616734886343993;10313.979;-195
2024-05-21T20:59:07.566;599616734894035434;10321.671;-171
2024-05-21T20:59:07.574;599616734901726875;10329.362;-131
2024-05-21T20:59:07.582;599616734909418316;10337.054;-121
2024-05-21T20:59:07.589;599616734917109757;10344.745;-109
2024-05-21T20:59:07.597;599616734924801198;10352.437;-83
2024-05-21T20:59:07.605;599616734932492639;10360.129;-90
2024-05-21T20:59:07.612;599616734940184080;10367.819;-104
2024-05-21T20:59:07.620;599616734947875521;10375.511;-81
2024-05-21T20:59:07.628;599616734955566962;10383.202;-50
2024-05-21T20:59:07.635;599616734963258403;10390.894;-40
2024-05-21T20:59:07.643;599616734970949844;10398.585;-45
2024-05-21T20:59:07.651;599616734978641285;10406.277;-38
2024-05-21T20:59:07.658;599616734986332726;10413.969;-16
2024-05-21T20:59:07.666;599616734994024167;10421.659;-7
2024-05-21T20:59:07.674;599616735001715608;10429.351;-7
2024-05-21T20:59:07.682;599616735009407049;10437.042;21
2024-05-21T20:59:07.689;599616735017098490;10444.733;42
2024-05-21T20:59:07.697;599616735024789931;10452.426;30
2024-05-21T20:59:07.705;599616735032481372;10460.117;30
2024-05-21T20:59:07.712;599616735040172813;10467.809;54
2024-05-21T20:59:07.720;599616735047864254;10475.5;54
2024-05-21T20:59:07.728;599616735055555695;10483.19;30
2024-05-21T20:59:07.735;599616735063247136;10490.882;23
2024-05-21T20:59:07.743;599616735070938577;10498.574;38
2024-05-21T20:59:07.751;599616735078630018;10506.266;45
2024-05-21T20:59:07.758;599616735086321459;10513.957;28
2024-05-21T20:59:07.766;599616735094012900;10521.648;7
2024-05-21T20:59:07.774;599616735101704341;10529.34;42
2024-05-21T20:59:07.782;599616735109395782;10537.031;236
2024-05-21T20:59:07.789;599616735117087223;10544.723;612
2024-05-21T20:59:07.797;599616735124778664;10552.414;927
2024-05-21T20:59:07.805;599616735132470105;10560.105;774
2024-05-21T20:59:07.812;599616735140161546;10567.797;231
2024-05-21T20:59:07.820;599616735147852987;10575.488;-78
2024-05-21T20:59:07.828;599616735155544428;10583.181;28
2024-05-21T20:59:07.835;599616735163235869;10590.871;88
2024-05-21T20:59:07.843;599616735170927310;10598.5625;0
2024-05-21T20:59:07.851;599616735178618751;10606.254;4
2024-05-21T20:59:07.858;599616735186310192;10613.945;57
2024-05-21T20:59:07.866;599616735194001633;10621.637;54
2024-05-21T20:59:07.874;599616735201693074;10629.329;16
2024-05-21T20:59:07.882;599616735209384515;10637.0205;-40
2024-05-21T20:59:07.889;599616735217075956;10644.711;-50
2024-05-21T20:59:07.897;599616735224767397;10652.402;-7
2024-05-21T20:59:07.905;599616735232458838;10660.094;-21
2024-05-21T20:59:07.912;599616735240165384;10667.801;-69
2024-05-21T20:59:07.920;599616735247856616;10675.492;-61
2024-05-21T20:59:07.928;599616735255547848;10683.183;-35
2024-05-21T20:59:07.935;599616735263239080;10690.874;-40
2024-05-21T20:59:07.943;599616735270930312;10698.565;-50
2024-05-21T20:59:07.951;599616735278621544;10706.257;-57
2024-05-21T20:59:07.958;599616735286312776;10713.948;-59
2024-05-21T20:59:07.966;599616735294004008;10721.64;-88
2024-05-21T20:59:07.974;599616735301695240;10729.331;-162
2024-05-21T20:59:07.982;599616735309386472;10737.021;-193
2024-05-21T20:59:07.989;599616735317077704;10744.713;-176
2024-05-21T20:59:07.997;599616735324768936;10752.404;-226
2024-05-21T20:59:08.005;599616735332460168;10760.096;-300
2024-05-21T20:59:08.012;599616735340151400;10767.787;-302
2024-05-21T20:59:08.020;599616735347842632;10775.479;-295
2024-05-21T20:59:08.028;599616735355533864;10783.17;-321
2024-05-21T20:59:08.035;599616735363225096;10790.86;-321
2024-05-21T20:59:08.043;599616735370916328;10798.552;-295
2024-05-21T20:59:08.051;599616735378607560;10806.243;-283
2024-05-21T20:59:08.058;599616735386298792;10813.935;-286
2024-05-21T20:59:08.066;599616735393990024;10821.626;-288
2024-05-21T20:59:08.074;599616735401681256;10829.317;-259
2024-05-21T20:59:08.082;599616735409372488;10837.009;-228
2024-05-21T20:59:08.089;599616735417063720;10844.698;-221
2024-05-21T20:59:08.097;599616735424754952;10852.39;-205
2024-05-21T20:59:08.105;599616735432446184;10860.081;-169
2024-05-21T20:59:08.112;599616735440137416;10867.772;-157
2024-05-21T20:59:08.120;599616735447828648;10875.464;-169
2024-05-21T20:59:08.128;599616735455519880;10883.155;-150
2024-05-21T20:59:08.135;599616735463211112;10890.847;-109
2024-05-21T20:59:08.143;599616735470902344;10898.537;-90
2024-05-21T20:59:08.151;599616735478593576;10906.229;-100
2024-05-21T20:59:08.158;599616735486284808;10913.92;-100
2024-05-21T20:59:08.166;599616735493976040;10921.611;-76
2024-05-21T20:59:08.174;599616735501667272;10929.303;-59
2024-05-21T20:59:08.181;599616735509358504;10936.994;-64
2024-05-21T20:59:08.189;599616735517049736;10944.685;-45
2024-05-21T20:59:08.197;599616735524740968;10952.376;-19
2024-05-21T20:59:08.205;599616735532432200;10960.067;-19
2024-05-21T20:59:08.212;599616735540123432;10967.759;-35
2024-05-21T20:59:08.220;599616735547814664;10975.45;-50
2024-05-21T20:59:08.228;599616735555505896;10983.142;-45
2024-05-21T20:59:08.235;599616735563197128;10990.833;-23
2024-05-21T20:59:08.243;599616735570888360;10998.523;-16
2024-05-21T20:59:08.251;599616735578579592;11006.215;-11
2024-05-21T20:59:08.258;599616735586270824;11013.906;11
2024-05-21T20:59:08.266;599616735593962056;11021.598;30
2024-05-21T20:59:08.274;599616735601653288;11029.289;33
2024-05-21T20:59:08.281;599616735609344520;11036.98;50
2024-05-21T20:59:08.289;599616735617035752;11044.672;69
2024-05-21T20:59:08.297;599616735624726984;11052.362;57
2024-05-21T20:59:08.305;599616735632418216;11060.054;30
2024-05-21T20:59:08.312;599616735640109448;11067.745;26
2024-05-21T20:59:08.320;599616735647800680;11075.437;92
2024-05-21T20:59:08.328;599616735655491912;11083.128;340
2024-05-21T20:59:08.335;599616735663183144;11090.818;758
2024-05-21T20:59:08.343;599616735670874376;11098.51;982
2024-05-21T20:59:08.351;599616735678565608;11106.2;660
2024-05-21T20:59:08.358;599616735686256840;11113.892;119
2024-05-21T20:59:08.366;599616735693948072;11121.583;-35
2024-05-21T20:59:08.374;599616735701639304;11129.274;69
2024-05-21T20:59:08.381;599616735709330536;11136.966;-21
2024-05-21T20:59:08.389;599616735717021768;11144.657;-159
2024-05-21T20:59:08.397;599616735724713000;11152.349;-112
2024-05-21T20:59:08.405;599616735732404232;11160.039;-52
2024-05-21T20:59:08.412;599616735740095464;11167.73;-95
2024-05-21T20:59:08.420;599616735747786696;11175.422;-131
2024-05-21T20:59:08.428;599616735755477928;11183.113;-112
2024-05-21T20:59:08.435;599616735763169160;11190.805;-97
2024-05-21T20:59:08.443;599616735770860392;11198.496;-107
2024-05-21T20:59:08.451;599616735778551624;11206.187;-128
2024-05-21T20:59:08.458;599616735786242856;11213.878;-159
2024-05-21T20:59:08.466;599616735793934088;11221.569;-209
2024-05-21T20:59:08.474;599616735801615296;11229.251;-267
2024-05-21T20:59:08.481;599616735809306668;11236.941;-290
2024-05-21T20:59:08.489;599616735816998040;11244.633;-264
2024-05-21T20:59:08.497;599616735824689412;11252.324;-231
2024-05-21T20:59:08.505;599616735832380784;11260.017;-209
2024-05-21T20:59:08.512;599616735840072156;11267.708;-190
2024-05-21T20:59:08.520;599616735847763528;11275.399;-174
2024-05-21T20:59:08.528;599616735855454900;11283.091;-176
2024-05-21T20:59:08.535;599616735863146272;11290.781;-214
2024-05-21T20:59:08.543;599616735870837644;11298.473;-271
2024-05-21T20:59:08.551;599616735878529016;11306.164;-276
2024-05-21T20:59:08.558;599616735886220388;11313.855;-236
2024-05-21T20:59:08.566;599616735893911760;11321.547;-245
2024-05-21T20:59:08.574;599616735901603132;11329.238;-281
2024-05-21T20:59:08.581;599616735909294504;11336.931;-264
2024-05-21T20:59:08.589;599616735916985876;11344.621;-228
2024-05-21T20:59:08.597;599616735924677248;11352.3125;-221
2024-05-21T20:59:08.605;599616735932368620;11360.004;-205
2024-05-21T20:59:08.612;599616735940059992;11367.695;-174
2024-05-21T20:59:08.620;599616735947751364;11375.387;-164
2024-05-21T20:59:08.628;599616735955442736;11383.078;-157
2024-05-21T20:59:08.635;599616735963134108;11390.77;-128
2024-05-21T20:59:08.643;599616735970825480;11398.46;-88
2024-05-21T20:59:08.651;599616735978516852;11406.152;-64
2024-05-21T20:59:08.658;599616735986208224;11413.844;-66
2024-05-21T20:59:08.666;599616735993899596;11421.535;-69
2024-05-21T20:59:08.674;599616736001590968;11429.227;-40
2024-05-21T20:59:08.681;599616736009282340;11436.918;-11
2024-05-21T20:59:08.689;599616736016973712;11444.609;-9
2024-05-21T20:59:08.697;599616736024665084;11452.3;-9
2024-05-21T20:59:08.704;599616736032356456;11459.991;-7
2024-05-21T20:59:08.712;599616736040047828;11467.683;-42
2024-05-21T20:59:08.720;599616736047739200;11475.375;-81
2024-05-21T20:59:08.728;599616736055430572;11483.066;-57
2024-05-21T20:59:08.735;599616736063121944;11490.758;-11
2024-05-21T20:59:08.743;599616736070813316;11498.449;2
2024-05-21T20:59:08.751;599616736078504688;11506.141;4
2024-05-21T20:59:08.758;599616736086196060;11513.831;4
2024-05-21T20:59:08.766;599616736093887432;11521.522;19
2024-05-21T20:59:08.774;599616736101578804;11529.214;42
2024-05-21T20:59:08.781;599616736109270176;11536.905;50
2024-05-21T20:59:08.789;599616736116961548;11544.597;66
2024-05-21T20:59:08.797;599616736124652920;11552.289;100
2024-05-21T20:59:08.804;599616736132344292;11559.98;104
2024-05-21T20:59:08.812;599616736140035664;11567.671;97
2024-05-21T20:59:08.820;599616736147727036;11575.362;128
2024-05-21T20:59:08.828;599616736155418408;11583.054;166
2024-05-21T20:59:08.835;599616736163109780;11590.745;169
2024-05-21T20:59:08.843;599616736170801152;11598.437;152
2024-05-21T20:59:08.851;599616736178492524;11606.128;157
2024-05-21T20:59:08.858;599616736186183896;11613.819;183
2024-05-21T20:59:08.866;599616736193875268;11621.511;188
2024-05-21T20:59:08.874;599616736201566640;11629.202;133
2024-05-21T20:59:08.881;599616736209258012;11636.894;54
2024-05-21T20:59:08.889;599616736216949384;11644.585;107
2024-05-21T20:59:08.897;599616736224640756;11652.276;422
2024-05-21T20:59:08.904;599616736232332128;11659.968;822
2024-05-21T20:59:08.912;599616736240023500;11667.659;851
2024-05-21T20:59:08.920;599616736247714872;11675.35;355
2024-05-21T20:59:08.928;599616736255406244;11683.041;-107
2024-05-21T20:59:08.935;599616736263097616;11690.732;-109
2024-05-21T20:59:08.943;599616736270788988;11698.425;-7
2024-05-21T20:59:08.951;599616736278480360;11706.116;-95
2024-05-21T20:59:08.958;599616736286171732;11713.808;-176
2024-05-21T20:59:08.966;599616736293863104;11721.499;-164
2024-05-21T20:59:08.974;599616736301554476;11729.189;-171
2024-05-21T20:59:08.981;599616736309245848;11736.881;-216
2024-05-21T20:59:08.989;599616736316937220;11744.572;-243
2024-05-21T20:59:08.997;599616736324628592;11752.264;-228
2024-05-21T20:59:09.004;599616736332319964;11759.955;-197
2024-05-21T20:59:09.012;599616736340011336;11767.647;-183
2024-05-21T20:59:09.020;599616736347702708;11775.339;-171
2024-05-21T20:59:09.028;599616736355394080;11783.029;-150
2024-05-21T20:59:09.035;599616736363085460;11790.721;-138
2024-05-21T20:59:09.043;599616736370776832;11798.412;-131
2024-05-21T20:59:09.051;599616736378468204;11806.104;-107
2024-05-21T20:59:09.058;599616736386159576;11813.795;-64
2024-05-21T20:59:09.066;599616736393850948;11821.486;-14
2024-05-21T20:59:09.074;599616736401542320;11829.178;7
2024-05-21T20:59:09.081;599616736409233692;11836.868;2
2024-05-21T20:59:09.089;599616736416925064;11844.561;14
2024-05-21T20:59:09.097;599616736424616436;11852.252;45
2024-05-21T20:59:09.104;599616736432307808;11859.943;33
2024-05-21T20:59:09.112;599616736439999180;11867.635;-21
2024-05-21T20:59:09.120;599616736447690552;11875.326;-47
2024-05-21T20:59:09.128;599616736455381924;11883.018;-40
2024-05-21T20:59:09.135;599616736463073296;11890.708;-50
2024-05-21T20:59:09.143;599616736470764668;11898.399;-66
2024-05-21T20:59:09.151;599616736478456040;11906.091;-54
2024-05-21T20:59:09.158;599616736486147412;11913.783;-28
2024-05-21T20:59:09.166;599616736493838784;11921.475;-26
2024-05-21T20:59:09.174;599616736501530156;11929.166;-42
2024-05-21T20:59:09.181;599616736509221528;11936.857;-28
2024-05-21T20:59:09.189;599616736516912900;11944.549;11
2024-05-21T20:59:09.197;599616736524604272;11952.239;23
2024-05-21T20:59:09.204;599616736532295644;11959.931;2
2024-05-21T20:59:09.212;599616736539987016;11967.622;-9
2024-05-21T20:59:09.220;599616736547678388;11975.313;0
2024-05-21T20:59:09.228;599616736555369760;11983.005;7
2024-05-21T20:59:09.235;599616736563061132;11990.697;19
2024-05-21T20:59:09.243;599616736570752504;11998.389;52
2024-05-21T20:59:09.251;599616736578443876;12006.079;71
2024-05-21T20:59:09.258;599616736586135248;12013.7705;64
2024-05-21T20:59:09.266;599616736593826620;12021.462;50
2024-05-21T20:59:09.274;599616736601517992;12029.153;57
2024-05-21T20:59:09.281;599616736609209364;12036.845;85
2024-05-21T20:59:09.289;599616736616900736;12044.536;95
2024-05-21T20:59:09.297;599616736624592108;12052.228;100
2024-05-21T20:59:09.304;599616736632283480;12059.919;114
2024-05-21T20:59:09.312;599616736639974852;12067.61;116
2024-05-21T20:59:09.320;599616736647666224;12075.302;100
2024-05-21T20:59:09.327;599616736655357596;12082.993;102
2024-05-21T20:59:09.335;599616736663048968;12090.685;135
2024-05-21T20:59:09.343;599616736670740340;12098.376;152
2024-05-21T20:59:09.351;599616736678431712;12106.067;131
2024-05-21T20:59:09.358;599616736686123084;12113.758;116
2024-05-21T20:59:09.366;599616736693814456;12121.449;138
2024-05-21T20:59:09.374;599616736701505828;12129.141;152
2024-05-21T20:59:09.381;599616736709197200;12136.833;116
2024-05-21T20:59:09.389;599616736716888572;12144.524;64
2024-05-21T20:59:09.397;599616736724579944;12152.216;64
2024-05-21T20:59:09.404;599616736732271316;12159.907;73
2024-05-21T20:59:09.412;599616736739962688;12167.598;54
2024-05-21T20:59:09.420;599616736747654060;12175.289;47
2024-05-21T20:59:09.427;599616736755345432;12182.98;45
2024-05-21T20:59:09.435;599616736763036804;12190.672;26
2024-05-21T20:59:09.443;599616736770728176;12198.363;-21
2024-05-21T20:59:09.451;599616736778419548;12206.056;-109
2024-05-21T20:59:09.458;599616736786110920;12213.747;-131
2024-05-21T20:59:09.466;599616736793802292;12221.4375;50
2024-05-21T20:59:09.474;599616736801493664;12229.129;407
2024-05-21T20:59:09.481;599616736809185036;12236.82;634
2024-05-21T20:59:09.489;599616736816876408;12244.512;345
2024-05-21T20:59:09.497;599616736824567780;12252.203;-221
2024-05-21T20:59:09.504;599616736832259152;12259.895;-431
2024-05-21T20:59:09.512;599616736839950524;12267.586;-295
2024-05-21T20:59:09.520;599616736847641896;12275.276;-257
2024-05-21T20:59:09.527;599616736855333268;12282.969;-331
2024-05-21T20:59:09.535;599616736863024640;12290.66;-317
2024-05-21T20:59:09.543;599616736870716012;12298.352;-281
2024-05-21T20:59:09.551;599616736878407384;12306.043;-286
2024-05-21T20:59:09.558;599616736886098756;12313.734;-274
2024-05-21T20:59:09.566;599616736893790128;12321.426;-243
2024-05-21T20:59:09.574;599616736901481500;12329.116;-221
2024-05-21T20:59:09.581;599616736909172872;12336.808;-207
2024-05-21T20:59:09.589;599616736916864244;12344.499;-200
2024-05-21T20:59:09.597;599616736924555624;12352.191;-193
2024-05-21T20:59:09.604;599616736932246996;12359.883;-159
2024-05-21T20:59:09.612;599616736939938368;12367.574;-128
2024-05-21T20:59:09.620;599616736947629740;12375.266;-112
2024-05-21T20:59:09.627;599616736955321112;12382.957;-92
2024-05-21T20:59:09.635;599616736963012484;12390.647;-61
2024-05-21T20:59:09.643;599616736970703856;12398.339;-57
2024-05-21T20:59:09.651;599616736978395228;12406.03;-97
2024-05-21T20:59:09.658;599616736986086600;12413.722;-102
2024-05-21T20:59:09.666;599616736993777972;12421.413;-50
2024-05-21T20:59:09.674;599616737001469344;12429.105;-35
2024-05-21T20:59:09.681;599616737009160716;12436.797;-73
2024-05-21T20:59:09.689;599616737016852088;12444.487;-90
2024-05-21T20:59:09.697;599616737024543460;12452.179;-100
2024-05-21T20:59:09.704;599616737032234832;12459.87;-131
2024-05-21T20:59:09.712;599616737039926204;12467.562;-147
2024-05-21T20:59:09.720;599616737047617576;12475.253;-145
2024-05-21T20:59:09.727;599616737055308948;12482.944;-143
2024-05-21T20:59:09.735;599616737063000320;12490.636;-152
2024-05-21T20:59:09.743;599616737070691692;12498.327;-154
2024-05-21T20:59:09.751;599616737078383064;12506.019;-126
2024-05-21T20:59:09.758;599616737086074436;12513.71;-83
2024-05-21T20:59:09.766;599616737093765808;12521.401;-76
2024-05-21T20:59:09.774;599616737101457180;12529.093;-97
2024-05-21T20:59:09.781;599616737109148552;12536.784;-73
2024-05-21T20:59:09.789;599616737116839924;12544.476;-19
2024-05-21T20:59:09.797;599616737124531296;12552.166;-19
2024-05-21T20:59:09.804;599616737132222668;12559.857;-40
2024-05-21T20:59:09.812;599616737139914040;12567.549;-16
2024-05-21T20:59:09.820;599616737147605412;12575.241;7
2024-05-21T20:59:09.827;599616737155296784;12582.933;-4
2024-05-21T20:59:09.835;599616737162988156;12590.624;2
2024-05-21T20:59:09.843;599616737170679528;12598.315;40
2024-05-21T20:59:09.851;599616737178370900;12606.006;71
2024-05-21T20:59:09.858;599616737186062272;12613.697;57
2024-05-21T20:59:09.866;599616737193753644;12621.389;33
2024-05-21T20:59:09.874;599616737201445016;12629.08;50
2024-05-21T20:59:09.881;599616737209136388;12636.771;33
2024-05-21T20:59:09.889;599616737216827760;12644.464;-57
2024-05-21T20:59:09.897;599616737224519132;12652.155;-90
2024-05-21T20:59:09.904;599616737232210504;12659.846;-38
2024-05-21T20:59:09.912;599616737239901876;12667.537;-19
2024-05-21T20:59:09.920;599616737247593248;12675.229;-35
2024-05-21T20:59:09.927;599616737255284620;12682.92;-14
2024-05-21T20:59:09.935;599616737262975992;12690.611;9
2024-05-21T20:59:09.943;599616737270667364;12698.303;-54
2024-05-21T20:59:09.950;599616737278358736;12705.994;-123
2024-05-21T20:59:09.958;599616737286050108;12713.685;-104
2024-05-21T20:59:09.966;599616737293741480;12721.377;-64
2024-05-21T20:59:09.974;599616737301432852;12729.068;-73
2024-05-21T20:59:09.981;599616737309124224;12736.76;-119
2024-05-21T20:59:09.989;599616737316815596;12744.451;-159
2024-05-21T20:59:09.997;599616737324506968;12752.143;-195
2024-05-21T20:59:10.004;599616737332198340;12759.834;-214
2024-05-21T20:59:10.012;599616737339889712;12767.524;-54
2024-05-21T20:59:10.020;599616737347581084;12775.216;360
2024-05-21T20:59:10.027;599616737355272456;12782.907;660
2024-05-21T20:59:10.035;599616737362963828;12790.6;414
2024-05-21T20:59:10.043;599616737370655200;12798.291;-145
2024-05-21T20:59:10.050;599616737378346572;12805.982;-371
2024-05-21T20:59:10.058;599616737386037944;12813.674;-245
2024-05-21T20:59:10.066;599616737393729316;12821.364;-202
2024-05-21T20:59:10.074;599616737401420688;12829.056;-262
2024-05-21T20:59:10.081;599616737409112060;12836.747;-221
2024-05-21T20:59:10.089;599616737416803432;12844.438;-166
2024-05-21T20:59:10.097;599616737424494804;12852.13;-188
2024-05-21T20:59:10.104;599616737432186176;12859.822;-188
2024-05-21T20:59:10.112;599616737439877548;12867.514;-135
2024-05-21T20:59:10.120;599616737447568920;12875.205;-95
2024-05-21T20:59:10.127;599616737455260292;12882.8955;-83
2024-05-21T20:59:10.135;599616737462951664;12890.587;-73
2024-05-21T20:59:10.143;599616737470643036;12898.278;-61
2024-05-21T20:59:10.150;599616737478334408;12905.97;-45
2024-05-21T20:59:10.158;599616737486025788;12913.661;-23
2024-05-21T20:59:10.166;599616737493717160;12921.353;4
2024-05-21T20:59:10.174;599616737501408532;12929.043;54
2024-05-21T20:59:10.181;599616737509099904;12936.735;76
2024-05-21T20:59:10.189;599616737516791276;12944.427;47
2024-05-21T20:59:10.197;599616737524482648;12952.118;45
2024-05-21T20:59:10.204;599616737532174020;12959.81;100
2024-05-21T20:59:10.212;599616737539865392;12967.501;119
2024-05-21T20:59:10.220;599616737547556764;12975.192;73
2024-05-21T20:59:10.227;599616737555248136;12982.884;35
2024-05-21T20:59:10.235;599616737562939508;12990.574;45
2024-05-21T20:59:10.243;599616737570630880;12998.266;47
2024-05-21T20:59:10.250;599616737578322252;13005.958;28
2024-05-21T20:59:10.258;599616737586013624;13013.649;30
2024-05-21T20:59:10.266;599616737593704996;13021.341;54
2024-05-21T20:59:10.274;599616737601396368;13029.032;50
2024-05-21T20:59:10.281;599616737609087740;13036.724;28
2024-05-21T20:59:10.289;599616737616779112;13044.414;38
2024-05-21T20:59:10.297;599616737624470484;13052.105;78
2024-05-21T20:59:10.304;599616737632161856;13059.797;100
2024-05-21T20:59:10.312;599616737639853228;13067.488;102
2024-05-21T20:59:10.320;599616737647544600;13075.18;109
2024-05-21T20:59:10.327;599616737655235972;13082.872;123
2024-05-21T20:59:10.335;599616737662927344;13090.563;131
2024-05-21T20:59:10.343;599616737670618716;13098.254;135
2024-05-21T20:59:10.350;599616737678310088;13105.945;154
2024-05-21T20:59:10.358;599616737686001460;13113.637;181
2024-05-21T20:59:10.366;599616737693692832;13121.328;176
2024-05-21T20:59:10.374;599616737701384204;13129.02;154
2024-05-21T20:59:10.381;599616737709075576;13136.711;133
2024-05-21T20:59:10.389;599616737716766948;13144.402;83
2024-05-21T20:59:10.397;599616737724458320;13152.094;28
2024-05-21T20:59:10.404;599616737732149692;13159.785;42
2024-05-21T20:59:10.412;599616737739841064;13167.477;78
2024-05-21T20:59:10.420;599616737747532436;13175.168;83
2024-05-21T20:59:10.427;599616737755223808;13182.859;81
2024-05-21T20:59:10.435;599616737762915180;13190.551;64
2024-05-21T20:59:10.443;599616737770606552;13198.242;50
2024-05-21T20:59:10.450;599616737778297924;13205.933;73
2024-05-21T20:59:10.458;599616737785989296;13213.624;85
2024-05-21T20:59:10.466;599616737793680668;13221.315;69
2024-05-21T20:59:10.474;599616737801372040;13229.008;69
2024-05-21T20:59:10.481;599616737809063412;13236.699;57
2024-05-21T20:59:10.489;599616737816754784;13244.391;40
2024-05-21T20:59:10.497;599616737824446156;13252.082;61
2024-05-21T20:59:10.504;599616737832137528;13259.772;81
2024-05-21T20:59:10.512;599616737839828900;13267.464;61
2024-05-21T20:59:10.520;599616737847520272;13275.155;21
2024-05-21T20:59:10.527;599616737855211644;13282.847;0
2024-05-21T20:59:10.535;599616737862903016;13290.538;-4
2024-05-21T20:59:10.543;599616737870594388;13298.23;-38
2024-05-21T20:59:10.550;599616737878285760;13305.922;-88
2024-05-21T20:59:10.558;599616737885977132;13313.613;-126
2024-05-21T20:59:10.566;599616737893668504;13321.304;-109
2024-05-21T20:59:10.573;599616737901359876;13328.995;78
2024-05-21T20:59:10.581;599616737909051248;13336.687;474
2024-05-21T20:59:10.589;599616737916742620;13344.378;796
2024-05-21T20:59:10.597;599616737924433992;13352.069;627
2024-05-21T20:59:10.604;599616737932125364;13359.761;69
2024-05-21T20:59:10.612;599616737939816736;13367.451;-233
2024-05-21T20:59:10.620;599616737947508108;13375.144;-109
2024-05-21T20:59:10.627;599616737955199480;13382.835;-33
2024-05-21T20:59:10.635;599616737962890852;13390.526;-104
2024-05-21T20:59:10.643;599616737970582224;13398.218;-100
2024-05-21T20:59:10.650;599616737978273596;13405.909;-59
2024-05-21T20:59:10.658;599616737985964968;13413.601;-54
2024-05-21T20:59:10.666;599616737993656340;13421.292;-40
2024-05-21T20:59:10.673;599616738001347712;13428.982;-33
2024-05-21T20:59:10.681;599616738009039084;13436.674;-50
2024-05-21T20:59:10.689;599616738016730456;13444.366;-64
2024-05-21T20:59:10.697;599616738024421828;13452.058;-61
2024-05-21T20:59:10.704;599616738032113200;13459.749;-47
2024-05-21T20:59:10.712;599616738039804572;13467.44;-16
2024-05-21T20:59:10.720;599616738047526048;13475.161;16
2024-05-21T20:59:10.727;599616738055217002;13482.853;28
2024-05-21T20:59:10.735;599616738062907956;13490.544;42
2024-05-21T20:59:10.743;599616738070598910;13498.233;73
2024-05-21T20:59:10.750;599616738078289864;13505.925;92
2024-05-21T20:59:10.758;599616738085980818;13513.616;69
2024-05-21T20:59:10.766;599616738093671772;13521.308;38
2024-05-21T20:59:10.773;599616738101362726;13528.998;71
2024-05-21T20:59:10.781;599616738109053680;13536.689;107
2024-05-21T20:59:10.789;599616738116744634;13544.381;78
2024-05-21T20:59:10.797;599616738124435588;13552.07;64
2024-05-21T20:59:10.804;599616738132126542;13559.762;102
2024-05-21T20:59:10.812;599616738139817496;13567.453;121
2024-05-21T20:59:10.820;599616738147508450;13575.144;107
2024-05-21T20:59:10.827;599616738155199404;13582.835;102
2024-05-21T20:59:10.835;599616738162890358;13590.526;112
2024-05-21T20:59:10.843;599616738170581312;13598.217;114
2024-05-21T20:59:10.850;599616738178272266;13605.907;116
2024-05-21T20:59:10.858;599616738185963220;13613.599;133
2024-05-21T20:59:10.866;599616738193654174;13621.29;166
2024-05-21T20:59:10.873;599616738201345128;13628.98;183
2024-05-21T20:59:10.881;599616738209036082;13636.672;164
2024-05-21T20:59:10.889;599616738216727036;13644.362;112
2024-05-21T20:59:10.897;599616738224417990;13652.053;61
2024-05-21T20:59:10.904;599616738232108944;13659.744;61
2024-05-21T20:59:10.912;599616738239799898;13667.436;88
2024-05-21T20:59:10.920;599616738247490852;13675.126;92
2024-05-21T20:59:10.927;599616738255181806;13682.817;61
2024-05-21T20:59:10.935;599616738262872760;13690.508;35
2024-05-21T20:59:10.943;599616738270563714;13698.199;54
2024-05-21T20:59:10.950;599616738278254668;13705.89;88
2024-05-21T20:59:10.958;599616738285945622;13713.581;109
2024-05-21T20:59:10.966;599616738293636576;13721.272;121
2024-05-21T20:59:10.973;599616738301327530;13728.963;123
2024-05-21T20:59:10.981;599616738309018484;13736.654;140
2024-05-21T20:59:10.989;599616738316709438;13744.345;171
2024-05-21T20:59:10.997;599616738324400392;13752.035;181
2024-05-21T20:59:11.004;599616738332091346;13759.727;162
2024-05-21T20:59:11.012;599616738339782300;13767.418;133
2024-05-21T20:59:11.020;599616738347473254;13775.109;123
2024-05-21T20:59:11.027;599616738355164208;13782.8;131
2024-05-21T20:59:11.035;599616738362855162;13790.49;135
2024-05-21T20:59:11.043;599616738370546116;13798.182;138
2024-05-21T20:59:11.050;599616738378237070;13805.872;128
2024-05-21T20:59:11.058;599616738385928024;13813.563;100
2024-05-21T20:59:11.066;599616738393618978;13821.255;54
2024-05-21T20:59:11.073;599616738401309932;13828.945;23
2024-05-21T20:59:11.081;599616738409000886;13836.636;30
2024-05-21T20:59:11.089;599616738416691840;13844.327;40
2024-05-21T20:59:11.097;599616738424382794;13852.019;38
2024-05-21T20:59:11.104;599616738432073748;13859.709;28
2024-05-21T20:59:11.112;599616738439764702;13867.4;2
2024-05-21T20:59:11.120;599616738447455656;13875.092;40
2024-05-21T20:59:11.127;599616738455146610;13882.781;307
2024-05-21T20:59:11.135;599616738462837564;13890.473;760
2024-05-21T20:59:11.143;599616738470528518;13898.164;996
2024-05-21T20:59:11.150;599616738478219472;13905.8545;653
2024-05-21T20:59:11.158;599616738485910426;13913.546;90
2024-05-21T20:59:11.166;599616738493601380;13921.237;-59
2024-05-21T20:59:11.173;599616738501292334;13928.927;42
2024-05-21T20:59:11.181;599616738508983288;13936.618;-2
2024-05-21T20:59:11.189;599616738516674242;13944.31;-42
2024-05-21T20:59:11.197;599616738524365196;13952.001;26
2024-05-21T20:59:11.204;599616738532056150;13959.691;42
2024-05-21T20:59:11.212;599616738539747104;13967.383;26
2024-05-21T20:59:11.220;599616738547438058;13975.074;76
2024-05-21T20:59:11.227;599616738555129012;13982.764;131
2024-05-21T20:59:11.235;599616738562819966;13990.455;138
2024-05-21T20:59:11.243;599616738570510920;13998.146;140
2024-05-21T20:59:11.250;599616738578201874;14005.837;164
2024-05-21T20:59:11.258;599616738585892828;14013.528;197
2024-05-21T20:59:11.266;599616738593583782;14021.22;226
2024-05-21T20:59:11.273;599616738601274736;14028.91;252
2024-05-21T20:59:11.281;599616738608935598;14036.571;290
2024-05-21T20:59:11.289;599616738616626970;14044.263;331
2024-05-21T20:59:11.296;599616738624318342;14051.954;338
2024-05-21T20:59:11.304;599616738632009714;14059.645;343
2024-05-21T20:59:11.312;599616738639701086;14067.336;388
2024-05-21T20:59:11.320;599616738647392458;14075.027;438
2024-05-21T20:59:11.327;599616738655083830;14082.719;441
2024-05-21T20:59:11.335;599616738662775202;14090.411;426
2024-05-21T20:59:11.343;599616738670466574;14098.103;422
2024-05-21T20:59:11.350;599616738678157946;14105.794;414
2024-05-21T20:59:11.358;599616738685849318;14113.484;371
2024-05-21T20:59:11.366;599616738693540690;14121.176;312
2024-05-21T20:59:11.373;599616738701232062;14128.867;314
2024-05-21T20:59:11.381;599616738708923434;14136.559;345
2024-05-21T20:59:11.389;599616738716614806;14144.25;321
2024-05-21T20:59:11.396;599616738724306178;14151.941;255
2024-05-21T20:59:11.404;599616738731997550;14159.634;219
2024-05-21T20:59:11.412;599616738739688922;14167.324;238
2024-05-21T20:59:11.420;599616738747380294;14175.016;243
2024-05-21T20:59:11.427;599616738755071666;14182.707;226
2024-05-21T20:59:11.435;599616738762763038;14190.398;236
2024-05-21T20:59:11.443;599616738770454410;14198.09;252
2024-05-21T20:59:11.450;599616738778145782;14205.781;262
2024-05-21T20:59:11.458;599616738785837154;14213.473;286
2024-05-21T20:59:11.466;599616738793528526;14221.163;321
2024-05-21T20:59:11.473;599616738801219898;14228.8545;336
2024-05-21T20:59:11.481;599616738808911270;14236.547;324
2024-05-21T20:59:11.489;599616738816602642;14244.238;329
2024-05-21T20:59:11.496;599616738824294014;14251.93;362
2024-05-21T20:59:11.504;599616738831985386;14259.621;381
2024-05-21T20:59:11.512;599616738839676758;14267.3125;379
2024-05-21T20:59:11.520;599616738847368130;14275.003;391
2024-05-21T20:59:11.527;599616738855059502;14282.694;405
2024-05-21T20:59:11.535;599616738862750874;14290.386;402
2024-05-21T20:59:11.543;599616738870442246;14298.077;398
2024-05-21T20:59:11.550;599616738878133618;14305.77;391
2024-05-21T20:59:11.558;599616738885824990;14313.461;374
2024-05-21T20:59:11.566;599616738893516362;14321.152;357
2024-05-21T20:59:11.573;599616738901207734;14328.844;336
2024-05-21T20:59:11.581;599616738908899106;14336.534;324
2024-05-21T20:59:11.589;599616738916590478;14344.226;317
2024-05-21T20:59:11.596;599616738924281850;14351.917;281
2024-05-21T20:59:11.604;599616738931973222;14359.608;245
2024-05-21T20:59:11.612;599616738939664594;14367.3;224
2024-05-21T20:59:11.619;599616738947355966;14374.992;195
2024-05-21T20:59:11.627;599616738955047338;14382.684;183
2024-05-21T20:59:11.635;599616738962738710;14390.374;188
2024-05-21T20:59:11.643;599616738970430082;14398.065;197
2024-05-21T20:59:11.650;599616738978121454;14405.757;209
2024-05-21T20:59:11.658;599616738985812826;14413.448;209
2024-05-21T20:59:11.666;599616738993504198;14421.14;171
2024-05-21T20:59:11.673;599616739001195570;14428.831;135
2024-05-21T20:59:11.681;599616739008886942;14436.522;145
2024-05-21T20:59:11.689;599616739016578314;14444.213;133
2024-05-21T20:59:11.696;599616739024269686;14451.905;147
2024-05-21T20:59:11.704;599616739031961058;14459.597;362
2024-05-21T20:59:11.712;599616739039652430;14467.288;765
2024-05-21T20:59:11.719;599616739047343802;14474.9795;1032
2024-05-21T20:59:11.727;599616739055035174;14482.671;801
2024-05-21T20:59:11.735;599616739062726546;14490.362;278
2024-05-21T20:59:11.743;599616739070417918;14498.053;61
2024-05-21T20:59:11.750;599616739078109290;14505.744;164
2024-05-21T20:59:11.758;599616739085800662;14513.436;176
2024-05-21T20:59:11.766;599616739093492034;14521.128;119
2024-05-21T20:59:11.773;599616739101183406;14528.819;159
2024-05-21T20:59:11.781;599616739108874778;14536.511;195
2024-05-21T20:59:11.789;599616739116566150;14544.202;195
2024-05-21T20:59:11.796;599616739124257522;14551.893;226
2024-05-21T20:59:11.804;599616739131948894;14559.584;250
2024-05-21T20:59:11.812;599616739139640266;14567.275;240
2024-05-21T20:59:11.819;599616739147331638;14574.967;255
2024-05-21T20:59:11.827;599616739155023010;14582.658;295
2024-05-21T20:59:11.835;599616739162714382;14590.35;319
2024-05-21T20:59:11.843;599616739170405762;14598.042;317
2024-05-21T20:59:11.850;599616739178097134;14605.732;321
2024-05-21T20:59:11.858;599616739185788506;14613.424;352
2024-05-21T20:59:11.866;599616739193479878;14621.115;379
2024-05-21T20:59:11.873;599616739201171250;14628.807;391
2024-05-21T20:59:11.881;599616739208862622;14636.498;426
2024-05-21T20:59:11.889;599616739216553994;14644.189;457
2024-05-21T20:59:11.896;599616739224245366;14651.881;410
2024-05-21T20:59:11.904;599616739231936738;14659.571;326
2024-05-21T20:59:11.912;599616739239628110;14667.264;302
2024-05-21T20:59:11.919;599616739247319482;14674.955;298
2024-05-21T20:59:11.927;599616739255010854;14682.646;233
2024-05-21T20:59:11.935;599616739262702226;14690.338;157
2024-05-21T20:59:11.943;599616739270393598;14698.029;147
2024-05-21T20:59:11.950;599616739278084970;14705.721;176
2024-05-21T20:59:11.958;599616739285776342;14713.411;169
2024-05-21T20:59:11.966;599616739293467714;14721.103;157
2024-05-21T20:59:11.973;599616739301159086;14728.794;181
2024-05-21T20:59:11.981;599616739308850458;14736.485;209
2024-05-21T20:59:11.989;599616739316541830;14744.178;193
2024-05-21T20:59:11.996;599616739324233202;14751.869;188
2024-05-21T20:59:12.004;599616739331924574;14759.561;226
2024-05-21T20:59:12.012;599616739339615946;14767.251;255
2024-05-21T20:59:12.019;599616739347307318;14774.942;264
2024-05-21T20:59:12.027;599616739354998690;14782.634;278
2024-05-21T20:59:12.035;599616739362690062;14790.325;288
2024-05-21T20:59:12.043;599616739370381434;14798.017;293
2024-05-21T20:59:12.050;599616739378072806;14805.708;307
2024-05-21T20:59:12.058;599616739385764178;14813.4;326
2024-05-21T20:59:12.066;599616739393455550;14821.092;340
2024-05-21T20:59:12.073;599616739401146922;14828.782;345
2024-05-21T20:59:12.081;599616739408838294;14836.474;333
2024-05-21T20:59:12.089;599616739416529666;14844.165;317
2024-05-21T20:59:12.096;599616739424221038;14851.856;305
2024-05-21T20:59:12.104;599616739431912410;14859.548;290
2024-05-21T20:59:12.112;599616739439603782;14867.239;281
2024-05-21T20:59:12.119;599616739447295154;14874.931;274
2024-05-21T20:59:12.127;599616739454986526;14882.621;257
2024-05-21T20:59:12.135;599616739462677898;14890.313;224
2024-05-21T20:59:12.143;599616739470369270;14898.005;183
2024-05-21T20:59:12.150;599616739478060642;14905.696;152
2024-05-21T20:59:12.158;599616739485752014;14913.388;90
2024-05-21T20:59:12.166;599616739493443386;14921.079;9
2024-05-21T20:59:12.173;599616739501134758;14928.7705;-21
2024-05-21T20:59:12.181;599616739508826130;14936.461;2
2024-05-21T20:59:12.189;599616739516517502;14944.152;28
2024-05-21T20:59:12.196;599616739524208874;14951.844;33
2024-05-21T20:59:12.204;599616739531900246;14959.536;33
2024-05-21T20:59:12.212;599616739539591618;14967.228;47
2024-05-21T20:59:12.219;599616739547282990;14974.919;57
2024-05-21T20:59:12.227;599616739554974362;14982.61;59
2024-05-21T20:59:12.235;599616739562665734;14990.301;73
2024-05-21T20:59:12.242;599616739570357106;14997.992;100
2024-05-21T20:59:12.250;599616739578048478;15005.684;119
2024-05-21T20:59:12.258;599616739585739850;15013.375;92
2024-05-21T20:59:12.266;599616739593431222;15021.066;52
2024-05-21T20:59:12.273;599616739601122594;15028.758;131
2024-05-21T20:59:12.281;599616739608813966;15036.45;422
2024-05-21T20:59:12.289;599616739616505338;15044.141;817
2024-05-21T20:59:12.296;599616739624196710;15051.832;970
2024-05-21T20:59:12.304;599616739631888082;15059.523;619
2024-05-21T20:59:12.312;599616739639579454;15067.215;128
2024-05-21T20:59:12.319;599616739647270826;15074.906;28
2024-05-21T20:59:12.327;599616739654962198;15082.598;162
2024-05-21T20:59:12.335;599616739662653570;15090.289;169
2024-05-21T20:59:12.342;599616739670344942;15097.9795;140
2024-05-21T20:59:12.350;599616739678036314;15105.672;174
2024-05-21T20:59:12.358;599616739685727686;15113.363;185
2024-05-21T20:59:12.366;599616739693419058;15121.055;188
2024-05-21T20:59:12.373;599616739701110430;15128.746;219
2024-05-21T20:59:12.381;599616739708801802;15136.4375;238
2024-05-21T20:59:12.389;599616739716493174;15144.129;255
2024-05-21T20:59:12.396;599616739724184546;15151.819;264
2024-05-21T20:59:12.404;599616739731880966;15159.517;205
2024-05-21T20:59:12.412;599616739739572268;15167.207;121
2024-05-21T20:59:12.419;599616739747263570;15174.898;145
2024-05-21T20:59:12.427;599616739754954872;15182.59;209
2024-05-21T20:59:12.435;599616739762646174;15190.281;224
2024-05-21T20:59:12.442;599616739770337476;15197.973;228
2024-05-21T20:59:12.450;599616739778028778;15205.664;257
2024-05-21T20:59:12.458;599616739785720080;15213.355;288
2024-05-21T20:59:12.466;599616739793411382;15221.046;293
2024-05-21T20:59:12.473;599616739801102684;15228.738;264
2024-05-21T20:59:12.481;599616739808793986;15236.43;264
2024-05-21T20:59:12.489;599616739816485288;15244.121;295
2024-05-21T20:59:12.496;599616739824176590;15251.8125;283
2024-05-21T20:59:12.504;599616739831867892;15259.504;257
2024-05-21T20:59:12.512;599616739839559194;15267.195;269
2024-05-21T20:59:12.519;599616739847250496;15274.886;286
2024-05-21T20:59:12.527;599616739854941798;15282.577;281
2024-05-21T20:59:12.535;599616739862633100;15290.269;276
2024-05-21T20:59:12.542;599616739870324402;15297.96;259
2024-05-21T20:59:12.550;599616739878015704;15305.651;243
2024-05-21T20:59:12.558;599616739885707006;15313.343;250
2024-05-21T20:59:12.566;599616739893398308;15321.034;259
2024-05-21T20:59:12.573;599616739901089610;15328.725;276
2024-05-21T20:59:12.581;599616739908780912;15336.416;300
2024-05-21T20:59:12.589;599616739916472214;15344.107;286
2024-05-21T20:59:12.596;599616739924163516;15351.799;274
2024-05-21T20:59:12.604;599616739931854818;15359.49;312
2024-05-21T20:59:12.612;599616739939546120;15367.182;338
2024-05-21T20:59:12.619;599616739947237422;15374.873;326
2024-05-21T20:59:12.627;599616739954928724;15382.563;324
2024-05-21T20:59:12.635;599616739962620026;15390.255;343
2024-05-21T20:59:12.642;599616739970311328;15397.946;345
2024-05-21T20:59:12.650;599616739978002630;15405.638;314
2024-05-21T20:59:12.658;599616739985693932;15413.329;267
2024-05-21T20:59:12.666;599616739993385234;15421.0205;238
2024-05-21T20:59:12.673;599616740001076536;15428.711;224
2024-05-21T20:59:12.681;599616740008767838;15436.403;202
2024-05-21T20:59:12.689;599616740016459140;15444.095;195
2024-05-21T20:59:12.696;599616740024150442;15451.786;202
2024-05-21T20:59:12.704;599616740031841744;15459.478;166
2024-05-21T20:59:12.712;599616740039533046;15467.169;109
2024-05-21T20:59:12.719;599616740047224348;15474.86;73
2024-05-21T20:59:12.727;599616740054915650;15482.552;40
2024-05-21T20:59:12.735;599616740062606952;15490.242;21
2024-05-21T20:59:12.742;599616740070298254;15497.934;19
2024-05-21T20:59:12.750;599616740077989556;15505.625;19
2024-05-21T20:59:12.758;599616740085680858;15513.316;45
2024-05-21T20:59:12.766;599616740093372160;15521.008;52
2024-05-21T20:59:12.773;599616740101063462;15528.699;11
2024-05-21T20:59:12.781;599616740108754764;15536.391;11
2024-05-21T20:59:12.789;599616740116446066;15544.081;57
2024-05-21T20:59:12.796;599616740124137368;15551.772;66
2024-05-21T20:59:12.804;599616740131828670;15559.464;52
2024-05-21T20:59:12.812;599616740139519972;15567.155;64
2024-05-21T20:59:12.819;599616740147211274;15574.847;50
2024-05-21T20:59:12.827;599616740154902576;15582.538;21
2024-05-21T20:59:12.835;599616740162593878;15590.229;157
2024-05-21T20:59:12.842;599616740170285180;15597.92;555
2024-05-21T20:59:12.850;599616740177976482;15605.611;953
2024-05-21T20:59:12.858;599616740185667784;15613.303;877
2024-05-21T20:59:12.865;599616740193359086;15620.994;331
2024-05-21T20:59:12.873;599616740201050388;15628.686;-40
2024-05-21T20:59:12.881;599616740208741690;15636.377;54
2024-05-21T20:59:12.889;599616740216432992;15644.069;171
2024-05-21T20:59:12.896;599616740224124294;15651.76;90
2024-05-21T20:59:12.904;599616740231815596;15659.451;19
2024-05-21T20:59:12.912;599616740239506898;15667.143;-23
2024-05-21T20:59:12.919;599616740247198200;15674.834;-90
2024-05-21T20:59:12.927;599616740254889502;15682.525;-71
2024-05-21T20:59:12.935;599616740262580804;15690.217;0
2024-05-21T20:59:12.942;599616740270272106;15697.907;23
2024-05-21T20:59:12.950;599616740277963408;15705.599;30
2024-05-21T20:59:12.958;599616740285654710;15713.29;50
2024-05-21T20:59:12.966;599616740293366130;15721.002;73
2024-05-21T20:59:12.973;599616740301057153;15728.692;104
2024-05-21T20:59:12.981;599616740308748176;15736.384;128
2024-05-21T20:59:12.989;599616740316439199;15744.075;152
2024-05-21T20:59:12.996;599616740324130222;15751.766;188
2024-05-21T20:59:13.004;599616740331821245;15759.456;181
2024-05-21T20:59:13.012;599616740339512268;15767.147;126
2024-05-21T20:59:13.019;599616740347203291;15774.839;128
2024-05-21T20:59:13.027;599616740354894314;15782.53;195
2024-05-21T20:59:13.035;599616740362585337;15790.221;221
2024-05-21T20:59:13.042;599616740370276360;15797.911;205
2024-05-21T20:59:13.050;599616740377967383;15805.603;205
2024-05-21T20:59:13.058;599616740385658406;15813.294;221
2024-05-21T20:59:13.065;599616740393349429;15820.984;224
2024-05-21T20:59:13.073;599616740401040452;15828.676;214
2024-05-21T20:59:13.081;599616740408731475;15836.367;219
2024-05-21T20:59:13.089;599616740416422498;15844.059;226
2024-05-21T20:59:13.096;599616740424113521;15851.749;200
2024-05-21T20:59:13.104;599616740431804544;15859.439;171
2024-05-21T20:59:13.112;599616740439495567;15867.131;190
2024-05-21T20:59:13.119;599616740447186590;15874.822;231
2024-05-21T20:59:13.127;599616740454877613;15882.514;245
2024-05-21T20:59:13.135;599616740462568636;15890.204;228
2024-05-21T20:59:13.142;599616740470259659;15897.895;190
2024-05-21T20:59:13.150;599616740477950682;15905.586;162
2024-05-21T20:59:13.158;599616740485641705;15913.277;164
2024-05-21T20:59:13.165;599616740493332728;15920.968;178
2024-05-21T20:59:13.173;599616740501023751;15928.659;205
2024-05-21T20:59:13.181;599616740508714774;15936.351;228
2024-05-21T20:59:13.189;599616740516405797;15944.041;214
2024-05-21T20:59:13.196;599616740524096820;15951.731;202
2024-05-21T20:59:13.204;599616740531787843;15959.423;233
2024-05-21T20:59:13.212;599616740539478866;15967.114;259
2024-05-21T20:59:13.219;599616740547169889;15974.806;255
