Phone timestamp;sensor timestamp [ns];timestamp [ms];ecg [uV]
2024-05-21T21:05:31.660;599617118997769460;0.0;4053
2024-05-21T21:05:31.667;599617119005460832;7.691372;4826
2024-05-21T21:05:31.675;599617119013152204;15.382744;5627
2024-05-21T21:05:31.683;599617119020843576;23.074116;6218
2024-05-21T21:05:31.690;599617119028534948;30.765488;6829
2024-05-21T21:05:31.698;599617119036226320;38.45686;7489
2024-05-21T21:05:31.706;599617119043917692;46.14823;8014
2024-05-21T21:05:31.713;599617119051609064;53.839603;8481
2024-05-21T21:05:31.721;599617119059300436;61.530975;9029
2024-05-21T21:05:31.729;599617119066991808;69.22235;9556
2024-05-21T21:05:31.736;599617119074683180;76.91372;9995
2024-05-21T21:05:31.744;599617119082374552;84.60509;10377
2024-05-21T21:05:31.752;599617119090065924;92.29646;10663
2024-05-21T21:05:31.759;599617119097757296;99.98784;10992
2024-05-21T21:05:31.767;599617119105448668;107.67921;11378
2024-05-21T21:05:31.775;599617119113140040;115.370575;11612
2024-05-21T21:05:31.783;599617119120831412;123.06195;11891
2024-05-21T21:05:31.790;599617119128522784;130.75333;12501
2024-05-21T21:05:31.798;599617119136214156;138.4447;13114
2024-05-21T21:05:31.806;599617119143905528;146.13606;13329
2024-05-21T21:05:31.813;599617119151596900;153.82744;13267
2024-05-21T21:05:31.821;599617119159288272;161.51881;13269
2024-05-21T21:05:31.829;599617119166979644;169.21017;13455
2024-05-21T21:05:31.836;599617119174671016;176.90155;13624
2024-05-21T21:05:31.844;599617119182362388;184.59293;13748
2024-05-21T21:05:31.852;599617119190053760;192.2843;13939
2024-05-21T21:05:31.859;599617119197745132;199.97568;14108
2024-05-21T21:05:31.867;599617119205436504;207.66704;14239
2024-05-21T21:05:31.875;599617119213127876;215.35841;14392
2024-05-21T21:05:31.883;599617119220819248;223.04979;14516
2024-05-21T21:05:31.890;599617119228510620;230.74115;14585
2024-05-21T21:05:31.898;599617119236201992;238.43253;14707
2024-05-21T21:05:31.906;599617119243893364;246.1239;14950
2024-05-21T21:05:31.913;599617119251584736;253.81528;15088
2024-05-21T21:05:31.921;599617119259276108;261.50665;14986
2024-05-21T21:05:31.929;599617119266967480;269.19803;15002
2024-05-21T21:05:31.936;599617119274658852;276.8894;15193
2024-05-21T21:05:31.944;599617119282350224;284.58078;15227
2024-05-21T21:05:31.952;599617119290041596;292.27213;15215
2024-05-21T21:05:31.959;599617119297732968;299.96353;15322
2024-05-21T21:05:31.967;599617119305424340;307.65488;15367
2024-05-21T21:05:31.975;599617119313115712;315.34625;15324
2024-05-21T21:05:31.983;599617119320807084;323.03763;15336
2024-05-21T21:05:31.990;599617119328498456;330.729;15420
2024-05-21T21:05:31.998;599617119336189828;338.42035;15491
2024-05-21T21:05:32.006;599617119343881200;346.11176;15444
2024-05-21T21:05:32.013;599617119351572572;353.8031;15343
2024-05-21T21:05:32.021;599617119359263944;361.4945;15370
2024-05-21T21:05:32.029;599617119366955316;369.18585;15424
2024-05-21T21:05:32.036;599617119374646688;376.87723;15355
2024-05-21T21:05:32.044;599617119382338060;384.5686;15315
2024-05-21T21:05:32.052;599617119390029432;392.25998;15362
2024-05-21T21:05:32.059;599617119397720804;399.95135;15308
2024-05-21T21:05:32.067;599617119405412176;407.64273;15176
2024-05-21T21:05:32.075;599617119413103548;415.33408;15138
2024-05-21T21:05:32.083;599617119420794920;423.02548;15176
2024-05-21T21:05:32.090;599617119428486292;430.71683;15181
2024-05-21T21:05:32.098;599617119436177664;438.4082;15103
2024-05-21T21:05:32.106;599617119443869036;446.09958;15029
2024-05-21T21:05:32.113;599617119451560408;453.79095;14971
2024-05-21T21:05:32.121;599617119459251780;461.4823;14800
2024-05-21T21:05:32.129;599617119466943152;469.1737;14607
2024-05-21T21:05:32.136;599617119474634524;476.86505;14680
2024-05-21T21:05:32.144;599617119482325896;484.55646;15012
2024-05-21T21:05:32.152;599617119490017268;492.2478;15222
2024-05-21T21:05:32.159;599617119497708640;499.93918;14971
2024-05-21T21:05:32.167;599617119505400012;507.63055;14413
2024-05-21T21:05:32.175;599617119513091384;515.3219;14072
2024-05-21T21:05:32.183;599617119520782756;523.0133;14037
2024-05-21T21:05:32.190;599617119528474128;530.70465;13920
2024-05-21T21:05:32.198;599617119536165500;538.39606;13727
2024-05-21T21:05:32.206;599617119543856872;546.0874;13677
2024-05-21T21:05:32.213;599617119551548244;553.7788;13617
2024-05-21T21:05:32.221;599617119559209528;561.44006;13464
2024-05-21T21:05:32.229;599617119566901318;569.13184;13414
2024-05-21T21:05:32.236;599617119574593108;576.82367;13405
2024-05-21T21:05:32.244;599617119582284898;584.51544;13343
2024-05-21T21:05:32.252;599617119589976688;592.2072;13226
2024-05-21T21:05:32.259;599617119597668478;599.899;12968
2024-05-21T21:05:32.267;599617119605360268;607.59076;12809
2024-05-21T21:05:32.275;599617119613052058;615.28265;12816
2024-05-21T21:05:32.282;599617119620743848;622.9744;12687
2024-05-21T21:05:32.290;599617119628435638;630.6662;12556
2024-05-21T21:05:32.298;599617119636127428;638.358;12568
2024-05-21T21:05:32.306;599617119643819218;646.04974;12391
2024-05-21T21:05:32.313;599617119651511008;653.7416;12117
2024-05-21T21:05:32.321;599617119659202798;661.43335;12134
2024-05-21T21:05:32.329;599617119666894588;669.1251;12141
2024-05-21T21:05:32.336;599617119674586378;676.8169;11893
2024-05-21T21:05:32.344;599617119682278168;684.5087;11736
2024-05-21T21:05:32.352;599617119689969958;692.2005;11760
2024-05-21T21:05:32.359;599617119697661748;699.8923;11700
2024-05-21T21:05:32.367;599617119705353538;707.58405;11554
2024-05-21T21:05:32.375;599617119713045328;715.2758;11457
2024-05-21T21:05:32.382;599617119720737118;722.96765;11378
2024-05-21T21:05:32.390;599617119728428908;730.6595;11271
2024-05-21T21:05:32.398;599617119736120698;738.35126;11187
2024-05-21T21:05:32.406;599617119743812488;746.043;11113
2024-05-21T21:05:32.413;599617119751504278;753.73486;10992
2024-05-21T21:05:32.421;599617119759196068;761.42664;10842
2024-05-21T21:05:32.429;599617119766887858;769.1184;10682
2024-05-21T21:05:32.436;599617119774579648;776.8102;10601
2024-05-21T21:05:32.444;599617119782271438;784.50195;10598
2024-05-21T21:05:32.452;599617119789963228;792.1938;10462
2024-05-21T21:05:32.459;599617119797655018;799.88556;10265
2024-05-21T21:05:32.467;599617119805346808;807.57733;10181
2024-05-21T21:05:32.475;599617119813038598;815.2691;10090
2024-05-21T21:05:32.482;599617119820730388;822.9609;9928
2024-05-21T21:05:32.490;599617119828422178;830.6527;9833
2024-05-21T21:05:32.498;599617119836113968;838.3445;9988
2024-05-21T21:05:32.506;599617119843805758;846.0363;10276
2024-05-21T21:05:32.513;599617119851497548;853.7281;10112
2024-05-21T21:05:32.521;599617119859189338;861.4199;9480
2024-05-21T21:05:32.529;599617119866881128;869.1117;9130
2024-05-21T21:05:32.536;599617119874572918;876.80347;9153
2024-05-21T21:05:32.544;599617119882264708;884.49524;9068
2024-05-21T21:05:32.552;599617119889956498;892.187;8896
2024-05-21T21:05:32.559;599617119897648288;899.87885;8846
2024-05-21T21:05:32.567;599617119905340078;907.5706;8769
2024-05-21T21:05:32.575;599617119913031868;915.2624;8612
2024-05-21T21:05:32.582;599617119920723658;922.95416;8514
2024-05-21T21:05:32.590;599617119928415448;930.646;8495
2024-05-21T21:05:32.598;599617119936107238;938.33777;8455
2024-05-21T21:05:32.606;599617119943799028;946.02954;8328
2024-05-21T21:05:32.613;599617119951490818;953.7214;8188
2024-05-21T21:05:32.621;599617119959182608;961.41315;8145
2024-05-21T21:05:32.629;599617119966874398;969.105;8111
2024-05-21T21:05:32.636;599617119974566188;976.79675;8006
2024-05-21T21:05:32.644;599617119982257978;984.4885;7959
2024-05-21T21:05:32.652;599617119989949768;992.1803;7923
2024-05-21T21:05:32.659;599617119997641558;999.87213;7727
2024-05-21T21:05:32.667;599617120005333348;1007.5639;7553
2024-05-21T21:05:32.675;599617120013025138;1015.2557;7537
2024-05-21T21:05:32.682;599617120020716928;1022.94745;7520
2024-05-21T21:05:32.690;599617120028408718;1030.6393;7446
2024-05-21T21:05:32.698;599617120036100508;1038.331;7348
2024-05-21T21:05:32.706;599617120043792298;1046.0228;7253
2024-05-21T21:05:32.713;599617120051484088;1053.7146;7196
2024-05-21T21:05:32.721;599617120059175878;1061.4064;7131
2024-05-21T21:05:32.729;599617120066867668;1069.0983;7029
2024-05-21T21:05:32.736;599617120074559458;1076.79;6967
2024-05-21T21:05:32.744;599617120082251248;1084.4818;6948
2024-05-21T21:05:32.752;599617120089943038;1092.1736;6871
2024-05-21T21:05:32.759;599617120097634828;1099.8654;6693
2024-05-21T21:05:32.767;599617120105326618;1107.5571;6550
2024-05-21T21:05:32.775;599617120113018408;1115.2489;6554
2024-05-21T21:05:32.782;599617120120740306;1122.9708;6521
2024-05-21T21:05:32.790;599617120128431678;1130.6622;6342
2024-05-21T21:05:32.798;599617120136123050;1138.3535;6211
2024-05-21T21:05:32.806;599617120143814422;1146.0449;6190
2024-05-21T21:05:32.813;599617120151505794;1153.7363;6149
2024-05-21T21:05:32.821;599617120159197166;1161.4277;6068
2024-05-21T21:05:32.829;599617120166888538;1169.1191;5980
2024-05-21T21:05:32.836;599617120174579910;1176.8105;5844
2024-05-21T21:05:32.844;599617120182271282;1184.5017;5701
2024-05-21T21:05:32.852;599617120189962654;1192.1931;5767
2024-05-21T21:05:32.859;599617120197654026;1199.8845;6073
2024-05-21T21:05:32.867;599617120205345398;1207.5759;6097
2024-05-21T21:05:32.875;599617120213036770;1215.2673;5617
2024-05-21T21:05:32.882;599617120220728142;1222.9587;5205
2024-05-21T21:05:32.890;599617120228419514;1230.6501;5205
2024-05-21T21:05:32.898;599617120236110886;1238.3414;5219
2024-05-21T21:05:32.906;599617120243802258;1246.0327;5055
2024-05-21T21:05:32.913;599617120251493630;1253.7241;4983
2024-05-21T21:05:32.921;599617120259185002;1261.4155;5019
2024-05-21T21:05:32.929;599617120266876374;1269.1069;4964
2024-05-21T21:05:32.936;599617120274567746;1276.7983;4859
2024-05-21T21:05:32.944;599617120282259118;1284.4896;4838
2024-05-21T21:05:32.952;599617120289950490;1292.181;4854
2024-05-21T21:05:32.959;599617120297641862;1299.8724;4811
2024-05-21T21:05:32.967;599617120305333234;1307.5637;4749
2024-05-21T21:05:32.975;599617120313024606;1315.2551;4716
2024-05-21T21:05:32.982;599617120320715978;1322.9465;4685
2024-05-21T21:05:32.990;599617120328407350;1330.638;4640
2024-05-21T21:05:32.998;599617120336098722;1338.3292;4585
2024-05-21T21:05:33.006;599617120343790094;1346.0206;4561
2024-05-21T21:05:33.013;599617120351481466;1353.712;4561
2024-05-21T21:05:33.021;599617120359172838;1361.4034;4508
2024-05-21T21:05:33.029;599617120366864210;1369.0947;4418
2024-05-21T21:05:33.036;599617120374555582;1376.7861;4396
2024-05-21T21:05:33.044;599617120382246954;1384.4774;4408
2024-05-21T21:05:33.052;599617120389938326;1392.1688;4368
2024-05-21T21:05:33.059;599617120397629698;1399.8602;4311
2024-05-21T21:05:33.067;599617120405321070;1407.5516;4280
2024-05-21T21:05:33.075;599617120413012442;1415.243;4239
2024-05-21T21:05:33.082;599617120420703814;1422.9344;4189
2024-05-21T21:05:33.090;599617120428395186;1430.6256;4148
2024-05-21T21:05:33.098;599617120436086558;1438.317;4122
2024-05-21T21:05:33.106;599617120443777930;1446.0084;4108
2024-05-21T21:05:33.113;599617120451469302;1453.6998;4060
2024-05-21T21:05:33.121;599617120459160674;1461.3912;3970
2024-05-21T21:05:33.129;599617120466852046;1469.0826;3905
2024-05-21T21:05:33.136;599617120474543418;1476.774;3884
2024-05-21T21:05:33.144;599617120482234790;1484.4653;3834
2024-05-21T21:05:33.152;599617120489926162;1492.1566;3748
2024-05-21T21:05:33.159;599617120497617534;1499.848;3679
2024-05-21T21:05:33.167;599617120505308906;1507.5394;3607
2024-05-21T21:05:33.175;599617120513000278;1515.2308;3540
2024-05-21T21:05:33.182;599617120520691650;1522.9222;3457
2024-05-21T21:05:33.190;599617120528383022;1530.6135;3331
2024-05-21T21:05:33.198;599617120536074394;1538.3049;3264
2024-05-21T21:05:33.205;599617120543765766;1545.9963;3393
2024-05-21T21:05:33.213;599617120551457138;1553.6876;3722
2024-05-21T21:05:33.221;599617120559148510;1561.379;3951
2024-05-21T21:05:33.229;599617120566839882;1569.0704;3664
2024-05-21T21:05:33.236;599617120574531254;1576.7618;3118
2024-05-21T21:05:33.244;599617120582222626;1584.4531;2980
2024-05-21T21:05:33.252;599617120589913998;1592.1445;3104
2024-05-21T21:05:33.259;599617120597605370;1599.8359;3002
2024-05-21T21:05:33.267;599617120605296742;1607.5273;2835
2024-05-21T21:05:33.275;599617120612988114;1615.2186;2854
2024-05-21T21:05:33.282;599617120620679486;1622.91;2897
2024-05-21T21:05:33.290;599617120628370858;1630.6013;2861
2024-05-21T21:05:33.298;599617120636062230;1638.2927;2820
2024-05-21T21:05:33.305;599617120643753602;1645.9841;2799
2024-05-21T21:05:33.313;599617120651444974;1653.6755;2794
2024-05-21T21:05:33.321;599617120659136346;1661.367;2787
2024-05-21T21:05:33.329;599617120666827718;1669.0583;2770
2024-05-21T21:05:33.336;599617120674519090;1676.7495;2768
2024-05-21T21:05:33.344;599617120682210470;1684.4409;2754
2024-05-21T21:05:33.352;599617120689901842;1692.1323;2711
2024-05-21T21:05:33.359;599617120697593214;1699.8237;2682
2024-05-21T21:05:33.367;599617120705284586;1707.5151;2682
2024-05-21T21:05:33.375;599617120712975958;1715.2065;2696
2024-05-21T21:05:33.382;599617120720667330;1722.898;2680
2024-05-21T21:05:33.390;599617120728358702;1730.5892;2596
2024-05-21T21:05:33.398;599617120736050074;1738.2805;2513
2024-05-21T21:05:33.405;599617120743741446;1745.9719;2513
2024-05-21T21:05:33.413;599617120751432818;1753.6633;2498
2024-05-21T21:05:33.421;599617120759124190;1761.3547;2427
2024-05-21T21:05:33.429;599617120766815562;1769.0461;2422
2024-05-21T21:05:33.436;599617120774506934;1776.7375;2424
2024-05-21T21:05:33.444;599617120782198306;1784.4288;2358
2024-05-21T21:05:33.452;599617120789889678;1792.1202;2343
2024-05-21T21:05:33.459;599617120797581050;1799.8115;2360
2024-05-21T21:05:33.467;599617120805272422;1807.5029;2310
2024-05-21T21:05:33.475;599617120812963794;1815.1943;2253
2024-05-21T21:05:33.482;599617120820655166;1822.8857;2234
2024-05-21T21:05:33.490;599617120828346538;1830.577;2207
2024-05-21T21:05:33.498;599617120836037910;1838.2684;2172
2024-05-21T21:05:33.505;599617120843729282;1845.9598;2117
2024-05-21T21:05:33.513;599617120851420654;1853.6512;2067
2024-05-21T21:05:33.521;599617120859112026;1861.3427;2036
2024-05-21T21:05:33.529;599617120866803398;1869.0339;1967
2024-05-21T21:05:33.536;599617120874494770;1876.7252;1878
2024-05-21T21:05:33.544;599617120882186142;1884.4166;1814
2024-05-21T21:05:33.552;599617120889877514;1892.108;1831
2024-05-21T21:05:33.559;599617120897568886;1899.7994;2069
2024-05-21T21:05:33.567;599617120905260258;1907.4908;2453
2024-05-21T21:05:33.575;599617120912951630;1915.1823;2560
2024-05-21T21:05:33.582;599617120920643002;1922.8737;2169
2024-05-21T21:05:33.590;599617120928334374;1930.5648;1723
2024-05-21T21:05:33.598;599617120936025746;1938.2562;1688
2024-05-21T21:05:33.605;599617120943717118;1945.9476;1802
2024-05-21T21:05:33.613;599617120951408490;1953.639;1757
2024-05-21T21:05:33.621;599617120959099862;1961.3304;1702
2024-05-21T21:05:33.629;599617120966791234;1969.0219;1719
2024-05-21T21:05:33.636;599617120974482606;1976.7131;1702
2024-05-21T21:05:33.644;599617120982173978;1984.4045;1650
2024-05-21T21:05:33.652;599617120989865350;1992.0958;1640
2024-05-21T21:05:33.659;599617120997556722;1999.7872;1642
2024-05-21T21:05:33.667;599617121005248094;2007.4786;1626
2024-05-21T21:05:33.675;599617121012939466;2015.17;1623
2024-05-21T21:05:33.682;599617121020630838;2022.8615;1619
2024-05-21T21:05:33.690;599617121028322210;2030.5527;1611
2024-05-21T21:05:33.698;599617121036013582;2038.2441;1626
2024-05-21T21:05:33.705;599617121043704954;2045.9355;1623
2024-05-21T21:05:33.713;599617121051396326;2053.627;1578
2024-05-21T21:05:33.721;599617121059087698;2061.3184;1557
2024-05-21T21:05:33.729;599617121066779070;2069.0098;1576
2024-05-21T21:05:33.736;599617121074470442;2076.701;1583
2024-05-21T21:05:33.744;599617121082161814;2084.3923;1583
2024-05-21T21:05:33.752;599617121089853186;2092.0837;1595
2024-05-21T21:05:33.759;599617121097544558;2099.7751;1564
2024-05-21T21:05:33.767;599617121105235930;2107.4666;1464
2024-05-21T21:05:33.775;599617121112927302;2115.158;1421
2024-05-21T21:05:33.782;599617121120618674;2122.849;1456
2024-05-21T21:05:33.790;599617121128310046;2130.5405;1461
2024-05-21T21:05:33.798;599617121136001418;2138.232;1437
2024-05-21T21:05:33.805;599617121143692790;2145.9233;1404
2024-05-21T21:05:33.813;599617121151384162;2153.6145;1359
2024-05-21T21:05:33.821;599617121159075534;2161.3062;1359
2024-05-21T21:05:33.828;599617121166766906;2168.9973;1380
2024-05-21T21:05:33.836;599617121174458278;2176.689;1373
2024-05-21T21:05:33.844;599617121182149650;2184.3801;1347
2024-05-21T21:05:33.852;599617121189841022;2192.0718;1297
2024-05-21T21:05:33.859;599617121197532394;2199.763;1220
2024-05-21T21:05:33.867;599617121205223766;2207.454;1139
2024-05-21T21:05:33.875;599617121212915138;2215.1458;1115
2024-05-21T21:05:33.882;599617121220606510;2222.837;1108
2024-05-21T21:05:33.890;599617121228297882;2230.5286;999
2024-05-21T21:05:33.898;599617121235989254;2238.2197;898
2024-05-21T21:05:33.905;599617121243650538;2245.881;1044
2024-05-21T21:05:33.913;599617121251342328;2253.5728;1435
2024-05-21T21:05:33.921;599617121259034118;2261.2646;1738
2024-05-21T21:05:33.928;599617121266725908;2268.9563;1576
2024-05-21T21:05:33.936;599617121274417698;2276.6482;1106
2024-05-21T21:05:33.944;599617121282109488;2284.34;889
2024-05-21T21:05:33.952;599617121289801278;2292.0317;932
2024-05-21T21:05:33.959;599617121297493068;2299.7236;889
2024-05-21T21:05:33.967;599617121305184858;2307.4153;856
2024-05-21T21:05:33.975;599617121312876648;2315.1072;922
2024-05-21T21:05:33.982;599617121320568438;2322.799;929
2024-05-21T21:05:33.990;599617121328260228;2330.491;896
2024-05-21T21:05:33.998;599617121335952018;2338.1826;915
2024-05-21T21:05:34.005;599617121343643808;2345.8745;941
2024-05-21T21:05:34.013;599617121351335598;2353.5662;946
2024-05-21T21:05:34.021;599617121359027388;2361.258;970
2024-05-21T21:05:34.028;599617121366719178;2368.9497;980
2024-05-21T21:05:34.036;599617121374410968;2376.6416;960
2024-05-21T21:05:34.044;599617121382102758;2384.3333;975
2024-05-21T21:05:34.052;599617121389794548;2392.0251;1011
2024-05-21T21:05:34.059;599617121397486338;2399.7168;1018
2024-05-21T21:05:34.067;599617121405178128;2407.4087;1006
2024-05-21T21:05:34.075;599617121412869918;2415.1003;996
2024-05-21T21:05:34.082;599617121420561708;2422.7922;999
2024-05-21T21:05:34.090;599617121428253498;2430.484;1015
2024-05-21T21:05:34.098;599617121435945288;2438.1758;1030
2024-05-21T21:05:34.105;599617121443637078;2445.8674;1044
2024-05-21T21:05:34.113;599617121451328868;2453.5593;1058
2024-05-21T21:05:34.121;599617121459020658;2461.251;1070
2024-05-21T21:05:34.128;599617121466712448;2468.943;1046
2024-05-21T21:05:34.136;599617121474404238;2476.6348;999
2024-05-21T21:05:34.144;599617121482096028;2484.3267;989
2024-05-21T21:05:34.152;599617121489787818;2492.0183;982
2024-05-21T21:05:34.159;599617121497479608;2499.7102;951
2024-05-21T21:05:34.167;599617121505171398;2507.402;946
2024-05-21T21:05:34.175;599617121512863188;2515.0938;946
2024-05-21T21:05:34.182;599617121520554978;2522.7856;929
2024-05-21T21:05:34.190;599617121528246768;2530.4773;908
2024-05-21T21:05:34.198;599617121535938558;2538.1692;879
2024-05-21T21:05:34.205;599617121543630348;2545.8608;846
2024-05-21T21:05:34.213;599617121551322138;2553.5527;803
2024-05-21T21:05:34.221;599617121559013928;2561.2444;755
2024-05-21T21:05:34.228;599617121566705718;2568.9363;736
2024-05-21T21:05:34.236;599617121574397508;2576.628;743
2024-05-21T21:05:34.244;599617121582089298;2584.3198;691
2024-05-21T21:05:34.252;599617121589781088;2592.0115;627
2024-05-21T21:05:34.259;599617121597472878;2599.7034;777
2024-05-21T21:05:34.267;599617121605164668;2607.3953;1106
2024-05-21T21:05:34.275;599617121612856458;2615.0872;1223
2024-05-21T21:05:34.282;599617121620548248;2622.7788;939
2024-05-21T21:05:34.290;599617121628240038;2630.4707;584
2024-05-21T21:05:34.298;599617121635931828;2638.1624;536
2024-05-21T21:05:34.305;599617121643623618;2645.8542;624
2024-05-21T21:05:34.313;599617121651315408;2653.546;579
2024-05-21T21:05:34.321;599617121659007198;2661.2378;550
2024-05-21T21:05:34.328;599617121666698988;2668.9294;619
2024-05-21T21:05:34.336;599617121674390778;2676.6213;639
2024-05-21T21:05:34.344;599617121682082568;2684.313;624
2024-05-21T21:05:34.352;599617121689774358;2692.005;653
2024-05-21T21:05:34.359;599617121697466148;2699.6965;679
2024-05-21T21:05:34.367;599617121705157938;2707.3884;686
2024-05-21T21:05:34.375;599617121712849728;2715.08;681
2024-05-21T21:05:34.382;599617121720541518;2722.772;670
2024-05-21T21:05:34.390;599617121728233308;2730.4636;677
2024-05-21T21:05:34.398;599617121735925098;2738.1555;693
2024-05-21T21:05:34.405;599617121743616888;2745.8477;693
2024-05-21T21:05:34.413;599617121751308678;2753.5393;703
2024-05-21T21:05:34.421;599617121759000468;2761.2312;724
2024-05-21T21:05:34.428;599617121766692258;2768.9229;729
2024-05-21T21:05:34.436;599617121774384048;2776.6147;734
2024-05-21T21:05:34.444;599617121782075838;2784.3064;753
2024-05-21T21:05:34.451;599617121789767628;2791.9983;770
2024-05-21T21:05:34.459;599617121797459418;2799.69;765
2024-05-21T21:05:34.467;599617121805181316;2807.4119;765
2024-05-21T21:05:34.475;599617121812872688;2815.1033;791
2024-05-21T21:05:34.482;599617121820564060;2822.7944;808
2024-05-21T21:05:34.490;599617121828255432;2830.486;777
2024-05-21T21:05:34.498;599617121835946804;2838.1772;729
2024-05-21T21:05:34.505;599617121843638176;2845.869;717
2024-05-21T21:05:34.513;599617121851329548;2853.56;715
2024-05-21T21:05:34.521;599617121859020920;2861.2515;655
2024-05-21T21:05:34.528;599617121866712292;2868.9429;596
2024-05-21T21:05:34.536;599617121874403664;2876.634;584
2024-05-21T21:05:34.544;599617121882095036;2884.3257;557
2024-05-21T21:05:34.552;599617121889786408;2892.0168;493
2024-05-21T21:05:34.559;599617121897477780;2899.7085;445
2024-05-21T21:05:34.567;599617121905169152;2907.3997;448
2024-05-21T21:05:34.575;599617121912860524;2915.091;472
2024-05-21T21:05:34.582;599617121920551896;2922.7825;462
2024-05-21T21:05:34.590;599617121928243268;2930.4736;424
2024-05-21T21:05:34.598;599617121935934640;2938.1653;391
2024-05-21T21:05:34.605;599617121943626012;2945.8564;371
2024-05-21T21:05:34.613;599617121951317384;2953.548;457
2024-05-21T21:05:34.621;599617121959008756;2961.2393;748
2024-05-21T21:05:34.628;599617121966700128;2968.9307;1001
2024-05-21T21:05:34.636;599617121974391500;2976.622;827
2024-05-21T21:05:34.644;599617121982082872;2984.3132;402
2024-05-21T21:05:34.652;599617121989774244;2992.005;286
2024-05-21T21:05:34.659;599617121997465616;2999.696;436
2024-05-21T21:05:34.667;599617122005156988;3007.3877;455
2024-05-21T21:05:34.675;599617122012848360;3015.0789;395
2024-05-21T21:05:34.682;599617122020539732;3022.7703;422
2024-05-21T21:05:34.690;599617122028231104;3030.4617;455
2024-05-21T21:05:34.698;599617122035922476;3038.153;453
2024-05-21T21:05:34.705;599617122043613848;3045.8445;476
2024-05-21T21:05:34.713;599617122051305220;3053.5356;515
2024-05-21T21:05:34.721;599617122058996592;3061.227;531
2024-05-21T21:05:34.728;599617122066687964;3068.9185;519
2024-05-21T21:05:34.736;599617122074379336;3076.6099;517
2024-05-21T21:05:34.744;599617122082070708;3084.3013;543
2024-05-21T21:05:34.751;599617122089762080;3091.9927;577
2024-05-21T21:05:34.759;599617122097453452;3099.684;586
2024-05-21T21:05:34.767;599617122105144824;3107.3752;548
2024-05-21T21:05:34.775;599617122112836196;3115.0667;484
2024-05-21T21:05:34.782;599617122120527568;3122.758;464
2024-05-21T21:05:34.790;599617122128218940;3130.4495;498
2024-05-21T21:05:34.798;599617122135910312;3138.1409;524
2024-05-21T21:05:34.805;599617122143601684;3145.8323;548
2024-05-21T21:05:34.813;599617122151293056;3153.5237;569
2024-05-21T21:05:34.821;599617122158984428;3161.215;562
2024-05-21T21:05:34.828;599617122166675800;3168.9062;557
2024-05-21T21:05:34.836;599617122174367172;3176.5977;574
2024-05-21T21:05:34.844;599617122182058544;3184.289;555
2024-05-21T21:05:34.851;599617122189749916;3191.9805;522
2024-05-21T21:05:34.859;599617122197441288;3199.6719;507
2024-05-21T21:05:34.867;599617122205132660;3207.363;460
2024-05-21T21:05:34.875;599617122212824032;3215.0547;398
2024-05-21T21:05:34.882;599617122220515404;3222.7458;369
2024-05-21T21:05:34.890;599617122228206776;3230.4373;367
2024-05-21T21:05:34.898;599617122235898148;3238.1287;357
2024-05-21T21:05:34.905;599617122243589520;3245.82;307
2024-05-21T21:05:34.913;599617122251280892;3253.5115;267
2024-05-21T21:05:34.921;599617122258972264;3261.2026;283
2024-05-21T21:05:34.928;599617122266663636;3268.8943;309
2024-05-21T21:05:34.936;599617122274355008;3276.5854;317
2024-05-21T21:05:34.944;599617122282046380;3284.277;333
2024-05-21T21:05:34.951;599617122289737752;3291.9683;317
2024-05-21T21:05:34.959;599617122297429124;3299.6597;247
2024-05-21T21:05:34.967;599617122305120496;3307.351;255
2024-05-21T21:05:34.975;599617122312811868;3315.0422;469
2024-05-21T21:05:34.982;599617122320503240;3322.734;851
2024-05-21T21:05:34.990;599617122328194612;3330.425;1063
2024-05-21T21:05:34.998;599617122335885984;3338.1167;760
2024-05-21T21:05:35.005;599617122343577356;3345.8079;293
2024-05-21T21:05:35.013;599617122351268728;3353.4995;267
2024-05-21T21:05:35.021;599617122358960100;3361.1907;433
2024-05-21T21:05:35.028;599617122366621384;3368.852;391
2024-05-21T21:05:35.036;599617122374313174;3376.5437;343
2024-05-21T21:05:35.044;599617122382004964;3384.2356;398
2024-05-21T21:05:35.051;599617122389696754;3391.9272;388
2024-05-21T21:05:35.059;599617122397388544;3399.6191;340
2024-05-21T21:05:35.067;599617122405080334;3407.3108;338
2024-05-21T21:05:35.075;599617122412772124;3415.0027;355
2024-05-21T21:05:35.082;599617122420463914;3422.6943;386
2024-05-21T21:05:35.090;599617122428155704;3430.3862;412
2024-05-21T21:05:35.098;599617122435847494;3438.078;412
2024-05-21T21:05:35.105;599617122443539284;3445.7698;443
2024-05-21T21:05:35.113;599617122451231074;3453.4614;457
2024-05-21T21:05:35.121;599617122458922864;3461.1533;393
2024-05-21T21:05:35.128;599617122466614654;3468.8452;374
2024-05-21T21:05:35.136;599617122474306444;3476.537;429
2024-05-21T21:05:35.144;599617122481998234;3484.2288;443
2024-05-21T21:05:35.151;599617122489690024;3491.9207;438
2024-05-21T21:05:35.159;599617122497381814;3499.6123;486
2024-05-21T21:05:35.167;599617122505073604;3507.3042;531
2024-05-21T21:05:35.174;599617122512765394;3514.9958;529
2024-05-21T21:05:35.182;599617122520457184;3522.6877;512
2024-05-21T21:05:35.190;599617122528148974;3530.3796;472
2024-05-21T21:05:35.198;599617122535840764;3538.0713;429
2024-05-21T21:05:35.205;599617122543532554;3545.7632;453
2024-05-21T21:05:35.213;599617122551224344;3553.4548;493
2024-05-21T21:05:35.221;599617122558916134;3561.1467;488
2024-05-21T21:05:35.228;599617122566607924;3568.8384;453
2024-05-21T21:05:35.236;599617122574299714;3576.5303;402
2024-05-21T21:05:35.244;599617122581991504;3584.222;357
2024-05-21T21:05:35.251;599617122589683294;3591.9138;345
2024-05-21T21:05:35.259;599617122597375084;3599.6055;345
2024-05-21T21:05:35.267;599617122605066874;3607.2976;312
2024-05-21T21:05:35.274;599617122612758664;3614.9893;238
2024-05-21T21:05:35.282;599617122620450454;3622.6812;195
2024-05-21T21:05:35.290;599617122628142244;3630.3728;219
2024-05-21T21:05:35.298;599617122635834034;3638.0647;236
2024-05-21T21:05:35.305;599617122643525824;3645.7563;231
2024-05-21T21:05:35.313;599617122651217614;3653.4482;240
2024-05-21T21:05:35.321;599617122658909404;3661.14;190
2024-05-21T21:05:35.328;599617122666601194;3668.8318;157
2024-05-21T21:05:35.336;599617122674292984;3676.5234;407
2024-05-21T21:05:35.344;599617122681984774;3684.2153;867
2024-05-21T21:05:35.351;599617122689676564;3691.907;1022
2024-05-21T21:05:35.359;599617122697368354;3699.5989;605
2024-05-21T21:05:35.367;599617122705060144;3707.2905;135
2024-05-21T21:05:35.374;599617122712751934;3714.9824;150
2024-05-21T21:05:35.382;599617122720443724;3722.674;309
2024-05-21T21:05:35.390;599617122728135514;3730.366;269
2024-05-21T21:05:35.398;599617122735827304;3738.0576;250
2024-05-21T21:05:35.405;599617122743519094;3745.7498;305
2024-05-21T21:05:35.413;599617122751210884;3753.4417;317
2024-05-21T21:05:35.421;599617122758902674;3761.1333;309
2024-05-21T21:05:35.428;599617122766594464;3768.8252;309
2024-05-21T21:05:35.436;599617122774286254;3776.5168;321
2024-05-21T21:05:35.444;599617122781978044;3784.2087;350
2024-05-21T21:05:35.451;599617122789669834;3791.9004;376
2024-05-21T21:05:35.459;599617122797361624;3799.5923;395
2024-05-21T21:05:35.467;599617122805053414;3807.284;412
2024-05-21T21:05:35.474;599617122812745204;3814.9758;400
2024-05-21T21:05:35.482;599617122820436994;3822.6675;388
2024-05-21T21:05:35.490;599617122828128784;3830.3594;419
2024-05-21T21:05:35.498;599617122835820574;3838.051;448
2024-05-21T21:05:35.505;599617122843512364;3845.743;424
2024-05-21T21:05:35.513;599617122851204154;3853.4346;407
2024-05-21T21:05:35.521;599617122858895944;3861.1265;445
2024-05-21T21:05:35.528;599617122866587734;3868.818;488
2024-05-21T21:05:35.536;599617122874279524;3876.51;493
2024-05-21T21:05:35.544;599617122881971314;3884.2017;455
2024-05-21T21:05:35.551;599617122889663104;3891.8938;417
2024-05-21T21:05:35.559;599617122897354894;3899.5854;422
2024-05-21T21:05:35.567;599617122905046684;3907.2773;422
2024-05-21T21:05:35.574;599617122912738474;3914.969;393
2024-05-21T21:05:35.582;599617122920430264;3922.661;381
2024-05-21T21:05:35.590;599617122928122066;3930.3525;386
2024-05-21T21:05:35.598;599617122935813856;3938.0444;345
2024-05-21T21:05:35.605;599617122943505646;3945.736;228
2024-05-21T21:05:35.613;599617122951197436;3953.428;162
2024-05-21T21:05:35.621;599617122958889226;3961.1196;231
2024-05-21T21:05:35.628;599617122966581016;3968.8115;257
2024-05-21T21:05:35.636;599617122974272806;3976.5034;176
2024-05-21T21:05:35.644;599617122981964596;3984.195;157
2024-05-21T21:05:35.651;599617122989656386;3991.887;193
2024-05-21T21:05:35.659;599617122997348176;3999.5786;145
2024-05-21T21:05:35.667;599617123005039966;4007.2705;54
2024-05-21T21:05:35.674;599617123012731756;4014.9622;21
2024-05-21T21:05:35.682;599617123020423546;4022.6543;40
2024-05-21T21:05:35.690;599617123028115336;4030.346;178
2024-05-21T21:05:35.698;599617123035807126;4038.0378;538
2024-05-21T21:05:35.705;599617123043498916;4045.7295;836
2024-05-21T21:05:35.713;599617123051190706;4053.4214;612
2024-05-21T21:05:35.721;599617123058882496;4061.113;121
2024-05-21T21:05:35.728;599617123066574286;4068.805;35
2024-05-21T21:05:35.736;599617123074266076;4076.4966;193
2024-05-21T21:05:35.744;599617123081957866;4084.1885;154
2024-05-21T21:05:35.751;599617123089649656;4091.8801;88
2024-05-21T21:05:35.759;599617123097341446;4099.572;150
2024-05-21T21:05:35.767;599617123105033236;4107.2637;195
2024-05-21T21:05:35.774;599617123112725026;4114.9556;181
2024-05-21T21:05:35.782;599617123120416816;4122.6475;133
2024-05-21T21:05:35.790;599617123128108606;4130.339;100
2024-05-21T21:05:35.798;599617123135800396;4138.031;150
2024-05-21T21:05:35.805;599617123143492186;4145.7227;205
2024-05-21T21:05:35.813;599617123151183976;4153.4146;183
2024-05-21T21:05:35.821;599617123158875766;4161.1064;197
2024-05-21T21:05:35.828;599617123166567556;4168.7983;278
2024-05-21T21:05:35.836;599617123174259346;4176.4897;293
2024-05-21T21:05:35.844;599617123181951136;4184.1816;252
2024-05-21T21:05:35.851;599617123189642926;4191.8735;238
2024-05-21T21:05:35.859;599617123197334716;4199.5654;214
2024-05-21T21:05:35.867;599617123205026506;4207.2573;207
2024-05-21T21:05:35.874;599617123212718296;4214.9487;250
2024-05-21T21:05:35.882;599617123220410086;4222.6406;267
2024-05-21T21:05:35.890;599617123228101876;4230.3325;228
2024-05-21T21:05:35.898;599617123235793666;4238.0244;207
2024-05-21T21:05:35.905;599617123243485456;4245.716;240
2024-05-21T21:05:35.913;599617123251177246;4253.4077;286
2024-05-21T21:05:35.921;599617123258869036;4261.0996;290
2024-05-21T21:05:35.928;599617123266560826;4268.7915;240
2024-05-21T21:05:35.936;599617123274252616;4276.483;183
2024-05-21T21:05:35.944;599617123281944406;4284.175;174
2024-05-21T21:05:35.951;599617123289636196;4291.8667;157
2024-05-21T21:05:35.959;599617123297327986;4299.5586;102
2024-05-21T21:05:35.967;599617123305019776;4307.25;97
2024-05-21T21:05:35.974;599617123312711566;4314.942;135
2024-05-21T21:05:35.982;599617123320403356;4322.634;140
2024-05-21T21:05:35.990;599617123328095146;4330.3257;114
2024-05-21T21:05:35.998;599617123335786936;4338.017;107
2024-05-21T21:05:36.005;599617123343478726;4345.709;131
2024-05-21T21:05:36.013;599617123351170516;4353.401;157
2024-05-21T21:05:36.021;599617123358862306;4361.093;152
2024-05-21T21:05:36.028;599617123366554096;4368.784;116
2024-05-21T21:05:36.036;599617123374245886;4376.4766;78
2024-05-21T21:05:36.044;599617123381937676;4384.1685;88
2024-05-21T21:05:36.051;599617123389629466;4391.8604;271
2024-05-21T21:05:36.059;599617123397321256;4399.552;643
2024-05-21T21:05:36.067;599617123405013046;4407.2437;846
2024-05-21T21:05:36.074;599617123412704836;4414.9355;591
2024-05-21T21:05:36.082;599617123420396626;4422.6274;200
2024-05-21T21:05:36.090;599617123428088416;4430.3193;138
2024-05-21T21:05:36.098;599617123435780206;4438.0107;221
2024-05-21T21:05:36.105;599617123443471996;4445.7026;140
2024-05-21T21:05:36.113;599617123451163786;4453.3945;64
2024-05-21T21:05:36.121;599617123458855576;4461.0864;128
2024-05-21T21:05:36.128;599617123466547366;4468.778;188
2024-05-21T21:05:36.136;599617123474239156;4476.4697;185
2024-05-21T21:05:36.144;599617123481930946;4484.1616;195
2024-05-21T21:05:36.151;599617123489662924;4491.893;228
2024-05-21T21:05:36.159;599617123497354156;4499.5845;240
2024-05-21T21:05:36.167;599617123505045388;4507.276;236
2024-05-21T21:05:36.174;599617123512736620;4514.967;259
2024-05-21T21:05:36.182;599617123520427852;4522.658;298
2024-05-21T21:05:36.190;599617123528119084;4530.3496;324
2024-05-21T21:05:36.198;599617123535810316;4538.041;331
2024-05-21T21:05:36.205;599617123543501548;4545.732;309
2024-05-21T21:05:36.213;599617123551192780;4553.4233;312
2024-05-21T21:05:36.221;599617123558884012;4561.1147;336
2024-05-21T21:05:36.228;599617123566575244;4568.8057;300
2024-05-21T21:05:36.236;599617123574266476;4576.497;245
2024-05-21T21:05:36.244;599617123581957708;4584.1885;259
2024-05-21T21:05:36.251;599617123589648940;4591.88;257
2024-05-21T21:05:36.259;599617123597340172;4599.571;219
2024-05-21T21:05:36.267;599617123605031404;4607.2617;212
2024-05-21T21:05:36.274;599617123612722636;4614.953;202
2024-05-21T21:05:36.282;599617123620413868;4622.644;145
2024-05-21T21:05:36.290;599617123628105100;4630.3354;71
2024-05-21T21:05:36.298;599617123635796332;4638.027;30
2024-05-21T21:05:36.305;599617123643487564;4645.718;9
2024-05-21T21:05:36.313;599617123651178796;4653.409;-19
2024-05-21T21:05:36.321;599617123658870028;4661.1006;-40
2024-05-21T21:05:36.328;599617123666561260;4668.792;-21
2024-05-21T21:05:36.336;599617123674252492;4676.483;21
2024-05-21T21:05:36.344;599617123681943724;4684.1743;2
2024-05-21T21:05:36.351;599617123689634956;4691.8657;-78
2024-05-21T21:05:36.359;599617123697326188;4699.5566;-92
2024-05-21T21:05:36.367;599617123705017420;4707.248;-19
2024-05-21T21:05:36.374;599617123712708652;4714.9395;35
2024-05-21T21:05:36.382;599617123720399884;4722.631;19
2024-05-21T21:05:36.390;599617123728091116;4730.3213;-11
2024-05-21T21:05:36.398;599617123735782348;4738.0127;-9
2024-05-21T21:05:36.405;599617123743473580;4745.704;4
2024-05-21T21:05:36.413;599617123751164812;4753.395;126
2024-05-21T21:05:36.421;599617123758856044;4761.0864;472
2024-05-21T21:05:36.428;599617123766547276;4768.778;782
2024-05-21T21:05:36.436;599617123774238508;4776.4688;608
2024-05-21T21:05:36.444;599617123781929740;4784.16;152
2024-05-21T21:05:36.451;599617123789620972;4791.8516;45
2024-05-21T21:05:36.459;599617123797312204;4799.543;209
2024-05-21T21:05:36.467;599617123805003436;4807.234;214
2024-05-21T21:05:36.474;599617123812694668;4814.9253;154
2024-05-21T21:05:36.482;599617123820385900;4822.6167;205
2024-05-21T21:05:36.490;599617123828077132;4830.3076;252
2024-05-21T21:05:36.497;599617123835768364;4837.999;233
2024-05-21T21:05:36.505;599617123843459596;4845.6904;233
2024-05-21T21:05:36.513;599617123851150828;4853.3813;283
2024-05-21T21:05:36.521;599617123858842060;4861.0723;314
2024-05-21T21:05:36.528;599617123866533292;4868.7637;300
2024-05-21T21:05:36.536;599617123874224524;4876.455;305
2024-05-21T21:05:36.544;599617123881915756;4884.146;348
2024-05-21T21:05:36.551;599617123889606988;4891.8374;371
2024-05-21T21:05:36.559;599617123897298220;4899.529;376
2024-05-21T21:05:36.567;599617123904989452;4907.2197;393
2024-05-21T21:05:36.574;599617123912680684;4914.911;393
2024-05-21T21:05:36.582;599617123920371916;4922.6025;393
2024-05-21T21:05:36.590;599617123928063148;4930.294;402
2024-05-21T21:05:36.597;599617123935754380;4937.985;379
2024-05-21T21:05:36.605;599617123943445612;4945.6763;350
2024-05-21T21:05:36.613;599617123951136844;4953.3677;324
2024-05-21T21:05:36.621;599617123958828076;4961.0586;293
2024-05-21T21:05:36.628;599617123966519308;4968.75;307
2024-05-21T21:05:36.636;599617123974210540;4976.441;343
2024-05-21T21:05:36.644;599617123981901772;4984.1323;321
2024-05-21T21:05:36.651;599617123989593004;4991.823;269
2024-05-21T21:05:36.659;599617123997284236;4999.5146;228
2024-05-21T21:05:36.667;599617124004975468;5007.206;197
2024-05-21T21:05:36.674;599617124012666700;5014.897;174
2024-05-21T21:05:36.682;599617124020357932;5022.5884;164
2024-05-21T21:05:36.690;599617124028049164;5030.28;171
2024-05-21T21:05:36.697;599617124035740396;5037.9707;178
2024-05-21T21:05:36.705;599617124043431628;5045.662;171
2024-05-21T21:05:36.713;599617124051102826;5053.3335;140
2024-05-21T21:05:36.721;599617124058794337;5061.025;135
2024-05-21T21:05:36.728;599617124066485848;5068.7163;178
2024-05-21T21:05:36.736;599617124074177359;5076.4077;205
2024-05-21T21:05:36.744;599617124081868870;5084.0996;200
2024-05-21T21:05:36.751;599617124089560381;5091.791;216
2024-05-21T21:05:36.759;599617124097251892;5099.4824;200
2024-05-21T21:05:36.767;599617124104943403;5107.174;85
2024-05-21T21:05:36.774;599617124112634914;5114.8657;0
2024-05-21T21:05:36.782;599617124120326425;5122.557;138
2024-05-21T21:05:36.790;599617124128017936;5130.2485;460
2024-05-21T21:05:36.797;599617124135709447;5137.94;672
2024-05-21T21:05:36.805;599617124143400958;5145.632;469
2024-05-21T21:05:36.813;599617124151092469;5153.323;42
2024-05-21T21:05:36.821;599617124158783980;5161.014;-81
2024-05-21T21:05:36.828;599617124166475491;5168.706;69
2024-05-21T21:05:36.836;599617124174167002;5176.3975;88
2024-05-21T21:05:36.844;599617124181858513;5184.089;11
2024-05-21T21:05:36.851;599617124189550024;5191.7803;40
2024-05-21T21:05:36.859;599617124197241535;5199.472;76
2024-05-21T21:05:36.867;599617124204933046;5207.1636;69
2024-05-21T21:05:36.874;599617124212624557;5214.855;109
2024-05-21T21:05:36.882;599617124220316068;5222.5464;154
2024-05-21T21:05:36.890;599617124228007579;5230.2383;135
2024-05-21T21:05:36.897;599617124235699090;5237.9297;123
2024-05-21T21:05:36.905;599617124243390601;5245.621;164
2024-05-21T21:05:36.913;599617124251082112;5253.3125;219
2024-05-21T21:05:36.921;599617124258773623;5261.0044;257
2024-05-21T21:05:36.928;599617124266465134;5268.6953;269
2024-05-21T21:05:36.936;599617124274156645;5276.387;259
2024-05-21T21:05:36.944;599617124281848156;5284.0786;257
2024-05-21T21:05:36.951;599617124289539667;5291.7705;267
2024-05-21T21:05:36.959;599617124297231178;5299.4614;274
2024-05-21T21:05:36.967;599617124304922689;5307.1533;274
2024-05-21T21:05:36.974;599617124312614200;5314.8447;259
2024-05-21T21:05:36.982;599617124320305711;5322.5366;255
2024-05-21T21:05:36.990;599617124327997222;5330.2275;271
2024-05-21T21:05:36.997;599617124335688733;5337.9194;281
2024-05-21T21:05:37.005;599617124343380244;5345.611;238
2024-05-21T21:05:37.013;599617124351071755;5353.3027;181
2024-05-21T21:05:37.020;599617124358763266;5360.9937;166
2024-05-21T21:05:37.028;599617124366454777;5368.6855;169
2024-05-21T21:05:37.036;599617124374146288;5376.377;150
2024-05-21T21:05:37.044;599617124381837799;5384.068;123
2024-05-21T21:05:37.051;599617124389529310;5391.76;109
2024-05-21T21:05:37.059;599617124397220821;5399.451;121
2024-05-21T21:05:37.067;599617124404912332;5407.143;135
2024-05-21T21:05:37.074;599617124412603843;5414.834;112
2024-05-21T21:05:37.082;599617124420295354;5422.526;71
2024-05-21T21:05:37.090;599617124427986865;5430.2173;50
2024-05-21T21:05:37.097;599617124435678376;5437.909;57
2024-05-21T21:05:37.105;599617124443369887;5445.6;76
2024-05-21T21:05:37.113;599617124451061398;5453.292;90
2024-05-21T21:05:37.120;599617124458752909;5460.9834;71
2024-05-21T21:05:37.128;599617124466444420;5468.6753;38
2024-05-21T21:05:37.136;599617124474135931;5476.366;9
2024-05-21T21:05:37.144;599617124481827442;5484.058;64
2024-05-21T21:05:37.151;599617124489518953;5491.7495;340
2024-05-21T21:05:37.159;599617124497210464;5499.441;746
2024-05-21T21:05:37.167;599617124504901975;5507.1323;851
2024-05-21T21:05:37.174;599617124512593486;5514.824;467
2024-05-21T21:05:37.182;599617124520284997;5522.5156;78
2024-05-21T21:05:37.190;599617124527976508;5530.207;102
2024-05-21T21:05:37.197;599617124535668019;5537.8984;224
2024-05-21T21:05:37.205;599617124543359530;5545.5903;193
2024-05-21T21:05:37.213;599617124551051041;5553.2817;185
2024-05-21T21:05:37.220;599617124558742552;5560.973;205
2024-05-21T21:05:37.228;599617124566434063;5568.6646;188
2024-05-21T21:05:37.236;599617124574125574;5576.3564;226
2024-05-21T21:05:37.244;599617124581817085;5584.048;283
2024-05-21T21:05:37.251;599617124589508596;5591.7393;286
2024-05-21T21:05:37.259;599617124597200107;5599.4307;269
2024-05-21T21:05:37.267;599617124604891618;5607.122;293
2024-05-21T21:05:37.274;599617124612593172;5614.8237;343
2024-05-21T21:05:37.282;599617124620284544;5622.515;348
2024-05-21T21:05:37.290;599617124627975916;5630.2065;300
2024-05-21T21:05:37.297;599617124635667288;5637.898;247
2024-05-21T21:05:37.305;599617124643358660;5645.589;228
2024-05-21T21:05:37.313;599617124651050032;5653.281;188
2024-05-21T21:05:37.320;599617124658741404;5660.972;121
2024-05-21T21:05:37.328;599617124666432776;5668.663;109
2024-05-21T21:05:37.336;599617124674124148;5676.3545;90
2024-05-21T21:05:37.344;599617124681815520;5684.046;40
2024-05-21T21:05:37.351;599617124689506892;5691.738;16
2024-05-21T21:05:37.359;599617124697198264;5699.4287;-11
2024-05-21T21:05:37.367;599617124704889636;5707.12;-45
2024-05-21T21:05:37.374;599617124712581008;5714.8115;-52
2024-05-21T21:05:37.382;599617124720272380;5722.503;-54
2024-05-21T21:05:37.390;599617124727963752;5730.1943;-40
2024-05-21T21:05:37.397;599617124735655124;5737.8857;-35
2024-05-21T21:05:37.405;599617124743346496;5745.577;-50
2024-05-21T21:05:37.413;599617124751037868;5753.268;-30
2024-05-21T21:05:37.420;599617124758729240;5760.96;-4
2024-05-21T21:05:37.428;599617124766420612;5768.6514;0
2024-05-21T21:05:37.436;599617124774111984;5776.3423;16
2024-05-21T21:05:37.444;599617124781803356;5784.0337;52
2024-05-21T21:05:37.451;599617124789494728;5791.725;69
2024-05-21T21:05:37.459;599617124797186100;5799.417;66
2024-05-21T21:05:37.467;599617124804877472;5807.108;76
2024-05-21T21:05:37.474;599617124812568844;5814.7993;104
2024-05-21T21:05:37.482;599617124820260216;5822.4907;131
2024-05-21T21:05:37.490;599617124827951588;5830.182;114
2024-05-21T21:05:37.497;599617124835642960;5837.8735;66
2024-05-21T21:05:37.505;599617124843334332;5845.565;54
2024-05-21T21:05:37.513;599617124851025704;5853.2563;159
2024-05-21T21:05:37.520;599617124858717076;5860.9473;469
2024-05-21T21:05:37.528;599617124866408448;5868.639;834
2024-05-21T21:05:37.536;599617124874099820;5876.3306;827
2024-05-21T21:05:37.544;599617124881791192;5884.022;393
2024-05-21T21:05:37.551;599617124889482564;5891.713;78
2024-05-21T21:05:37.559;599617124897173936;5899.4043;157
2024-05-21T21:05:37.567;599617124904865308;5907.096;255
2024-05-21T21:05:37.574;599617124912556680;5914.787;190
2024-05-21T21:05:37.582;599617124920248052;5922.4785;159
2024-05-21T21:05:37.590;599617124927939424;5930.17;188
2024-05-21T21:05:37.597;599617124935630796;5937.8613;205
2024-05-21T21:05:37.605;599617124943322168;5945.5527;221
2024-05-21T21:05:37.613;599617124951013540;5953.244;247
2024-05-21T21:05:37.620;599617124958704912;5960.9355;274
2024-05-21T21:05:37.628;599617124966396284;5968.6265;286
2024-05-21T21:05:37.636;599617124974087656;5976.318;281
2024-05-21T21:05:37.644;599617124981779028;5984.01;293
2024-05-21T21:05:37.651;599617124989470400;5991.701;331
2024-05-21T21:05:37.659;599617124997161772;5999.392;348
2024-05-21T21:05:37.667;599617125004853144;6007.0835;305
2024-05-21T21:05:37.674;599617125012544516;6014.7754;257
2024-05-21T21:05:37.682;599617125020235888;6022.467;252
2024-05-21T21:05:37.690;599617125027927260;6030.1577;259
2024-05-21T21:05:37.697;599617125035618632;6037.849;240
2024-05-21T21:05:37.705;599617125043310004;6045.5405;181
2024-05-21T21:05:37.713;599617125051001376;6053.232;147
2024-05-21T21:05:37.720;599617125058692748;6060.9233;147
2024-05-21T21:05:37.728;599617125066384120;6068.6147;109
2024-05-21T21:05:37.736;599617125074075492;6076.306;54
2024-05-21T21:05:37.743;599617125081766864;6083.997;61
2024-05-21T21:05:37.751;599617125089458236;6091.689;85
2024-05-21T21:05:37.759;599617125097149608;6099.3804;69
2024-05-21T21:05:37.767;599617125104840980;6107.0713;42
2024-05-21T21:05:37.774;599617125112532352;6114.7627;33
2024-05-21T21:05:37.782;599617125120223724;6122.454;38
2024-05-21T21:05:37.790;599617125127915096;6130.146;23
2024-05-21T21:05:37.797;599617125135606468;6137.837;-38
2024-05-21T21:05:37.805;599617125143297840;6145.5283;-69
2024-05-21T21:05:37.813;599617125150989212;6153.2197;-33
2024-05-21T21:05:37.820;599617125158680584;6160.911;-42
2024-05-21T21:05:37.828;599617125166371956;6168.6025;-92
2024-05-21T21:05:37.836;599617125174063336;6176.294;-81
2024-05-21T21:05:37.843;599617125181754708;6183.9854;-52
2024-05-21T21:05:37.851;599617125189446080;6191.6763;-45
2024-05-21T21:05:37.859;599617125197137452;6199.368;-40
2024-05-21T21:05:37.867;599617125204828824;6207.0596;-61
2024-05-21T21:05:37.874;599617125212520196;6214.7505;-143
2024-05-21T21:05:37.882;599617125220211568;6222.442;-183
2024-05-21T21:05:37.890;599617125227902940;6230.1333;14
2024-05-21T21:05:37.897;599617125235594312;6237.825;414
2024-05-21T21:05:37.905;599617125243285684;6245.516;593
2024-05-21T21:05:37.913;599617125250977056;6253.2075;295
2024-05-21T21:05:37.920;599617125258668428;6260.899;-85
2024-05-21T21:05:37.928;599617125266359800;6268.591;-116
2024-05-21T21:05:37.936;599617125274051172;6276.2817;-14
2024-05-21T21:05:37.943;599617125281742544;6283.973;-35
2024-05-21T21:05:37.951;599617125289433916;6291.6646;-38
2024-05-21T21:05:37.959;599617125297125288;6299.3555;2
2024-05-21T21:05:37.967;599617125304816660;6307.0474;-2
2024-05-21T21:05:37.974;599617125312508032;6314.739;2
2024-05-21T21:05:37.982;599617125320199404;6322.43;50
2024-05-21T21:05:37.990;599617125327890776;6330.121;88
2024-05-21T21:05:37.997;599617125335582148;6337.8125;95
2024-05-21T21:05:38.005;599617125343273520;6345.5044;90
2024-05-21T21:05:38.013;599617125350964892;6353.1953;83
2024-05-21T21:05:38.020;599617125358656264;6360.8867;69
2024-05-21T21:05:38.028;599617125366347636;6368.578;61
2024-05-21T21:05:38.036;599617125374039008;6376.2695;73
2024-05-21T21:05:38.043;599617125381730380;6383.961;97
2024-05-21T21:05:38.051;599617125389421752;6391.6523;81
2024-05-21T21:05:38.059;599617125397113124;6399.3438;14
2024-05-21T21:05:38.067;599617125404804496;6407.0347;-47
2024-05-21T21:05:38.074;599617125412495868;6414.7266;-90
2024-05-21T21:05:38.082;599617125420187240;6422.418;-109
2024-05-21T21:05:38.090;599617125427878612;6430.1094;-119
2024-05-21T21:05:38.097;599617125435569984;6437.8003;-128
2024-05-21T21:05:38.105;599617125443261356;6445.4917;-100
2024-05-21T21:05:38.113;599617125450952728;6453.1836;-81
2024-05-21T21:05:38.120;599617125458644100;6460.8745;-100
2024-05-21T21:05:38.128;599617125466335472;6468.566;-90
2024-05-21T21:05:38.136;599617125474026844;6476.2573;-59
2024-05-21T21:05:38.143;599617125481718216;6483.9487;-66
2024-05-21T21:05:38.151;599617125489409588;6491.64;-90
2024-05-21T21:05:38.159;599617125497100960;6499.3315;-66
2024-05-21T21:05:38.167;599617125504792332;6507.023;-23
2024-05-21T21:05:38.174;599617125512483704;6514.7144;-11
2024-05-21T21:05:38.182;599617125520175076;6522.4053;-7
2024-05-21T21:05:38.190;599617125527866448;6530.097;2
2024-05-21T21:05:38.197;599617125535557820;6537.7886;4
2024-05-21T21:05:38.205;599617125543249192;6545.4795;14
2024-05-21T21:05:38.213;599617125550940564;6553.171;16
2024-05-21T21:05:38.220;599617125558631936;6560.863;30
2024-05-21T21:05:38.228;599617125566323308;6568.554;64
2024-05-21T21:05:38.236;599617125574014680;6576.245;69
2024-05-21T21:05:38.243;599617125581706052;6583.9365;33
2024-05-21T21:05:38.251;599617125589397424;6591.628;-7
2024-05-21T21:05:38.259;599617125597088796;6599.3193;2
2024-05-21T21:05:38.267;599617125604780168;6607.0107;171
2024-05-21T21:05:38.274;599617125612471540;6614.702;531
2024-05-21T21:05:38.282;599617125620162912;6622.3936;772
2024-05-21T21:05:38.290;599617125627854284;6630.0845;526
2024-05-21T21:05:38.297;599617125635545656;6637.7764;21
2024-05-21T21:05:38.305;599617125643237028;6645.468;-154
2024-05-21T21:05:38.313;599617125650928400;6653.1587;-35
2024-05-21T21:05:38.320;599617125658619772;6660.85;-45
2024-05-21T21:05:38.328;599617125666311144;6668.5415;-121
2024-05-21T21:05:38.336;599617125674002516;6676.2334;-81
2024-05-21T21:05:38.343;599617125681693888;6683.9243;-26
2024-05-21T21:05:38.351;599617125689385260;6691.6157;-2
2024-05-21T21:05:38.359;599617125697076632;6699.307;9
2024-05-21T21:05:38.366;599617125704768004;6706.999;-7
2024-05-21T21:05:38.374;599617125712459376;6714.69;-30
2024-05-21T21:05:38.382;599617125720150748;6722.3813;-9
2024-05-21T21:05:38.390;599617125727842120;6730.0728;23
2024-05-21T21:05:38.397;599617125735503404;6737.7344;19
2024-05-21T21:05:38.405;599617125743195194;6745.426;21
2024-05-21T21:05:38.413;599617125750886984;6753.1177;7
2024-05-21T21:05:38.420;599617125758578774;6760.8096;-73
2024-05-21T21:05:38.428;599617125766270564;6768.5015;-150
2024-05-21T21:05:38.436;599617125773962354;6776.193;-162
2024-05-21T21:05:38.443;599617125781654144;6783.885;-143
2024-05-21T21:05:38.451;599617125789345934;6791.5767;-138
2024-05-21T21:05:38.459;599617125797037724;6799.2686;-143
2024-05-21T21:05:38.466;599617125804729514;6806.96;-121
2024-05-21T21:05:38.474;599617125812421304;6814.652;-97
2024-05-21T21:05:38.482;599617125820113094;6822.3438;-97
2024-05-21T21:05:38.490;599617125827804884;6830.0356;-85
2024-05-21T21:05:38.497;599617125835496674;6837.727;-45
2024-05-21T21:05:38.505;599617125843188464;6845.419;-30
2024-05-21T21:05:38.513;599617125850880254;6853.111;-45
2024-05-21T21:05:38.520;599617125858572044;6860.8027;-35
2024-05-21T21:05:38.528;599617125866263834;6868.494;-11
2024-05-21T21:05:38.536;599617125873955624;6876.186;-14
2024-05-21T21:05:38.543;599617125881647414;6883.878;0
2024-05-21T21:05:38.551;599617125889339204;6891.57;38
2024-05-21T21:05:38.559;599617125897030994;6899.261;11
2024-05-21T21:05:38.566;599617125904722784;6906.953;-50
2024-05-21T21:05:38.574;599617125912414574;6914.645;-33
2024-05-21T21:05:38.582;599617125920106364;6922.337;16
2024-05-21T21:05:38.590;599617125927798154;6930.0283;59
2024-05-21T21:05:38.597;599617125935489944;6937.72;71
2024-05-21T21:05:38.605;599617125943181734;6945.412;52
2024-05-21T21:05:38.613;599617125950873524;6953.104;69
2024-05-21T21:05:38.620;599617125958565314;6960.7954;100
2024-05-21T21:05:38.628;599617125966257104;6968.4873;59
2024-05-21T21:05:38.636;599617125973948894;6976.179;30
2024-05-21T21:05:38.643;599617125981640684;6983.871;178
2024-05-21T21:05:38.651;599617125989332474;6991.5635;543
2024-05-21T21:05:38.659;599617125997024264;6999.255;829
2024-05-21T21:05:38.666;599617126004716054;7006.947;677
2024-05-21T21:05:38.674;599617126012407844;7014.6387;259
2024-05-21T21:05:38.682;599617126020099634;7022.3306;100
2024-05-21T21:05:38.690;599617126027791424;7030.022;200
2024-05-21T21:05:38.697;599617126035483214;7037.714;205
2024-05-21T21:05:38.705;599617126043175004;7045.406;147
2024-05-21T21:05:38.713;599617126050866794;7053.0977;193
2024-05-21T21:05:38.720;599617126058558584;7060.789;233
2024-05-21T21:05:38.728;599617126066250374;7068.481;197
2024-05-21T21:05:38.736;599617126073942164;7076.173;166
2024-05-21T21:05:38.743;599617126081633954;7083.8647;166
2024-05-21T21:05:38.751;599617126089325744;7091.556;162
2024-05-21T21:05:38.759;599617126097017534;7099.248;178
2024-05-21T21:05:38.766;599617126104709324;7106.94;195
2024-05-21T21:05:38.774;599617126112401114;7114.632;166
2024-05-21T21:05:38.782;599617126120092904;7122.323;131
2024-05-21T21:05:38.790;599617126127784694;7130.015;102
2024-05-21T21:05:38.797;599617126135476484;7137.707;16
2024-05-21T21:05:38.805;599617126143168274;7145.399;-104
2024-05-21T21:05:38.813;599617126150860064;7153.0903;-143
2024-05-21T21:05:38.820;599617126158551854;7160.782;-95
2024-05-21T21:05:38.828;599617126166243644;7168.474;-71
2024-05-21T21:05:38.836;599617126173935434;7176.166;-73
2024-05-21T21:05:38.843;599617126181627224;7183.8574;-71
2024-05-21T21:05:38.851;599617126189319014;7191.5493;-54
2024-05-21T21:05:38.859;599617126197010804;7199.241;-4
2024-05-21T21:05:38.866;599617126204702594;7206.933;47
2024-05-21T21:05:38.874;599617126212394384;7214.625;47
2024-05-21T21:05:38.882;599617126220086174;7222.3164;33
2024-05-21T21:05:38.890;599617126227777964;7230.0083;57
2024-05-21T21:05:38.897;599617126235469754;7237.7;104
2024-05-21T21:05:38.905;599617126243161544;7245.392;133
2024-05-21T21:05:38.913;599617126250853334;7253.0835;116
2024-05-21T21:05:38.920;599617126258545124;7260.7754;112
2024-05-21T21:05:38.928;599617126266236914;7268.4673;133
2024-05-21T21:05:38.936;599617126273928704;7276.1597;126
2024-05-21T21:05:38.943;599617126281620494;7283.851;157
2024-05-21T21:05:38.951;599617126289312284;7291.543;228
2024-05-21T21:05:38.959;599617126297034182;7299.2646;221
2024-05-21T21:05:38.966;599617126304725554;7306.956;190
2024-05-21T21:05:38.974;599617126312416926;7314.6475;221
2024-05-21T21:05:38.982;599617126320108298;7322.339;250
2024-05-21T21:05:38.990;599617126327799670;7330.0303;238
2024-05-21T21:05:38.997;599617126335491042;7337.721;245
2024-05-21T21:05:39.005;599617126343182414;7345.413;243
2024-05-21T21:05:39.013;599617126350873786;7353.1045;188
2024-05-21T21:05:39.020;599617126358565158;7360.7954;231
2024-05-21T21:05:39.028;599617126366256530;7368.487;543
2024-05-21T21:05:39.036;599617126373947902;7376.1787;906
2024-05-21T21:05:39.043;599617126381639274;7383.87;844
2024-05-21T21:05:39.051;599617126389330646;7391.561;395
2024-05-21T21:05:39.059;599617126397022018;7399.2524;104
2024-05-21T21:05:39.066;599617126404713390;7406.944;154
2024-05-21T21:05:39.074;599617126412404762;7414.6357;212
2024-05-21T21:05:39.082;599617126420096134;7422.3267;169
2024-05-21T21:05:39.090;599617126427787506;7430.018;162
2024-05-21T21:05:39.097;599617126435478878;7437.7095;178
2024-05-21T21:05:39.105;599617126443170250;7445.4004;174
2024-05-21T21:05:39.113;599617126450861622;7453.0923;176
2024-05-21T21:05:39.120;599617126458552994;7460.7837;202
2024-05-21T21:05:39.128;599617126466244366;7468.475;221
2024-05-21T21:05:39.136;599617126473935738;7476.166;181
2024-05-21T21:05:39.143;599617126481627110;7483.8574;133
2024-05-21T21:05:39.151;599617126489318482;7491.5493;116
2024-05-21T21:05:39.159;599617126497009854;7499.24;71
2024-05-21T21:05:39.166;599617126504701226;7506.9316;59
2024-05-21T21:05:39.174;599617126512392598;7514.623;119
2024-05-21T21:05:39.182;599617126520083970;7522.315;145
2024-05-21T21:05:39.190;599617126527775342;7530.006;119
2024-05-21T21:05:39.197;599617126535466714;7537.6973;73
2024-05-21T21:05:39.205;599617126543158086;7545.3887;50
2024-05-21T21:05:39.213;599617126550849458;7553.0796;102
2024-05-21T21:05:39.220;599617126558540830;7560.7715;152
2024-05-21T21:05:39.228;599617126566232202;7568.463;121
2024-05-21T21:05:39.236;599617126573923574;7576.1543;126
2024-05-21T21:05:39.243;599617126581614946;7583.845;200
2024-05-21T21:05:39.251;599617126589306318;7591.5366;193
2024-05-21T21:05:39.259;599617126596997690;7599.2285;143
2024-05-21T21:05:39.266;599617126604689062;7606.92;169
2024-05-21T21:05:39.274;599617126612380434;7614.611;216
2024-05-21T21:05:39.282;599617126620071806;7622.3022;219
2024-05-21T21:05:39.289;599617126627763178;7629.9937;209
2024-05-21T21:05:39.297;599617126635454550;7637.685;174
2024-05-21T21:05:39.305;599617126643145922;7645.3765;71
2024-05-21T21:05:39.313;599617126650837294;7653.068;14
2024-05-21T21:05:39.320;599617126658528666;7660.7593;61
2024-05-21T21:05:39.328;599617126666220038;7668.4507;92
2024-05-21T21:05:39.336;599617126673911410;7676.142;102
2024-05-21T21:05:39.343;599617126681602782;7683.8335;128
2024-05-21T21:05:39.351;599617126689294154;7691.5244;133
2024-05-21T21:05:39.359;599617126696985526;7699.216;152
2024-05-21T21:05:39.366;599617126704676898;7706.9077;221
2024-05-21T21:05:39.374;599617126712368270;7714.599;231
2024-05-21T21:05:39.382;599617126720059642;7722.29;185
2024-05-21T21:05:39.389;599617126727751014;7729.9814;181
2024-05-21T21:05:39.397;599617126735442386;7737.673;190
2024-05-21T21:05:39.405;599617126743133758;7745.3643;247
2024-05-21T21:05:39.413;599617126750825130;7753.0557;526
2024-05-21T21:05:39.420;599617126758516502;7760.747;920
2024-05-21T21:05:39.428;599617126766207874;7768.4385;960
2024-05-21T21:05:39.436;599617126773899246;7776.1294;534
2024-05-21T21:05:39.443;599617126781590618;7783.8213;195
2024-05-21T21:05:39.451;599617126789281990;7791.5127;245
2024-05-21T21:05:39.459;599617126796973362;7799.2036;293
2024-05-21T21:05:39.466;599617126804664734;7806.895;171
2024-05-21T21:05:39.474;599617126812356106;7814.587;145
2024-05-21T21:05:39.482;599617126820047478;7822.2783;212
2024-05-21T21:05:39.489;599617126827738850;7829.969;190
2024-05-21T21:05:39.497;599617126835430222;7837.6606;140
2024-05-21T21:05:39.505;599617126843121594;7845.352;154
2024-05-21T21:05:39.513;599617126850812966;7853.044;166
2024-05-21T21:05:39.520;599617126858474250;7860.7046;133
2024-05-21T21:05:39.528;599617126866166040;7868.3965;97
2024-05-21T21:05:39.536;599617126873857830;7876.0884;97
2024-05-21T21:05:39.543;599617126881549620;7883.7803;107
2024-05-21T21:05:39.551;599617126889241410;7891.4717;100
2024-05-21T21:05:39.559;599617126896933200;7899.1636;107
2024-05-21T21:05:39.566;599617126904624990;7906.8555;109
2024-05-21T21:05:39.574;599617126912316780;7914.5474;92
2024-05-21T21:05:39.582;599617126920008570;7922.239;83
2024-05-21T21:05:39.589;599617126927700360;7929.9307;54
2024-05-21T21:05:39.597;599617126935392150;7937.6226;14
2024-05-21T21:05:39.605;599617126943083940;7945.3145;47
2024-05-21T21:05:39.613;599617126950775730;7953.006;100
2024-05-21T21:05:39.620;599617126958467520;7960.6978;71
2024-05-21T21:05:39.628;599617126966159310;7968.3896;66
2024-05-21T21:05:39.636;599617126973851100;7976.0815;152
2024-05-21T21:05:39.643;599617126981542890;7983.773;193
2024-05-21T21:05:39.651;599617126989234680;7991.4653;159
2024-05-21T21:05:39.659;599617126996926470;7999.157;150
2024-05-21T21:05:39.666;599617127004618260;8006.849;185
2024-05-21T21:05:39.674;599617127012310050;8014.541;231
2024-05-21T21:05:39.682;599617127020001840;8022.2324;236
2024-05-21T21:05:39.689;599617127027693630;8029.9243;214
2024-05-21T21:05:39.697;599617127035385420;8037.616;236
2024-05-21T21:05:39.705;599617127043077210;8045.308;274
2024-05-21T21:05:39.712;599617127050769000;8052.9995;257
2024-05-21T21:05:39.720;599617127058460790;8060.6914;255
2024-05-21T21:05:39.728;599617127066152580;8068.3833;312
2024-05-21T21:05:39.736;599617127073844370;8076.075;348
2024-05-21T21:05:39.743;599617127081536160;8083.7666;329
2024-05-21T21:05:39.751;599617127089227950;8091.4585;324
2024-05-21T21:05:39.759;599617127096919740;8099.1504;360
2024-05-21T21:05:39.766;599617127104611530;8106.8423;357
2024-05-21T21:05:39.774;599617127112303320;8114.5337;300
2024-05-21T21:05:39.782;599617127119995110;8122.2256;283
2024-05-21T21:05:39.789;599617127127686900;8129.9175;307
2024-05-21T21:05:39.797;599617127135378690;8137.6094;422
2024-05-21T21:05:39.805;599617127143070480;8145.301;677
2024-05-21T21:05:39.812;599617127150762270;8152.9927;834
2024-05-21T21:05:39.820;599617127158454060;8160.6846;617
2024-05-21T21:05:39.828;599617127166145850;8168.3765;207
2024-05-21T21:05:39.836;599617127173837640;8176.068;57
2024-05-21T21:05:39.843;599617127181529430;8183.76;159
2024-05-21T21:05:39.851;599617127189221220;8191.4517;140
2024-05-21T21:05:39.859;599617127196913010;8199.144;52
2024-05-21T21:05:39.866;599617127204604800;8206.835;57
2024-05-21T21:05:39.874;599617127212296590;8214.527;54
2024-05-21T21:05:39.882;599617127219988380;8222.219;38
2024-05-21T21:05:39.889;599617127227680170;8229.91;57
2024-05-21T21:05:39.897;599617127235371960;8237.603;59
2024-05-21T21:05:39.905;599617127243063750;8245.294;71
2024-05-21T21:05:39.912;599617127250755540;8252.986;100
2024-05-21T21:05:39.920;599617127258447330;8260.678;114
2024-05-21T21:05:39.928;599617127266139120;8268.369;147
2024-05-21T21:05:39.936;599617127273830910;8276.062;171
2024-05-21T21:05:39.943;599617127281522700;8283.754;166
2024-05-21T21:05:39.951;599617127289214490;8291.445;178
2024-05-21T21:05:39.959;599617127296906280;8299.137;185
2024-05-21T21:05:39.966;599617127304598070;8306.829;190
2024-05-21T21:05:39.974;599617127312289860;8314.5205;236
2024-05-21T21:05:39.982;599617127319981650;8322.212;247
2024-05-21T21:05:39.989;599617127327673440;8329.904;221
2024-05-21T21:05:39.997;599617127335365230;8337.596;250
2024-05-21T21:05:40.005;599617127343057020;8345.288;293
2024-05-21T21:05:40.012;599617127350748810;8352.9795;278
2024-05-21T21:05:40.020;599617127358440600;8360.671;269
2024-05-21T21:05:40.028;599617127366132390;8368.363;295
2024-05-21T21:05:40.036;599617127373824180;8376.055;293
2024-05-21T21:05:40.043;599617127381515970;8383.746;264
2024-05-21T21:05:40.051;599617127389207760;8391.438;269
2024-05-21T21:05:40.059;599617127396899550;8399.13;283
2024-05-21T21:05:40.066;599617127404591340;8406.822;271
2024-05-21T21:05:40.074;599617127412283130;8414.514;255
2024-05-21T21:05:40.082;599617127420005028;8422.235;262
2024-05-21T21:05:40.089;599617127427696400;8429.927;302
2024-05-21T21:05:40.097;599617127435387772;8437.618;329
2024-05-21T21:05:40.105;599617127443079144;8445.31;331
2024-05-21T21:05:40.113;599617127450770516;8453.001;350
2024-05-21T21:05:40.120;599617127458461888;8460.692;355
2024-05-21T21:05:40.128;599617127466153260;8468.384;300
2024-05-21T21:05:40.136;599617127473844632;8476.075;243
2024-05-21T21:05:40.143;599617127481536004;8483.767;264
2024-05-21T21:05:40.151;599617127489227376;8491.458;307
2024-05-21T21:05:40.159;599617127496918748;8499.149;290
2024-05-21T21:05:40.166;599617127504610120;8506.841;238
2024-05-21T21:05:40.174;599617127512301492;8514.532;200
2024-05-21T21:05:40.182;599617127519992864;8522.224;281
2024-05-21T21:05:40.189;599617127527684236;8529.915;588
2024-05-21T21:05:40.197;599617127535375608;8537.606;882
2024-05-21T21:05:40.205;599617127543066980;8545.298;743
2024-05-21T21:05:40.212;599617127550758352;8552.988;293
2024-05-21T21:05:40.220;599617127558449724;8560.681;61
2024-05-21T21:05:40.228;599617127566141096;8568.372;133
2024-05-21T21:05:40.236;599617127573832468;8576.0625;138
2024-05-21T21:05:40.243;599617127581523840;8583.754;42
2024-05-21T21:05:40.251;599617127589215212;8591.446;45
2024-05-21T21:05:40.259;599617127596906584;8599.138;92
2024-05-21T21:05:40.266;599617127604597956;8606.828;83
2024-05-21T21:05:40.274;599617127612289328;8614.52;71
2024-05-21T21:05:40.282;599617127619980700;8622.211;85
2024-05-21T21:05:40.289;599617127627672072;8629.902;88
2024-05-21T21:05:40.297;599617127635363444;8637.594;90
2024-05-21T21:05:40.305;599617127643054816;8645.285;85
2024-05-21T21:05:40.312;599617127650746188;8652.978;35
2024-05-21T21:05:40.320;599617127658437560;8660.668;11
2024-05-21T21:05:40.328;599617127666128932;8668.359;69
2024-05-21T21:05:40.336;599617127673820304;8676.051;112
2024-05-21T21:05:40.343;599617127681511676;8683.742;100
2024-05-21T21:05:40.351;599617127689203048;8691.434;114
2024-05-21T21:05:40.359;599617127696894420;8699.125;150
2024-05-21T21:05:40.366;599617127704585792;8706.816;159
2024-05-21T21:05:40.374;599617127712277164;8714.507;159
2024-05-21T21:05:40.382;599617127719968536;8722.199;183
2024-05-21T21:05:40.389;599617127727659908;8729.891;212
2024-05-21T21:05:40.397;599617127735351280;8737.582;214
2024-05-21T21:05:40.405;599617127743042652;8745.273;197
2024-05-21T21:05:40.412;599617127750734024;8752.965;209
2024-05-21T21:05:40.420;599617127758425396;8760.656;233
2024-05-21T21:05:40.428;599617127766116768;8768.347;231
2024-05-21T21:05:40.436;599617127773808140;8776.038;238
2024-05-21T21:05:40.443;599617127781499512;8783.7295;274
2024-05-21T21:05:40.451;599617127789190884;8791.421;271
2024-05-21T21:05:40.459;599617127796882256;8799.113;243
2024-05-21T21:05:40.466;599617127804573628;8806.805;245
2024-05-21T21:05:40.474;599617127812265000;8814.496;283
2024-05-21T21:05:40.482;599617127819956372;8822.187;321
2024-05-21T21:05:40.489;599617127827647744;8829.878;312
2024-05-21T21:05:40.497;599617127835339116;8837.569;288
2024-05-21T21:05:40.505;599617127843030488;8845.261;309
2024-05-21T21:05:40.512;599617127850721860;8852.952;336
2024-05-21T21:05:40.520;599617127858413232;8860.644;338
2024-05-21T21:05:40.528;599617127866104604;8868.336;324
2024-05-21T21:05:40.536;599617127873795976;8876.027;269
2024-05-21T21:05:40.543;599617127881487348;8883.718;193
2024-05-21T21:05:40.551;599617127889178720;8891.409;128
2024-05-21T21:05:40.559;599617127896870092;8899.101;128
2024-05-21T21:05:40.566;599617127904561464;8906.792;312
2024-05-21T21:05:40.574;599617127912252836;8914.483;653
2024-05-21T21:05:40.582;599617127919944208;8922.175;810
2024-05-21T21:05:40.589;599617127927635580;8929.866;531
2024-05-21T21:05:40.597;599617127935326952;8937.557;128
2024-05-21T21:05:40.605;599617127943018324;8945.249;-2
2024-05-21T21:05:40.612;599617127950709696;8952.94;45
2024-05-21T21:05:40.620;599617127958401068;8960.632;45
2024-05-21T21:05:40.628;599617127966092440;8968.323;33
2024-05-21T21:05:40.636;599617127973783812;8976.015;45
2024-05-21T21:05:40.643;599617127981475192;8983.706;33
2024-05-21T21:05:40.651;599617127989166564;8991.396;33
2024-05-21T21:05:40.659;599617127996857936;8999.088;83
2024-05-21T21:05:40.666;599617128004549308;9006.779;116
2024-05-21T21:05:40.674;599617128012240680;9014.472;116
2024-05-21T21:05:40.682;599617128019932052;9022.163;116
2024-05-21T21:05:40.689;599617128027623424;9029.8545;126
2024-05-21T21:05:40.697;599617128035314796;9037.546;116
2024-05-21T21:05:40.705;599617128043006168;9045.236;71
2024-05-21T21:05:40.712;599617128050697540;9052.928;76
2024-05-21T21:05:40.720;599617128058388912;9060.619;133
2024-05-21T21:05:40.728;599617128066080284;9068.311;131
2024-05-21T21:05:40.736;599617128073771656;9076.002;109
2024-05-21T21:05:40.743;599617128081463028;9083.693;154
2024-05-21T21:05:40.751;599617128089154400;9091.386;197
2024-05-21T21:05:40.759;599617128096845772;9099.076;190
2024-05-21T21:05:40.766;599617128104537144;9106.768;183
2024-05-21T21:05:40.774;599617128112228516;9114.459;183
2024-05-21T21:05:40.782;599617128119919888;9122.15;152
2024-05-21T21:05:40.789;599617128127611260;9129.842;121
2024-05-21T21:05:40.797;599617128135302632;9137.533;145
2024-05-21T21:05:40.805;599617128142994004;9145.225;188
2024-05-21T21:05:40.812;599617128150685376;9152.915;166
2024-05-21T21:05:40.820;599617128158376748;9160.607;83
2024-05-21T21:05:40.828;599617128166068120;9168.299;61
2024-05-21T21:05:40.835;599617128173759492;9175.99;114
2024-05-21T21:05:40.843;599617128181450864;9183.682;140
2024-05-21T21:05:40.851;599617128189142236;9191.373;138
2024-05-21T21:05:40.859;599617128196833608;9199.064;162
2024-05-21T21:05:40.866;599617128204524980;9206.755;181
2024-05-21T21:05:40.874;599617128212216352;9214.446;188
2024-05-21T21:05:40.882;599617128219907724;9222.138;214
2024-05-21T21:05:40.889;599617128227599096;9229.83;247
2024-05-21T21:05:40.897;599617128235290468;9237.521;262
2024-05-21T21:05:40.905;599617128242981840;9245.213;243
2024-05-21T21:05:40.912;599617128250673212;9252.904;212
2024-05-21T21:05:40.920;599617128258364584;9260.595;207
2024-05-21T21:05:40.928;599617128266055956;9268.286;202
2024-05-21T21:05:40.935;599617128273747328;9275.978;166
2024-05-21T21:05:40.943;599617128281438700;9283.669;202
2024-05-21T21:05:40.951;599617128289130072;9291.36;455
2024-05-21T21:05:40.959;599617128296821444;9299.052;794
2024-05-21T21:05:40.966;599617128304512816;9306.744;765
2024-05-21T21:05:40.974;599617128312204188;9314.436;295
2024-05-21T21:05:40.982;599617128319895560;9322.126;-33
2024-05-21T21:05:40.989;599617128327586932;9329.817;45
2024-05-21T21:05:40.997;599617128335278304;9337.509;114
2024-05-21T21:05:41.005;599617128342969676;9345.2;23
2024-05-21T21:05:41.012;599617128350661048;9352.892;28
2024-05-21T21:05:41.020;599617128358352420;9360.583;83
2024-05-21T21:05:41.028;599617128366043792;9368.273;30
2024-05-21T21:05:41.035;599617128373735164;9375.966;-4
2024-05-21T21:05:41.043;599617128381426536;9383.657;54
2024-05-21T21:05:41.051;599617128389117908;9391.349;83
2024-05-21T21:05:41.059;599617128396809280;9399.04;54
2024-05-21T21:05:41.066;599617128404500652;9406.731;71
2024-05-21T21:05:41.074;599617128412192024;9414.423;133
2024-05-21T21:05:41.082;599617128419883396;9422.114;183
2024-05-21T21:05:41.089;599617128427574768;9429.805;197
2024-05-21T21:05:41.097;599617128435266140;9437.496;185
2024-05-21T21:05:41.105;599617128442957512;9445.1875;202
2024-05-21T21:05:41.112;599617128450648884;9452.88;243
2024-05-21T21:05:41.120;599617128458340256;9460.571;274
2024-05-21T21:05:41.128;599617128466031628;9468.263;286
2024-05-21T21:05:41.135;599617128473723000;9475.954;290
2024-05-21T21:05:41.143;599617128481414372;9483.645;283
2024-05-21T21:05:41.151;599617128489105744;9491.336;286
2024-05-21T21:05:41.159;599617128496797116;9499.027;309
2024-05-21T21:05:41.166;599617128504488488;9506.719;331
2024-05-21T21:05:41.174;599617128512179860;9514.41;348
2024-05-21T21:05:41.182;599617128519871232;9522.103;350
2024-05-21T21:05:41.189;599617128527562604;9529.794;331
2024-05-21T21:05:41.197;599617128535253976;9537.484;336
2024-05-21T21:05:41.205;599617128542945354;9545.176;376
2024-05-21T21:05:41.212;599617128550636726;9552.867;398
2024-05-21T21:05:41.220;599617128558328098;9560.559;388
2024-05-21T21:05:41.228;599617128566019470;9568.25;376
2024-05-21T21:05:41.235;599617128573710842;9575.941;336
2024-05-21T21:05:41.243;599617128581402214;9583.633;295
2024-05-21T21:05:41.251;599617128589093586;9591.323;321
2024-05-21T21:05:41.259;599617128596784958;9599.016;355
2024-05-21T21:05:41.266;599617128604476330;9606.707;326
2024-05-21T21:05:41.274;599617128612167702;9614.398;283
2024-05-21T21:05:41.282;599617128619859074;9622.09;267
2024-05-21T21:05:41.289;599617128627550446;9629.781;257
2024-05-21T21:05:41.297;599617128635241818;9637.473;252
2024-05-21T21:05:41.305;599617128642933190;9645.163;240
2024-05-21T21:05:41.312;599617128650624562;9652.8545;152
2024-05-21T21:05:41.320;599617128658315934;9660.546;71
2024-05-21T21:05:41.328;599617128666007306;9668.238;245
2024-05-21T21:05:41.335;599617128673698678;9675.93;605
2024-05-21T21:05:41.343;599617128681390050;9683.621;705
2024-05-21T21:05:41.351;599617128689081422;9691.3125;326
2024-05-21T21:05:41.359;599617128696772794;9699.003;-92
2024-05-21T21:05:41.366;599617128704464166;9706.694;-88
2024-05-21T21:05:41.374;599617128712155538;9714.386;42
2024-05-21T21:05:41.382;599617128719846910;9722.077;0
2024-05-21T21:05:41.389;599617128727538282;9729.769;-21
2024-05-21T21:05:41.397;599617128735229654;9737.46;33
2024-05-21T21:05:41.405;599617128742921026;9745.152;50
2024-05-21T21:05:41.412;599617128750612398;9752.844;42
2024-05-21T21:05:41.420;599617128758303770;9760.534;45
2024-05-21T21:05:41.428;599617128765995142;9768.226;61
2024-05-21T21:05:41.435;599617128773686514;9775.917;109
2024-05-21T21:05:41.443;599617128781377886;9783.608;150
2024-05-21T21:05:41.451;599617128789069258;9791.3;178
2024-05-21T21:05:41.458;599617128796760630;9798.991;212
2024-05-21T21:05:41.466;599617128804452002;9806.682;205
2024-05-21T21:05:41.474;599617128812143374;9814.374;183
2024-05-21T21:05:41.482;599617128819834746;9822.065;200
2024-05-21T21:05:41.489;599617128827526118;9829.757;231
2024-05-21T21:05:41.497;599617128835217490;9837.448;267
2024-05-21T21:05:41.505;599617128842908862;9845.14;288
2024-05-21T21:05:41.512;599617128850600234;9852.831;259
2024-05-21T21:05:41.520;599617128858291606;9860.522;236
2024-05-21T21:05:41.528;599617128865982978;9868.213;271
2024-05-21T21:05:41.535;599617128873674350;9875.904;293
2024-05-21T21:05:41.543;599617128881365722;9883.596;278
2024-05-21T21:05:41.551;599617128889057094;9891.288;300
2024-05-21T21:05:41.558;599617128896748466;9898.9795;329
2024-05-21T21:05:41.566;599617128904439838;9906.671;309
2024-05-21T21:05:41.574;599617128912131210;9914.362;305
2024-05-21T21:05:41.582;599617128919822582;9922.053;343
2024-05-21T21:05:41.589;599617128927513954;9929.744;360
2024-05-21T21:05:41.597;599617128935205326;9937.436;350
2024-05-21T21:05:41.605;599617128942896698;9945.127;362
2024-05-21T21:05:41.612;599617128950588070;9952.818;381
2024-05-21T21:05:41.620;599617128958279442;9960.511;376
2024-05-21T21:05:41.628;599617128965970814;9968.202;367
2024-05-21T21:05:41.635;599617128973662186;9975.893;376
2024-05-21T21:05:41.643;599617128981353558;9983.584;369
2024-05-21T21:05:41.651;599617128989044930;9991.275;329
2024-05-21T21:05:41.658;599617128996736302;9998.967;314
2024-05-21T21:05:41.666;599617129004427674;10006.658;338
2024-05-21T21:05:41.674;599617129012119046;10014.35;336
2024-05-21T21:05:41.682;599617129019810418;10022.041;252
2024-05-21T21:05:41.689;599617129027501790;10029.731;178
2024-05-21T21:05:41.697;599617129035193162;10037.424;317
2024-05-21T21:05:41.705;599617129042884534;10045.115;674
2024-05-21T21:05:41.712;599617129050575906;10052.807;875
2024-05-21T21:05:41.720;599617129058267278;10060.498;608
2024-05-21T21:05:41.728;599617129065958650;10068.189;154
2024-05-21T21:05:41.735;599617129073650022;10075.881;26
2024-05-21T21:05:41.743;599617129081341394;10083.571;112
2024-05-21T21:05:41.751;599617129089032766;10091.263;76
2024-05-21T21:05:41.758;599617129096724138;10098.954;14
2024-05-21T21:05:41.766;599617129104405512;10106.637;21
2024-05-21T21:05:41.774;599617129112097023;10114.327;11
2024-05-21T21:05:41.782;599617129119788534;10122.019;-9
2024-05-21T21:05:41.789;599617129127480045;10129.71;0
2024-05-21T21:05:41.797;599617129135171556;10137.402;30
2024-05-21T21:05:41.805;599617129142863067;10145.094;33
2024-05-21T21:05:41.812;599617129150554578;10152.785;-2
2024-05-21T21:05:41.820;599617129158246089;10160.477;-59
2024-05-21T21:05:41.828;599617129165937600;10168.168;-107
2024-05-21T21:05:41.835;599617129173629111;10175.859;-102
2024-05-21T21:05:41.843;599617129181320622;10183.551;-61
2024-05-21T21:05:41.851;599617129189012133;10191.242;-35
2024-05-21T21:05:41.858;599617129196703644;10198.935;-7
2024-05-21T21:05:41.866;599617129204395155;10206.626;26
2024-05-21T21:05:41.874;599617129212086666;10214.317;30
2024-05-21T21:05:41.882;599617129219778177;10222.009;35
2024-05-21T21:05:41.889;599617129227469688;10229.7;71
2024-05-21T21:05:41.897;599617129235161199;10237.392;102
2024-05-21T21:05:41.905;599617129242852710;10245.083;116
2024-05-21T21:05:41.912;599617129250544221;10252.774;150
2024-05-21T21:05:41.920;599617129258235732;10260.467;188
2024-05-21T21:05:41.928;599617129265927243;10268.158;195
2024-05-21T21:05:41.935;599617129273618754;10275.85;190
2024-05-21T21:05:41.943;599617129281310265;10283.54;219
2024-05-21T21:05:41.951;599617129289001776;10291.232;252
2024-05-21T21:05:41.958;599617129296693287;10298.924;252
2024-05-21T21:05:41.966;599617129304384798;10306.615;243
2024-05-21T21:05:41.974;599617129312076309;10314.307;262
2024-05-21T21:05:41.981;599617129319767820;10321.999;286
2024-05-21T21:05:41.989;599617129327459331;10329.69;302
2024-05-21T21:05:41.997;599617129335150842;10337.382;326
2024-05-21T21:05:42.005;599617129342842353;10345.072;321
2024-05-21T21:05:42.012;599617129350533864;10352.764;267
2024-05-21T21:05:42.020;599617129358225375;10360.456;205
2024-05-21T21:05:42.028;599617129365916886;10368.147;185
2024-05-21T21:05:42.035;599617129373608397;10375.839;202
2024-05-21T21:05:42.043;599617129381299908;10383.53;193
2024-05-21T21:05:42.051;599617129388991419;10391.223;135
2024-05-21T21:05:42.058;599617129396682930;10398.913;85
2024-05-21T21:05:42.066;599617129404374441;10406.6045;157
2024-05-21T21:05:42.074;599617129412065952;10414.296;433
2024-05-21T21:05:42.081;599617129419757463;10421.988;705
2024-05-21T21:05:42.089;599617129427448974;10429.68;579
2024-05-21T21:05:42.097;599617129435140485;10437.371;174
2024-05-21T21:05:42.105;599617129442831996;10445.0625;-26
2024-05-21T21:05:42.112;599617129450523507;10452.755;14
2024-05-21T21:05:42.120;599617129458215018;10460.445;30
2024-05-21T21:05:42.128;599617129465906529;10468.137;16
2024-05-21T21:05:42.135;599617129473598040;10475.828;35
2024-05-21T21:05:42.143;599617129481289551;10483.5205;35
2024-05-21T21:05:42.151;599617129488981062;10491.212;33
2024-05-21T21:05:42.158;599617129496672573;10498.903;57
2024-05-21T21:05:42.166;599617129504364084;10506.595;73
2024-05-21T21:05:42.174;599617129512055595;10514.286;83
2024-05-21T21:05:42.181;599617129519747106;10521.978;112
2024-05-21T21:05:42.189;599617129527438617;10529.669;152
2024-05-21T21:05:42.197;599617129535130128;10537.36;162
2024-05-21T21:05:42.205;599617129542821639;10545.053;154
2024-05-21T21:05:42.212;599617129550513150;10552.744;183
2024-05-21T21:05:42.220;599617129558204661;10560.436;219
2024-05-21T21:05:42.228;599617129565896172;10568.126;214
2024-05-21T21:05:42.235;599617129573587683;10575.817;188
2024-05-21T21:05:42.243;599617129581279194;10583.51;200
2024-05-21T21:05:42.251;599617129588970705;10591.201;216
2024-05-21T21:05:42.258;599617129596662216;10598.893;162
2024-05-21T21:05:42.266;599617129604353727;10606.584;126
2024-05-21T21:05:42.274;599617129612045238;10614.276;190
2024-05-21T21:05:42.281;599617129619736749;10621.968;233
2024-05-21T21:05:42.289;599617129627428260;10629.658;195
2024-05-21T21:05:42.297;599617129635119771;10637.35;181
2024-05-21T21:05:42.305;599617129642811282;10645.042;202
2024-05-21T21:05:42.312;599617129650502793;10652.733;209
2024-05-21T21:05:42.320;599617129658194304;10660.425;193
2024-05-21T21:05:42.328;599617129665890888;10668.121;157
2024-05-21T21:05:42.335;599617129673582329;10675.813;123
2024-05-21T21:05:42.343;599617129681273770;10683.505;119
2024-05-21T21:05:42.351;599617129688965211;10691.196;133
2024-05-21T21:05:42.358;599617129696656652;10698.887;154
2024-05-21T21:05:42.366;599617129704348093;10706.578;190
2024-05-21T21:05:42.374;599617129712039534;10714.27;216
2024-05-21T21:05:42.381;599617129719730975;10721.962;205
2024-05-21T21:05:42.389;599617129727422416;10729.653;178
2024-05-21T21:05:42.397;599617129735113857;10737.345;171
2024-05-21T21:05:42.405;599617129742805298;10745.036;143
2024-05-21T21:05:42.412;599617129750496739;10752.727;59
2024-05-21T21:05:42.420;599617129758188180;10760.418;-11
2024-05-21T21:05:42.428;599617129765879621;10768.11;-26
2024-05-21T21:05:42.435;599617129773571062;10775.802;42
2024-05-21T21:05:42.443;599617129781262503;10783.493;283
2024-05-21T21:05:42.451;599617129788953944;10791.185;577
2024-05-21T21:05:42.458;599617129796645385;10798.876;519
2024-05-21T21:05:42.466;599617129804336826;10806.567;95
2024-05-21T21:05:42.474;599617129812028267;10814.259;-169
2024-05-21T21:05:42.481;599617129819719708;10821.95;-100
2024-05-21T21:05:42.489;599617129827411149;10829.642;-54
2024-05-21T21:05:42.497;599617129835102590;10837.333;-109
2024-05-21T21:05:42.505;599617129842794031;10845.024;-107
2024-05-21T21:05:42.512;599617129850485472;10852.716;-76
2024-05-21T21:05:42.520;599617129858176913;10860.408;-73
2024-05-21T21:05:42.528;599617129865868354;10868.099;-92
2024-05-21T21:05:42.535;599617129873559795;10875.79;-97
2024-05-21T21:05:42.543;599617129881251236;10883.481;-57
2024-05-21T21:05:42.551;599617129888942677;10891.173;-11
2024-05-21T21:05:42.558;599617129896634118;10898.865;2
2024-05-21T21:05:42.566;599617129904325559;10906.557;16
2024-05-21T21:05:42.574;599617129912017000;10914.248;54
2024-05-21T21:05:42.581;599617129919708441;10921.938;83
2024-05-21T21:05:42.589;599617129927399882;10929.63;76
2024-05-21T21:05:42.597;599617129935091323;10937.321;90
2024-05-21T21:05:42.605;599617129942782764;10945.014;147
2024-05-21T21:05:42.612;599617129950474205;10952.705;154
2024-05-21T21:05:42.620;599617129958165646;10960.396;119
2024-05-21T21:05:42.628;599617129965857087;10968.088;131
2024-05-21T21:05:42.635;599617129973548528;10975.779;178
2024-05-21T21:05:42.643;599617129981239969;10983.47;205
2024-05-21T21:05:42.651;599617129988931410;10991.162;193
2024-05-21T21:05:42.658;599617129996622851;10998.854;178
2024-05-21T21:05:42.666;599617130004314292;11006.545;209
2024-05-21T21:05:42.674;599617130012005733;11014.236;259
2024-05-21T21:05:42.681;599617130019697174;11021.928;274
2024-05-21T21:05:42.689;599617130027388615;11029.619;240
2024-05-21T21:05:42.697;599617130035080056;11037.311;221
2024-05-21T21:05:42.705;599617130042771497;11045.002;240
2024-05-21T21:05:42.712;599617130050462938;11052.693;243
2024-05-21T21:05:42.720;599617130058154379;11060.385;238
2024-05-21T21:05:42.728;599617130065845820;11068.076;269
2024-05-21T21:05:42.735;599617130073537261;11075.768;314
2024-05-21T21:05:42.743;599617130081228702;11083.46;312
2024-05-21T21:05:42.751;599617130088920143;11091.15;267
2024-05-21T21:05:42.758;599617130096611584;11098.842;259
2024-05-21T21:05:42.766;599617130104303025;11106.533;283
2024-05-21T21:05:42.774;599617130111994466;11114.225;245
2024-05-21T21:05:42.781;599617130119685907;11121.917;200
2024-05-21T21:05:42.789;599617130127377348;11129.608;200
2024-05-21T21:05:42.797;599617130135068789;11137.3;150
2024-05-21T21:05:42.804;599617130142760230;11144.99;123
2024-05-21T21:05:42.812;599617130150451671;11152.682;362
2024-05-21T21:05:42.820;599617130158143112;11160.373;743
2024-05-21T21:05:42.828;599617130165834553;11168.065;789
2024-05-21T21:05:42.835;599617130173525994;11175.757;326
2024-05-21T21:05:42.843;599617130181217435;11183.448;-131
2024-05-21T21:05:42.851;599617130188908876;11191.14;-154
2024-05-21T21:05:42.858;599617130196600317;11198.831;-57
2024-05-21T21:05:42.866;599617130204291758;11206.521;-97
2024-05-21T21:05:42.874;599617130211983199;11214.214;-92
2024-05-21T21:05:42.881;599617130219674640;11221.905;-45
2024-05-21T21:05:42.889;599617130227366138;11229.597;-61
2024-05-21T21:05:42.897;599617130235057579;11237.288;-73
2024-05-21T21:05:42.904;599617130242749020;11244.9795;-30
2024-05-21T21:05:42.912;599617130250440461;11252.672;0
2024-05-21T21:05:42.920;599617130258131902;11260.362;-2
2024-05-21T21:05:42.928;599617130265823343;11268.054;23
2024-05-21T21:05:42.935;599617130273514784;11275.745;69
2024-05-21T21:05:42.943;599617130281206225;11283.437;54
2024-05-21T21:05:42.951;599617130288897666;11291.128;-4
2024-05-21T21:05:42.958;599617130296589107;11298.82;-14
2024-05-21T21:05:42.966;599617130304280548;11306.512;35
2024-05-21T21:05:42.974;599617130311971989;11314.202;42
2024-05-21T21:05:42.981;599617130319663430;11321.894;-19
2024-05-21T21:05:42.989;599617130327354871;11329.585;-59
2024-05-21T21:05:42.997;599617130335046312;11337.276;-52
2024-05-21T21:05:43.004;599617130342737753;11344.969;-45
2024-05-21T21:05:43.012;599617130350429194;11352.66;-35
2024-05-21T21:05:43.020;599617130358120635;11360.352;-2
2024-05-21T21:05:43.028;599617130365812076;11368.043;35
2024-05-21T21:05:43.035;599617130373503517;11375.733;45
2024-05-21T21:05:43.043;599617130381194958;11383.425;45
2024-05-21T21:05:43.051;599617130388886399;11391.117;73
2024-05-21T21:05:43.058;599617130396577840;11398.809;121
2024-05-21T21:05:43.066;599617130404269281;11406.5;138
2024-05-21T21:05:43.074;599617130411960722;11414.191;126
2024-05-21T21:05:43.081;599617130419652163;11421.883;138
2024-05-21T21:05:43.089;599617130427343604;11429.574;171
2024-05-21T21:05:43.097;599617130435035045;11437.266;190
2024-05-21T21:05:43.104;599617130442726486;11444.957;202
2024-05-21T21:05:43.112;599617130450417927;11452.648;231
2024-05-21T21:05:43.120;599617130458109368;11460.34;255
2024-05-21T21:05:43.128;599617130465800809;11468.031;238
2024-05-21T21:05:43.135;599617130473492250;11475.724;231
2024-05-21T21:05:43.143;599617130481183691;11483.414;264
2024-05-21T21:05:43.151;599617130488875132;11491.105;288
2024-05-21T21:05:43.158;599617130496566573;11498.797;259
2024-05-21T21:05:43.166;599617130504258014;11506.488;176
2024-05-21T21:05:43.174;599617130511949455;11514.18;128
2024-05-21T21:05:43.181;599617130519640896;11521.872;309
2024-05-21T21:05:43.189;599617130527332337;11529.563;717
2024-05-21T21:05:43.197;599617130535023778;11537.255;987
2024-05-21T21:05:43.204;599617130542715219;11544.945;724
2024-05-21T21:05:43.212;599617130550406660;11552.637;162
2024-05-21T21:05:43.220;599617130558098101;11560.328;-50
2024-05-21T21:05:43.228;599617130565789542;11568.0205;57
2024-05-21T21:05:43.235;599617130573480983;11575.712;21
2024-05-21T21:05:43.243;599617130581172424;11583.403;-92
2024-05-21T21:05:43.251;599617130588863865;11591.095;-92
2024-05-21T21:05:43.258;599617130596555306;11598.785;-59
2024-05-21T21:05:43.266;599617130604246747;11606.477;-66
2024-05-21T21:05:43.274;599617130611938188;11614.169;-57
2024-05-21T21:05:43.281;599617130619629629;11621.86;-35
2024-05-21T21:05:43.289;599617130627321070;11629.552;-23
2024-05-21T21:05:43.297;599617130635012511;11637.243;4
2024-05-21T21:05:43.304;599617130642703952;11644.935;33
2024-05-21T21:05:43.312;599617130650395393;11652.626;35
2024-05-21T21:05:43.320;599617130658086834;11660.317;52
2024-05-21T21:05:43.328;599617130665778275;11668.009;57
2024-05-21T21:05:43.335;599617130673469716;11675.7;-9
2024-05-21T21:05:43.343;599617130681161157;11683.392;-66
2024-05-21T21:05:43.351;599617130688852598;11691.083;-40
2024-05-21T21:05:43.358;599617130696544039;11698.775;-14
2024-05-21T21:05:43.366;599617130704235480;11706.466;-14
2024-05-21T21:05:43.374;599617130711926921;11714.157;2
2024-05-21T21:05:43.381;599617130719618362;11721.849;30
2024-05-21T21:05:43.389;599617130727309803;11729.54;66
2024-05-21T21:05:43.397;599617130735001244;11737.231;95
2024-05-21T21:05:43.404;599617130742692685;11744.924;88
2024-05-21T21:05:43.412;599617130750384126;11752.615;85
2024-05-21T21:05:43.420;599617130758075567;11760.307;121
2024-05-21T21:05:43.427;599617130765767008;11767.997;145
2024-05-21T21:05:43.435;599617130773458449;11775.688;145
2024-05-21T21:05:43.443;599617130781149890;11783.38;157
2024-05-21T21:05:43.451;599617130788836348;11791.067;174
2024-05-21T21:05:43.458;599617130796527859;11798.759;171
2024-05-21T21:05:43.466;599617130804219370;11806.449;176
2024-05-21T21:05:43.474;599617130811910881;11814.141;214
2024-05-21T21:05:43.481;599617130819602392;11821.833;236
2024-05-21T21:05:43.489;599617130827293903;11829.524;207
2024-05-21T21:05:43.497;599617130834985414;11837.216;183
2024-05-21T21:05:43.504;599617130842676925;11844.907;190
2024-05-21T21:05:43.512;599617130850368436;11852.6;197
2024-05-21T21:05:43.520;599617130858059947;11860.291;164
2024-05-21T21:05:43.527;599617130865751458;11867.981;116
2024-05-21T21:05:43.535;599617130873442969;11875.673;100
2024-05-21T21:05:43.543;599617130881134480;11883.365;81
2024-05-21T21:05:43.551;599617130888825991;11891.057;159
2024-05-21T21:05:43.558;599617130896517502;11898.748;505
2024-05-21T21:05:43.566;599617130904209013;11906.439;884
2024-05-21T21:05:43.574;599617130911900524;11914.132;770
2024-05-21T21:05:43.581;599617130919592035;11921.822;219
2024-05-21T21:05:43.589;599617130927283546;11929.514;-73
2024-05-21T21:05:43.597;599617130934975057;11937.205;35
2024-05-21T21:05:43.604;599617130942666568;11944.897;42
2024-05-21T21:05:43.612;599617130950358079;11952.589;-85
2024-05-21T21:05:43.620;599617130958049590;11960.28;-88
2024-05-21T21:05:43.627;599617130965741101;11967.972;-40
2024-05-21T21:05:43.635;599617130973432612;11975.664;-50
2024-05-21T21:05:43.643;599617130981124123;11983.3545;-59
2024-05-21T21:05:43.651;599617130988815634;11991.046;-42
2024-05-21T21:05:43.658;599617130996507145;11998.737;-30
2024-05-21T21:05:43.666;599617131004198656;12006.43;-7
2024-05-21T21:05:43.674;599617131011890167;12014.121;23
2024-05-21T21:05:43.681;599617131019581678;12021.8125;33
2024-05-21T21:05:43.689;599617131027273189;12029.504;35
2024-05-21T21:05:43.697;599617131034964700;12037.194;52
2024-05-21T21:05:43.704;599617131042656211;12044.887;69
2024-05-21T21:05:43.712;599617131050347722;12052.578;66
2024-05-21T21:05:43.720;599617131058039233;12060.27;73
2024-05-21T21:05:43.727;599617131065730744;12067.961;76
2024-05-21T21:05:43.735;599617131073422255;12075.653;45
2024-05-21T21:05:43.743;599617131081113766;12083.345;45
2024-05-21T21:05:43.751;599617131088805277;12091.036;88
2024-05-21T21:05:43.758;599617131096496788;12098.727;107
2024-05-21T21:05:43.766;599617131104188299;12106.419;90
2024-05-21T21:05:43.774;599617131111879810;12114.11;100
2024-05-21T21:05:43.781;599617131119571321;12121.802;138
2024-05-21T21:05:43.789;599617131127262832;12129.493;147
2024-05-21T21:05:43.797;599617131134954343;12137.186;145
2024-05-21T21:05:43.804;599617131142645854;12144.877;169
2024-05-21T21:05:43.812;599617131150337365;12152.567;183
2024-05-21T21:05:43.820;599617131158028876;12160.259;166
2024-05-21T21:05:43.827;599617131165720387;12167.951;143
2024-05-21T21:05:43.835;599617131173411898;12175.643;95
2024-05-21T21:05:43.843;599617131181103409;12183.334;59
2024-05-21T21:05:43.851;599617131188794920;12191.025;81
2024-05-21T21:05:43.858;599617131196486431;12198.718;107
2024-05-21T21:05:43.866;599617131204177942;12206.409;97
2024-05-21T21:05:43.874;599617131211869453;12214.1;104
2024-05-21T21:05:43.881;599617131219560964;12221.791;133
2024-05-21T21:05:43.889;599617131227252475;12229.483;150
2024-05-21T21:05:43.897;599617131234943986;12237.175;164
2024-05-21T21:05:43.904;599617131242635497;12244.866;135
2024-05-21T21:05:43.912;599617131250327008;12252.558;78
2024-05-21T21:05:43.920;599617131258018519;12260.249;212
2024-05-21T21:05:43.927;599617131265710030;12267.94;650
2024-05-21T21:05:43.935;599617131273401541;12275.632;1013
2024-05-21T21:05:43.943;599617131281093052;12283.323;815
2024-05-21T21:05:43.951;599617131288784563;12291.015;243
2024-05-21T21:05:43.958;599617131296476074;12298.707;4
2024-05-21T21:05:43.966;599617131304167585;12306.398;138
2024-05-21T21:05:43.974;599617131311859096;12314.09;126
2024-05-21T21:05:43.981;599617131319550607;12321.78;-14
2024-05-21T21:05:43.989;599617131327242118;12329.473;-14
2024-05-21T21:05:43.997;599617131334933629;12337.164;19
2024-05-21T21:05:44.004;599617131342625140;12344.855;-42
2024-05-21T21:05:44.012;599617131350326694;12352.557;-78
2024-05-21T21:05:44.020;599617131358018066;12360.248;-30
2024-05-21T21:05:44.027;599617131365709438;12367.939;-9
2024-05-21T21:05:44.035;599617131373400810;12375.631;-16
2024-05-21T21:05:44.043;599617131381092182;12383.323;-4
2024-05-21T21:05:44.051;599617131388783554;12391.015;-11
2024-05-21T21:05:44.058;599617131396474926;12398.706;-54
2024-05-21T21:05:44.066;599617131404166298;12406.396;-90
2024-05-21T21:05:44.074;599617131411857670;12414.088;-76
2024-05-21T21:05:44.081;599617131419549042;12421.779;-52
2024-05-21T21:05:44.089;599617131427240414;12429.471;-66
2024-05-21T21:05:44.097;599617131434931786;12437.162;-78
2024-05-21T21:05:44.104;599617131442623158;12444.854;-40
2024-05-21T21:05:44.112;599617131450314530;12452.546;-11
2024-05-21T21:05:44.120;599617131458005902;12460.236;-19
2024-05-21T21:05:44.127;599617131465697274;12467.928;4
2024-05-21T21:05:44.135;599617131473388646;12475.619;59
2024-05-21T21:05:44.143;599617131481080018;12483.311;73
2024-05-21T21:05:44.151;599617131488771390;12491.002;59
2024-05-21T21:05:44.158;599617131496462762;12498.693;83
2024-05-21T21:05:44.166;599617131504154134;12506.385;121
2024-05-21T21:05:44.174;599617131511845506;12514.075;128
2024-05-21T21:05:44.181;599617131519536878;12521.767;119
2024-05-21T21:05:44.189;599617131527228250;12529.459;119
2024-05-21T21:05:44.197;599617131534919622;12537.15;135
2024-05-21T21:05:44.204;599617131542610994;12544.842;159
2024-05-21T21:05:44.212;599617131550302366;12552.533;174
2024-05-21T21:05:44.220;599617131557993738;12560.225;176
2024-05-21T21:05:44.227;599617131565685110;12567.915;154
2024-05-21T21:05:44.235;599617131573376482;12575.606;116
2024-05-21T21:05:44.243;599617131581067854;12583.298;95
2024-05-21T21:05:44.250;599617131588759226;12590.989;114
2024-05-21T21:05:44.258;599617131596450598;12598.682;157
2024-05-21T21:05:44.266;599617131604141970;12606.373;166
2024-05-21T21:05:44.274;599617131611833342;12614.064;104
2024-05-21T21:05:44.281;599617131619524714;12621.756;73
2024-05-21T21:05:44.289;599617131627216086;12629.446;271
2024-05-21T21:05:44.297;599617131634907458;12637.138;672
2024-05-21T21:05:44.304;599617131642598830;12644.829;932
2024-05-21T21:05:44.312;599617131650290202;12652.5205;724
2024-05-21T21:05:44.320;599617131657981574;12660.212;245
2024-05-21T21:05:44.327;599617131665672946;12667.903;40
2024-05-21T21:05:44.335;599617131673364318;12675.596;102
2024-05-21T21:05:44.343;599617131681055690;12683.286;40
2024-05-21T21:05:44.350;599617131688747062;12690.978;-59
2024-05-21T21:05:44.358;599617131696438434;12698.669;-35
2024-05-21T21:05:44.366;599617131704129806;12706.36;-52
2024-05-21T21:05:44.374;599617131711821178;12714.052;-116
2024-05-21T21:05:44.381;599617131719512550;12721.743;-133
2024-05-21T21:05:44.389;599617131727203922;12729.435;-135
2024-05-21T21:05:44.397;599617131734895294;12737.125;-143
2024-05-21T21:05:44.404;599617131742586666;12744.817;-119
2024-05-21T21:05:44.412;599617131750278038;12752.509;-100
2024-05-21T21:05:44.420;599617131757969410;12760.2;-116
2024-05-21T21:05:44.427;599617131765660782;12767.892;-116
2024-05-21T21:05:44.435;599617131773352154;12775.583;-83
2024-05-21T21:05:44.443;599617131781043526;12783.274;-66
2024-05-21T21:05:44.450;599617131788734898;12790.965;-76
2024-05-21T21:05:44.458;599617131796426270;12798.656;-76
2024-05-21T21:05:44.466;599617131804117642;12806.348;-73
2024-05-21T21:05:44.474;599617131811809014;12814.04;-88
2024-05-21T21:05:44.481;599617131819500386;12821.731;-95
2024-05-21T21:05:44.489;599617131827191758;12829.423;-61
2024-05-21T21:05:44.497;599617131834883130;12837.114;-16
2024-05-21T21:05:44.504;599617131842574502;12844.805;0
2024-05-21T21:05:44.512;599617131850265874;12852.496;-2
2024-05-21T21:05:44.520;599617131857957246;12860.1875;11
2024-05-21T21:05:44.527;599617131865648618;12867.879;47
2024-05-21T21:05:44.535;599617131873339990;12875.57;66
2024-05-21T21:05:44.543;599617131881031362;12883.262;66
2024-05-21T21:05:44.550;599617131888722734;12890.954;69
2024-05-21T21:05:44.558;599617131896414106;12898.645;78
2024-05-21T21:05:44.566;599617131904105478;12906.336;85
2024-05-21T21:05:44.573;599617131911766762;12913.997;97
2024-05-21T21:05:44.581;599617131919458552;12921.689;121
2024-05-21T21:05:44.589;599617131927150342;12929.382;150
2024-05-21T21:05:44.597;599617131934842132;12937.072;154
2024-05-21T21:05:44.604;599617131942533922;12944.765;138
2024-05-21T21:05:44.612;599617131950225712;12952.456;140
2024-05-21T21:05:44.620;599617131957917502;12960.148;169
2024-05-21T21:05:44.627;599617131965609292;12967.84;157
2024-05-21T21:05:44.635;599617131973301082;12975.532;100
2024-05-21T21:05:44.643;599617131980992872;12983.224;54
2024-05-21T21:05:44.650;599617131988684662;12990.916;33
2024-05-21T21:05:44.658;599617131996376452;12998.606;135
2024-05-21T21:05:44.666;599617132004068242;13006.299;484
2024-05-21T21:05:44.673;599617132011760032;13013.99;834
2024-05-21T21:05:44.681;599617132019451822;13021.683;770
2024-05-21T21:05:44.689;599617132027143612;13029.374;321
2024-05-21T21:05:44.697;599617132034835402;13037.066;35
2024-05-21T21:05:44.704;599617132042527192;13044.758;97
2024-05-21T21:05:44.712;599617132050218982;13052.45;119
2024-05-21T21:05:44.720;599617132057910772;13060.141;11
2024-05-21T21:05:44.727;599617132065602562;13067.833;4
2024-05-21T21:05:44.735;599617132073294352;13075.524;50
2024-05-21T21:05:44.743;599617132080986142;13083.217;11
2024-05-21T21:05:44.750;599617132088677932;13090.908;-45
2024-05-21T21:05:44.758;599617132096369722;13098.601;-42
2024-05-21T21:05:44.766;599617132104061512;13106.292;-38
2024-05-21T21:05:44.773;599617132111753302;13113.984;-54
2024-05-21T21:05:44.781;599617132119445092;13121.675;-61
2024-05-21T21:05:44.789;599617132127136882;13129.367;-66
2024-05-21T21:05:44.797;599617132134828672;13137.059;-57
2024-05-21T21:05:44.804;599617132142520462;13144.751;-40
2024-05-21T21:05:44.812;599617132150212252;13152.442;-40
2024-05-21T21:05:44.820;599617132157904042;13160.135;-42
2024-05-21T21:05:44.827;599617132165595832;13167.826;-30
2024-05-21T21:05:44.835;599617132173287622;13175.519;-42
2024-05-21T21:05:44.843;599617132180979412;13183.209;-92
2024-05-21T21:05:44.850;599617132188671202;13190.901;-126
2024-05-21T21:05:44.858;599617132196362992;13198.593;-92
2024-05-21T21:05:44.866;599617132204054782;13206.285;-54
2024-05-21T21:05:44.873;599617132211746572;13213.978;-59
2024-05-21T21:05:44.881;599617132219438362;13221.669;-54
2024-05-21T21:05:44.889;599617132227130152;13229.361;-26
2024-05-21T21:05:44.897;599617132234821942;13237.053;-7
2024-05-21T21:05:44.904;599617132242513732;13244.745;2
2024-05-21T21:05:44.912;599617132250205522;13252.436;28
2024-05-21T21:05:44.920;599617132257897312;13260.128;40
2024-05-21T21:05:44.927;599617132265589102;13267.819;33
2024-05-21T21:05:44.935;599617132273280892;13275.512;42
2024-05-21T21:05:44.943;599617132280972682;13283.203;73
2024-05-21T21:05:44.950;599617132288664472;13290.8955;112
2024-05-21T21:05:44.958;599617132296356262;13298.587;135
2024-05-21T21:05:44.966;599617132304048052;13306.279;109
2024-05-21T21:05:44.973;599617132311739842;13313.97;69
2024-05-21T21:05:44.981;599617132319431632;13321.662;85
2024-05-21T21:05:44.989;599617132327123422;13329.354;116
2024-05-21T21:05:44.997;599617132334815212;13337.046;123
2024-05-21T21:05:45.004;599617132342507002;13344.737;145
2024-05-21T21:05:45.012;599617132350198792;13352.43;145
2024-05-21T21:05:45.020;599617132357890582;13360.121;69
2024-05-21T21:05:45.027;599617132365582372;13367.813;40
2024-05-21T21:05:45.035;599617132373274162;13375.504;264
2024-05-21T21:05:45.043;599617132380965952;13383.196;667
2024-05-21T21:05:45.050;599617132388657742;13390.888;860
2024-05-21T21:05:45.058;599617132396349532;13398.58;596
2024-05-21T21:05:45.066;599617132404041322;13406.271;193
2024-05-21T21:05:45.073;599617132411733112;13413.964;121
2024-05-21T21:05:45.081;599617132419424902;13421.655;209
2024-05-21T21:05:45.089;599617132427116692;13429.348;145
2024-05-21T21:05:45.097;599617132434808482;13437.039;102
2024-05-21T21:05:45.104;599617132442500272;13444.73;147
2024-05-21T21:05:45.112;599617132450192062;13452.422;133
2024-05-21T21:05:45.120;599617132457883852;13460.114;90
2024-05-21T21:05:45.127;599617132465575642;13467.806;92
2024-05-21T21:05:45.135;599617132473297540;13475.527;90
2024-05-21T21:05:45.143;599617132480988912;13483.219;52
2024-05-21T21:05:45.150;599617132488680284;13490.911;23
2024-05-21T21:05:45.158;599617132496371656;13498.603;21
2024-05-21T21:05:45.166;599617132504063028;13506.294;-4
2024-05-21T21:05:45.173;599617132511754400;13513.985;-57
2024-05-21T21:05:45.181;599617132519445772;13521.677;-59
2024-05-21T21:05:45.189;599617132527137144;13529.367;-21
2024-05-21T21:05:45.197;599617132534828516;13537.059;-28
2024-05-21T21:05:45.204;599617132542519888;13544.75;-76
2024-05-21T21:05:45.212;599617132550211260;13552.441;-95
2024-05-21T21:05:45.220;599617132557902632;13560.134;-83
2024-05-21T21:05:45.227;599617132565594004;13567.825;-71
2024-05-21T21:05:45.235;599617132573285376;13575.517;-59
2024-05-21T21:05:45.243;599617132580976748;13583.207;-28
2024-05-21T21:05:45.250;599617132588668120;13590.898;-9
2024-05-21T21:05:45.258;599617132596359492;13598.59;-19
2024-05-21T21:05:45.266;599617132604050864;13606.281;-9
2024-05-21T21:05:45.273;599617132611742236;13613.973;26
2024-05-21T21:05:45.281;599617132619433608;13621.664;45
2024-05-21T21:05:45.289;599617132627124980;13629.356;38
2024-05-21T21:05:45.297;599617132634816352;13637.047;28
2024-05-21T21:05:45.304;599617132642507724;13644.738;54
2024-05-21T21:05:45.312;599617132650199096;13652.43;95
2024-05-21T21:05:45.320;599617132657890468;13660.121;107
2024-05-21T21:05:45.327;599617132665581840;13667.8125;112
2024-05-21T21:05:45.335;599617132673273212;13675.504;123
2024-05-21T21:05:45.343;599617132680964584;13683.195;66
2024-05-21T21:05:45.350;599617132688655956;13690.886;-14
2024-05-21T21:05:45.358;599617132696347328;13698.577;2
2024-05-21T21:05:45.366;599617132704038700;13706.27;59
2024-05-21T21:05:45.373;599617132711730072;13713.961;69
2024-05-21T21:05:45.381;599617132719421444;13721.652;64
2024-05-21T21:05:45.389;599617132727112816;13729.344;50
2024-05-21T21:05:45.397;599617132734804188;13737.035;14
2024-05-21T21:05:45.404;599617132742495560;13744.726;26
2024-05-21T21:05:45.412;599617132750186932;13752.417;243
2024-05-21T21:05:45.420;599617132757878304;13760.108;619
2024-05-21T21:05:45.427;599617132765569676;13767.8;791
2024-05-21T21:05:45.435;599617132773261048;13775.492;495
2024-05-21T21:05:45.443;599617132780952420;13783.184;95
2024-05-21T21:05:45.450;599617132788643792;13790.875;40
2024-05-21T21:05:45.458;599617132796335164;13798.565;88
2024-05-21T21:05:45.466;599617132804026536;13806.257;-4
2024-05-21T21:05:45.473;599617132811717908;13813.948;-30
2024-05-21T21:05:45.481;599617132819409280;13821.64;21
2024-05-21T21:05:45.489;599617132827100652;13829.331;7
2024-05-21T21:05:45.497;599617132834792024;13837.022;-30
2024-05-21T21:05:45.504;599617132842483396;13844.714;-35
2024-05-21T21:05:45.512;599617132850174768;13852.405;-33
2024-05-21T21:05:45.520;599617132857866140;13860.097;-64
2024-05-21T21:05:45.527;599617132865557512;13867.788;-90
2024-05-21T21:05:45.535;599617132873248884;13875.4795;-76
2024-05-21T21:05:45.543;599617132880940256;13883.171;-47
2024-05-21T21:05:45.550;599617132888631628;13890.862;-30
2024-05-21T21:05:45.558;599617132896323000;13898.554;-28
2024-05-21T21:05:45.566;599617132904014372;13906.244;-30
2024-05-21T21:05:45.573;599617132911705744;13913.936;-26
2024-05-21T21:05:45.581;599617132919397116;13921.628;-7
2024-05-21T21:05:45.589;599617132927088488;13929.319;9
2024-05-21T21:05:45.597;599617132934779860;13937.011;14
2024-05-21T21:05:45.604;599617132942471232;13944.702;35
2024-05-21T21:05:45.612;599617132950162604;13952.394;57
2024-05-21T21:05:45.620;599617132957853976;13960.085;42
2024-05-21T21:05:45.627;599617132965545348;13967.775;45
2024-05-21T21:05:45.635;599617132973236720;13975.467;88
2024-05-21T21:05:45.643;599617132980928092;13983.158;114
2024-05-21T21:05:45.650;599617132988619464;13990.85;102
2024-05-21T21:05:45.658;599617132996310836;13998.542;100
2024-05-21T21:05:45.666;599617133004002208;14006.233;112
2024-05-21T21:05:45.673;599617133011693580;14013.925;116
2024-05-21T21:05:45.681;599617133019384952;14021.615;109
2024-05-21T21:05:45.689;599617133027076324;14029.307;121
2024-05-21T21:05:45.696;599617133034737608;14036.969;145
2024-05-21T21:05:45.704;599617133042429398;14044.66;114
2024-05-21T21:05:45.712;599617133050121188;14052.352;50
2024-05-21T21:05:45.720;599617133057812978;14060.043;52
2024-05-21T21:05:45.727;599617133065504768;14067.735;102
2024-05-21T21:05:45.735;599617133073196558;14075.427;116
2024-05-21T21:05:45.743;599617133080888348;14083.119;112
2024-05-21T21:05:45.750;599617133088580138;14090.811;123
2024-05-21T21:05:45.758;599617133096271928;14098.503;131
2024-05-21T21:05:45.766;599617133103963718;14106.194;88
2024-05-21T21:05:45.773;599617133111655508;14113.886;-14
2024-05-21T21:05:45.781;599617133119347298;14121.577;-42
2024-05-21T21:05:45.789;599617133127039088;14129.27;162
2024-05-21T21:05:45.796;599617133134730878;14136.961;541
2024-05-21T21:05:45.804;599617133142422668;14144.653;758
2024-05-21T21:05:45.812;599617133150114458;14152.345;529
2024-05-21T21:05:45.820;599617133157806248;14160.037;100
2024-05-21T21:05:45.827;599617133165498038;14167.729;-30
2024-05-21T21:05:45.835;599617133173189828;14175.421;71
2024-05-21T21:05:45.843;599617133180881618;14183.111;50
2024-05-21T21:05:45.850;599617133188573408;14190.804;-73
2024-05-21T21:05:45.858;599617133196265198;14198.495;-126
2024-05-21T21:05:45.866;599617133203956988;14206.1875;-126
2024-05-21T21:05:45.873;599617133211648778;14213.88;-131
2024-05-21T21:05:45.881;599617133219340568;14221.571;-131
2024-05-21T21:05:45.889;599617133227032358;14229.264;-147
2024-05-21T21:05:45.896;599617133234724148;14236.955;-174
2024-05-21T21:05:45.904;599617133242415938;14244.646;-152
2024-05-21T21:05:45.912;599617133250107728;14252.338;-116
2024-05-21T21:05:45.920;599617133257799518;14260.03;-107
2024-05-21T21:05:45.927;599617133265491308;14267.722;-92
2024-05-21T21:05:45.935;599617133273183098;14275.414;-61
2024-05-21T21:05:45.943;599617133280874888;14283.105;-61
2024-05-21T21:05:45.950;599617133288566678;14290.798;-92
2024-05-21T21:05:45.958;599617133296258468;14298.489;-97
2024-05-21T21:05:45.966;599617133303950258;14306.181;-57
2024-05-21T21:05:45.973;599617133311642048;14313.872;-21
2024-05-21T21:05:45.981;599617133319333838;14321.564;-21
2024-05-21T21:05:45.989;599617133327025628;14329.256;-28
2024-05-21T21:05:45.996;599617133334717418;14336.948;0
2024-05-21T21:05:46.004;599617133342409208;14344.64;40
2024-05-21T21:05:46.012;599617133350100998;14352.332;50
2024-05-21T21:05:46.020;599617133357792788;14360.023;61
2024-05-21T21:05:46.027;599617133365484578;14367.715;92
2024-05-21T21:05:46.035;599617133373176368;14375.406;95
2024-05-21T21:05:46.043;599617133380868158;14383.099;90
2024-05-21T21:05:46.050;599617133388559948;14390.79;123
2024-05-21T21:05:46.058;599617133396251738;14398.482;152
2024-05-21T21:05:46.066;599617133403943528;14406.174;157
2024-05-21T21:05:46.073;599617133411635318;14413.866;162
2024-05-21T21:05:46.081;599617133419327108;14421.558;171
2024-05-21T21:05:46.089;599617133427018898;14429.25;188
2024-05-21T21:05:46.096;599617133434710688;14436.94;205
2024-05-21T21:05:46.104;599617133442402478;14444.633;214
2024-05-21T21:05:46.112;599617133450094268;14452.324;236
2024-05-21T21:05:46.120;599617133457786058;14460.017;262
2024-05-21T21:05:46.127;599617133465477848;14467.708;262
2024-05-21T21:05:46.135;599617133473169638;14475.4;252
2024-05-21T21:05:46.143;599617133480861428;14483.092;264
2024-05-21T21:05:46.150;599617133488553218;14490.784;255
2024-05-21T21:05:46.158;599617133496245008;14498.476;214
2024-05-21T21:05:46.166;599617133503936798;14506.167;302
2024-05-21T21:05:46.173;599617133511628588;14513.859;653
2024-05-21T21:05:46.181;599617133519320378;14521.551;1030
2024-05-21T21:05:46.189;599617133527012168;14529.243;951
2024-05-21T21:05:46.196;599617133534703958;14536.935;410
2024-05-21T21:05:46.204;599617133542395748;14544.627;76
2024-05-21T21:05:46.212;599617133550087538;14552.318;188
2024-05-21T21:05:46.220;599617133557779328;14560.01;240
2024-05-21T21:05:46.227;599617133565471118;14567.701;140
2024-05-21T21:05:46.235;599617133573162908;14575.394;145
2024-05-21T21:05:46.243;599617133580854698;14583.085;169
2024-05-21T21:05:46.250;599617133588546488;14590.777;119
2024-05-21T21:05:46.258;599617133596268386;14598.499;78
2024-05-21T21:05:46.266;599617133603959758;14606.19;71
2024-05-21T21:05:46.273;599617133611651130;14613.882;78
2024-05-21T21:05:46.281;599617133619342502;14621.573;90
2024-05-21T21:05:46.289;599617133627033874;14629.265;104
2024-05-21T21:05:46.296;599617133634725246;14636.956;126
2024-05-21T21:05:46.304;599617133642416618;14644.646;119
2024-05-21T21:05:46.312;599617133650107990;14652.338;59
2024-05-21T21:05:46.320;599617133657799362;14660.029;23
2024-05-21T21:05:46.327;599617133665490734;14667.722;64
2024-05-21T21:05:46.335;599617133673182106;14675.413;92
2024-05-21T21:05:46.343;599617133680873478;14683.1045;76
2024-05-21T21:05:46.350;599617133688564850;14690.796;33
2024-05-21T21:05:46.358;599617133696256222;14698.486;-16
2024-05-21T21:05:46.366;599617133703947594;14706.178;-23
2024-05-21T21:05:46.373;599617133711638966;14713.869;14
2024-05-21T21:05:46.381;599617133719330338;14721.561;52
2024-05-21T21:05:46.389;599617133727021710;14729.252;88
2024-05-21T21:05:46.396;599617133734713082;14736.944;109
2024-05-21T21:05:46.404;599617133742404454;14744.636;114
2024-05-21T21:05:46.412;599617133750095826;14752.326;138
2024-05-21T21:05:46.420;599617133757787198;14760.018;176
2024-05-21T21:05:46.427;599617133765478570;14767.709;195
2024-05-21T21:05:46.435;599617133773169942;14775.4;188
2024-05-21T21:05:46.443;599617133780861314;14783.092;162
2024-05-21T21:05:46.450;599617133788552686;14790.783;126
2024-05-21T21:05:46.458;599617133796244058;14798.475;126
2024-05-21T21:05:46.466;599617133803935430;14806.165;157
2024-05-21T21:05:46.473;599617133811626802;14813.857;197
2024-05-21T21:05:46.481;599617133819318174;14821.549;233
2024-05-21T21:05:46.489;599617133827009546;14829.24;243
2024-05-21T21:05:46.496;599617133834700918;14836.932;233
2024-05-21T21:05:46.504;599617133842392290;14844.623;255
2024-05-21T21:05:46.512;599617133850083662;14852.314;295
2024-05-21T21:05:46.520;599617133857775034;14860.006;295
2024-05-21T21:05:46.527;599617133865466406;14867.696;255
2024-05-21T21:05:46.535;599617133873157778;14875.388;221
2024-05-21T21:05:46.543;599617133880849150;14883.08;288
2024-05-21T21:05:46.550;599617133888540522;14890.771;598
2024-05-21T21:05:46.558;599617133896231894;14898.463;1006
2024-05-21T21:05:46.566;599617133903923266;14906.154;1032
2024-05-21T21:05:46.573;599617133911614638;14913.846;560
2024-05-21T21:05:46.581;599617133919306010;14921.536;152
2024-05-21T21:05:46.589;599617133926997382;14929.228;193
2024-05-21T21:05:46.596;599617133934688754;14936.919;293
2024-05-21T21:05:46.604;599617133942380126;14944.61;207
2024-05-21T21:05:46.612;599617133950071498;14952.302;150
2024-05-21T21:05:46.619;599617133957762870;14959.994;183
2024-05-21T21:05:46.627;599617133965454242;14967.686;169
2024-05-21T21:05:46.635;599617133973145614;14975.376;119
2024-05-21T21:05:46.643;599617133980836986;14983.067;104
2024-05-21T21:05:46.650;599617133988528358;14990.759;128
2024-05-21T21:05:46.658;599617133996219730;14998.45;166
2024-05-21T21:05:46.666;599617134003911102;15006.142;188
2024-05-21T21:05:46.673;599617134011602474;15013.833;171
2024-05-21T21:05:46.681;599617134019293846;15021.524;150
2024-05-21T21:05:46.689;599617134026985218;15029.216;140
2024-05-21T21:05:46.696;599617134034676590;15036.907;116
2024-05-21T21:05:46.704;599617134042367962;15044.599;90
2024-05-21T21:05:46.712;599617134050059334;15052.29;104
2024-05-21T21:05:46.719;599617134057750706;15059.981;126
2024-05-21T21:05:46.727;599617134065442078;15067.673;119
2024-05-21T21:05:46.735;599617134073133450;15075.364;119
2024-05-21T21:05:46.743;599617134080824822;15083.055;162
2024-05-21T21:05:46.750;599617134088516194;15090.746;212
2024-05-21T21:05:46.758;599617134096207566;15098.4375;219
2024-05-21T21:05:46.766;599617134103898938;15106.13;212
2024-05-21T21:05:46.773;599617134111590310;15113.821;224
2024-05-21T21:05:46.781;599617134119281682;15121.513;250
2024-05-21T21:05:46.789;599617134126973054;15129.204;262
2024-05-21T21:05:46.796;599617134134664426;15136.895;264
2024-05-21T21:05:46.804;599617134142355798;15144.586;283
2024-05-21T21:05:46.812;599617134150047170;15152.277;305
2024-05-21T21:05:46.819;599617134157708454;15159.939;300
2024-05-21T21:05:46.827;599617134165400244;15167.63;290
2024-05-21T21:05:46.835;599617134173092034;15175.322;307
2024-05-21T21:05:46.843;599617134180783824;15183.014;338
2024-05-21T21:05:46.850;599617134188475614;15190.706;336
2024-05-21T21:05:46.858;599617134196167404;15198.397;269
2024-05-21T21:05:46.866;599617134203859194;15206.09;219
2024-05-21T21:05:46.873;599617134211550984;15213.782;228
2024-05-21T21:05:46.881;599617134219242774;15221.474;207
2024-05-21T21:05:46.889;599617134226934564;15229.166;174
2024-05-21T21:05:46.896;599617134234626354;15236.856;209
2024-05-21T21:05:46.904;599617134242318144;15244.549;200
2024-05-21T21:05:46.912;599617134250009934;15252.24;112
2024-05-21T21:05:46.919;599617134257701724;15259.933;205
2024-05-21T21:05:46.927;599617134265393514;15267.624;574
2024-05-21T21:05:46.935;599617134273085304;15275.316;908
2024-05-21T21:05:46.943;599617134280777094;15283.008;817
2024-05-21T21:05:46.950;599617134288468884;15290.7;345
2024-05-21T21:05:46.958;599617134296160674;15298.391;30
2024-05-21T21:05:46.966;599617134303852464;15306.083;119
2024-05-21T21:05:46.973;599617134311544254;15313.774;190
2024-05-21T21:05:46.981;599617134319236044;15321.467;90
2024-05-21T21:05:46.989;599617134326927834;15329.158;71
2024-05-21T21:05:46.996;599617134334619624;15336.851;92
2024-05-21T21:05:47.004;599617134342311414;15344.542;35
2024-05-21T21:05:47.012;599617134350003204;15352.234;19
2024-05-21T21:05:47.019;599617134357694994;15359.925;76
2024-05-21T21:05:47.027;599617134365386784;15367.617;104
2024-05-21T21:05:47.035;599617134373078574;15375.309;107
2024-05-21T21:05:47.043;599617134380770364;15383.001;123
2024-05-21T21:05:47.050;599617134388462154;15390.692;133
2024-05-21T21:05:47.058;599617134396153944;15398.385;126
2024-05-21T21:05:47.066;599617134403845734;15406.076;126
2024-05-21T21:05:47.073;599617134411537524;15413.769;150
2024-05-21T21:05:47.081;599617134419229314;15421.459;190
2024-05-21T21:05:47.089;599617134426921104;15429.151;190
2024-05-21T21:05:47.096;599617134434612894;15436.843;140
2024-05-21T21:05:47.104;599617134442304684;15444.535;128
2024-05-21T21:05:47.112;599617134449996474;15452.227;174
2024-05-21T21:05:47.119;599617134457688264;15459.919;207
2024-05-21T21:05:47.127;599617134465380054;15467.61;228
2024-05-21T21:05:47.135;599617134473071844;15475.303;247
2024-05-21T21:05:47.142;599617134480763634;15482.994;245
2024-05-21T21:05:47.150;599617134488455424;15490.686;212
2024-05-21T21:05:47.158;599617134496147214;15498.378;197
2024-05-21T21:05:47.166;599617134503839004;15506.069;247
2024-05-21T21:05:47.173;599617134511530794;15513.762;307
2024-05-21T21:05:47.181;599617134519222584;15521.453;274
2024-05-21T21:05:47.189;599617134526914374;15529.1455;193
2024-05-21T21:05:47.196;599617134534606164;15536.837;188
2024-05-21T21:05:47.204;599617134542297954;15544.529;240
2024-05-21T21:05:47.212;599617134549989744;15552.22;269
2024-05-21T21:05:47.219;599617134557681534;15559.912;281
2024-05-21T21:05:47.227;599617134565373324;15567.604;288
2024-05-21T21:05:47.235;599617134573065114;15575.296;278
2024-05-21T21:05:47.242;599617134580756904;15582.987;269
2024-05-21T21:05:47.250;599617134588448694;15590.68;276
2024-05-21T21:05:47.258;599617134596140484;15598.371;317
2024-05-21T21:05:47.266;599617134603832274;15606.063;348
2024-05-21T21:05:47.273;599617134611524064;15613.754;321
2024-05-21T21:05:47.281;599617134619215854;15621.446;276
2024-05-21T21:05:47.289;599617134626907644;15629.138;247
2024-05-21T21:05:47.296;599617134634599434;15636.83;252
2024-05-21T21:05:47.304;599617134642291224;15644.521;441
2024-05-21T21:05:47.312;599617134649983014;15652.214;805
2024-05-21T21:05:47.319;599617134657674804;15659.905;965
2024-05-21T21:05:47.327;599617134665366594;15667.598;631
2024-05-21T21:05:47.335;599617134673058384;15675.289;202
2024-05-21T21:05:47.342;599617134680750174;15682.98;171
2024-05-21T21:05:47.350;599617134688441964;15690.672;236
2024-05-21T21:05:47.358;599617134696133754;15698.364;64
2024-05-21T21:05:47.366;599617134703825544;15706.056;-61
2024-05-21T21:05:47.373;599617134711517334;15713.748;-23
2024-05-21T21:05:47.381;599617134719239232;15721.47;0
2024-05-21T21:05:47.389;599617134726930604;15729.161;-14
2024-05-21T21:05:47.396;599617134734621976;15736.853;-14
2024-05-21T21:05:47.404;599617134742313348;15744.544;14
2024-05-21T21:05:47.412;599617134750004720;15752.235;38
2024-05-21T21:05:47.419;599617134757696092;15759.927;23
2024-05-21T21:05:47.427;599617134765387464;15767.617;7
2024-05-21T21:05:47.435;599617134773078836;15775.31;19
2024-05-21T21:05:47.443;599617134780770208;15783.001;45
2024-05-21T21:05:47.450;599617134788461580;15790.692;21
2024-05-21T21:05:47.458;599617134796152952;15798.384;-57
2024-05-21T21:05:47.466;599617134803844324;15806.075;-71
2024-05-21T21:05:47.473;599617134811535696;15813.767;-23
2024-05-21T21:05:47.481;599617134819227068;15821.457;-14
2024-05-21T21:05:47.489;599617134826918440;15829.148;-9
2024-05-21T21:05:47.496;599617134834609812;15836.84;30
2024-05-21T21:05:47.504;599617134842301184;15844.532;45
2024-05-21T21:05:47.512;599617134849992556;15852.224;35
2024-05-21T21:05:47.519;599617134857683928;15859.915;59
2024-05-21T21:05:47.527;599617134865375300;15867.606;90
2024-05-21T21:05:47.535;599617134873066672;15875.297;102
2024-05-21T21:05:47.542;599617134880758044;15882.988;112
2024-05-21T21:05:47.550;599617134888449416;15890.68;119
2024-05-21T21:05:47.558;599617134896140788;15898.371;121
2024-05-21T21:05:47.566;599617134903832160;15906.0625;123
2024-05-21T21:05:47.573;599617134911523532;15913.754;131
2024-05-21T21:05:47.581;599617134919214904;15921.446;147
2024-05-21T21:05:47.589;599617134926906276;15929.137;176
2024-05-21T21:05:47.596;599617134934597648;15936.828;188
2024-05-21T21:05:47.604;599617134942289020;15944.52;178
2024-05-21T21:05:47.612;599617134949980392;15952.211;178
2024-05-21T21:05:47.619;599617134957671764;15959.902;212
2024-05-21T21:05:47.627;599617134965363136;15967.594;224
2024-05-21T21:05:47.635;599617134973054508;15975.285;202
2024-05-21T21:05:47.642;599617134980745880;15982.976;205
2024-05-21T21:05:47.650;599617134988437252;15990.668;233
