Phone timestamp;sensor timestamp [ns];timestamp [ms];ecg [uV]
2024-05-22T19:35:45.237;599616364600745102;0.0;3442
2024-05-22T19:35:45.244;599616364608437379;7.692277;4379
2024-05-22T19:35:45.252;599616364616129656;15.384554;4979
2024-05-22T19:35:45.260;599616364623821933;23.076832;5890
2024-05-22T19:35:45.267;599616364631514210;30.769108;6609
2024-05-22T19:35:45.275;599616364639206487;38.461384;7174
2024-05-22T19:35:45.283;599616364646898764;46.153664;7915
2024-05-22T19:35:45.290;599616364654591041;53.84594;8541
2024-05-22T19:35:45.298;599616364662283318;61.538216;8989
2024-05-22T19:35:45.306;599616364669975595;69.2305;9526
2024-05-22T19:35:45.313;599616364677667872;76.92277;10087
2024-05-22T19:35:45.321;599616364685360149;84.61505;10549
2024-05-22T19:35:45.329;599616364693052426;92.30733;10961
2024-05-22T19:35:45.336;599616364700744703;99.9996;11414
2024-05-22T19:35:45.344;599616364708436980;107.69188;11946
2024-05-22T19:35:45.352;599616364716129257;115.384155;12399
2024-05-22T19:35:45.360;599616364723821534;123.07643;12689
2024-05-22T19:35:45.367;599616364731513811;130.7687;13032
2024-05-22T19:35:45.375;599616364739206088;138.461;13467
2024-05-22T19:35:45.383;599616364746898365;146.15326;13775
2024-05-22T19:35:45.390;599616364754590642;153.84554;14013
2024-05-22T19:35:45.398;599616364762282919;161.53783;14326
2024-05-22T19:35:45.406;599616364769975196;169.2301;14618
2024-05-22T19:35:45.413;599616364777667473;176.92236;14812
2024-05-22T19:35:45.421;599616364785359750;184.61465;14971
2024-05-22T19:35:45.429;599616364793052027;192.30693;15211
2024-05-22T19:35:45.436;599616364800744304;199.9992;15522
2024-05-22T19:35:45.444;599616364808436581;207.69147;15704
2024-05-22T19:35:45.452;599616364816128858;215.38376;15868
2024-05-22T19:35:45.460;599616364823821135;223.07603;16363
2024-05-22T19:35:45.467;599616364831513412;230.76831;16886
2024-05-22T19:35:45.475;599616364839205689;238.46059;16846
2024-05-22T19:35:45.483;599616364846897966;246.15286;16459
2024-05-22T19:35:45.490;599616364854590243;253.84514;16346
2024-05-22T19:35:45.498;599616364862282520;261.5374;16482
2024-05-22T19:35:45.506;599616364869974797;269.2297;16468
2024-05-22T19:35:45.513;599616364877667074;276.922;16463
2024-05-22T19:35:45.521;599616364885359351;284.61423;16760
2024-05-22T19:35:45.529;599616364893051628;292.30652;16993
2024-05-22T19:35:45.536;599616364900743905;299.9988;16844
2024-05-22T19:35:45.544;599616364908436182;307.69107;16662
2024-05-22T19:35:45.552;599616364916128459;315.38336;16657
2024-05-22T19:35:45.560;599616364923820736;323.07565;16615
2024-05-22T19:35:45.567;599616364931513013;330.7679;16522
2024-05-22T19:35:45.575;599616364939205290;338.4602;16571
2024-05-22T19:35:45.583;599616364946897567;346.15247;16687
2024-05-22T19:35:45.590;599616364954589844;353.84473;16627
2024-05-22T19:35:45.598;599616364962282121;361.53702;16482
2024-05-22T19:35:45.606;599616364969974398;369.2293;16473
2024-05-22T19:35:45.613;599616364977666675;376.92157;16552
2024-05-22T19:35:45.621;599616364985358952;384.61386;16589
2024-05-22T19:35:45.629;599616364993051229;392.30612;16510
2024-05-22T19:35:45.636;599616365000743506;399.9984;16388
2024-05-22T19:35:45.644;599616365008435783;407.69067;16374
2024-05-22T19:35:45.652;599616365016128060;415.38293;16356
2024-05-22T19:35:45.660;599616365023820337;423.07523;16241
2024-05-22T19:35:45.667;599616365031512614;430.76752;16241
2024-05-22T19:35:45.675;599616365039204891;438.45978;16276
2024-05-22T19:35:45.683;599616365046897168;446.15207;16078
2024-05-22T19:35:45.690;599616365054589445;453.84436;15856
2024-05-22T19:35:45.698;599616365062281722;461.53662;15942
2024-05-22T19:35:45.706;599616365069973999;469.22888;16113
2024-05-22T19:35:45.713;599616365077666276;476.92117;15905
2024-05-22T19:35:45.721;599616365085358553;484.61343;15478
2024-05-22T19:35:45.729;599616365093050830;492.30573;15340
2024-05-22T19:35:45.736;599616365100743107;499.99802;15368
2024-05-22T19:35:45.744;599616365108435384;507.69028;15214
2024-05-22T19:35:45.752;599616365116127661;515.38257;15031
2024-05-22T19:35:45.760;599616365123819938;523.0748;15041
2024-05-22T19:35:45.767;599616365131512215;530.7671;15092
2024-05-22T19:35:45.775;599616365139204492;538.4594;14994
2024-05-22T19:35:45.783;599616365146896769;546.1517;14754
2024-05-22T19:35:45.790;599616365154589046;553.844;14567
2024-05-22T19:35:45.798;599616365162266340;561.52124;14529
2024-05-22T19:35:45.806;599616365169958826;569.2137;14459
2024-05-22T19:35:45.813;599616365177651312;576.90625;14300
2024-05-22T19:35:45.821;599616365185343798;584.5987;14195
2024-05-22T19:35:45.829;599616365193036284;592.2912;14123
2024-05-22T19:35:45.836;599616365200728770;599.9837;13971
2024-05-22T19:35:45.844;599616365208421256;607.67615;13833
2024-05-22T19:35:45.852;599616365216113742;615.36865;13927
2024-05-22T19:35:45.860;599616365223806228;623.0611;13943
2024-05-22T19:35:45.867;599616365231498714;630.7536;13516
2024-05-22T19:35:45.875;599616365239191200;638.4461;13191
2024-05-22T19:35:45.883;599616365246883686;646.13855;13280
2024-05-22T19:35:45.890;599616365254576172;653.83105;13266
2024-05-22T19:35:45.898;599616365262268658;661.52356;13074
2024-05-22T19:35:45.906;599616365269961144;669.21606;12997
2024-05-22T19:35:45.913;599616365277653630;676.90857;12953
2024-05-22T19:35:45.921;599616365285346116;684.601;12808
2024-05-22T19:35:45.929;599616365293038602;692.2935;12666
2024-05-22T19:35:45.936;599616365300731088;699.98596;12616
2024-05-22T19:35:45.944;599616365308423574;707.67847;12609
2024-05-22T19:35:45.952;599616365316116060;715.371;12488
2024-05-22T19:35:45.960;599616365323808546;723.0634;12252
2024-05-22T19:35:45.967;599616365331501032;730.7559;12142
2024-05-22T19:35:45.975;599616365339193518;738.44836;12149
2024-05-22T19:35:45.983;599616365346886004;746.1409;12056
2024-05-22T19:35:45.990;599616365354578490;753.83344;11939
2024-05-22T19:35:45.998;599616365362270976;761.5259;11902
2024-05-22T19:35:46.006;599616365369963462;769.2184;11804
2024-05-22T19:35:46.013;599616365377655948;776.9108;11696
2024-05-22T19:35:46.021;599616365385348434;784.60333;11638
2024-05-22T19:35:46.029;599616365393040920;792.29584;11460
2024-05-22T19:35:46.036;599616365400733406;799.9883;11241
2024-05-22T19:35:46.044;599616365408425892;807.6808;11075
2024-05-22T19:35:46.052;599616365416118378;815.3732;10881
2024-05-22T19:35:46.060;599616365423810864;823.0658;10776
2024-05-22T19:35:46.067;599616365431503350;830.7583;10755
2024-05-22T19:35:46.075;599616365439195836;838.45074;10608
2024-05-22T19:35:46.083;599616365446888322;846.14325;10449
2024-05-22T19:35:46.090;599616365454580808;853.8357;10386
2024-05-22T19:35:46.098;599616365462273294;861.5282;10290
2024-05-22T19:35:46.106;599616365469965780;869.22064;10262
2024-05-22T19:35:46.113;599616365477658266;876.91315;10472
2024-05-22T19:35:46.121;599616365485350752;884.60565;10657
2024-05-22T19:35:46.129;599616365493043238;892.2981;10409
2024-05-22T19:35:46.136;599616365500735724;899.9906;9807
2024-05-22T19:35:46.144;599616365508428210;907.68317;9375
2024-05-22T19:35:46.152;599616365516120696;915.3756;9298
2024-05-22T19:35:46.160;599616365523813182;923.0681;9211
2024-05-22T19:35:46.167;599616365531505668;930.76056;9001
2024-05-22T19:35:46.175;599616365539198154;938.45306;8966
2024-05-22T19:35:46.183;599616365546890640;946.1455;8968
2024-05-22T19:35:46.190;599616365554583126;953.838;8714
2024-05-22T19:35:46.198;599616365562275612;961.5305;8508
2024-05-22T19:35:46.206;599616365569968098;969.22296;8515
2024-05-22T19:35:46.213;599616365577660584;976.91547;8417
2024-05-22T19:35:46.221;599616365585353070;984.608;8130
2024-05-22T19:35:46.229;599616365593045556;992.3005;7824
2024-05-22T19:35:46.236;599616365600738042;999.993;7674
2024-05-22T19:35:46.244;599616365608430528;1007.6854;7649
2024-05-22T19:35:46.252;599616365616123014;1015.3779;7565
2024-05-22T19:35:46.260;599616365623815500;1023.0704;7471
2024-05-22T19:35:46.267;599616365631507986;1030.763;7466
2024-05-22T19:35:46.275;599616365639200472;1038.4553;7347
2024-05-22T19:35:46.283;599616365646892958;1046.1478;7107
2024-05-22T19:35:46.290;599616365654585444;1053.8403;7025
2024-05-22T19:35:46.298;599616365662277930;1061.5328;7067
2024-05-22T19:35:46.306;599616365669970416;1069.2253;7060
2024-05-22T19:35:46.313;599616365677662902;1076.9177;7034
2024-05-22T19:35:46.321;599616365685355388;1084.6104;6976
2024-05-22T19:35:46.329;599616365693047874;1092.3027;6880
2024-05-22T19:35:46.336;599616365700740360;1099.9952;6838
2024-05-22T19:35:46.344;599616365708432846;1107.6876;6805
2024-05-22T19:35:46.352;599616365716125332;1115.3802;6731
2024-05-22T19:35:46.360;599616365723847982;1123.1029;6712
2024-05-22T19:35:46.367;599616365731540050;1130.795;6710
2024-05-22T19:35:46.375;599616365739232118;1138.487;6602
2024-05-22T19:35:46.383;599616365746924186;1146.1791;6497
2024-05-22T19:35:46.390;599616365754616254;1153.8711;6471
2024-05-22T19:35:46.398;599616365762308322;1161.5632;6418
2024-05-22T19:35:46.406;599616365770000390;1169.2552;6299
2024-05-22T19:35:46.413;599616365777692458;1176.9474;6159
2024-05-22T19:35:46.421;599616365785384526;1184.6395;6060
2024-05-22T19:35:46.429;599616365793076594;1192.3315;6009
2024-05-22T19:35:46.437;599616365800768662;1200.0236;5934
2024-05-22T19:35:46.444;599616365808460730;1207.7156;5862
2024-05-22T19:35:46.452;599616365816152798;1215.4077;5864
2024-05-22T19:35:46.460;599616365823844866;1223.0997;5780
2024-05-22T19:35:46.467;599616365831536934;1230.7917;5519
2024-05-22T19:35:46.475;599616365839229002;1238.4839;5374
2024-05-22T19:35:46.483;599616365846921070;1246.176;5409
2024-05-22T19:35:46.490;599616365854613138;1253.868;5364
2024-05-22T19:35:46.498;599616365862305206;1261.56;5264
2024-05-22T19:35:46.506;599616365869997274;1269.2522;5234
2024-05-22T19:35:46.513;599616365877689342;1276.9442;5173
2024-05-22T19:35:46.521;599616365885381410;1284.6362;5009
2024-05-22T19:35:46.529;599616365893073478;1292.3284;4876
2024-05-22T19:35:46.537;599616365900765546;1300.0205;4869
2024-05-22T19:35:46.544;599616365908457614;1307.7125;4902
2024-05-22T19:35:46.552;599616365916149682;1315.4045;4862
2024-05-22T19:35:46.560;599616365923841750;1323.0967;4783
2024-05-22T19:35:46.567;599616365931533818;1330.7887;4778
2024-05-22T19:35:46.575;599616365939225886;1338.4807;4816
2024-05-22T19:35:46.583;599616365946917954;1346.1729;4776
2024-05-22T19:35:46.590;599616365954610022;1353.865;4699
2024-05-22T19:35:46.598;599616365962302090;1361.557;4666
2024-05-22T19:35:46.606;599616365969994158;1369.249;4636
2024-05-22T19:35:46.613;599616365977686226;1376.9412;4591
2024-05-22T19:35:46.621;599616365985378294;1384.6332;4549
2024-05-22T19:35:46.629;599616365993070362;1392.3252;4533
2024-05-22T19:35:46.637;599616366000762430;1400.0173;4533
2024-05-22T19:35:46.644;599616366008454498;1407.7095;4500
2024-05-22T19:35:46.652;599616366016146566;1415.4015;4456
2024-05-22T19:35:46.660;599616366023838634;1423.0935;4447
2024-05-22T19:35:46.667;599616366031530702;1430.7855;4423
2024-05-22T19:35:46.675;599616366039222770;1438.4777;4365
2024-05-22T19:35:46.683;599616366046914838;1446.1697;4339
2024-05-22T19:35:46.690;599616366054606906;1453.8618;4323
2024-05-22T19:35:46.698;599616366062298974;1461.554;4260
2024-05-22T19:35:46.706;599616366069991042;1469.246;4185
2024-05-22T19:35:46.713;599616366077683110;1476.938;4164
2024-05-22T19:35:46.721;599616366085375178;1484.63;4096
2024-05-22T19:35:46.729;599616366093067246;1492.3221;3893
2024-05-22T19:35:46.737;599616366100759314;1500.0142;3690
2024-05-22T19:35:46.744;599616366108451382;1507.7063;3622
2024-05-22T19:35:46.752;599616366116143450;1515.3984;3760
2024-05-22T19:35:46.760;599616366123835518;1523.0905;4070
2024-05-22T19:35:46.767;599616366131527586;1530.7825;4306
2024-05-22T19:35:46.775;599616366139219654;1538.4745;4192
2024-05-22T19:35:46.783;599616366146911722;1546.1666;3748
2024-05-22T19:35:46.790;599616366154603790;1553.8586;3409
2024-05-22T19:35:46.798;599616366162295858;1561.5507;3395
2024-05-22T19:35:46.806;599616366169987926;1569.2429;3386
2024-05-22T19:35:46.813;599616366177679994;1576.9349;3286
2024-05-22T19:35:46.821;599616366185372062;1584.627;3262
2024-05-22T19:35:46.829;599616366193064130;1592.319;3195
2024-05-22T19:35:46.837;599616366200756198;1600.0111;3083
2024-05-22T19:35:46.844;599616366208448266;1607.7031;3064
2024-05-22T19:35:46.852;599616366216140334;1615.3951;3029
2024-05-22T19:35:46.860;599616366223832402;1623.0874;2931
2024-05-22T19:35:46.867;599616366231524470;1630.7794;2854
2024-05-22T19:35:46.875;599616366239216538;1638.4714;2744
2024-05-22T19:35:46.883;599616366246908606;1646.1635;2601
2024-05-22T19:35:46.890;599616366254600674;1653.8556;2520
2024-05-22T19:35:46.898;599616366262292742;1661.5476;2433
2024-05-22T19:35:46.906;599616366269984810;1669.2396;2284
2024-05-22T19:35:46.913;599616366277676878;1676.9319;2186
2024-05-22T19:35:46.921;599616366285379016;1684.6339;2181
2024-05-22T19:35:46.929;599616366293070945;1692.3259;2200
2024-05-22T19:35:46.937;599616366300762874;1700.0178;2209
2024-05-22T19:35:46.944;599616366308454803;1707.7097;2242
2024-05-22T19:35:46.952;599616366316146732;1715.4016;2295
2024-05-22T19:35:46.960;599616366323838661;1723.0935;2309
2024-05-22T19:35:46.967;599616366331530590;1730.7855;2272
2024-05-22T19:35:46.975;599616366339222519;1738.4774;2214
2024-05-22T19:35:46.983;599616366346914448;1746.1693;2195
2024-05-22T19:35:46.990;599616366354606377;1753.8612;2216
2024-05-22T19:35:46.998;599616366362298306;1761.5531;2195
2024-05-22T19:35:47.006;599616366369990235;1769.2452;2125
2024-05-22T19:35:47.013;599616366377682164;1776.9371;2034
2024-05-22T19:35:47.021;599616366385374093;1784.629;1961
2024-05-22T19:35:47.029;599616366393066022;1792.3209;1901
2024-05-22T19:35:47.037;599616366400757951;1800.0128;1807
2024-05-22T19:35:47.044;599616366408449880;1807.7048;1763
2024-05-22T19:35:47.052;599616366416141809;1815.3967;1838
2024-05-22T19:35:47.060;599616366423833738;1823.0886;1884
2024-05-22T19:35:47.067;599616366431525667;1830.7805;1868
2024-05-22T19:35:47.075;599616366439217596;1838.4724;1894
2024-05-22T19:35:47.083;599616366446909525;1846.1644;1917
2024-05-22T19:35:47.090;599616366454601454;1853.8563;1889
2024-05-22T19:35:47.098;599616366462293383;1861.5483;1887
2024-05-22T19:35:47.106;599616366469985312;1869.2402;1905
2024-05-22T19:35:47.113;599616366477677241;1876.9321;1884
2024-05-22T19:35:47.121;599616366485369170;1884.6241;1849
2024-05-22T19:35:47.129;599616366493061099;1892.316;1845
2024-05-22T19:35:47.137;599616366500753028;1900.0079;1866
2024-05-22T19:35:47.144;599616366508444957;1907.6998;1880
2024-05-22T19:35:47.152;599616366516136886;1915.3917;1824
2024-05-22T19:35:47.160;599616366523828815;1923.0837;1744
2024-05-22T19:35:47.167;599616366531520744;1930.7756;1735
2024-05-22T19:35:47.175;599616366539212673;1938.4675;1744
2024-05-22T19:35:47.183;599616366546904602;1946.1595;1700
2024-05-22T19:35:47.190;599616366554596531;1953.8514;1669
2024-05-22T19:35:47.198;599616366562288460;1961.5433;1693
2024-05-22T19:35:47.206;599616366569980389;1969.2354;1690
2024-05-22T19:35:47.213;599616366577672318;1976.9272;1653
2024-05-22T19:35:47.221;599616366585364247;1984.6191;1583
2024-05-22T19:35:47.229;599616366593056176;1992.311;1464
2024-05-22T19:35:47.237;599616366600748105;2000.0029;1380
2024-05-22T19:35:47.244;599616366608440034;2007.695;1352
2024-05-22T19:35:47.252;599616366616131963;2015.3868;1310
2024-05-22T19:35:47.260;599616366623823892;2023.0787;1275
2024-05-22T19:35:47.267;599616366631515821;2030.7706;1286
2024-05-22T19:35:47.275;599616366639207750;2038.4626;1298
2024-05-22T19:35:47.283;599616366646899679;2046.1547;1300
2024-05-22T19:35:47.290;599616366654591608;2053.8464;1286
2024-05-22T19:35:47.298;599616366662283537;2061.5383;1258
2024-05-22T19:35:47.306;599616366669975466;2069.2302;1261
2024-05-22T19:35:47.313;599616366677667395;2076.922;1291
2024-05-22T19:35:47.321;599616366685359324;2084.6143;1319
2024-05-22T19:35:47.329;599616366693051253;2092.3062;1321
2024-05-22T19:35:47.336;599616366700743182;2099.998;1286
2024-05-22T19:35:47.344;599616366708435111;2107.69;1279
2024-05-22T19:35:47.352;599616366716127040;2115.3818;1338
2024-05-22T19:35:47.360;599616366723818969;2123.074;1356
2024-05-22T19:35:47.367;599616366731510898;2130.7659;1317
2024-05-22T19:35:47.375;599616366739202827;2138.4578;1286
2024-05-22T19:35:47.383;599616366746894756;2146.1497;1249
2024-05-22T19:35:47.390;599616366754586685;2153.8416;1193
2024-05-22T19:35:47.398;599616366762278614;2161.5334;1191
2024-05-22T19:35:47.406;599616366769970543;2169.2256;1361
2024-05-22T19:35:47.413;599616366777662472;2176.9172;1740
2024-05-22T19:35:47.421;599616366785354401;2184.6094;2024
2024-05-22T19:35:47.429;599616366793046330;2192.3013;1793
2024-05-22T19:35:47.436;599616366800738259;2199.9932;1286
2024-05-22T19:35:47.444;599616366808430188;2207.685;1114
2024-05-22T19:35:47.452;599616366816122117;2215.377;1172
2024-05-22T19:35:47.460;599616366823814046;2223.0688;1093
2024-05-22T19:35:47.467;599616366831505975;2230.761;1008
2024-05-22T19:35:47.475;599616366839197904;2238.4526;1027
2024-05-22T19:35:47.483;599616366846839688;2246.0945;1011
2024-05-22T19:35:47.490;599616366854532314;2253.787;964
2024-05-22T19:35:47.498;599616366862224940;2261.48;917
2024-05-22T19:35:47.506;599616366869917566;2269.1724;833
2024-05-22T19:35:47.513;599616366877610192;2276.865;747
2024-05-22T19:35:47.521;599616366885302818;2284.5579;679
2024-05-22T19:35:47.529;599616366892995444;2292.2505;621
2024-05-22T19:35:47.536;599616366900688070;2299.9429;548
2024-05-22T19:35:47.544;599616366908380696;2307.6357;420
2024-05-22T19:35:47.552;599616366916073322;2315.3284;352
2024-05-22T19:35:47.560;599616366923765948;2323.0208;369
2024-05-22T19:35:47.567;599616366931458574;2330.7136;329
2024-05-22T19:35:47.575;599616366939151200;2338.4062;287
2024-05-22T19:35:47.583;599616366946843826;2346.0986;338
2024-05-22T19:35:47.590;599616366954536452;2353.7913;401
2024-05-22T19:35:47.598;599616366962229078;2361.4841;446
2024-05-22T19:35:47.606;599616366969921704;2369.1765;478
2024-05-22T19:35:47.613;599616366977614330;2376.8691;513
2024-05-22T19:35:47.621;599616366985306956;2384.562;565
2024-05-22T19:35:47.629;599616366992999582;2392.2544;590
2024-05-22T19:35:47.636;599616367000692208;2399.947;583
2024-05-22T19:35:47.644;599616367008384834;2407.64;602
2024-05-22T19:35:47.652;599616367016077460;2415.3323;637
2024-05-22T19:35:47.660;599616367023770086;2423.025;656
2024-05-22T19:35:47.667;599616367031462712;2430.7178;670
2024-05-22T19:35:47.675;599616367039155338;2438.4102;698
2024-05-22T19:35:47.683;599616367046847964;2446.1028;710
2024-05-22T19:35:47.690;599616367054540590;2453.7957;710
2024-05-22T19:35:47.698;599616367062233216;2461.488;731
2024-05-22T19:35:47.706;599616367069925842;2469.1807;756
2024-05-22T19:35:47.713;599616367077618468;2476.8735;775
2024-05-22T19:35:47.721;599616367085311094;2484.566;773
2024-05-22T19:35:47.729;599616367093003720;2492.2585;705
2024-05-22T19:35:47.736;599616367100696346;2499.9514;644
2024-05-22T19:35:47.744;599616367108388972;2507.6438;653
2024-05-22T19:35:47.752;599616367116081598;2515.3364;628
2024-05-22T19:35:47.760;599616367123774224;2523.0293;576
2024-05-22T19:35:47.767;599616367131466850;2530.7217;604
2024-05-22T19:35:47.775;599616367139159476;2538.4143;674
2024-05-22T19:35:47.783;599616367146852102;2546.107;703
2024-05-22T19:35:47.790;599616367154544728;2553.7996;696
2024-05-22T19:35:47.798;599616367162237354;2561.4922;689
2024-05-22T19:35:47.806;599616367169929980;2569.1848;698
2024-05-22T19:35:47.813;599616367177622606;2576.8777;714
2024-05-22T19:35:47.821;599616367185315232;2584.57;735
2024-05-22T19:35:47.829;599616367193007858;2592.2627;768
2024-05-22T19:35:47.836;599616367200700484;2599.9556;775
2024-05-22T19:35:47.844;599616367208393110;2607.648;742
2024-05-22T19:35:47.852;599616367216085736;2615.3406;733
2024-05-22T19:35:47.860;599616367223778362;2623.0334;754
2024-05-22T19:35:47.867;599616367231470988;2630.7258;742
2024-05-22T19:35:47.875;599616367239163614;2638.4185;719
2024-05-22T19:35:47.883;599616367246856240;2646.1113;710
2024-05-22T19:35:47.890;599616367254548866;2653.8037;667
2024-05-22T19:35:47.898;599616367262241492;2661.4963;632
2024-05-22T19:35:47.906;599616367269934118;2669.1892;674
2024-05-22T19:35:47.913;599616367277626744;2676.8816;728
2024-05-22T19:35:47.921;599616367285319370;2684.5742;749
2024-05-22T19:35:47.929;599616367293011996;2692.267;749
2024-05-22T19:35:47.936;599616367300704622;2699.9595;728
2024-05-22T19:35:47.944;599616367308397248;2707.652;703
2024-05-22T19:35:47.952;599616367316089874;2715.345;691
2024-05-22T19:35:47.960;599616367323782500;2723.0374;674
2024-05-22T19:35:47.967;599616367331475126;2730.73;670
2024-05-22T19:35:47.975;599616367339167752;2738.4226;684
2024-05-22T19:35:47.983;599616367346860378;2746.1152;674
2024-05-22T19:35:47.990;599616367354553004;2753.8079;628
2024-05-22T19:35:47.998;599616367362245630;2761.5005;609
2024-05-22T19:35:48.006;599616367369938256;2769.193;649
2024-05-22T19:35:48.013;599616367377630882;2776.8857;667
2024-05-22T19:35:48.021;599616367385323508;2784.5784;642
2024-05-22T19:35:48.029;599616367393016134;2792.271;623
2024-05-22T19:35:48.036;599616367400708760;2799.9636;614
2024-05-22T19:35:48.044;599616367408431500;2807.6863;593
2024-05-22T19:35:48.052;599616367416123708;2815.3787;586
2024-05-22T19:35:48.060;599616367423815916;2823.0708;724
2024-05-22T19:35:48.067;599616367431508124;2830.763;1083
2024-05-22T19:35:48.075;599616367439200332;2838.4553;1366
2024-05-22T19:35:48.083;599616367446892540;2846.1472;1123
2024-05-22T19:35:48.090;599616367454584748;2853.8396;558
2024-05-22T19:35:48.098;599616367462276956;2861.532;312
2024-05-22T19:35:48.106;599616367469969164;2869.2239;420
2024-05-22T19:35:48.113;599616367477661372;2876.9163;406
2024-05-22T19:35:48.121;599616367485353580;2884.6084;254
2024-05-22T19:35:48.129;599616367493045788;2892.3008;212
2024-05-22T19:35:48.136;599616367500737996;2899.993;210
2024-05-22T19:35:48.144;599616367508430204;2907.685;116
2024-05-22T19:35:48.152;599616367516122412;2915.3774;46
2024-05-22T19:35:48.160;599616367523814620;2923.0693;56
2024-05-22T19:35:48.167;599616367531506828;2930.7617;30
2024-05-22T19:35:48.175;599616367539199036;2938.454;-32
2024-05-22T19:35:48.183;599616367546891244;2946.146;-25
2024-05-22T19:35:48.190;599616367554583452;2953.8384;7
2024-05-22T19:35:48.198;599616367562275660;2961.5305;-25
2024-05-22T19:35:48.206;599616367569967868;2969.2227;-63
2024-05-22T19:35:48.213;599616367577660076;2976.915;-49
2024-05-22T19:35:48.221;599616367585352284;2984.6072;-53
2024-05-22T19:35:48.229;599616367593044492;2992.2993;-140
2024-05-22T19:35:48.236;599616367600736700;2999.9915;-231
2024-05-22T19:35:48.244;599616367608428908;3007.6838;-210
2024-05-22T19:35:48.252;599616367616121116;3015.3762;-158
2024-05-22T19:35:48.260;599616367623813324;3023.068;-224
2024-05-22T19:35:48.267;599616367631505532;3030.7605;-301
2024-05-22T19:35:48.275;599616367639197740;3038.4526;-249
2024-05-22T19:35:48.283;599616367646889948;3046.1448;-184
2024-05-22T19:35:48.290;599616367654582156;3053.8372;-189
2024-05-22T19:35:48.298;599616367662274364;3061.5293;-186
2024-05-22T19:35:48.306;599616367669966572;3069.2214;-144
2024-05-22T19:35:48.313;599616367677658780;3076.9136;-109
2024-05-22T19:35:48.321;599616367685350988;3084.606;-91
2024-05-22T19:35:48.329;599616367693043196;3092.298;-60
2024-05-22T19:35:48.336;599616367700735404;3099.9902;-39
2024-05-22T19:35:48.344;599616367708427612;3107.6826;-42
2024-05-22T19:35:48.352;599616367716119820;3115.3745;-44
2024-05-22T19:35:48.360;599616367723812028;3123.067;-32
2024-05-22T19:35:48.367;599616367731504236;3130.7593;4
2024-05-22T19:35:48.375;599616367739196444;3138.4514;49
2024-05-22T19:35:48.383;599616367746888652;3146.1436;79
2024-05-22T19:35:48.390;599616367754580860;3153.8357;98
2024-05-22T19:35:48.398;599616367762273068;3161.528;95
2024-05-22T19:35:48.406;599616367769965276;3169.2202;100
2024-05-22T19:35:48.413;599616367777657484;3176.9124;137
2024-05-22T19:35:48.421;599616367785349692;3184.6047;182
2024-05-22T19:35:48.429;599616367793041900;3192.2966;217
2024-05-22T19:35:48.436;599616367800734108;3199.989;254
2024-05-22T19:35:48.444;599616367808426316;3207.6814;259
2024-05-22T19:35:48.452;599616367816118524;3215.3733;247
2024-05-22T19:35:48.460;599616367823810732;3223.0657;280
2024-05-22T19:35:48.467;599616367831502940;3230.7578;303
2024-05-22T19:35:48.475;599616367839195148;3238.45;261
2024-05-22T19:35:48.483;599616367846887356;3246.142;189
2024-05-22T19:35:48.490;599616367854579564;3253.8345;105
2024-05-22T19:35:48.498;599616367862271772;3261.5269;70
2024-05-22T19:35:48.506;599616367869963980;3269.2188;114
2024-05-22T19:35:48.513;599616367877656188;3276.9111;161
2024-05-22T19:35:48.521;599616367885348396;3284.6033;184
2024-05-22T19:35:48.529;599616367893040604;3292.2954;182
2024-05-22T19:35:48.536;599616367900732812;3299.9878;144
2024-05-22T19:35:48.544;599616367908425020;3307.68;126
2024-05-22T19:35:48.552;599616367916117228;3315.372;203
2024-05-22T19:35:48.560;599616367923809436;3323.0642;284
2024-05-22T19:35:48.567;599616367931501644;3330.7566;308
2024-05-22T19:35:48.575;599616367939193852;3338.4487;312
2024-05-22T19:35:48.583;599616367946886060;3346.1409;324
2024-05-22T19:35:48.590;599616367954578268;3353.8333;355
2024-05-22T19:35:48.598;599616367962270476;3361.5251;397
2024-05-22T19:35:48.606;599616367969962702;3369.2175;432
2024-05-22T19:35:48.613;599616367977654910;3376.91;448
2024-05-22T19:35:48.621;599616367985347118;3384.602;450
2024-05-22T19:35:48.629;599616367993039326;3392.2942;441
2024-05-22T19:35:48.636;599616368000731534;3399.9863;434
2024-05-22T19:35:48.644;599616368008423742;3407.6787;413
2024-05-22T19:35:48.652;599616368016115950;3415.3708;333
2024-05-22T19:35:48.660;599616368023808158;3423.063;252
2024-05-22T19:35:48.667;599616368031500366;3430.7554;235
2024-05-22T19:35:48.675;599616368039192574;3438.4473;210
2024-05-22T19:35:48.683;599616368046884782;3446.1396;184
2024-05-22T19:35:48.690;599616368054576990;3453.832;221
2024-05-22T19:35:48.698;599616368062269198;3461.524;273
2024-05-22T19:35:48.706;599616368069961406;3469.2163;263
2024-05-22T19:35:48.713;599616368077653614;3476.9084;231
2024-05-22T19:35:48.721;599616368085345822;3484.6008;345
2024-05-22T19:35:48.729;599616368093038030;3492.293;660
2024-05-22T19:35:48.736;599616368100730238;3499.985;812
2024-05-22T19:35:48.744;599616368108422446;3507.6775;474
2024-05-22T19:35:48.752;599616368116114654;3515.3694;32
2024-05-22T19:35:48.760;599616368123806862;3523.0618;-51
2024-05-22T19:35:48.767;599616368131499070;3530.7542;-14
2024-05-22T19:35:48.775;599616368139191278;3538.446;-116
2024-05-22T19:35:48.783;599616368146883486;3546.1384;-198
2024-05-22T19:35:48.790;599616368154575694;3553.8306;-182
2024-05-22T19:35:48.798;599616368162267902;3561.5227;-177
2024-05-22T19:35:48.806;599616368169960110;3569.215;-189
2024-05-22T19:35:48.813;599616368177652318;3576.9072;-177
2024-05-22T19:35:48.821;599616368185344526;3584.5996;-165
2024-05-22T19:35:48.829;599616368193036734;3592.2915;-161
2024-05-22T19:35:48.836;599616368200728942;3599.984;-161
2024-05-22T19:35:48.844;599616368208421150;3607.6763;-158
2024-05-22T19:35:48.852;599616368216113358;3615.3682;-161
2024-05-22T19:35:48.860;599616368223805566;3623.0605;-182
2024-05-22T19:35:48.867;599616368231497774;3630.7527;-172
2024-05-22T19:35:48.875;599616368239189982;3638.4448;-107
2024-05-22T19:35:48.883;599616368246882190;3646.1372;-44
2024-05-22T19:35:48.890;599616368254574398;3653.8293;-4
2024-05-22T19:35:48.898;599616368262266606;3661.5215;37
2024-05-22T19:35:48.906;599616368269958814;3669.2136;58
2024-05-22T19:35:48.913;599616368277651022;3676.906;58
2024-05-22T19:35:48.921;599616368285343230;3684.598;65
2024-05-22T19:35:48.929;599616368293035438;3692.2903;84
2024-05-22T19:35:48.936;599616368300727646;3699.9827;107
2024-05-22T19:35:48.944;599616368308419854;3707.6746;88
2024-05-22T19:35:48.952;599616368316112062;3715.367;32
2024-05-22T19:35:48.960;599616368323804270;3723.059;32
2024-05-22T19:35:48.967;599616368331496478;3730.7515;91
2024-05-22T19:35:48.975;599616368339188686;3738.4436;112
2024-05-22T19:35:48.983;599616368346880894;3746.1357;93
2024-05-22T19:35:48.990;599616368354573102;3753.8281;105
2024-05-22T19:35:48.998;599616368362265310;3761.52;114
2024-05-22T19:35:49.006;599616368369957518;3769.2124;98
2024-05-22T19:35:49.013;599616368377649726;3776.9048;116
2024-05-22T19:35:49.021;599616368385341934;3784.5967;165
2024-05-22T19:35:49.029;599616368393034142;3792.289;205
2024-05-22T19:35:49.036;599616368400726350;3799.9812;245
2024-05-22T19:35:49.044;599616368408418558;3807.6733;277
2024-05-22T19:35:49.052;599616368416110766;3815.3657;310
2024-05-22T19:35:49.060;599616368423802974;3823.0579;364
2024-05-22T19:35:49.067;599616368431495182;3830.7502;397
2024-05-22T19:35:49.075;599616368439187390;3838.4421;390
2024-05-22T19:35:49.083;599616368446879598;3846.1345;401
2024-05-22T19:35:49.090;599616368454571806;3853.827;413
2024-05-22T19:35:49.098;599616368462264014;3861.5188;406
2024-05-22T19:35:49.106;599616368469956222;3869.2112;399
2024-05-22T19:35:49.113;599616368477648430;3876.9033;418
2024-05-22T19:35:49.121;599616368485340638;3884.5955;453
2024-05-22T19:35:49.129;599616368493032846;3892.2878;450
2024-05-22T19:35:49.136;599616368500725054;3899.98;418
2024-05-22T19:35:49.144;599616368508417262;3907.672;411
2024-05-22T19:35:49.152;599616368516109470;3915.3643;432
2024-05-22T19:35:49.160;599616368523801678;3923.0566;453
2024-05-22T19:35:49.167;599616368531493902;3930.749;462
2024-05-22T19:35:49.175;599616368539186110;3938.441;474
2024-05-22T19:35:49.183;599616368546878318;3946.1333;474
2024-05-22T19:35:49.190;599616368554570526;3953.8254;460
2024-05-22T19:35:49.198;599616368562262734;3961.5176;464
2024-05-22T19:35:49.206;599616368569954942;3969.21;502
2024-05-22T19:35:49.213;599616368577647150;3976.902;548
2024-05-22T19:35:49.221;599616368585339358;3984.5942;516
2024-05-22T19:35:49.229;599616368593031566;3992.2864;345
2024-05-22T19:35:49.236;599616368600723774;3999.9788;137
2024-05-22T19:35:49.244;599616368608415982;4007.671;9
2024-05-22T19:35:49.252;599616368616108190;4015.363;-30
2024-05-22T19:35:49.260;599616368623800398;4023.0554;7
2024-05-22T19:35:49.267;599616368631492606;4030.7473;67
2024-05-22T19:35:49.275;599616368639184814;4038.4397;74
2024-05-22T19:35:49.283;599616368646877022;4046.132;70
2024-05-22T19:35:49.290;599616368654569230;4053.824;135
2024-05-22T19:35:49.298;599616368662261438;4061.5164;226
2024-05-22T19:35:49.306;599616368669953646;4069.2085;226
2024-05-22T19:35:49.313;599616368677645854;4076.901;156
2024-05-22T19:35:49.321;599616368685338062;4084.593;163
2024-05-22T19:35:49.329;599616368693030270;4092.2852;217
2024-05-22T19:35:49.336;599616368700722478;4099.9775;212
2024-05-22T19:35:49.344;599616368708414686;4107.6694;210
2024-05-22T19:35:49.352;599616368716106894;4115.362;259
2024-05-22T19:35:49.360;599616368723799102;4123.054;238
2024-05-22T19:35:49.367;599616368731491310;4130.746;210
2024-05-22T19:35:49.375;599616368739183518;4138.4385;422
2024-05-22T19:35:49.383;599616368746875726;4146.131;831
2024-05-22T19:35:49.390;599616368754567934;4153.8228;990
2024-05-22T19:35:49.398;599616368762260142;4161.515;639
2024-05-22T19:35:49.406;599616368769952350;4169.2075;177
2024-05-22T19:35:49.413;599616368777644558;4176.8994;58
2024-05-22T19:35:49.421;599616368785336766;4184.592;93
2024-05-22T19:35:49.429;599616368793028974;4192.2837;16
2024-05-22T19:35:49.436;599616368800721182;4199.976;-35
2024-05-22T19:35:49.444;599616368808413390;4207.6685;2
2024-05-22T19:35:49.452;599616368816105598;4215.3604;9
2024-05-22T19:35:49.460;599616368823797806;4223.0527;-21
2024-05-22T19:35:49.467;599616368831490014;4230.7446;-53
2024-05-22T19:35:49.475;599616368839182222;4238.437;-100
2024-05-22T19:35:49.483;599616368846874430;4246.1294;-149
2024-05-22T19:35:49.490;599616368854566638;4253.8213;-177
2024-05-22T19:35:49.498;599616368862258846;4261.5137;-172
2024-05-22T19:35:49.506;599616368869951054;4269.206;-137
2024-05-22T19:35:49.513;599616368877643262;4276.898;-112
2024-05-22T19:35:49.521;599616368885335470;4284.5903;-98
2024-05-22T19:35:49.529;599616368893027678;4292.2827;-77
2024-05-22T19:35:49.536;599616368900719886;4299.9746;-46
2024-05-22T19:35:49.544;599616368908412094;4307.667;-21
2024-05-22T19:35:49.552;599616368916104302;4315.3594;-2
2024-05-22T19:35:49.560;599616368923796510;4323.052;23
2024-05-22T19:35:49.567;599616368931488718;4330.7437;51
2024-05-22T19:35:49.575;599616368939180926;4338.4355;60
2024-05-22T19:35:49.583;599616368946873134;4346.128;49
2024-05-22T19:35:49.590;599616368954565342;4353.8203;23
2024-05-22T19:35:49.598;599616368962257550;4361.512;7
2024-05-22T19:35:49.606;599616368969949758;4369.2046;0
2024-05-22T19:35:49.613;599616368977641966;4376.897;0
2024-05-22T19:35:49.621;599616368985334174;4384.5894;46
2024-05-22T19:35:49.629;599616368993026382;4392.2812;88
2024-05-22T19:35:49.636;599616369000718590;4399.973;58
2024-05-22T19:35:49.644;599616369008410798;4407.6655;16
2024-05-22T19:35:49.652;599616369016103006;4415.358;25
2024-05-22T19:35:49.660;599616369023795214;4423.0503;58
2024-05-22T19:35:49.667;599616369031487422;4430.7427;60
2024-05-22T19:35:49.675;599616369039179630;4438.434;56
2024-05-22T19:35:49.683;599616369046871838;4446.1265;58
2024-05-22T19:35:49.690;599616369054564046;4453.819;37
2024-05-22T19:35:49.698;599616369062256254;4461.511;-2
2024-05-22T19:35:49.706;599616369069948462;4469.2036;-23
2024-05-22T19:35:49.713;599616369077640670;4476.8955;-51
2024-05-22T19:35:49.721;599616369085332878;4484.5874;-93
2024-05-22T19:35:49.729;599616369093025102;4492.28;-123
2024-05-22T19:35:49.736;599616369100717310;4499.972;-200
2024-05-22T19:35:49.744;599616369108409518;4507.6646;-287
2024-05-22T19:35:49.752;599616369116101726;4515.3564;-296
2024-05-22T19:35:49.760;599616369123793934;4523.049;-270
2024-05-22T19:35:49.767;599616369131486142;4530.741;-233
2024-05-22T19:35:49.775;599616369139178350;4538.433;-168
2024-05-22T19:35:49.783;599616369146870558;4546.1255;-179
2024-05-22T19:35:49.790;599616369154562766;4553.8174;-263
2024-05-22T19:35:49.798;599616369162254974;4561.51;-263
2024-05-22T19:35:49.806;599616369169947182;4569.202;-235
2024-05-22T19:35:49.813;599616369177639390;4576.8945;-312
2024-05-22T19:35:49.821;599616369185331598;4584.5864;-385
2024-05-22T19:35:49.829;599616369193023806;4592.2783;-336
2024-05-22T19:35:49.836;599616369200716014;4599.9707;-280
2024-05-22T19:35:49.844;599616369208408222;4607.663;-277
2024-05-22T19:35:49.852;599616369216100430;4615.3555;-247
2024-05-22T19:35:49.860;599616369223792638;4623.048;-186
2024-05-22T19:35:49.867;599616369231484846;4630.7397;-172
2024-05-22T19:35:49.875;599616369239177054;4638.4316;-172
2024-05-22T19:35:49.883;599616369246869262;4646.124;-142
2024-05-22T19:35:49.890;599616369254561470;4653.8164;-112
2024-05-22T19:35:49.898;599616369262253678;4661.509;-121
2024-05-22T19:35:49.906;599616369269945886;4669.2007;-126
2024-05-22T19:35:49.913;599616369277638094;4676.893;-112
2024-05-22T19:35:49.921;599616369285330302;4684.585;-107
2024-05-22T19:35:49.929;599616369293022510;4692.2773;-91
2024-05-22T19:35:49.936;599616369300714718;4699.9697;-67
2024-05-22T19:35:49.944;599616369308406926;4707.6616;-74
2024-05-22T19:35:49.952;599616369316099134;4715.354;-67
2024-05-22T19:35:49.960;599616369323791342;4723.0464;-51
2024-05-22T19:35:49.967;599616369331483550;4730.739;-112
2024-05-22T19:35:49.975;599616369339175758;4738.4307;-165
2024-05-22T19:35:49.983;599616369346867966;4746.1226;-128
2024-05-22T19:35:49.990;599616369354560174;4753.815;-86
2024-05-22T19:35:49.998;599616369362252382;4761.5073;-98
2024-05-22T19:35:50.006;599616369369944590;4769.1997;-91
2024-05-22T19:35:50.013;599616369377636798;4776.892;58
2024-05-22T19:35:50.021;599616369385329006;4784.5835;387
2024-05-22T19:35:50.029;599616369393021214;4792.276;644
2024-05-22T19:35:50.036;599616369400713422;4799.9683;455
2024-05-22T19:35:50.044;599616369408405630;4807.6606;0
2024-05-22T19:35:50.052;599616369416097838;4815.353;-168
2024-05-22T19:35:50.060;599616369423790046;4823.045;-102
2024-05-22T19:35:50.067;599616369431482254;4830.7373;-165
2024-05-22T19:35:50.075;599616369439174462;4838.429;-266
2024-05-22T19:35:50.083;599616369446866670;4846.1216;-263
2024-05-22T19:35:50.090;599616369454558878;4853.814;-287
2024-05-22T19:35:50.098;599616369462251086;4861.506;-331
2024-05-22T19:35:50.106;599616369469943294;4869.198;-291
2024-05-22T19:35:50.113;599616369477635502;4876.8906;-238
2024-05-22T19:35:50.121;599616369485327710;4884.5825;-226
2024-05-22T19:35:50.129;599616369493019918;4892.275;-189
2024-05-22T19:35:50.136;599616369500712126;4899.967;-121
2024-05-22T19:35:50.144;599616369508404334;4907.659;-67
2024-05-22T19:35:50.152;599616369516096542;4915.3516;-58
2024-05-22T19:35:50.160;599616369523788750;4923.044;-63
2024-05-22T19:35:50.167;599616369531480958;4930.736;-9
2024-05-22T19:35:50.175;599616369539173166;4938.4277;77
2024-05-22T19:35:50.183;599616369546865374;4946.12;102
2024-05-22T19:35:50.190;599616369554557582;4953.8125;107
2024-05-22T19:35:50.198;599616369562249790;4961.505;154
2024-05-22T19:35:50.206;599616369569941998;4969.1973;154
2024-05-22T19:35:50.213;599616369577634206;4976.889;86
2024-05-22T19:35:50.221;599616369585326414;4984.581;98
2024-05-22T19:35:50.229;599616369593018622;4992.2734;184
2024-05-22T19:35:50.236;599616369600710830;4999.966;156
2024-05-22T19:35:50.244;599616369608403038;5007.658;42
2024-05-22T19:35:50.252;599616369616095246;5015.35;25
2024-05-22T19:35:50.260;599616369623787454;5023.0425;95
2024-05-22T19:35:50.267;599616369631479662;5030.7344;128
2024-05-22T19:35:50.275;599616369639171870;5038.427;109
2024-05-22T19:35:50.283;599616369646864078;5046.119;88
2024-05-22T19:35:50.290;599616369654556302;5053.811;56
2024-05-22T19:35:50.298;599616369662248510;5061.5034;14
2024-05-22T19:35:50.306;599616369669940718;5069.196;18
2024-05-22T19:35:50.313;599616369677632926;5076.888;63
2024-05-22T19:35:50.321;599616369685325134;5084.58;88
2024-05-22T19:35:50.329;599616369693017342;5092.272;93
2024-05-22T19:35:50.336;599616369700709550;5099.9644;93
2024-05-22T19:35:50.344;599616369708401758;5107.6567;109
2024-05-22T19:35:50.352;599616369716093966;5115.349;128
2024-05-22T19:35:50.360;599616369723786174;5123.0415;98
2024-05-22T19:35:50.367;599616369731478382;5130.733;67
2024-05-22T19:35:50.375;599616369739170590;5138.4253;84
2024-05-22T19:35:50.383;599616369746862798;5146.1177;72
2024-05-22T19:35:50.390;599616369754555006;5153.81;18
2024-05-22T19:35:50.398;599616369762247214;5161.5024;18
2024-05-22T19:35:50.406;599616369769939422;5169.1943;67
2024-05-22T19:35:50.413;599616369777631630;5176.886;107
2024-05-22T19:35:50.421;599616369785323838;5184.5786;107
2024-05-22T19:35:50.429;599616369793016046;5192.271;84
2024-05-22T19:35:50.436;599616369800708254;5199.9634;95
2024-05-22T19:35:50.444;599616369808400462;5207.6553;135
2024-05-22T19:35:50.452;599616369816092670;5215.3477;130
2024-05-22T19:35:50.460;599616369823784878;5223.04;102
2024-05-22T19:35:50.467;599616369831477086;5230.732;107
2024-05-22T19:35:50.475;599616369839169294;5238.424;109
2024-05-22T19:35:50.483;599616369846861502;5246.116;112
2024-05-22T19:35:50.490;599616369854553710;5253.8086;165
2024-05-22T19:35:50.498;599616369862245918;5261.501;207
2024-05-22T19:35:50.506;599616369869938126;5269.1934;189
2024-05-22T19:35:50.513;599616369877630334;5276.885;170
2024-05-22T19:35:50.521;599616369885322542;5284.577;177
2024-05-22T19:35:50.529;599616369893014750;5292.2695;198
2024-05-22T19:35:50.536;599616369900706958;5299.962;231
2024-05-22T19:35:50.544;599616369908399166;5307.6543;261
2024-05-22T19:35:50.552;599616369916091374;5315.346;291
2024-05-22T19:35:50.560;599616369923783582;5323.0386;289
2024-05-22T19:35:50.567;599616369931475790;5330.7305;226
2024-05-22T19:35:50.575;599616369939167998;5338.423;210
2024-05-22T19:35:50.583;599616369946860206;5346.115;273
2024-05-22T19:35:50.590;599616369954552414;5353.807;305
2024-05-22T19:35:50.598;599616369962244622;5361.4995;280
2024-05-22T19:35:50.606;599616369969936830;5369.192;256
2024-05-22T19:35:50.613;599616369977629038;5376.884;247
2024-05-22T19:35:50.621;599616369985321246;5384.576;254
2024-05-22T19:35:50.629;599616369993013454;5392.268;266
2024-05-22T19:35:50.636;599616370000705662;5399.9604;242
2024-05-22T19:35:50.644;599616370008397870;5407.653;226
2024-05-22T19:35:50.652;599616370016090078;5415.345;256
2024-05-22T19:35:50.660;599616370023782286;5423.0376;394
2024-05-22T19:35:50.667;599616370031474494;5430.729;686
2024-05-22T19:35:50.675;599616370039166702;5438.4214;896
2024-05-22T19:35:50.683;599616370046858910;5446.114;644
2024-05-22T19:35:50.690;599616370054551118;5453.806;151
2024-05-22T19:35:50.698;599616370062243326;5461.4985;-51
2024-05-22T19:35:50.706;599616370069935534;5469.1904;-49
2024-05-22T19:35:50.713;599616370077627742;5476.8823;-119
2024-05-22T19:35:50.721;599616370085319950;5484.5747;-207
2024-05-22T19:35:50.729;599616370093012158;5492.267;-240
2024-05-22T19:35:50.736;599616370100704366;5499.9595;-282
2024-05-22T19:35:50.744;599616370108396574;5507.6514;-415
2024-05-22T19:35:50.752;599616370116088782;5515.3438;-532
2024-05-22T19:35:50.760;599616370123780990;5523.0356;-518
2024-05-22T19:35:50.767;599616370131473198;5530.728;-469
2024-05-22T19:35:50.775;599616370139165406;5538.4204;-460
2024-05-22T19:35:50.783;599616370146857614;5546.1123;-434
2024-05-22T19:35:50.790;599616370154549822;5553.8047;-394
2024-05-22T19:35:50.798;599616370162242030;5561.497;-390
2024-05-22T19:35:50.806;599616370169934238;5569.1895;-376
2024-05-22T19:35:50.813;599616370177626446;5576.8813;-350
2024-05-22T19:35:50.821;599616370185318654;5584.573;-326
2024-05-22T19:35:50.829;599616370193010862;5592.2656;-287
2024-05-22T19:35:50.836;599616370200703070;5599.958;-242
2024-05-22T19:35:50.844;599616370208395278;5607.6504;-224
2024-05-22T19:35:50.852;599616370216087502;5615.343;-191
2024-05-22T19:35:50.860;599616370223779710;5623.034;-142
2024-05-22T19:35:50.867;599616370231471918;5630.7266;-112
2024-05-22T19:35:50.875;599616370239164126;5638.419;-86
2024-05-22T19:35:50.883;599616370246856334;5646.1113;-46
2024-05-22T19:35:50.890;599616370254548542;5653.8037;-44
2024-05-22T19:35:50.898;599616370262240750;5661.4956;-102
2024-05-22T19:35:50.906;599616370269932958;5669.188;-158
2024-05-22T19:35:50.913;599616370277625166;5676.88;-147
2024-05-22T19:35:50.921;599616370285317374;5684.5723;-112
2024-05-22T19:35:50.929;599616370293009582;5692.2646;-114
2024-05-22T19:35:50.936;599616370300701790;5699.9565;-142
2024-05-22T19:35:50.944;599616370308393998;5707.649;-172
2024-05-22T19:35:50.952;599616370316086206;5715.3413;-217
2024-05-22T19:35:50.960;599616370323778414;5723.033;-240
2024-05-22T19:35:50.967;599616370331470622;5730.7256;-205
2024-05-22T19:35:50.975;599616370339162830;5738.4175;-158
2024-05-22T19:35:50.983;599616370346855038;5746.11;-154
2024-05-22T19:35:50.990;599616370354547246;5753.8022;-163
2024-05-22T19:35:50.998;599616370362239454;5761.4946;-123
2024-05-22T19:35:51.006;599616370369931662;5769.1865;-63
2024-05-22T19:35:51.013;599616370377623870;5776.8784;-30
2024-05-22T19:35:51.021;599616370385316078;5784.571;-21
2024-05-22T19:35:51.029;599616370393008286;5792.263;-4
2024-05-22T19:35:51.036;599616370400700494;5799.9556;37
2024-05-22T19:35:51.044;599616370408392702;5807.648;93
2024-05-22T19:35:51.052;599616370416084910;5815.34;121
2024-05-22T19:35:51.060;599616370423777118;5823.0317;121
2024-05-22T19:35:51.067;599616370431469326;5830.724;130
2024-05-22T19:35:51.075;599616370439161534;5838.4165;140
2024-05-22T19:35:51.083;599616370446853742;5846.109;128
2024-05-22T19:35:51.090;599616370454545950;5853.801;149
2024-05-22T19:35:51.098;599616370462238158;5861.493;203
2024-05-22T19:35:51.106;599616370469930366;5869.185;233
2024-05-22T19:35:51.113;599616370477622574;5876.8774;233
2024-05-22T19:35:51.121;599616370485314782;5884.57;233
2024-05-22T19:35:51.129;599616370493006990;5892.2617;249
2024-05-22T19:35:51.136;599616370500699198;5899.954;261
2024-05-22T19:35:51.144;599616370508391406;5907.6465;263
2024-05-22T19:35:51.152;599616370516083614;5915.339;294
2024-05-22T19:35:51.160;599616370523775822;5923.031;326
2024-05-22T19:35:51.167;599616370531468030;5930.7227;301
2024-05-22T19:35:51.175;599616370539160238;5938.415;263
2024-05-22T19:35:51.183;599616370546852446;5946.1074;298
2024-05-22T19:35:51.190;599616370554544654;5953.8;322
2024-05-22T19:35:51.198;599616370562236862;5961.492;275
2024-05-22T19:35:51.206;599616370569929070;5969.1836;238
2024-05-22T19:35:51.213;599616370577621278;5976.876;256
2024-05-22T19:35:51.221;599616370585313486;5984.5684;287
2024-05-22T19:35:51.229;599616370593005694;5992.2607;291
2024-05-22T19:35:51.236;599616370600697902;5999.953;254
2024-05-22T19:35:51.244;599616370608390110;6007.645;186
2024-05-22T19:35:51.252;599616370616082318;6015.3374;116
2024-05-22T19:35:51.260;599616370623774526;6023.0293;81
2024-05-22T19:35:51.267;599616370631466734;6030.7217;95
2024-05-22T19:35:51.275;599616370639158942;6038.414;142
2024-05-22T19:35:51.283;599616370646851150;6046.106;170
2024-05-22T19:35:51.290;599616370654543358;6053.7983;161
2024-05-22T19:35:51.298;599616370662235566;6061.4907;217
2024-05-22T19:35:51.306;599616370669927774;6069.1826;436
2024-05-22T19:35:51.313;599616370677619982;6076.8745;735
2024-05-22T19:35:51.321;599616370685312190;6084.567;801
2024-05-22T19:35:51.329;599616370693004398;6092.2593;439
2024-05-22T19:35:51.336;599616370700696606;6099.9517;65
2024-05-22T19:35:51.344;599616370708388814;6107.644;58
2024-05-22T19:35:51.352;599616370716081022;6115.3354;102
2024-05-22T19:35:51.360;599616370723773230;6123.028;-14
2024-05-22T19:35:51.367;599616370731465438;6130.72;-77
2024-05-22T19:35:51.375;599616370739157646;6138.4126;-88
2024-05-22T19:35:51.383;599616370746849854;6146.105;-149
2024-05-22T19:35:51.390;599616370754542062;6153.7974;-161
2024-05-22T19:35:51.398;599616370762234270;6161.4893;-144
2024-05-22T19:35:51.406;599616370769926478;6169.181;-186
2024-05-22T19:35:51.413;599616370777618700;6176.8735;-210
2024-05-22T19:35:51.421;599616370785310908;6184.566;-163
2024-05-22T19:35:51.429;599616370793003116;6192.258;-126
2024-05-22T19:35:51.436;599616370800695324;6199.95;-135
2024-05-22T19:35:51.444;599616370808387532;6207.6426;-175
2024-05-22T19:35:51.452;599616370816079740;6215.3345;-189
2024-05-22T19:35:51.460;599616370823771948;6223.027;-170
2024-05-22T19:35:51.467;599616370831464156;6230.7188;-207
2024-05-22T19:35:51.475;599616370839156364;6238.411;-275
2024-05-22T19:35:51.483;599616370846848572;6246.1035;-254
2024-05-22T19:35:51.490;599616370854540780;6253.796;-212
2024-05-22T19:35:51.498;599616370862232988;6261.4883;-217
2024-05-22T19:35:51.506;599616370869925196;6269.1797;-189
2024-05-22T19:35:51.513;599616370877617404;6276.872;-133
2024-05-22T19:35:51.521;599616370885309612;6284.5645;-102
2024-05-22T19:35:51.529;599616370893001820;6292.257;-81
2024-05-22T19:35:51.536;599616370900694028;6299.949;-51
2024-05-22T19:35:51.544;599616370908386236;6307.641;-21
2024-05-22T19:35:51.552;599616370916078444;6315.333;23
2024-05-22T19:35:51.560;599616370923770652;6323.0254;72
2024-05-22T19:35:51.567;599616370931462860;6330.718;95
2024-05-22T19:35:51.575;599616370939155068;6338.41;93
2024-05-22T19:35:51.583;599616370946847276;6346.102;81
2024-05-22T19:35:51.590;599616370954539484;6353.7944;81
2024-05-22T19:35:51.598;599616370962231692;6361.4863;98
2024-05-22T19:35:51.606;599616370969923900;6369.1787;128
2024-05-22T19:35:51.613;599616370977616108;6376.871;156
2024-05-22T19:35:51.621;599616370985308316;6384.563;161
2024-05-22T19:35:51.629;599616370993000524;6392.2554;140
2024-05-22T19:35:51.636;599616371000692732;6399.9478;144
2024-05-22T19:35:51.644;599616371008384940;6407.64;179
2024-05-22T19:35:51.652;599616371016077148;6415.332;186
2024-05-22T19:35:51.660;599616371023769356;6423.024;168
2024-05-22T19:35:51.667;599616371031461564;6430.7163;149
2024-05-22T19:35:51.675;599616371039153772;6438.4087;119
2024-05-22T19:35:51.683;599616371046845980;6446.101;107
2024-05-22T19:35:51.690;599616371054538188;6453.7935;86
2024-05-22T19:35:51.698;599616371062230396;6461.485;70
2024-05-22T19:35:51.706;599616371069922604;6469.1772;100
2024-05-22T19:35:51.713;599616371077614812;6476.8696;105
2024-05-22T19:35:51.721;599616371085307020;6484.562;86
2024-05-22T19:35:51.729;599616371092999228;6492.2544;109
2024-05-22T19:35:51.736;599616371100691436;6499.9463;121
2024-05-22T19:35:51.744;599616371108383644;6507.6387;56
2024-05-22T19:35:51.752;599616371116075852;6515.3306;-46
2024-05-22T19:35:51.760;599616371123768060;6523.023;-102
2024-05-22T19:35:51.767;599616371131460268;6530.7153;-98
2024-05-22T19:35:51.775;599616371139152476;6538.407;-81
2024-05-22T19:35:51.783;599616371146844684;6546.0996;-46
2024-05-22T19:35:51.790;599616371154536892;6553.792;9
2024-05-22T19:35:51.798;599616371162229100;6561.484;25
2024-05-22T19:35:51.806;599616371169921308;6569.1763;11
2024-05-22T19:35:51.813;599616371177613516;6576.868;37
2024-05-22T19:35:51.821;599616371185305724;6584.5605;86
2024-05-22T19:35:51.829;599616371192997932;6592.253;116
2024-05-22T19:35:51.836;599616371200690140;6599.9453;137
2024-05-22T19:35:51.844;599616371208382348;6607.637;198
2024-05-22T19:35:51.852;599616371216074556;6615.329;261
2024-05-22T19:35:51.860;599616371223766764;6623.0215;266
2024-05-22T19:35:51.867;599616371231458972;6630.714;261
2024-05-22T19:35:51.875;599616371239151180;6638.4062;301
2024-05-22T19:35:51.883;599616371246843388;6646.0986;333
2024-05-22T19:35:51.890;599616371254535596;6653.7905;345
2024-05-22T19:35:51.898;599616371262227804;6661.4824;359
2024-05-22T19:35:51.906;599616371269920012;6669.175;366
2024-05-22T19:35:51.913;599616371277612220;6676.867;359
2024-05-22T19:35:51.921;599616371285304428;6684.5596;371
2024-05-22T19:35:51.929;599616371292996636;6692.2515;378
2024-05-22T19:35:51.936;599616371300688844;6699.944;387
2024-05-22T19:35:51.944;599616371308381052;6707.6357;523
2024-05-22T19:35:51.952;599616371316073260;6715.328;859
2024-05-22T19:35:51.960;599616371323765468;6723.0205;1121
2024-05-22T19:35:51.967;599616371331457676;6730.7124;906
2024-05-22T19:35:51.975;599616371339149902;6738.405;420
2024-05-22T19:35:51.983;599616371346842110;6746.097;228
2024-05-22T19:35:51.990;599616371354534318;6753.7896;303
2024-05-22T19:35:51.998;599616371362226526;6761.4814;277
2024-05-22T19:35:52.006;599616371369918734;6769.1733;137
2024-05-22T19:35:52.013;599616371377610942;6776.8657;0
2024-05-22T19:35:52.021;599616371385303150;6784.558;-77
2024-05-22T19:35:52.029;599616371392995358;6792.2505;-91
2024-05-22T19:35:52.036;599616371400687566;6799.943;-119
2024-05-22T19:35:52.044;599616371408379774;6807.6343;-172
2024-05-22T19:35:52.052;599616371416071982;6815.3267;-163
2024-05-22T19:35:52.060;599616371423764190;6823.019;-105
2024-05-22T19:35:52.067;599616371431456398;6830.7114;-77
2024-05-22T19:35:52.075;599616371439148606;6838.404;-42
2024-05-22T19:35:52.083;599616371446840814;6846.0957;21
2024-05-22T19:35:52.090;599616371454533022;6853.788;39
2024-05-22T19:35:52.098;599616371462225230;6861.48;18
2024-05-22T19:35:52.106;599616371469917438;6869.1724;30
2024-05-22T19:35:52.113;599616371477609646;6876.8647;67
2024-05-22T19:35:52.121;599616371485301854;6884.5566;77
2024-05-22T19:35:52.129;599616371492994062;6892.249;65
2024-05-22T19:35:52.136;599616371500686270;6899.9414;81
2024-05-22T19:35:52.144;599616371508378478;6907.6333;137
2024-05-22T19:35:52.152;599616371516070686;6915.3257;170
2024-05-22T19:35:52.160;599616371523762894;6923.0176;165
2024-05-22T19:35:52.167;599616371531455102;6930.71;179
2024-05-22T19:35:52.175;599616371539147310;6938.4023;189
2024-05-22T19:35:52.183;599616371546839518;6946.0947;133
2024-05-22T19:35:52.190;599616371554531726;6953.786;72
2024-05-22T19:35:52.198;599616371562223934;6961.4785;79
2024-05-22T19:35:52.206;599616371569916142;6969.171;121
2024-05-22T19:35:52.213;599616371577608350;6976.8633;137
2024-05-22T19:35:52.221;599616371585300558;6984.5557;137
2024-05-22T19:35:52.229;599616371592992766;6992.248;151
2024-05-22T19:35:52.236;599616371600684974;6999.94;186
2024-05-22T19:35:52.244;599616371608377182;7007.632;196
2024-05-22T19:35:52.252;599616371616069390;7015.324;130
2024-05-22T19:35:52.260;599616371623761598;7023.0166;65
2024-05-22T19:35:52.267;599616371631453806;7030.7085;72
2024-05-22T19:35:52.275;599616371639146014;7038.401;95
2024-05-22T19:35:52.283;599616371646838222;7046.0933;114
2024-05-22T19:35:52.290;599616371654530430;7053.785;158
2024-05-22T19:35:52.298;599616371662222638;7061.4775;189
2024-05-22T19:35:52.306;599616371669914846;7069.1694;200
2024-05-22T19:35:52.313;599616371677607054;7076.862;219
2024-05-22T19:35:52.321;599616371685299262;7084.554;226
2024-05-22T19:35:52.329;599616371692991470;7092.2466;224
2024-05-22T19:35:52.336;599616371700683678;7099.939;203
2024-05-22T19:35:52.344;599616371708375886;7107.6304;154
2024-05-22T19:35:52.352;599616371716068094;7115.3228;142
2024-05-22T19:35:52.360;599616371723760302;7123.015;165
2024-05-22T19:35:52.367;599616371731452510;7130.7075;133
2024-05-22T19:35:52.375;599616371739144718;7138.4;93
2024-05-22T19:35:52.383;599616371746836926;7146.092;116
2024-05-22T19:35:52.390;599616371754529134;7153.7837;112
2024-05-22T19:35:52.398;599616371762221342;7161.476;37
2024-05-22T19:35:52.406;599616371769913550;7169.1685;21
2024-05-22T19:35:52.413;599616371777605758;7176.861;51
2024-05-22T19:35:52.421;599616371785297966;7184.5527;30
2024-05-22T19:35:52.429;599616371792990174;7192.245;18
2024-05-22T19:35:52.436;599616371800682382;7199.9375;51
2024-05-22T19:35:52.444;599616371808374590;7207.6294;91
2024-05-22T19:35:52.452;599616371816066798;7215.322;109
2024-05-22T19:35:52.460;599616371823759006;7223.0137;88
2024-05-22T19:35:52.467;599616371831451214;7230.706;63
2024-05-22T19:35:52.475;599616371839143422;7238.3984;95
2024-05-22T19:35:52.483;599616371846835630;7246.091;161
2024-05-22T19:35:52.490;599616371854527838;7253.7827;186
2024-05-22T19:35:52.498;599616371862220046;7261.4746;161
2024-05-22T19:35:52.506;599616371869912254;7269.167;151
2024-05-22T19:35:52.513;599616371877604462;7276.8594;175
2024-05-22T19:35:52.521;599616371885296670;7284.552;175
2024-05-22T19:35:52.529;599616371892988878;7292.244;168
2024-05-22T19:35:52.536;599616371900681102;7299.936;193
2024-05-22T19:35:52.544;599616371908373310;7307.628;212
2024-05-22T19:35:52.552;599616371916065518;7315.3203;168
2024-05-22T19:35:52.560;599616371923757726;7323.0127;140
2024-05-22T19:35:52.567;599616371931449934;7330.705;289
2024-05-22T19:35:52.575;599616371939142142;7338.397;628
2024-05-22T19:35:52.583;599616371946834350;7346.0894;901
2024-05-22T19:35:52.590;599616371954526558;7353.7812;742
2024-05-22T19:35:52.598;599616371962218766;7361.4736;242
2024-05-22T19:35:52.606;599616371969910974;7369.166;-51
2024-05-22T19:35:52.613;599616371977603182;7376.858;-46
2024-05-22T19:35:52.621;599616371985295390;7384.5503;-60
2024-05-22T19:35:52.629;599616371992987598;7392.2427;-123
2024-05-22T19:35:52.636;599616372000679806;7399.9346;-95
2024-05-22T19:35:52.644;599616372008372014;7407.627;-53
2024-05-22T19:35:52.652;599616372016064222;7415.319;-84
2024-05-22T19:35:52.660;599616372023756430;7423.011;-133
2024-05-22T19:35:52.667;599616372031448638;7430.7036;-196
2024-05-22T19:35:52.675;599616372039140846;7438.396;-277
2024-05-22T19:35:52.683;599616372046833054;7446.0884;-305
2024-05-22T19:35:52.690;599616372054525262;7453.78;-324
2024-05-22T19:35:52.698;599616372062217470;7461.472;-394
2024-05-22T19:35:52.706;599616372069909678;7469.1646;-427
2024-05-22T19:35:52.713;599616372077601886;7476.857;-371
2024-05-22T19:35:52.721;599616372085294094;7484.5493;-317
2024-05-22T19:35:52.729;599616372092986302;7492.241;-322
2024-05-22T19:35:52.736;599616372100678510;7499.933;-322
2024-05-22T19:35:52.744;599616372108370718;7507.6255;-270
2024-05-22T19:35:52.752;599616372116062926;7515.318;-280
2024-05-22T19:35:52.760;599616372123755134;7523.0103;-392
2024-05-22T19:35:52.767;599616372131447342;7530.702;-427
2024-05-22T19:35:52.775;599616372139139550;7538.3945;-359
2024-05-22T19:35:52.783;599616372146831758;7546.0864;-329
2024-05-22T19:35:52.790;599616372154523966;7553.779;-319
2024-05-22T19:35:52.798;599616372162216174;7561.471;-280
2024-05-22T19:35:52.806;599616372169908382;7569.163;-233
2024-05-22T19:35:52.813;599616372177600590;7576.8555;-205
2024-05-22T19:35:52.821;599616372185292798;7584.548;-198
2024-05-22T19:35:52.829;599616372192985006;7592.24;-191
2024-05-22T19:35:52.836;599616372200677214;7599.932;-170
2024-05-22T19:35:52.844;599616372208369422;7607.624;-154
2024-05-22T19:35:52.852;599616372216061630;7615.3164;-140
2024-05-22T19:35:52.860;599616372223753838;7623.009;-93
2024-05-22T19:35:52.867;599616372231446046;7630.701;-49
2024-05-22T19:35:52.875;599616372239138254;7638.3936;-51
2024-05-22T19:35:52.883;599616372246830462;7646.085;-49
2024-05-22T19:35:52.890;599616372254522670;7653.7773;-11
2024-05-22T19:35:52.898;599616372262214878;7661.4697;32
2024-05-22T19:35:52.906;599616372269907086;7669.162;65
2024-05-22T19:35:52.913;599616372277599294;7676.8545;60
2024-05-22T19:35:52.921;599616372285291502;7684.5464;18
2024-05-22T19:35:52.929;599616372292983710;7692.239;7
2024-05-22T19:35:52.936;599616372300675918;7699.9307;23
2024-05-22T19:35:52.944;599616372308368126;7707.623;28
2024-05-22T19:35:52.952;599616372316060334;7715.3154;67
2024-05-22T19:35:52.960;599616372323752542;7723.0073;133
2024-05-22T19:35:52.967;599616372331444750;7730.6997;121
2024-05-22T19:35:52.975;599616372339136958;7738.392;81
2024-05-22T19:35:52.983;599616372346829166;7746.084;119
2024-05-22T19:35:52.990;599616372354521374;7753.7764;149
2024-05-22T19:35:52.998;599616372362213582;7761.4683;135
2024-05-22T19:35:53.006;599616372369905790;7769.1606;151
2024-05-22T19:35:53.013;599616372377597998;7776.853;189
2024-05-22T19:35:53.021;599616372385290206;7784.5454;203
2024-05-22T19:35:53.029;599616372392982414;7792.238;221
2024-05-22T19:35:53.036;599616372400674622;7799.929;238
2024-05-22T19:35:53.044;599616372408366830;7807.6216;268
2024-05-22T19:35:53.052;599616372416059038;7815.314;317
2024-05-22T19:35:53.060;599616372423751246;7823.0063;315
2024-05-22T19:35:53.067;599616372431443454;7830.6987;284
2024-05-22T19:35:53.075;599616372439135662;7838.3906;305
2024-05-22T19:35:53.083;599616372446827870;7846.0825;345
2024-05-22T19:35:53.090;599616372454520078;7853.775;359
2024-05-22T19:35:53.098;599616372462192286;7861.4473;362
2024-05-22T19:35:53.106;599616372469884772;7869.1396;362
2024-05-22T19:35:53.113;599616372477577258;7876.832;364
2024-05-22T19:35:53.121;599616372485269744;7884.5244;366
2024-05-22T19:35:53.129;599616372492962230;7892.2173;343
2024-05-22T19:35:53.136;599616372500654716;7899.9097;319
2024-05-22T19:35:53.144;599616372508347202;7907.602;329
2024-05-22T19:35:53.152;599616372516039688;7915.295;336
2024-05-22T19:35:53.159;599616372523732174;7922.987;301
2024-05-22T19:35:53.167;599616372531424660;7930.6797;233
2024-05-22T19:35:53.175;599616372539117146;7938.372;156
2024-05-22T19:35:53.183;599616372546809632;7946.0645;56
2024-05-22T19:35:53.190;599616372554502118;7953.7573;-4
2024-05-22T19:35:53.198;599616372562194604;7961.4497;114
2024-05-22T19:35:53.206;599616372569887090;7969.1416;446
2024-05-22T19:35:53.213;599616372577579576;7976.8345;794
2024-05-22T19:35:53.221;599616372585272062;7984.527;803
2024-05-22T19:35:53.229;599616372592964548;7992.2197;413
2024-05-22T19:35:53.236;599616372600657034;7999.912;88
2024-05-22T19:35:53.244;599616372608349520;8007.604;119
2024-05-22T19:35:53.252;599616372616042006;8015.297;191
2024-05-22T19:35:53.259;599616372623734492;8022.9893;70
2024-05-22T19:35:53.267;599616372631426978;8030.682;-67
2024-05-22T19:35:53.275;599616372639119464;8038.3745;-95
2024-05-22T19:35:53.283;599616372646811950;8046.067;-107
2024-05-22T19:35:53.290;599616372654504436;8053.7593;-147
2024-05-22T19:35:53.298;599616372662196922;8061.4517;-165
2024-05-22T19:35:53.306;599616372669889408;8069.144;-142
2024-05-22T19:35:53.313;599616372677581894;8076.837;-112
2024-05-22T19:35:53.321;599616372685274380;8084.5293;-133
2024-05-22T19:35:53.329;599616372692966866;8092.222;-193
2024-05-22T19:35:53.336;599616372700659352;8099.914;-224
2024-05-22T19:35:53.344;599616372708351838;8107.6064;-238
2024-05-22T19:35:53.352;599616372716044324;8115.2993;-282
2024-05-22T19:35:53.359;599616372723736810;8122.9917;-312
2024-05-22T19:35:53.367;599616372731429296;8130.6846;-296
2024-05-22T19:35:53.375;599616372739121782;8138.3765;-266
2024-05-22T19:35:53.383;599616372746814268;8146.069;-249
2024-05-22T19:35:53.390;599616372754506754;8153.7617;-221
2024-05-22T19:35:53.398;599616372762199240;8161.454;-179
2024-05-22T19:35:53.406;599616372769891726;8169.1465;-182
2024-05-22T19:35:53.413;599616372777584212;8176.8394;-240
2024-05-22T19:35:53.421;599616372785276698;8184.5312;-291
2024-05-22T19:35:53.429;599616372792969184;8192.225;-289
2024-05-22T19:35:53.436;599616372800661670;8199.917;-254
2024-05-22T19:35:53.444;599616372808354156;8207.608;-247
2024-05-22T19:35:53.452;599616372816046642;8215.302;-245
2024-05-22T19:35:53.459;599616372823739128;8222.994;-191
2024-05-22T19:35:53.467;599616372831431614;8230.687;-137
2024-05-22T19:35:53.475;599616372839124100;8238.379;-161
2024-05-22T19:35:53.483;599616372846816586;8246.071;-191
2024-05-22T19:35:53.490;599616372854509072;8253.764;-158
2024-05-22T19:35:53.498;599616372862201558;8261.456;-100
2024-05-22T19:35:53.506;599616372869894044;8269.149;-44
2024-05-22T19:35:53.513;599616372877586530;8276.842;-18
2024-05-22T19:35:53.521;599616372885279016;8284.534;-35
2024-05-22T19:35:53.529;599616372892971502;8292.227;-9
2024-05-22T19:35:53.536;599616372900663988;8299.919;70
2024-05-22T19:35:53.544;599616372908356474;8307.611;126
2024-05-22T19:35:53.552;599616372916048960;8315.304;156
2024-05-22T19:35:53.559;599616372923741446;8322.996;191
2024-05-22T19:35:53.567;599616372931433932;8330.689;203
2024-05-22T19:35:53.575;599616372939126418;8338.381;196
2024-05-22T19:35:53.583;599616372946818904;8346.073;235
2024-05-22T19:35:53.590;599616372954511390;8353.767;287
2024-05-22T19:35:53.598;599616372962203876;8361.459;305
2024-05-22T19:35:53.606;599616372969896362;8369.151;312
2024-05-22T19:35:53.613;599616372977588848;8376.844;331
2024-05-22T19:35:53.621;599616372985281334;8384.536;373
2024-05-22T19:35:53.629;599616372992973820;8392.229;413
2024-05-22T19:35:53.636;599616373000666306;8399.921;429
2024-05-22T19:35:53.644;599616373008358792;8407.613;460
2024-05-22T19:35:53.652;599616373016051278;8415.307;485
2024-05-22T19:35:53.660;599616373023758878;8423.014;448
2024-05-22T19:35:53.667;599616373031451155;8430.706;399
2024-05-22T19:35:53.675;599616373039143432;8438.398;411
2024-05-22T19:35:53.683;599616373046835709;8446.091;455
2024-05-22T19:35:53.690;599616373054527986;8453.783;467
2024-05-22T19:35:53.698;599616373062220263;8461.476;453
2024-05-22T19:35:53.706;599616373069912540;8469.168;441
2024-05-22T19:35:53.713;599616373077604817;8476.86;411
2024-05-22T19:35:53.721;599616373085297094;8484.552;350
2024-05-22T19:35:53.729;599616373092989371;8492.244;312
2024-05-22T19:35:53.736;599616373100681648;8499.937;338
2024-05-22T19:35:53.744;599616373108373925;8507.629;371
2024-05-22T19:35:53.752;599616373116066202;8515.321;331
2024-05-22T19:35:53.760;599616373123758479;8523.014;247
2024-05-22T19:35:53.767;599616373131450756;8530.705;186
2024-05-22T19:35:53.775;599616373139143033;8538.397;184
2024-05-22T19:35:53.783;599616373146835310;8546.09;210
2024-05-22T19:35:53.790;599616373154527587;8553.782;245
2024-05-22T19:35:53.798;599616373162219864;8561.475;270
2024-05-22T19:35:53.806;599616373169912141;8569.167;289
2024-05-22T19:35:53.813;599616373177604418;8576.859;298
2024-05-22T19:35:53.821;599616373185296695;8584.552;289
2024-05-22T19:35:53.829;599616373192988972;8592.244;301
2024-05-22T19:35:53.836;599616373200681249;8599.936;392
2024-05-22T19:35:53.844;599616373208373526;8607.628;621
2024-05-22T19:35:53.852;599616373216065803;8615.32;959
2024-05-22T19:35:53.860;599616373223758080;8623.013;1053
2024-05-22T19:35:53.867;599616373231450357;8630.705;679
2024-05-22T19:35:53.875;599616373239142634;8638.397;310
2024-05-22T19:35:53.883;599616373246834911;8646.09;331
2024-05-22T19:35:53.890;599616373254527188;8653.782;406
2024-05-22T19:35:53.898;599616373262219465;8661.475;343
2024-05-22T19:35:53.906;599616373269911742;8669.167;333
2024-05-22T19:35:53.913;599616373277604019;8676.858;336
2024-05-22T19:35:53.921;599616373285296296;8684.551;263
2024-05-22T19:35:53.929;599616373292988573;8692.243;200
2024-05-22T19:35:53.936;599616373300680850;8699.936;177
2024-05-22T19:35:53.944;599616373308373127;8707.628;189
2024-05-22T19:35:53.952;599616373316065404;8715.32;219
2024-05-22T19:35:53.960;599616373323757681;8723.013;203
2024-05-22T19:35:53.967;599616373331449958;8730.705;156
2024-05-22T19:35:53.975;599616373339142235;8738.397;147
2024-05-22T19:35:53.983;599616373346834512;8746.09;121
2024-05-22T19:35:53.990;599616373354526789;8753.782;44
2024-05-22T19:35:53.998;599616373362219066;8761.474;32
2024-05-22T19:35:54.006;599616373369911343;8769.166;79
2024-05-22T19:35:54.013;599616373377603620;8776.858;74
2024-05-22T19:35:54.021;599616373385295897;8784.551;44
2024-05-22T19:35:54.029;599616373392988174;8792.243;67
2024-05-22T19:35:54.036;599616373400680451;8799.936;109
2024-05-22T19:35:54.044;599616373408372728;8807.628;119
2024-05-22T19:35:54.052;599616373416065005;8815.32;128
2024-05-22T19:35:54.060;599616373423757282;8823.013;161
2024-05-22T19:35:54.067;599616373431449559;8830.705;186
2024-05-22T19:35:54.075;599616373439141836;8838.396;179
2024-05-22T19:35:54.083;599616373446834113;8846.089;147
2024-05-22T19:35:54.090;599616373454526390;8853.781;142
2024-05-22T19:35:54.098;599616373462218667;8861.474;179
2024-05-22T19:35:54.106;599616373469910944;8869.166;214
2024-05-22T19:35:54.113;599616373477603221;8876.858;175
2024-05-22T19:35:54.121;599616373485295498;8884.551;114
2024-05-22T19:35:54.129;599616373492987775;8892.243;128
2024-05-22T19:35:54.136;599616373500680052;8899.936;142
2024-05-22T19:35:54.144;599616373508372329;8907.628;105
2024-05-22T19:35:54.152;599616373516064606;8915.319;93
2024-05-22T19:35:54.160;599616373523756883;8923.012;105
2024-05-22T19:35:54.167;599616373531449160;8930.704;95
2024-05-22T19:35:54.175;599616373539141437;8938.396;107
2024-05-22T19:35:54.183;599616373546833714;8946.089;182
2024-05-22T19:35:54.190;599616373554525991;8953.781;233
2024-05-22T19:35:54.198;599616373562218268;8961.474;233
2024-05-22T19:35:54.206;599616373569910545;8969.166;254
2024-05-22T19:35:54.213;599616373577602822;8976.858;301
2024-05-22T19:35:54.221;599616373585295164;8984.551;312
2024-05-22T19:35:54.229;599616373592987441;8992.243;308
2024-05-22T19:35:54.236;599616373600679718;8999.935;331
2024-05-22T19:35:54.244;599616373608371995;9007.627;364
2024-05-22T19:35:54.252;599616373616064272;9015.319;376
2024-05-22T19:35:54.260;599616373623756549;9023.012;340
2024-05-22T19:35:54.267;599616373631448826;9030.704;252
2024-05-22T19:35:54.275;599616373639141103;9038.396;203
2024-05-22T19:35:54.283;599616373646833380;9046.089;226
2024-05-22T19:35:54.290;599616373654525657;9053.781;184
2024-05-22T19:35:54.298;599616373662217934;9061.474;86
2024-05-22T19:35:54.306;599616373669910211;9069.166;79
2024-05-22T19:35:54.313;599616373677602488;9076.857;140
2024-05-22T19:35:54.321;599616373685294765;9084.55;156
2024-05-22T19:35:54.329;599616373692987042;9092.242;144
2024-05-22T19:35:54.336;599616373700679319;9099.935;165
2024-05-22T19:35:54.344;599616373708371596;9107.626;177
2024-05-22T19:35:54.352;599616373716063873;9115.318;140
2024-05-22T19:35:54.360;599616373723756150;9123.011;147
2024-05-22T19:35:54.367;599616373731448427;9130.703;231
2024-05-22T19:35:54.375;599616373739140704;9138.3955;282
2024-05-22T19:35:54.383;599616373746832981;9146.088;261
2024-05-22T19:35:54.390;599616373754525258;9153.779;249
2024-05-22T19:35:54.398;599616373762217535;9161.472;221
2024-05-22T19:35:54.406;599616373769909812;9169.164;151
2024-05-22T19:35:54.413;599616373777602089;9176.856;149
2024-05-22T19:35:54.421;599616373785294366;9184.549;233
2024-05-22T19:35:54.429;599616373792986643;9192.241;277
2024-05-22T19:35:54.436;599616373800678920;9199.934;263
2024-05-22T19:35:54.444;599616373808371197;9207.626;263
2024-05-22T19:35:54.452;599616373816063474;9215.318;280
2024-05-22T19:35:54.460;599616373823755751;9223.011;268
2024-05-22T19:35:54.467;599616373831448028;9230.702;252
2024-05-22T19:35:54.475;599616373839140305;9238.395;261
2024-05-22T19:35:54.483;599616373846832582;9246.087;254
2024-05-22T19:35:54.490;599616373854524859;9253.779;266
2024-05-22T19:35:54.498;599616373862217136;9261.472;439
2024-05-22T19:35:54.506;599616373869909413;9269.164;805
2024-05-22T19:35:54.513;599616373877601690;9276.856;1102
2024-05-22T19:35:54.521;599616373885293967;9284.549;945
2024-05-22T19:35:54.529;599616373892986244;9292.241;464
2024-05-22T19:35:54.536;599616373900678521;9299.934;224
2024-05-22T19:35:54.544;599616373908370798;9307.625;308
2024-05-22T19:35:54.552;599616373916063075;9315.317;371
2024-05-22T19:35:54.560;599616373923755352;9323.01;362
2024-05-22T19:35:54.567;599616373931447629;9330.702;364
2024-05-22T19:35:54.575;599616373939139906;9338.395;343
2024-05-22T19:35:54.583;599616373946832183;9346.087;317
2024-05-22T19:35:54.590;599616373954524460;9353.779;315
2024-05-22T19:35:54.598;599616373962216737;9361.472;310
2024-05-22T19:35:54.606;599616373969909014;9369.164;305
2024-05-22T19:35:54.613;599616373977601291;9376.856;268
2024-05-22T19:35:54.621;599616373985293568;9384.549;186
2024-05-22T19:35:54.629;599616373992985845;9392.24;86
2024-05-22T19:35:54.636;599616374000678122;9399.933;-2
2024-05-22T19:35:54.644;599616374008370399;9407.625;-39
2024-05-22T19:35:54.652;599616374016062676;9415.317;-56
2024-05-22T19:35:54.660;599616374023754953;9423.01;-102
2024-05-22T19:35:54.667;599616374031447230;9430.702;-144
2024-05-22T19:35:54.675;599616374039139507;9438.395;-161
2024-05-22T19:35:54.683;599616374046831784;9446.087;-172
2024-05-22T19:35:54.690;599616374054524061;9453.779;-168
2024-05-22T19:35:54.698;599616374062216338;9461.472;-137
2024-05-22T19:35:54.706;599616374069908615;9469.163;-114
2024-05-22T19:35:54.713;599616374077600892;9476.855;-130
2024-05-22T19:35:54.721;599616374085293169;9484.548;-140
2024-05-22T19:35:54.729;599616374092985446;9492.24;-112
2024-05-22T19:35:54.736;599616374100677723;9499.933;-93
2024-05-22T19:35:54.744;599616374108370000;9507.625;-116
2024-05-22T19:35:54.752;599616374116062277;9515.317;-137
2024-05-22T19:35:54.760;599616374123754554;9523.01;-142
2024-05-22T19:35:54.767;599616374131446831;9530.702;-249
2024-05-22T19:35:54.775;599616374139139108;9538.395;-404
2024-05-22T19:35:54.783;599616374146836418;9546.092;-406
2024-05-22T19:35:54.790;599616374154528626;9553.784;-340
2024-05-22T19:35:54.798;599616374162220834;9561.477;-348
2024-05-22T19:35:54.806;599616374169913042;9569.168;-338
2024-05-22T19:35:54.813;599616374177605250;9576.859;-296
2024-05-22T19:35:54.821;599616374185297458;9584.552;-308
2024-05-22T19:35:54.829;599616374192989666;9592.244;-373
2024-05-22T19:35:54.836;599616374200681874;9599.937;-392
2024-05-22T19:35:54.844;599616374208374082;9607.629;-331
2024-05-22T19:35:54.852;599616374216066290;9615.321;-284
2024-05-22T19:35:54.860;599616374223758498;9623.014;-287
2024-05-22T19:35:54.867;599616374231450706;9630.706;-273
2024-05-22T19:35:54.875;599616374239142914;9638.398;-231
2024-05-22T19:35:54.883;599616374246835122;9646.09;-207
2024-05-22T19:35:54.890;599616374254527330;9653.782;-207
2024-05-22T19:35:54.898;599616374262219538;9661.475;-205
2024-05-22T19:35:54.906;599616374269911746;9669.167;-175
2024-05-22T19:35:54.913;599616374277603954;9676.858;-144
2024-05-22T19:35:54.921;599616374285296162;9684.551;-135
2024-05-22T19:35:54.929;599616374292988370;9692.243;-98
2024-05-22T19:35:54.936;599616374300680578;9699.936;-37
2024-05-22T19:35:54.944;599616374308372786;9707.628;2
2024-05-22T19:35:54.952;599616374316064994;9715.319;-7
2024-05-22T19:35:54.960;599616374323757202;9723.012;-11
2024-05-22T19:35:54.967;599616374331449410;9730.704;32
2024-05-22T19:35:54.975;599616374339141618;9738.396;70
2024-05-22T19:35:54.983;599616374346833826;9746.089;84
2024-05-22T19:35:54.990;599616374354526034;9753.781;114
2024-05-22T19:35:54.998;599616374362218242;9761.474;128
2024-05-22T19:35:55.006;599616374369910450;9769.166;114
2024-05-22T19:35:55.013;599616374377602658;9776.857;116
2024-05-22T19:35:55.021;599616374385294866;9784.55;144
2024-05-22T19:35:55.029;599616374392987074;9792.241;182
2024-05-22T19:35:55.036;599616374400679282;9799.934;207
2024-05-22T19:35:55.044;599616374408371490;9807.626;224
2024-05-22T19:35:55.052;599616374416063698;9815.318;266
2024-05-22T19:35:55.060;599616374423755906;9823.011;315
2024-05-22T19:35:55.067;599616374431448114;9830.703;287
2024-05-22T19:35:55.075;599616374439140322;9838.3955;233
2024-05-22T19:35:55.083;599616374446832530;9846.088;247
2024-05-22T19:35:55.090;599616374454524738;9853.78;268
2024-05-22T19:35:55.098;599616374462216946;9861.473;247
2024-05-22T19:35:55.106;599616374469909154;9869.164;242
2024-05-22T19:35:55.113;599616374477601362;9876.855;268
2024-05-22T19:35:55.121;599616374485293570;9884.548;266
2024-05-22T19:35:55.129;599616374492985778;9892.24;256
2024-05-22T19:35:55.136;599616374500677986;9899.933;355
2024-05-22T19:35:55.144;599616374508370194;9907.625;642
2024-05-22T19:35:55.152;599616374516062402;9915.317;924
2024-05-22T19:35:55.160;599616374523754610;9923.01;777
2024-05-22T19:35:55.167;599616374531446818;9930.702;296
2024-05-22T19:35:55.175;599616374539139026;9938.395;88
2024-05-22T19:35:55.183;599616374546831234;9946.086;177
2024-05-22T19:35:55.190;599616374554523442;9953.778;163
2024-05-22T19:35:55.198;599616374562215650;9961.471;81
2024-05-22T19:35:55.206;599616374569907858;9969.163;72
2024-05-22T19:35:55.213;599616374577600066;9976.8545;49
2024-05-22T19:35:55.221;599616374585292274;9984.547;-14
2024-05-22T19:35:55.229;599616374592984482;9992.239;-56
2024-05-22T19:35:55.236;599616374600676690;9999.932;-56
2024-05-22T19:35:55.244;599616374608368898;10007.624;-53
2024-05-22T19:35:55.252;599616374616061106;10015.316;-114
2024-05-22T19:35:55.260;599616374623753314;10023.008;-182
2024-05-22T19:35:55.267;599616374631445522;10030.7;-238
2024-05-22T19:35:55.275;599616374639137730;10038.393;-404
2024-05-22T19:35:55.283;599616374646829938;10046.085;-548
2024-05-22T19:35:55.290;599616374654522146;10053.777;-488
2024-05-22T19:35:55.298;599616374662214354;10061.47;-408
2024-05-22T19:35:55.306;599616374669906562;10069.161;-427
2024-05-22T19:35:55.313;599616374677598770;10076.854;-404
2024-05-22T19:35:55.321;599616374685290978;10084.546;-343
2024-05-22T19:35:55.329;599616374692983186;10092.238;-324
2024-05-22T19:35:55.336;599616374700675394;10099.93;-315
2024-05-22T19:35:55.344;599616374708367620;10107.622;-284
2024-05-22T19:35:55.352;599616374716059828;10115.314;-240
2024-05-22T19:35:55.360;599616374723752036;10123.007;-219
2024-05-22T19:35:55.367;599616374731444244;10130.699;-289
2024-05-22T19:35:55.375;599616374739136452;10138.392;-411
2024-05-22T19:35:55.383;599616374746828660;10146.084;-469
2024-05-22T19:35:55.390;599616374754520868;10153.776;-471
2024-05-22T19:35:55.398;599616374762213076;10161.469;-481
2024-05-22T19:35:55.406;599616374769905284;10169.16;-502
2024-05-22T19:35:55.413;599616374777597492;10176.852;-502
2024-05-22T19:35:55.421;599616374785289700;10184.544;-464
2024-05-22T19:35:55.429;599616374792981908;10192.236;-411
2024-05-22T19:35:55.436;599616374800674116;10199.929;-376
2024-05-22T19:35:55.444;599616374808366324;10207.621;-336
2024-05-22T19:35:55.452;599616374816058532;10215.313;-280
2024-05-22T19:35:55.460;599616374823750740;10223.006;-254
2024-05-22T19:35:55.467;599616374831442948;10230.698;-228
2024-05-22T19:35:55.475;599616374839135156;10238.391;-163
2024-05-22T19:35:55.483;599616374846827364;10246.083;-102
2024-05-22T19:35:55.490;599616374854519572;10253.774;-72
2024-05-22T19:35:55.498;599616374862211780;10261.467;-56
2024-05-22T19:35:55.506;599616374869903988;10269.158;-35
2024-05-22T19:35:55.513;599616374877596196;10276.851;0
2024-05-22T19:35:55.521;599616374885288404;10284.543;30
2024-05-22T19:35:55.529;599616374892980612;10292.235;60
2024-05-22T19:35:55.536;599616374900672820;10299.928;116
2024-05-22T19:35:55.544;599616374908365028;10307.62;149
2024-05-22T19:35:55.552;599616374916057236;10315.3125;130
2024-05-22T19:35:55.560;599616374923749444;10323.005;135
2024-05-22T19:35:55.567;599616374931441652;10330.696;182
2024-05-22T19:35:55.575;599616374939133860;10338.389;196
2024-05-22T19:35:55.583;599616374946826068;10346.081;186
2024-05-22T19:35:55.590;599616374954518276;10353.773;221
2024-05-22T19:35:55.598;599616374962210484;10361.466;277
2024-05-22T19:35:55.606;599616374969902692;10369.157;289
2024-05-22T19:35:55.613;599616374977594900;10376.85;296
2024-05-22T19:35:55.621;599616374985287108;10384.542;317
2024-05-22T19:35:55.629;599616374992979316;10392.234;308
2024-05-22T19:35:55.636;599616375000671524;10399.927;266
2024-05-22T19:35:55.644;599616375008363732;10407.618;235
2024-05-22T19:35:55.652;599616375016055940;10415.311;235
2024-05-22T19:35:55.660;599616375023748148;10423.003;245
2024-05-22T19:35:55.667;599616375031440356;10430.695;226
2024-05-22T19:35:55.675;599616375039132564;10438.388;226
2024-05-22T19:35:55.683;599616375046824772;10446.08;282
2024-05-22T19:35:55.690;599616375054516980;10453.772;312
2024-05-22T19:35:55.698;599616375062209188;10461.465;289
2024-05-22T19:35:55.706;599616375069901396;10469.156;277
2024-05-22T19:35:55.713;599616375077593604;10476.848;310
2024-05-22T19:35:55.721;599616375085285812;10484.54;345
2024-05-22T19:35:55.729;599616375092978020;10492.232;317
2024-05-22T19:35:55.736;599616375100670228;10499.925;277
2024-05-22T19:35:55.744;599616375108362436;10507.617;291
2024-05-22T19:35:55.752;599616375116054644;10515.31;303
2024-05-22T19:35:55.760;599616375123746852;10523.002;303
2024-05-22T19:35:55.767;599616375131439060;10530.694;336
2024-05-22T19:35:55.775;599616375139131268;10538.387;298
2024-05-22T19:35:55.783;599616375146823476;10546.079;135
2024-05-22T19:35:55.790;599616375154515684;10553.771;77
2024-05-22T19:35:55.798;599616375162207892;10561.463;273
2024-05-22T19:35:55.806;599616375169900100;10569.154;639
2024-05-22T19:35:55.813;599616375177592308;10576.847;952
2024-05-22T19:35:55.821;599616375185284516;10584.539;871
2024-05-22T19:35:55.829;599616375192976724;10592.231;436
2024-05-22T19:35:55.836;599616375200668932;10599.924;219
2024-05-22T19:35:55.844;599616375208361140;10607.616;324
2024-05-22T19:35:55.852;599616375216053348;10615.309;315
2024-05-22T19:35:55.860;599616375223745556;10623.001;203
2024-05-22T19:35:55.867;599616375231437764;10630.692;203
2024-05-22T19:35:55.875;599616375239129972;10638.385;182
2024-05-22T19:35:55.883;599616375246822180;10646.077;98
2024-05-22T19:35:55.890;599616375254514388;10653.77;91
2024-05-22T19:35:55.898;599616375262206596;10661.461;100
2024-05-22T19:35:55.906;599616375269898820;10669.153;28
2024-05-22T19:35:55.913;599616375277591028;10676.846;-58
2024-05-22T19:35:55.921;599616375285283236;10684.538;-98
2024-05-22T19:35:55.929;599616375292975444;10692.23;-107
2024-05-22T19:35:55.936;599616375300667652;10699.923;-123
2024-05-22T19:35:55.944;599616375308359860;10707.614;-130
2024-05-22T19:35:55.952;599616375316052068;10715.307;-95
2024-05-22T19:35:55.959;599616375323744276;10722.999;-84
2024-05-22T19:35:55.967;599616375331436484;10730.691;-158
2024-05-22T19:35:55.975;599616375339128692;10738.384;-240
2024-05-22T19:35:55.983;599616375346820900;10746.076;-219
2024-05-22T19:35:55.990;599616375354513108;10753.769;-154
2024-05-22T19:35:55.998;599616375362205316;10761.46;-161
2024-05-22T19:35:56.006;599616375369897524;10769.152;-200
2024-05-22T19:35:56.013;599616375377589732;10776.845;-177
2024-05-22T19:35:56.021;599616375385281940;10784.536;-128
2024-05-22T19:35:56.029;599616375392974148;10792.229;-130
2024-05-22T19:35:56.036;599616375400666356;10799.921;-130
2024-05-22T19:35:56.044;599616375408358564;10807.613;-63
2024-05-22T19:35:56.052;599616375416050772;10815.306;7
2024-05-22T19:35:56.059;599616375423742980;10822.998;14
2024-05-22T19:35:56.067;599616375431435188;10830.69;2
2024-05-22T19:35:56.075;599616375439127396;10838.383;28
2024-05-22T19:35:56.083;599616375446819604;10846.075;72
2024-05-22T19:35:56.090;599616375454511812;10853.768;100
2024-05-22T19:35:56.098;599616375462204020;10861.458;128
2024-05-22T19:35:56.106;599616375469896228;10869.15;156
2024-05-22T19:35:56.113;599616375477588436;10876.843;158
2024-05-22T19:35:56.121;599616375485280644;10884.535;137
2024-05-22T19:35:56.129;599616375492972852;10892.228;144
2024-05-22T19:35:56.136;599616375500665060;10899.92;203
2024-05-22T19:35:56.144;599616375508357268;10907.612;205
2024-05-22T19:35:56.152;599616375516049476;10915.305;123
2024-05-22T19:35:56.159;599616375523741684;10922.997;95
2024-05-22T19:35:56.167;599616375531433892;10930.689;189
2024-05-22T19:35:56.175;599616375539126100;10938.381;296
2024-05-22T19:35:56.183;599616375546818308;10946.073;317
2024-05-22T19:35:56.190;599616375554510516;10953.766;298
2024-05-22T19:35:56.198;599616375562202724;10961.457;294
2024-05-22T19:35:56.206;599616375569894932;10969.149;305
2024-05-22T19:35:56.213;599616375577587140;10976.842;352
2024-05-22T19:35:56.221;599616375585279348;10984.534;420
2024-05-22T19:35:56.229;599616375592971556;10992.227;460
2024-05-22T19:35:56.236;599616375600663764;10999.919;474
2024-05-22T19:35:56.244;599616375608355972;11007.611;464
2024-05-22T19:35:56.252;599616375616048180;11015.303;478
2024-05-22T19:35:56.259;599616375623740388;11022.995;530
2024-05-22T19:35:56.267;599616375631432596;11030.6875;553
2024-05-22T19:35:56.275;599616375639124804;11038.38;509
2024-05-22T19:35:56.283;599616375646817012;11046.072;401
2024-05-22T19:35:56.290;599616375654509220;11053.765;301
2024-05-22T19:35:56.298;599616375662201428;11061.456;280
2024-05-22T19:35:56.306;599616375669893636;11069.148;296
2024-05-22T19:35:56.313;599616375677585844;11076.841;312
2024-05-22T19:35:56.321;599616375685278052;11084.533;319
2024-05-22T19:35:56.329;599616375692970260;11092.225;294
2024-05-22T19:35:56.336;599616375700662468;11099.917;259
2024-05-22T19:35:56.344;599616375708354676;11107.609;254
2024-05-22T19:35:56.352;599616375716046884;11115.302;275
2024-05-22T19:35:56.359;599616375723739092;11122.994;296
2024-05-22T19:35:56.367;599616375731431300;11130.687;280
2024-05-22T19:35:56.375;599616375739123508;11138.379;224
2024-05-22T19:35:56.383;599616375746815716;11146.071;205
2024-05-22T19:35:56.390;599616375754507924;11153.764;245
2024-05-22T19:35:56.398;599616375762200132;11161.455;284
2024-05-22T19:35:56.406;599616375769892340;11169.146;333
2024-05-22T19:35:56.413;599616375777584548;11176.839;366
2024-05-22T19:35:56.421;599616375785276756;11184.531;340
2024-05-22T19:35:56.429;599616375792968964;11192.224;289
2024-05-22T19:35:56.436;599616375800661172;11199.916;282
2024-05-22T19:35:56.444;599616375808353380;11207.608;303
2024-05-22T19:35:56.452;599616375816045588;11215.301;280
2024-05-22T19:35:56.459;599616375823737796;11222.993;254
2024-05-22T19:35:56.467;599616375831430020;11230.686;238
2024-05-22T19:35:56.475;599616375839122228;11238.378;179
2024-05-22T19:35:56.483;599616375846814436;11246.069;247
2024-05-22T19:35:56.490;599616375854506644;11253.762;590
2024-05-22T19:35:56.498;599616375862198852;11261.453;850
2024-05-22T19:35:56.506;599616375869891060;11269.1455;611
2024-05-22T19:35:56.513;599616375877583268;11276.838;119
2024-05-22T19:35:56.521;599616375885275476;11284.53;-98
2024-05-22T19:35:56.529;599616375892967684;11292.223;-70
2024-05-22T19:35:56.536;599616375900659892;11299.915;-161
2024-05-22T19:35:56.544;599616375908352100;11307.607;-340
2024-05-22T19:35:56.552;599616375916044308;11315.3;-359
2024-05-22T19:35:56.559;599616375923736516;11322.991;-308
2024-05-22T19:35:56.567;599616375931428724;11330.684;-333
2024-05-22T19:35:56.575;599616375939120932;11338.376;-350
2024-05-22T19:35:56.583;599616375946813140;11346.068;-303
2024-05-22T19:35:56.590;599616375954505348;11353.76;-273
2024-05-22T19:35:56.598;599616375962197556;11361.452;-275
2024-05-22T19:35:56.606;599616375969889764;11369.145;-291
2024-05-22T19:35:56.613;599616375977581972;11376.837;-350
2024-05-22T19:35:56.621;599616375985274180;11384.529;-390
2024-05-22T19:35:56.629;599616375992966388;11392.221;-359
2024-05-22T19:35:56.636;599616376000658596;11399.913;-336
2024-05-22T19:35:56.644;599616376008350804;11407.605;-338
2024-05-22T19:35:56.652;599616376016043012;11415.298;-322
2024-05-22T19:35:56.659;599616376023735220;11422.99;-317
2024-05-22T19:35:56.667;599616376031427428;11430.683;-315
2024-05-22T19:35:56.675;599616376039119636;11438.375;-275
2024-05-22T19:35:56.683;599616376046811844;11446.067;-233
2024-05-22T19:35:56.690;599616376054504052;11453.759;-221
2024-05-22T19:35:56.698;599616376062196260;11461.451;-217
2024-05-22T19:35:56.706;599616376069888468;11469.143;-198
2024-05-22T19:35:56.713;599616376077580676;11476.835;-172
2024-05-22T19:35:56.721;599616376085272884;11484.527;-156
2024-05-22T19:35:56.729;599616376092965092;11492.22;-121
2024-05-22T19:35:56.736;599616376100657300;11499.912;-74
2024-05-22T19:35:56.744;599616376108349508;11507.6045;-74
2024-05-22T19:35:56.752;599616376116041716;11515.297;-114
2024-05-22T19:35:56.759;599616376123733924;11522.989;-112
2024-05-22T19:35:56.767;599616376131426132;11530.682;-74
2024-05-22T19:35:56.775;599616376139118340;11538.374;-58
2024-05-22T19:35:56.783;599616376146810548;11546.066;-84
2024-05-22T19:35:56.790;599616376154502756;11553.757;-165
2024-05-22T19:35:56.798;599616376162194964;11561.449;-245
2024-05-22T19:35:56.806;599616376169887172;11569.142;-247
2024-05-22T19:35:56.813;599616376177579380;11576.834;-224
2024-05-22T19:35:56.821;599616376185271588;11584.526;-205
2024-05-22T19:35:56.829;599616376192963796;11592.219;-161
2024-05-22T19:35:56.836;599616376200656004;11599.911;-137
2024-05-22T19:35:56.844;599616376208348212;11607.604;-149
2024-05-22T19:35:56.852;599616376216040420;11615.296;-126
2024-05-22T19:35:56.859;599616376223732628;11622.987;-102
2024-05-22T19:35:56.867;599616376231424836;11630.68;-123
2024-05-22T19:35:56.875;599616376239117044;11638.372;-116
2024-05-22T19:35:56.883;599616376246809252;11646.064;-51
2024-05-22T19:35:56.890;599616376254501460;11653.756;0
2024-05-22T19:35:56.898;599616376262193668;11661.448;7
2024-05-22T19:35:56.906;599616376269885876;11669.141;28
2024-05-22T19:35:56.913;599616376277578084;11676.833;77
2024-05-22T19:35:56.921;599616376285270292;11684.525;98
2024-05-22T19:35:56.929;599616376292962500;11692.218;88
2024-05-22T19:35:56.936;599616376300654708;11699.909;84
2024-05-22T19:35:56.944;599616376308346916;11707.602;102
2024-05-22T19:35:56.952;599616376316039124;11715.294;130
2024-05-22T19:35:56.959;599616376323731332;11722.986;147
2024-05-22T19:35:56.967;599616376331423540;11730.679;156
2024-05-22T19:35:56.975;599616376339115748;11738.371;184
2024-05-22T19:35:56.983;599616376346807956;11746.063;196
2024-05-22T19:35:56.990;599616376354500164;11753.755;186
2024-05-22T19:35:56.998;599616376362192372;11761.447;226
2024-05-22T19:35:57.006;599616376369884580;11769.14;287
2024-05-22T19:35:57.013;599616376377576788;11776.831;296
2024-05-22T19:35:57.021;599616376385268996;11784.523;282
2024-05-22T19:35:57.029;599616376392961220;11792.216;275
2024-05-22T19:35:57.036;599616376400653428;11799.908;287
2024-05-22T19:35:57.044;599616376408345636;11807.601;315
2024-05-22T19:35:57.052;599616376416037844;11815.293;324
2024-05-22T19:35:57.059;599616376423730052;11822.985;331
2024-05-22T19:35:57.067;599616376431422260;11830.678;373
2024-05-22T19:35:57.075;599616376439114468;11838.37;359
2024-05-22T19:35:57.083;599616376446806676;11846.0625;266
2024-05-22T19:35:57.090;599616376454498884;11853.753;238
2024-05-22T19:35:57.098;599616376462191092;11861.445;266
2024-05-22T19:35:57.106;599616376469883300;11869.138;198
2024-05-22T19:35:57.113;599616376477575508;11876.83;91
2024-05-22T19:35:57.121;599616376485267716;11884.522;88
2024-05-22T19:35:57.129;599616376492959924;11892.215;137
2024-05-22T19:35:57.136;599616376500652132;11899.907;140
2024-05-22T19:35:57.144;599616376508344340;11907.6;100
2024-05-22T19:35:57.152;599616376516036548;11915.292;35
2024-05-22T19:35:57.159;599616376523728756;11922.984;-16
2024-05-22T19:35:57.167;599616376531420964;11930.676;25
2024-05-22T19:35:57.175;599616376539113172;11938.368;247
2024-05-22T19:35:57.183;599616376546805380;11946.06;539
2024-05-22T19:35:57.190;599616376554497588;11953.752;509
2024-05-22T19:35:57.198;599616376562189796;11961.444;60
2024-05-22T19:35:57.206;599616376569882004;11969.137;-261
2024-05-22T19:35:57.213;599616376577574212;11976.829;-200
2024-05-22T19:35:57.221;599616376585266420;11984.521;-133
2024-05-22T19:35:57.229;599616376592958628;11992.214;-186
2024-05-22T19:35:57.236;599616376600650836;11999.906;-175
2024-05-22T19:35:57.244;599616376608343044;12007.598;-114
2024-05-22T19:35:57.252;599616376616035252;12015.29;-86
2024-05-22T19:35:57.259;599616376623727460;12022.982;-88
2024-05-22T19:35:57.267;599616376631419668;12030.675;-74
2024-05-22T19:35:57.275;599616376639111876;12038.367;-14
2024-05-22T19:35:57.283;599616376646804084;12046.059;16
2024-05-22T19:35:57.290;599616376654496292;12053.751;-51
2024-05-22T19:35:57.298;599616376662188500;12061.443;-128
2024-05-22T19:35:57.306;599616376669880708;12069.136;-98
2024-05-22T19:35:57.313;599616376677572916;12076.828;-37
2024-05-22T19:35:57.321;599616376685265124;12084.52;-21
2024-05-22T19:35:57.329;599616376692957332;12092.212;16
2024-05-22T19:35:57.336;599616376700649540;12099.904;79
2024-05-22T19:35:57.344;599616376708341748;12107.597;98
2024-05-22T19:35:57.352;599616376716033956;12115.289;56
2024-05-22T19:35:57.359;599616376723726164;12122.981;18
2024-05-22T19:35:57.367;599616376731418372;12130.674;63
2024-05-22T19:35:57.375;599616376739110580;12138.366;137
2024-05-22T19:35:57.383;599616376746802788;12146.058;168
2024-05-22T19:35:57.390;599616376754494996;12153.749;189
2024-05-22T19:35:57.398;599616376762187204;12161.441;226
2024-05-22T19:35:57.406;599616376769879412;12169.134;254
2024-05-22T19:35:57.413;599616376777571620;12176.826;263
2024-05-22T19:35:57.421;599616376785263828;12184.519;291
2024-05-22T19:35:57.429;599616376792956036;12192.211;336
2024-05-22T19:35:57.436;599616376800648244;12199.903;333
2024-05-22T19:35:57.444;599616376808340452;12207.596;291
2024-05-22T19:35:57.452;599616376816032660;12215.288;277
2024-05-22T19:35:57.459;599616376823724868;12222.98;275
2024-05-22T19:35:57.467;599616376831417076;12230.673;256
2024-05-22T19:35:57.475;599616376839109284;12238.364;259
2024-05-22T19:35:57.483;599616376846801492;12246.056;277
2024-05-22T19:35:57.490;599616376854493700;12253.748;247
2024-05-22T19:35:57.498;599616376862185908;12261.44;200
2024-05-22T19:35:57.506;599616376869878116;12269.133;198
2024-05-22T19:35:57.513;599616376877570324;12276.825;205
2024-05-22T19:35:57.521;599616376885262532;12284.518;210
2024-05-22T19:35:57.529;599616376892954740;12292.21;226
2024-05-22T19:35:57.536;599616376900646948;12299.902;226
2024-05-22T19:35:57.544;599616376908339156;12307.595;226
2024-05-22T19:35:57.552;599616376916031364;12315.286;259
2024-05-22T19:35:57.559;599616376923723572;12322.979;268
2024-05-22T19:35:57.567;599616376931415780;12330.671;256
2024-05-22T19:35:57.575;599616376939107988;12338.363;277
2024-05-22T19:35:57.583;599616376946800196;12346.055;308
2024-05-22T19:35:57.590;599616376954492420;12353.747;301
2024-05-22T19:35:57.598;599616376962184628;12361.439;259
2024-05-22T19:35:57.606;599616376969876836;12369.132;210
2024-05-22T19:35:57.613;599616376977569044;12376.824;207
2024-05-22T19:35:57.621;599616376985261252;12384.516;214
2024-05-22T19:35:57.629;599616376992953460;12392.208;172
2024-05-22T19:35:57.636;599616377000645668;12399.9;142
2024-05-22T19:35:57.644;599616377008337876;12407.593;121
2024-05-22T19:35:57.652;599616377016030084;12415.285;49
2024-05-22T19:35:57.659;599616377023722292;12422.978;7
2024-05-22T19:35:57.667;599616377031414500;12430.67;23
2024-05-22T19:35:57.675;599616377039106708;12438.362;-2
2024-05-22T19:35:57.683;599616377046798916;12446.054;-46
2024-05-22T19:35:57.690;599616377054491124;12453.746;-23
2024-05-22T19:35:57.698;599616377062183332;12461.4375;35
2024-05-22T19:35:57.706;599616377069875540;12469.13;56
2024-05-22T19:35:57.713;599616377077567748;12476.822;32
2024-05-22T19:35:57.721;599616377085259956;12484.515;11
2024-05-22T19:35:57.729;599616377092952164;12492.207;28
2024-05-22T19:35:57.736;599616377100644372;12499.899;37
2024-05-22T19:35:57.744;599616377108336580;12507.592;2
2024-05-22T19:35:57.752;599616377116028788;12515.284;-9
2024-05-22T19:35:57.759;599616377123720996;12522.977;9
2024-05-22T19:35:57.767;599616377131413204;12530.669;-11
2024-05-22T19:35:57.775;599616377139105412;12538.359;-30
2024-05-22T19:35:57.783;599616377146797620;12546.052;-21
2024-05-22T19:35:57.790;599616377154489828;12553.744;-102
2024-05-22T19:35:57.798;599616377162182036;12561.437;-277
2024-05-22T19:35:57.806;599616377169874244;12569.129;-380
2024-05-22T19:35:57.813;599616377177566452;12576.821;-411
2024-05-22T19:35:57.821;599616377185258660;12584.514;-462
2024-05-22T19:35:57.829;599616377192950868;12592.206;-513
2024-05-22T19:35:57.836;599616377200643076;12599.898;-551
2024-05-22T19:35:57.844;599616377208335284;12607.591;-618
2024-05-22T19:35:57.852;599616377216027492;12615.282;-604
2024-05-22T19:35:57.859;599616377223719700;12622.975;-348
2024-05-22T19:35:57.867;599616377231411908;12630.667;37
2024-05-22T19:35:57.875;599616377239104116;12638.358;165
2024-05-22T19:35:57.883;599616377246796324;12646.051;-172
2024-05-22T19:35:57.890;599616377254488532;12653.743;-567
2024-05-22T19:35:57.898;599616377262180740;12661.436;-574
2024-05-22T19:35:57.906;599616377269872948;12669.128;-455
2024-05-22T19:35:57.913;599616377277565156;12676.82;-490
2024-05-22T19:35:57.921;599616377285257364;12684.513;-495
2024-05-22T19:35:57.929;599616377292949572;12692.204;-404
2024-05-22T19:35:57.936;599616377300641780;12699.896;-338
2024-05-22T19:35:57.944;599616377308333988;12707.589;-336
2024-05-22T19:35:57.952;599616377316026196;12715.281;-345
2024-05-22T19:35:57.959;599616377323718404;12722.974;-298
2024-05-22T19:35:57.967;599616377331410612;12730.666;-210
2024-05-22T19:35:57.975;599616377339102820;12738.357;-156
2024-05-22T19:35:57.983;599616377346795028;12746.05;-154
2024-05-22T19:35:57.990;599616377354487236;12753.742;-149
2024-05-22T19:35:57.998;599616377362179444;12761.435;-119
2024-05-22T19:35:58.006;599616377369871652;12769.126;-102
2024-05-22T19:35:58.013;599616377377563860;12776.818;-91
2024-05-22T19:35:58.021;599616377385256068;12784.511;-32
2024-05-22T19:35:58.029;599616377392948276;12792.203;37
2024-05-22T19:35:58.036;599616377400640484;12799.8955;44
2024-05-22T19:35:58.044;599616377408332692;12807.588;32
2024-05-22T19:35:58.052;599616377416024900;12815.28;63
2024-05-22T19:35:58.059;599616377423717108;12822.973;107
2024-05-22T19:35:58.067;599616377431409316;12830.665;142
2024-05-22T19:35:58.075;599616377439101524;12838.356;198
2024-05-22T19:35:58.083;599616377446793732;12846.048;256
2024-05-22T19:35:58.090;599616377454485940;12853.74;221
2024-05-22T19:35:58.098;599616377462178148;12861.433;137
2024-05-22T19:35:58.106;599616377469870356;12869.125;135
2024-05-22T19:35:58.113;599616377477562564;12876.817;189
2024-05-22T19:35:58.121;599616377485254772;12884.51;203
2024-05-22T19:35:58.129;599616377492946980;12892.202;170
2024-05-22T19:35:58.136;599616377500639188;12899.895;147
2024-05-22T19:35:58.144;599616377508331396;12907.587;163
2024-05-22T19:35:58.152;599616377516018652;12915.273;193
2024-05-22T19:35:58.159;599616377523710929;12922.966;189
2024-05-22T19:35:58.167;599616377531403206;12930.658;175
2024-05-22T19:35:58.175;599616377539095483;12938.351;191
2024-05-22T19:35:58.183;599616377546787760;12946.043;189
2024-05-22T19:35:58.190;599616377554480037;12953.735;112
2024-05-22T19:35:58.198;599616377562172314;12961.428;58
2024-05-22T19:35:58.206;599616377569864591;12969.12;98
2024-05-22T19:35:58.213;599616377577556868;12976.8125;142
2024-05-22T19:35:58.221;599616377585249145;12984.504;137
2024-05-22T19:35:58.229;599616377592941422;12992.196;140
2024-05-22T19:35:58.236;599616377600633699;12999.889;165
2024-05-22T19:35:58.244;599616377608325976;13007.581;189
2024-05-22T19:35:58.252;599616377616018253;13015.273;212
2024-05-22T19:35:58.259;599616377623710530;13022.966;242
2024-05-22T19:35:58.267;599616377631402807;13030.658;268
2024-05-22T19:35:58.275;599616377639095084;13038.351;270
2024-05-22T19:35:58.283;599616377646787361;13046.043;263
2024-05-22T19:35:58.290;599616377654479638;13053.735;266
2024-05-22T19:35:58.298;599616377662171915;13061.427;217
2024-05-22T19:35:58.306;599616377669864192;13069.119;128
2024-05-22T19:35:58.313;599616377677556469;13076.812;112
2024-05-22T19:35:58.321;599616377685248746;13084.504;140
2024-05-22T19:35:58.329;599616377692941023;13092.196;130
2024-05-22T19:35:58.336;599616377700633300;13099.889;102
2024-05-22T19:35:58.344;599616377708325577;13107.581;95
2024-05-22T19:35:58.352;599616377716017854;13115.273;128
2024-05-22T19:35:58.359;599616377723710131;13122.966;163
2024-05-22T19:35:58.367;599616377731402408;13130.658;158
2024-05-22T19:35:58.375;599616377739094685;13138.35;156
2024-05-22T19:35:58.383;599616377746786962;13146.042;207
2024-05-22T19:35:58.390;599616377754479239;13153.733;259
2024-05-22T19:35:58.398;599616377762171516;13161.426;259
2024-05-22T19:35:58.406;599616377769863793;13169.118;214
2024-05-22T19:35:58.413;599616377777556070;13176.811;175
2024-05-22T19:35:58.421;599616377785248347;13184.503;156
2024-05-22T19:35:58.429;599616377792940624;13192.195;144
2024-05-22T19:35:58.436;599616377800632901;13199.888;140
2024-05-22T19:35:58.444;599616377808325178;13207.58;130
2024-05-22T19:35:58.452;599616377816017455;13215.271;91
2024-05-22T19:35:58.459;599616377823709732;13222.964;30
2024-05-22T19:35:58.467;599616377831402009;13230.656;-14
2024-05-22T19:35:58.475;599616377839094286;13238.349;-18
2024-05-22T19:35:58.483;599616377846786563;13246.041;-25
2024-05-22T19:35:58.490;599616377854478840;13253.733;-42
2024-05-22T19:35:58.498;599616377862171117;13261.426;-21
2024-05-22T19:35:58.506;599616377869863394;13269.118;9
2024-05-22T19:35:58.513;599616377877555671;13276.811;-2
2024-05-22T19:35:58.521;599616377885247948;13284.503;-14
2024-05-22T19:35:58.529;599616377892940225;13292.194;4
2024-05-22T19:35:58.536;599616377900632502;13299.887;-4
2024-05-22T19:35:58.544;599616377908324779;13307.579;-42
2024-05-22T19:35:58.552;599616377916017056;13315.271;39
2024-05-22T19:35:58.559;599616377923709333;13322.964;352
2024-05-22T19:35:58.567;599616377931401610;13330.656;731
2024-05-22T19:35:58.575;599616377939093887;13338.349;768
2024-05-22T19:35:58.583;599616377946786164;13346.041;331
2024-05-22T19:35:58.590;599616377954478441;13353.733;-58
2024-05-22T19:35:58.598;599616377962170718;13361.426;-16
2024-05-22T19:35:58.606;599616377969862995;13369.118;91
2024-05-22T19:35:58.613;599616377977555272;13376.81;18
2024-05-22T19:35:58.621;599616377985247549;13384.502;16
2024-05-22T19:35:58.629;599616377992939826;13392.194;105
2024-05-22T19:35:58.636;599616378000632103;13399.887;102
2024-05-22T19:35:58.644;599616378008324380;13407.579;65
2024-05-22T19:35:58.652;599616378016016657;13415.271;98
2024-05-22T19:35:58.659;599616378023708934;13422.964;140
2024-05-22T19:35:58.667;599616378031401211;13430.656;135
2024-05-22T19:35:58.675;599616378039093488;13438.349;130
2024-05-22T19:35:58.683;599616378046785765;13446.041;149
2024-05-22T19:35:58.690;599616378054478042;13453.732;156
2024-05-22T19:35:58.698;599616378062170319;13461.425;147
2024-05-22T19:35:58.706;599616378069862596;13469.117;161
2024-05-22T19:35:58.713;599616378077554938;13476.81;193
2024-05-22T19:35:58.721;599616378085247215;13484.502;212
2024-05-22T19:35:58.729;599616378092939492;13492.194;214
2024-05-22T19:35:58.736;599616378100631769;13499.887;214
2024-05-22T19:35:58.744;599616378108324046;13507.579;249
2024-05-22T19:35:58.752;599616378116016323;13515.271;289
2024-05-22T19:35:58.759;599616378123708600;13522.964;233
2024-05-22T19:35:58.767;599616378131400877;13530.655;142
2024-05-22T19:35:58.775;599616378139093154;13538.348;149
2024-05-22T19:35:58.783;599616378146785431;13546.04;175
2024-05-22T19:35:58.790;599616378154477708;13553.732;163
2024-05-22T19:35:58.798;599616378162169985;13561.425;170
2024-05-22T19:35:58.806;599616378169862262;13569.117;126
2024-05-22T19:35:58.813;599616378177554539;13576.81;9
2024-05-22T19:35:58.821;599616378185246816;13584.502;-49
2024-05-22T19:35:58.829;599616378192939093;13592.194;-67
2024-05-22T19:35:58.836;599616378200631370;13599.887;-100
2024-05-22T19:35:58.844;599616378208323647;13607.579;-105
2024-05-22T19:35:58.852;599616378216015924;13615.2705;-116
2024-05-22T19:35:58.859;599616378223708201;13622.963;-112
2024-05-22T19:35:58.867;599616378231400478;13630.655;-74
2024-05-22T19:35:58.875;599616378239092755;13638.348;-60
2024-05-22T19:35:58.883;599616378246785032;13646.04;-72
2024-05-22T19:35:58.890;599616378254477309;13653.732;-49
2024-05-22T19:35:58.898;599616378262169586;13661.425;16
2024-05-22T19:35:58.906;599616378269861863;13669.117;74
2024-05-22T19:35:58.913;599616378277554140;13676.81;95
2024-05-22T19:35:58.921;599616378285246417;13684.502;84
2024-05-22T19:35:58.929;599616378292938694;13692.193;79
2024-05-22T19:35:58.936;599616378300630971;13699.886;88
2024-05-22T19:35:58.944;599616378308323248;13707.578;88
2024-05-22T19:35:58.952;599616378316015525;13715.2705;95
2024-05-22T19:35:58.959;599616378323707802;13722.963;112
2024-05-22T19:35:58.967;599616378331400079;13730.655;93
2024-05-22T19:35:58.975;599616378339092356;13738.348;72
2024-05-22T19:35:58.983;599616378346784633;13746.04;107
2024-05-22T19:35:58.990;599616378354476910;13753.732;147
2024-05-22T19:35:58.998;599616378362169187;13761.425;144
2024-05-22T19:35:59.006;599616378369861464;13769.116;130
2024-05-22T19:35:59.013;599616378377553741;13776.809;140
2024-05-22T19:35:59.021;599616378385246018;13784.501;161
2024-05-22T19:35:59.029;599616378392938295;13792.193;172
2024-05-22T19:35:59.036;599616378400630572;13799.886;149
2024-05-22T19:35:59.044;599616378408322849;13807.578;123
2024-05-22T19:35:59.052;599616378416015126;13815.2705;128
2024-05-22T19:35:59.059;599616378423707403;13822.963;130
2024-05-22T19:35:59.067;599616378431399680;13830.655;107
2024-05-22T19:35:59.075;599616378439091957;13838.348;77
2024-05-22T19:35:59.083;599616378446784234;13846.04;25
2024-05-22T19:35:59.090;599616378454476511;13853.731;-30
2024-05-22T19:35:59.098;599616378462168788;13861.424;-63
2024-05-22T19:35:59.106;599616378469861065;13869.116;-102
2024-05-22T19:35:59.113;599616378477553342;13876.809;-149
2024-05-22T19:35:59.121;599616378485245619;13884.501;-149
2024-05-22T19:35:59.129;599616378492937896;13892.193;-121
2024-05-22T19:35:59.136;599616378500630173;13899.886;-93
2024-05-22T19:35:59.144;599616378508322450;13907.578;-81
2024-05-22T19:35:59.152;599616378516014727;13915.27;-95
2024-05-22T19:35:59.159;599616378523707004;13922.961;-93
2024-05-22T19:35:59.167;599616378531399281;13930.653;-44
2024-05-22T19:35:59.175;599616378539091558;13938.346;11
2024-05-22T19:35:59.183;599616378546783835;13946.038;32
2024-05-22T19:35:59.190;599616378554476112;13953.73;32
2024-05-22T19:35:59.198;599616378562168389;13961.423;30
2024-05-22T19:35:59.206;599616378569860666;13969.115;7
2024-05-22T19:35:59.213;599616378577552943;13976.808;-23
2024-05-22T19:35:59.221;599616378585245220;13984.5;-11
2024-05-22T19:35:59.229;599616378592937497;13992.192;39
2024-05-22T19:35:59.236;599616378600629774;13999.885;58
2024-05-22T19:35:59.244;599616378608322051;14007.576;23
2024-05-22T19:35:59.252;599616378616014328;14015.269;-11
2024-05-22T19:35:59.259;599616378623706605;14022.961;18
2024-05-22T19:35:59.267;599616378631398882;14030.653;189
2024-05-22T19:35:59.275;599616378639091224;14038.346;534
2024-05-22T19:35:59.283;599616378646783501;14046.038;808
2024-05-22T19:35:59.290;599616378654475778;14053.73;614
2024-05-22T19:35:59.298;599616378662168055;14061.423;119
2024-05-22T19:35:59.306;599616378669860332;14069.115;-79
2024-05-22T19:35:59.313;599616378677552609;14076.808;-30
2024-05-22T19:35:59.321;599616378685244886;14084.499;-151
2024-05-22T19:35:59.329;599616378692937163;14092.191;-305
2024-05-22T19:35:59.336;599616378700629440;14099.884;-277
2024-05-22T19:35:59.344;599616378708321717;14107.576;-217
2024-05-22T19:35:59.352;599616378716013994;14115.269;-214
2024-05-22T19:35:59.359;599616378723706271;14122.961;-228
2024-05-22T19:35:59.367;599616378731398548;14130.653;-233
2024-05-22T19:35:59.375;599616378739090825;14138.346;-186
2024-05-22T19:35:59.383;599616378746783102;14146.038;-137
2024-05-22T19:35:59.390;599616378754475379;14153.73;-135
2024-05-22T19:35:59.398;599616378762167656;14161.422;-107
2024-05-22T19:35:59.406;599616378769859933;14169.114;-39
2024-05-22T19:35:59.413;599616378777552210;14176.807;11
2024-05-22T19:35:59.421;599616378785244487;14184.499;35
2024-05-22T19:35:59.429;599616378792936764;14192.191;65
2024-05-22T19:35:59.436;599616378800629041;14199.884;128
2024-05-22T19:35:59.444;599616378808321318;14207.576;205
2024-05-22T19:35:59.452;599616378816013595;14215.269;247
2024-05-22T19:35:59.459;599616378823705872;14222.961;280
2024-05-22T19:35:59.467;599616378831398149;14230.653;333
2024-05-22T19:35:59.475;599616378839090426;14238.346;350
2024-05-22T19:35:59.483;599616378846782703;14246.037;343
2024-05-22T19:35:59.490;599616378854474980;14253.7295;387
2024-05-22T19:35:59.498;599616378862167257;14261.422;434
2024-05-22T19:35:59.506;599616378869859534;14269.114;427
2024-05-22T19:35:59.513;599616378877551811;14276.807;420
2024-05-22T19:35:59.521;599616378885244088;14284.499;432
2024-05-22T19:35:59.529;599616378892936365;14292.191;439
2024-05-22T19:35:59.536;599616378900628642;14299.884;441
2024-05-22T19:35:59.544;599616378908320919;14307.576;439
2024-05-22T19:35:59.552;599616378916013196;14315.269;434
2024-05-22T19:35:59.559;599616378923705473;14322.96;427
2024-05-22T19:35:59.567;599616378931397750;14330.652;376
2024-05-22T19:35:59.575;599616378939090027;14338.345;315
2024-05-22T19:35:59.583;599616378946782304;14346.037;326
2024-05-22T19:35:59.590;599616378954474581;14353.7295;366
2024-05-22T19:35:59.598;599616378962166858;14361.422;359
2024-05-22T19:35:59.606;599616378969859135;14369.114;340
2024-05-22T19:35:59.613;599616378977551412;14376.807;345
2024-05-22T19:35:59.621;599616378985243689;14384.499;352
2024-05-22T19:35:59.629;599616378992935966;14392.191;362
2024-05-22T19:35:59.636;599616379000628243;14399.883;390
2024-05-22T19:35:59.644;599616379008320520;14407.575;394
2024-05-22T19:35:59.652;599616379016012797;14415.268;378
2024-05-22T19:35:59.659;599616379023705074;14422.96;359
2024-05-22T19:35:59.667;599616379031397351;14430.652;348
2024-05-22T19:35:59.675;599616379039089628;14438.345;369
2024-05-22T19:35:59.683;599616379046781905;14446.037;411
2024-05-22T19:35:59.690;599616379054474182;14453.7295;415
2024-05-22T19:35:59.698;599616379062166459;14461.422;383
2024-05-22T19:35:59.706;599616379069858736;14469.114;338
2024-05-22T19:35:59.713;599616379077551013;14476.806;305
2024-05-22T19:35:59.721;599616379085243290;14484.498;284
2024-05-22T19:35:59.729;599616379092935567;14492.19;275
2024-05-22T19:35:59.736;599616379100627844;14499.883;263
2024-05-22T19:35:59.744;599616379108320121;14507.575;212
2024-05-22T19:35:59.752;599616379116012398;14515.268;140
2024-05-22T19:35:59.759;599616379123704675;14522.96;95
2024-05-22T19:35:59.767;599616379131396952;14530.652;46
2024-05-22T19:35:59.775;599616379139089229;14538.345;-28
2024-05-22T19:35:59.783;599616379146781506;14546.037;-67
2024-05-22T19:35:59.790;599616379154473783;14553.7295;-67
2024-05-22T19:35:59.798;599616379162166060;14561.421;-63
2024-05-22T19:35:59.806;599616379169858337;14569.113;-49
2024-05-22T19:35:59.813;599616379177550614;14576.806;-81
2024-05-22T19:35:59.821;599616379185242891;14584.498;-198
2024-05-22T19:35:59.829;599616379192935168;14592.19;-270
2024-05-22T19:35:59.836;599616379200627510;14599.883;-245
2024-05-22T19:35:59.844;599616379208319787;14607.575;-254
2024-05-22T19:35:59.852;599616379216012064;14615.268;-277
2024-05-22T19:35:59.859;599616379223704341;14622.96;-233
2024-05-22T19:35:59.867;599616379231396618;14630.652;-193
2024-05-22T19:35:59.875;599616379239088895;14638.344;-212
2024-05-22T19:35:59.883;599616379246781172;14646.036;-233
2024-05-22T19:35:59.890;599616379254473449;14653.729;-261
2024-05-22T19:35:59.898;599616379262165726;14661.421;-345
2024-05-22T19:35:59.906;599616379269858003;14669.113;-425
2024-05-22T19:35:59.913;599616379277550280;14676.806;-385
2024-05-22T19:35:59.921;599616379285242557;14684.498;-298
2024-05-22T19:35:59.929;599616379292934834;14692.19;-291
2024-05-22T19:35:59.936;599616379300627111;14699.883;-329
2024-05-22T19:35:59.944;599616379308319388;14707.575;-310
2024-05-22T19:35:59.952;599616379316011665;14715.267;-270
2024-05-22T19:35:59.959;599616379323703942;14722.958;-268
2024-05-22T19:35:59.967;599616379331396219;14730.65;-193
2024-05-22T19:35:59.975;599616379339088496;14738.343;81
2024-05-22T19:35:59.983;599616379346780773;14746.035;460
2024-05-22T19:35:59.990;599616379354473050;14753.728;663
2024-05-22T19:35:59.998;599616379362165327;14761.42;441
2024-05-22T19:36:00.006;599616379369857604;14769.112;28
2024-05-22T19:36:00.013;599616379377549881;14776.805;-77
2024-05-22T19:36:00.021;599616379385242158;14784.497;32
2024-05-22T19:36:00.029;599616379392934435;14792.188;14
2024-05-22T19:36:00.036;599616379400626712;14799.881;-23
2024-05-22T19:36:00.044;599616379408318989;14807.573;25
2024-05-22T19:36:00.052;599616379416011266;14815.266;30
2024-05-22T19:36:00.059;599616379423703543;14822.958;-21
2024-05-22T19:36:00.067;599616379431395820;14830.65;-44
2024-05-22T19:36:00.075;599616379439088097;14838.343;-42
2024-05-22T19:36:00.083;599616379446780374;14846.035;-37
2024-05-22T19:36:00.090;599616379454472651;14853.728;-14
2024-05-22T19:36:00.098;599616379462164928;14861.42;63
2024-05-22T19:36:00.106;599616379469857205;14869.111;149
2024-05-22T19:36:00.113;599616379477549482;14876.804;193
2024-05-22T19:36:00.121;599616379485241759;14884.496;219
2024-05-22T19:36:00.129;599616379492934036;14892.188;270
2024-05-22T19:36:00.136;599616379500626313;14899.881;338
2024-05-22T19:36:00.144;599616379508318590;14907.573;380
2024-05-22T19:36:00.152;599616379516010867;14915.266;413
2024-05-22T19:36:00.159;599616379523703144;14922.958;462
2024-05-22T19:36:00.167;599616379531395421;14930.65;485
2024-05-22T19:36:00.175;599616379539087698;14938.343;455
2024-05-22T19:36:00.183;599616379546779975;14946.035;408
2024-05-22T19:36:00.190;599616379554472252;14953.727;401
2024-05-22T19:36:00.198;599616379562164529;14961.419;434
2024-05-22T19:36:00.206;599616379569856806;14969.111;450
2024-05-22T19:36:00.213;599616379577549083;14976.804;462
2024-05-22T19:36:00.221;599616379585241360;14984.496;471
2024-05-22T19:36:00.229;599616379592933637;14992.188;436
2024-05-22T19:36:00.236;599616379600625914;14999.881;420
2024-05-22T19:36:00.244;599616379608318191;15007.573;469
2024-05-22T19:36:00.252;599616379616010468;15015.266;483
2024-05-22T19:36:00.259;599616379623702745;15022.958;441
2024-05-22T19:36:00.267;599616379631395022;15030.649;446
2024-05-22T19:36:00.275;599616379639087299;15038.342;504
2024-05-22T19:36:00.283;599616379646779576;15046.034;518
2024-05-22T19:36:00.290;599616379654471853;15053.727;504
2024-05-22T19:36:00.298;599616379662164130;15061.419;513
2024-05-22T19:36:00.306;599616379669856407;15069.111;490
2024-05-22T19:36:00.313;599616379677548684;15076.804;441
2024-05-22T19:36:00.321;599616379685240961;15084.496;425
2024-05-22T19:36:00.329;599616379692933238;15092.188;383
2024-05-22T19:36:00.336;599616379700625515;15099.881;291
2024-05-22T19:36:00.344;599616379708317792;15107.572;261
2024-05-22T19:36:00.352;599616379716010069;15115.265;268
2024-05-22T19:36:00.359;599616379723702346;15122.957;261
2024-05-22T19:36:00.367;599616379731394623;15130.649;289
2024-05-22T19:36:00.375;599616379739086900;15138.342;312
2024-05-22T19:36:00.383;599616379746779177;15146.034;263
2024-05-22T19:36:00.390;599616379754471454;15153.727;207
2024-05-22T19:36:00.398;599616379762158756;15161.414;184
2024-05-22T19:36:00.406;599616379769851103;15169.105;144
2024-05-22T19:36:00.413;599616379777543450;15176.798;109
2024-05-22T19:36:00.421;599616379785235797;15184.49;114
2024-05-22T19:36:00.429;599616379792928144;15192.183;95
2024-05-22T19:36:00.436;599616379800620491;15199.875;11
2024-05-22T19:36:00.444;599616379808312838;15207.567;-86
2024-05-22T19:36:00.452;599616379816005185;15215.26;-147
2024-05-22T19:36:00.459;599616379823697532;15222.952;-186
2024-05-22T19:36:00.467;599616379831389879;15230.6455;-235
2024-05-22T19:36:00.475;599616379839082226;15238.338;-298
2024-05-22T19:36:00.483;599616379846774573;15246.03;-312
2024-05-22T19:36:00.490;599616379854466920;15253.722;-287
2024-05-22T19:36:00.498;599616379862159267;15261.414;-296
2024-05-22T19:36:00.506;599616379869851614;15269.106;-303
2024-05-22T19:36:00.513;599616379877543961;15276.799;-249
2024-05-22T19:36:00.521;599616379885236308;15284.491;-179
2024-05-22T19:36:00.529;599616379892928655;15292.184;-163
2024-05-22T19:36:00.536;599616379900621002;15299.876;-177
2024-05-22T19:36:00.544;599616379908313349;15307.568;-165
2024-05-22T19:36:00.552;599616379916005696;15315.261;-175
2024-05-22T19:36:00.559;599616379923698043;15322.953;-210
2024-05-22T19:36:00.567;599616379931390390;15330.645;-200
2024-05-22T19:36:00.575;599616379939082737;15338.337;-175
2024-05-22T19:36:00.583;599616379946775084;15346.029;-177
2024-05-22T19:36:00.590;599616379954467431;15353.722;-172
2024-05-22T19:36:00.598;599616379962159778;15361.415;-133
2024-05-22T19:36:00.606;599616379969852125;15369.107;-79
2024-05-22T19:36:00.613;599616379977544472;15376.8;-44
2024-05-22T19:36:00.621;599616379985236819;15384.492;-58
2024-05-22T19:36:00.629;599616379992929166;15392.185;-98
2024-05-22T19:36:00.636;599616380000621513;15399.877;-53
2024-05-22T19:36:00.644;599616380008313860;15407.569;177
2024-05-22T19:36:00.652;599616380016006207;15415.261;555
2024-05-22T19:36:00.659;599616380023698554;15422.953;777
2024-05-22T19:36:00.667;599616380031390901;15430.6455;534
2024-05-22T19:36:00.675;599616380039083248;15438.338;109
2024-05-22T19:36:00.683;599616380046775595;15446.03;28
2024-05-22T19:36:00.690;599616380054467942;15453.723;165
2024-05-22T19:36:00.698;599616380062160289;15461.415;170
2024-05-22T19:36:00.706;599616380069852636;15469.107;112
2024-05-22T19:36:00.713;599616380077544983;15476.8;121
2024-05-22T19:36:00.721;599616380085237330;15484.492;121
2024-05-22T19:36:00.729;599616380092929677;15492.184;114
2024-05-22T19:36:00.736;599616380100622024;15499.877;149
2024-05-22T19:36:00.744;599616380108314371;15507.569;198
2024-05-22T19:36:00.752;599616380116006718;15515.262;240
2024-05-22T19:36:00.759;599616380123699065;15522.954;277
2024-05-22T19:36:00.767;599616380131391412;15530.646;282
2024-05-22T19:36:00.775;599616380139083759;15538.339;280
2024-05-22T19:36:00.783;599616380146776106;15546.031;312
2024-05-22T19:36:00.790;599616380154468453;15553.724;352
2024-05-22T19:36:00.798;599616380162160800;15561.416;348
2024-05-22T19:36:00.806;599616380169853147;15569.108;317
2024-05-22T19:36:00.813;599616380177545494;15576.8;315
2024-05-22T19:36:00.821;599616380185237841;15584.492;340
2024-05-22T19:36:00.829;599616380192930188;15592.185;303
2024-05-22T19:36:00.836;599616380200622535;15599.877;165
2024-05-22T19:36:00.844;599616380208314882;15607.569;74
2024-05-22T19:36:00.852;599616380216007229;15615.262;95
2024-05-22T19:36:00.859;599616380223699576;15622.954;114
2024-05-22T19:36:00.867;599616380231391923;15630.647;119
2024-05-22T19:36:00.875;599616380239084270;15638.34;172
2024-05-22T19:36:00.883;599616380246776617;15646.032;247
2024-05-22T19:36:00.890;599616380254468964;15653.725;284
2024-05-22T19:36:00.898;599616380262161311;15661.416;303
2024-05-22T19:36:00.906;599616380269853658;15669.108;331
2024-05-22T19:36:00.913;599616380277546005;15676.801;348
2024-05-22T19:36:00.921;599616380285238352;15684.493;343
2024-05-22T19:36:00.929;599616380292930699;15692.186;329
2024-05-22T19:36:00.936;599616380300623046;15699.878;338
2024-05-22T19:36:00.944;599616380308315393;15707.57;350
2024-05-22T19:36:00.952;599616380316007740;15715.263;329
2024-05-22T19:36:00.959;599616380323710138;15722.965;319
2024-05-22T19:36:00.967;599616380331402346;15730.657;359
2024-05-22T19:36:00.975;599616380339094554;15738.35;392
2024-05-22T19:36:00.983;599616380346786762;15746.042;390
2024-05-22T19:36:00.990;599616380354478970;15753.734;397
2024-05-22T19:36:00.998;599616380362171178;15761.427;413
2024-05-22T19:36:01.006;599616380369863386;15769.119;376
2024-05-22T19:36:01.013;599616380377555594;15776.81;296
2024-05-22T19:36:01.021;599616380385247802;15784.502;266
2024-05-22T19:36:01.029;599616380392940010;15792.194;319
2024-05-22T19:36:01.036;599616380400632218;15799.887;352
2024-05-22T19:36:01.044;599616380408324426;15807.579;308
2024-05-22T19:36:01.052;599616380416016634;15815.271;259
2024-05-22T19:36:01.059;599616380423708842;15822.964;277
2024-05-22T19:36:01.067;599616380431401050;15830.656;275
2024-05-22T19:36:01.075;599616380439093258;15838.349;203
2024-05-22T19:36:01.083;599616380446785466;15846.041;165
2024-05-22T19:36:01.090;599616380454477674;15853.732;186
2024-05-22T19:36:01.098;599616380462169882;15861.425;189
2024-05-22T19:36:01.106;599616380469862090;15869.117;170
2024-05-22T19:36:01.113;599616380477554298;15876.809;158
2024-05-22T19:36:01.121;599616380485246506;15884.501;137
2024-05-22T19:36:01.129;599616380492938714;15892.193;93
2024-05-22T19:36:01.136;599616380500630922;15899.886;18
2024-05-22T19:36:01.144;599616380508323130;15907.578;-42
2024-05-22T19:36:01.152;599616380516015338;15915.2705;-39
2024-05-22T19:36:01.159;599616380523707546;15922.963;-25
2024-05-22T19:36:01.167;599616380531399754;15930.654;-30
