Phone timestamp;sensor timestamp [ns];timestamp [ms];ecg [uV]
2024-05-23T22:36:17.598;599617119732144182;0.0;1898
2024-05-23T22:36:17.605;599617119739835275;7.691093;3608
2024-05-23T22:36:17.613;599617119747526368;15.382186;4440
2024-05-23T22:36:17.621;599617119755217461;23.07328;5023
2024-05-23T22:36:17.628;599617119762908554;30.764372;5894
2024-05-23T22:36:17.636;599617119770599647;38.455463;6565
2024-05-23T22:36:17.644;599617119778290740;46.14656;7084
2024-05-23T22:36:17.651;599617119785981833;53.83765;7720
2024-05-23T22:36:17.659;599617119793672926;61.528744;8310
2024-05-23T22:36:17.667;599617119801364019;69.21984;8752
2024-05-23T22:36:17.674;599617119809055112;76.91093;9193
2024-05-23T22:36:17.682;599617119816746205;84.60202;9690
2024-05-23T22:36:17.690;599617119824437298;92.29312;10127
2024-05-23T22:36:17.697;599617119832128391;99.98421;10490
2024-05-23T22:36:17.705;599617119839819484;107.6753;10915
2024-05-23T22:36:17.713;599617119847510577;115.366394;11335
2024-05-23T22:36:17.721;599617119855201670;123.05749;11617
2024-05-23T22:36:17.728;599617119862892763;130.74858;11879
2024-05-23T22:36:17.736;599617119870583856;138.43968;12239
2024-05-23T22:36:17.744;599617119878274949;146.13077;12606
2024-05-23T22:36:17.751;599617119885966042;153.82185;12897
2024-05-23T22:36:17.759;599617119893657135;161.51295;13113
2024-05-23T22:36:17.767;599617119901348228;169.20404;13329
2024-05-23T22:36:17.774;599617119909039321;176.89514;13594
2024-05-23T22:36:17.782;599617119916730414;184.58624;13812
2024-05-23T22:36:17.790;599617119924421507;192.27733;13965
2024-05-23T22:36:17.797;599617119932112600;199.96841;14226
2024-05-23T22:36:17.805;599617119939803693;207.6595;14477
2024-05-23T22:36:17.813;599617119947494786;215.3506;14549
2024-05-23T22:36:17.821;599617119955185879;223.0417;14707
2024-05-23T22:36:17.828;599617119962876972;230.73279;15141
2024-05-23T22:36:17.836;599617119970568065;238.42389;15713
2024-05-23T22:36:17.844;599617119978259158;246.11497;16149
2024-05-23T22:36:17.851;599617119985950251;253.80606;16089
2024-05-23T22:36:17.859;599617119993641344;261.49716;15541
2024-05-23T22:36:17.867;599617120001332437;269.18826;15178
2024-05-23T22:36:17.874;599617120009023530;276.87936;15288
2024-05-23T22:36:17.882;599617120016714623;284.57043;15411
2024-05-23T22:36:17.890;599617120024405716;292.26154;15518
2024-05-23T22:36:17.897;599617120032096809;299.95264;15648
2024-05-23T22:36:17.905;599617120039787902;307.6437;15583
2024-05-23T22:36:17.913;599617120047478995;315.3348;15566
2024-05-23T22:36:17.921;599617120055170088;323.0259;15657
2024-05-23T22:36:17.928;599617120062861181;330.71698;15606
2024-05-23T22:36:17.936;599617120070552274;338.40808;15562
2024-05-23T22:36:17.944;599617120078243367;346.0992;15594
2024-05-23T22:36:17.951;599617120085934460;353.79028;15590
2024-05-23T22:36:17.959;599617120093625553;361.48138;15555
2024-05-23T22:36:17.967;599617120101316646;369.1725;15499
2024-05-23T22:36:17.974;599617120109007739;376.86356;15490
2024-05-23T22:36:17.982;599617120116698832;384.55466;15587
2024-05-23T22:36:17.990;599617120124389925;392.24573;15578
2024-05-23T22:36:17.997;599617120132081018;399.93683;15404
2024-05-23T22:36:18.005;599617120139772111;407.62793;15367
2024-05-23T22:36:18.013;599617120147463204;415.319;15455
2024-05-23T22:36:18.021;599617120155154297;423.0101;15397
2024-05-23T22:36:18.028;599617120162845390;430.7012;15301
2024-05-23T22:36:18.036;599617120170536483;438.39227;15318
2024-05-23T22:36:18.044;599617120178227576;446.0834;15315
2024-05-23T22:36:18.051;599617120185918669;453.7745;15341
2024-05-23T22:36:18.059;599617120193609762;461.46558;15283
2024-05-23T22:36:18.067;599617120201300855;469.15668;14976
2024-05-23T22:36:18.074;599617120208991948;476.84778;14858
2024-05-23T22:36:18.082;599617120216683041;484.53885;14881
2024-05-23T22:36:18.090;599617120224374134;492.22995;14725
2024-05-23T22:36:18.097;599617120232065227;499.92105;14718
2024-05-23T22:36:18.105;599617120239756320;507.61212;14730
2024-05-23T22:36:18.113;599617120247447413;515.3032;14428
2024-05-23T22:36:18.120;599617120255138506;522.9943;14270
2024-05-23T22:36:18.128;599617120262829599;530.6854;14360
2024-05-23T22:36:18.136;599617120270520692;538.3765;14256
2024-05-23T22:36:18.144;599617120278211785;546.06757;14038
2024-05-23T22:36:18.151;599617120285902878;553.7587;13965
2024-05-23T22:36:18.159;599617120293553896;561.4097;13968
2024-05-23T22:36:18.167;599617120301245546;569.1014;13940
2024-05-23T22:36:18.174;599617120308937196;576.793;13810
2024-05-23T22:36:18.182;599617120316628846;584.4847;13629
2024-05-23T22:36:18.190;599617120324320496;592.17633;13580
2024-05-23T22:36:18.197;599617120332012146;599.868;13554
2024-05-23T22:36:18.205;599617120339703796;607.55963;13394
2024-05-23T22:36:18.213;599617120347395446;615.2513;13329
2024-05-23T22:36:18.220;599617120355087096;622.94293;13426
2024-05-23T22:36:18.228;599617120362778746;630.6346;13299
2024-05-23T22:36:18.236;599617120370470396;638.32623;12911
2024-05-23T22:36:18.244;599617120378162046;646.0179;12743
2024-05-23T22:36:18.251;599617120385853696;653.70953;12818
2024-05-23T22:36:18.259;599617120393545346;661.4011;12743
2024-05-23T22:36:18.267;599617120401236996;669.0928;12527
2024-05-23T22:36:18.274;599617120408928646;676.7844;12400
2024-05-23T22:36:18.282;599617120416620296;684.4761;12358
2024-05-23T22:36:18.290;599617120424311946;692.1677;12258
2024-05-23T22:36:18.297;599617120432003596;699.8594;12111
2024-05-23T22:36:18.305;599617120439695246;707.551;12060
2024-05-23T22:36:18.313;599617120447386896;715.2427;12018
2024-05-23T22:36:18.320;599617120455078546;722.9343;11837
2024-05-23T22:36:18.328;599617120462770196;730.626;11661
2024-05-23T22:36:18.336;599617120470461846;738.3177;11630
2024-05-23T22:36:18.344;599617120478153496;746.00934;11644
2024-05-23T22:36:18.351;599617120485845146;753.701;11519
2024-05-23T22:36:18.359;599617120493536796;761.39264;11289
2024-05-23T22:36:18.367;599617120501228446;769.0843;11163
2024-05-23T22:36:18.374;599617120508920096;776.77594;11119
2024-05-23T22:36:18.382;599617120516611746;784.4676;10994
2024-05-23T22:36:18.390;599617120524303396;792.15924;10861
2024-05-23T22:36:18.397;599617120531995046;799.8509;10822
2024-05-23T22:36:18.405;599617120539686696;807.54254;10750
2024-05-23T22:36:18.413;599617120547378346;815.2342;10557
2024-05-23T22:36:18.420;599617120555069996;822.92584;10392
2024-05-23T22:36:18.428;599617120562761646;830.6175;10336
2024-05-23T22:36:18.436;599617120570453296;838.30914;10355
2024-05-23T22:36:18.444;599617120578144946;846.0008;10548
2024-05-23T22:36:18.451;599617120585836596;853.69244;10866
2024-05-23T22:36:18.459;599617120593528246;861.3841;10885
2024-05-23T22:36:18.467;599617120601219896;869.0757;10399
2024-05-23T22:36:18.474;599617120608911546;876.76733;9823
2024-05-23T22:36:18.482;599617120616603196;884.459;9584
2024-05-23T22:36:18.490;599617120624294846;892.15063;9542
2024-05-23T22:36:18.497;599617120631986496;899.8423;9391
2024-05-23T22:36:18.505;599617120639678146;907.53394;9170
2024-05-23T22:36:18.513;599617120647369796;915.2256;9070
2024-05-23T22:36:18.520;599617120655061446;922.91724;9040
2024-05-23T22:36:18.528;599617120662753096;930.6089;8945
2024-05-23T22:36:18.536;599617120670444746;938.30054;8821
2024-05-23T22:36:18.543;599617120678136396;945.9922;8773
2024-05-23T22:36:18.551;599617120685828046;953.68384;8752
2024-05-23T22:36:18.559;599617120693519696;961.3755;8568
2024-05-23T22:36:18.567;599617120701211346;969.06714;8278
2024-05-23T22:36:18.574;599617120708902996;976.7588;8127
2024-05-23T22:36:18.582;599617120716594646;984.45044;8076
2024-05-23T22:36:18.590;599617120724286296;992.14215;7985
2024-05-23T22:36:18.597;599617120731977946;999.8338;7820
2024-05-23T22:36:18.605;599617120739669596;1007.52545;7660
2024-05-23T22:36:18.613;599617120747361246;1015.2171;7602
2024-05-23T22:36:18.620;599617120755052896;1022.90875;7548
2024-05-23T22:36:18.628;599617120762744546;1030.6003;7451
2024-05-23T22:36:18.636;599617120770436196;1038.292;7386
2024-05-23T22:36:18.643;599617120778127846;1045.9836;7323
2024-05-23T22:36:18.651;599617120785819496;1053.6753;7216
2024-05-23T22:36:18.659;599617120793511146;1061.367;7123
2024-05-23T22:36:18.667;599617120801202796;1069.0586;7095
2024-05-23T22:36:18.674;599617120808894446;1076.7502;7077
2024-05-23T22:36:18.682;599617120816586096;1084.4419;6963
2024-05-23T22:36:18.690;599617120824277746;1092.1335;6821
2024-05-23T22:36:18.697;599617120831969396;1099.8252;6784
2024-05-23T22:36:18.705;599617120839661046;1107.517;6761
2024-05-23T22:36:18.713;599617120847352696;1115.2086;6654
2024-05-23T22:36:18.720;599617120855074502;1122.9303;6577
2024-05-23T22:36:18.728;599617120862765734;1130.6216;6535
2024-05-23T22:36:18.736;599617120870456966;1138.3129;6424
2024-05-23T22:36:18.744;599617120878148198;1146.004;6303
2024-05-23T22:36:18.751;599617120885839430;1153.6952;6247
2024-05-23T22:36:18.759;599617120893530662;1161.3865;6222
2024-05-23T22:36:18.767;599617120901221894;1169.0778;6175
2024-05-23T22:36:18.774;599617120908913126;1176.7689;6075
2024-05-23T22:36:18.782;599617120916604358;1184.4602;5975
2024-05-23T22:36:18.790;599617120924295590;1192.1514;5971
2024-05-23T22:36:18.797;599617120931986822;1199.8427;5936
2024-05-23T22:36:18.805;599617120939678054;1207.5338;5736
2024-05-23T22:36:18.813;599617120947369286;1215.2251;5611
2024-05-23T22:36:18.820;599617120955060518;1222.9164;5622
2024-05-23T22:36:18.828;599617120962751750;1230.6077;5557
2024-05-23T22:36:18.836;599617120970442982;1238.2987;5453
2024-05-23T22:36:18.843;599617120978134214;1245.99;5383
2024-05-23T22:36:18.851;599617120985825446;1253.6813;5288
2024-05-23T22:36:18.859;599617120993516678;1261.3726;5227
2024-05-23T22:36:18.867;599617121001207910;1269.0637;5178
2024-05-23T22:36:18.874;599617121008899142;1276.755;5095
2024-05-23T22:36:18.882;599617121016590374;1284.4462;5055
2024-05-23T22:36:18.890;599617121024281606;1292.1375;5039
2024-05-23T22:36:18.897;599617121031972838;1299.8286;4986
2024-05-23T22:36:18.905;599617121039664070;1307.5199;4948
2024-05-23T22:36:18.913;599617121047355302;1315.2112;4909
2024-05-23T22:36:18.920;599617121055046534;1322.9023;4804
2024-05-23T22:36:18.928;599617121062737766;1330.5935;4725
2024-05-23T22:36:18.936;599617121070428998;1338.2848;4723
2024-05-23T22:36:18.943;599617121078120230;1345.9761;4702
2024-05-23T22:36:18.951;599617121085811462;1353.6674;4628
2024-05-23T22:36:18.959;599617121093502694;1361.3585;4553
2024-05-23T22:36:18.967;599617121101193926;1369.0497;4512
2024-05-23T22:36:18.974;599617121108885158;1376.741;4488
2024-05-23T22:36:18.982;599617121116576390;1384.4323;4449
2024-05-23T22:36:18.990;599617121124267622;1392.1234;4414
2024-05-23T22:36:18.997;599617121131958854;1399.8147;4398
2024-05-23T22:36:19.005;599617121139650086;1407.5059;4342
2024-05-23T22:36:19.013;599617121147341318;1415.1971;4251
2024-05-23T22:36:19.020;599617121155032550;1422.8883;4207
2024-05-23T22:36:19.028;599617121162723782;1430.5796;4200
2024-05-23T22:36:19.036;599617121170415014;1438.2709;4163
2024-05-23T22:36:19.043;599617121178106246;1445.9622;4089
2024-05-23T22:36:19.051;599617121185797478;1453.6532;4010
2024-05-23T22:36:19.059;599617121193488710;1461.3445;3977
2024-05-23T22:36:19.067;599617121201179942;1469.0358;4019
2024-05-23T22:36:19.074;599617121208871174;1476.727;4170
2024-05-23T22:36:19.082;599617121216562406;1484.4182;4446
2024-05-23T22:36:19.090;599617121224253638;1492.1095;4446
2024-05-23T22:36:19.097;599617121231944870;1499.8007;3914
2024-05-23T22:36:19.105;599617121239636102;1507.492;3452
2024-05-23T22:36:19.113;599617121247327334;1515.1831;3454
2024-05-23T22:36:19.120;599617121255018566;1522.8744;3466
2024-05-23T22:36:19.128;599617121262709798;1530.5657;3306
2024-05-23T22:36:19.136;599617121270401030;1538.2568;3243
2024-05-23T22:36:19.143;599617121278092262;1545.948;3248
2024-05-23T22:36:19.151;599617121285783494;1553.6393;3185
2024-05-23T22:36:19.159;599617121293474726;1561.3306;3143
2024-05-23T22:36:19.167;599617121301165958;1569.0219;3136
2024-05-23T22:36:19.174;599617121308857190;1576.713;3115
2024-05-23T22:36:19.182;599617121316548422;1584.4042;3099
2024-05-23T22:36:19.190;599617121324239654;1592.0955;3045
2024-05-23T22:36:19.197;599617121331930886;1599.7867;2939
2024-05-23T22:36:19.205;599617121339622118;1607.4779;2892
2024-05-23T22:36:19.213;599617121347313350;1615.1692;2864
2024-05-23T22:36:19.220;599617121355004582;1622.8605;2771
2024-05-23T22:36:19.228;599617121362695814;1630.5516;2711
2024-05-23T22:36:19.236;599617121370387046;1638.2428;2706
2024-05-23T22:36:19.243;599617121378078278;1645.9341;2676
2024-05-23T22:36:19.251;599617121385769510;1653.6254;2630
2024-05-23T22:36:19.259;599617121393460742;1661.3167;2611
2024-05-23T22:36:19.267;599617121401151974;1669.0077;2616
2024-05-23T22:36:19.274;599617121408843206;1676.699;2604
2024-05-23T22:36:19.282;599617121416519444;1684.3752;2551
2024-05-23T22:36:19.290;599617121424210885;1692.0667;2511
2024-05-23T22:36:19.297;599617121431902326;1699.758;2518
2024-05-23T22:36:19.305;599617121439593767;1707.4496;2506
2024-05-23T22:36:19.313;599617121447285208;1715.141;2462
2024-05-23T22:36:19.320;599617121454976649;1722.8325;2455
2024-05-23T22:36:19.328;599617121462668090;1730.5239;2448
2024-05-23T22:36:19.336;599617121470359531;1738.2153;2321
2024-05-23T22:36:19.343;599617121478050972;1745.9069;2151
2024-05-23T22:36:19.351;599617121485742413;1753.5983;2118
2024-05-23T22:36:19.359;599617121493433854;1761.2897;2151
2024-05-23T22:36:19.366;599617121501125295;1768.9811;2105
2024-05-23T22:36:19.374;599617121508816736;1776.6725;2039
2024-05-23T22:36:19.382;599617121516508177;1784.364;2035
2024-05-23T22:36:19.390;599617121524199618;1792.0554;2053
2024-05-23T22:36:19.397;599617121531891059;1799.7468;2046
2024-05-23T22:36:19.405;599617121539582500;1807.4384;2037
2024-05-23T22:36:19.413;599617121547273941;1815.1298;2039
2024-05-23T22:36:19.420;599617121554965382;1822.8213;2035
2024-05-23T22:36:19.428;599617121562656823;1830.5127;2009
2024-05-23T22:36:19.436;599617121570348264;1838.204;1988
2024-05-23T22:36:19.443;599617121578039705;1845.8955;1998
2024-05-23T22:36:19.451;599617121585731146;1853.5869;2014
2024-05-23T22:36:19.459;599617121593422587;1861.2784;1995
2024-05-23T22:36:19.466;599617121601114028;1868.9698;1958
2024-05-23T22:36:19.474;599617121608805469;1876.6613;1956
2024-05-23T22:36:19.482;599617121616496910;1884.3528;1972
2024-05-23T22:36:19.490;599617121624188351;1892.0442;1949
2024-05-23T22:36:19.497;599617121631879792;1899.7356;1916
2024-05-23T22:36:19.505;599617121639571233;1907.4271;1923
2024-05-23T22:36:19.513;599617121647262674;1915.1184;1916
2024-05-23T22:36:19.520;599617121654954115;1922.8099;1879
2024-05-23T22:36:19.528;599617121662645556;1930.5013;1872
2024-05-23T22:36:19.536;599617121670336997;1938.1927;1884
2024-05-23T22:36:19.543;599617121678028438;1945.8843;1865
2024-05-23T22:36:19.551;599617121685719879;1953.5757;1833
2024-05-23T22:36:19.559;599617121693411320;1961.2672;1816
2024-05-23T22:36:19.566;599617121701102761;1968.9586;1807
2024-05-23T22:36:19.574;599617121708794202;1976.65;1754
2024-05-23T22:36:19.582;599617121716485643;1984.3416;1633
2024-05-23T22:36:19.590;599617121724177084;1992.0328;1563
2024-05-23T22:36:19.597;599617121731868525;1999.7242;1591
2024-05-23T22:36:19.605;599617121739559966;2007.4158;1586
2024-05-23T22:36:19.613;599617121747251407;2015.1072;1561
2024-05-23T22:36:19.620;599617121754942848;2022.7987;1584
2024-05-23T22:36:19.628;599617121762634289;2030.4901;1596
2024-05-23T22:36:19.636;599617121770325730;2038.1815;1568
2024-05-23T22:36:19.643;599617121778017171;2045.873;1552
2024-05-23T22:36:19.651;599617121785708612;2053.5645;1552
2024-05-23T22:36:19.659;599617121793400053;2061.2559;1538
2024-05-23T22:36:19.666;599617121801091494;2068.9473;1514
2024-05-23T22:36:19.674;599617121808782935;2076.6387;1477
2024-05-23T22:36:19.682;599617121816474376;2084.3303;1456
2024-05-23T22:36:19.690;599617121824165817;2092.0217;1559
2024-05-23T22:36:19.697;599617121831857258;2099.7131;1868
2024-05-23T22:36:19.705;599617121839548699;2107.4045;2258
2024-05-23T22:36:19.713;599617121847240140;2115.096;2311
2024-05-23T22:36:19.720;599617121854931581;2122.7874;1814
2024-05-23T22:36:19.728;599617121862623022;2130.4788;1294
2024-05-23T22:36:19.736;599617121870314463;2138.1702;1219
2024-05-23T22:36:19.743;599617121878005904;2145.8618;1301
2024-05-23T22:36:19.751;599617121885697345;2153.5532;1238
2024-05-23T22:36:19.759;599617121893388786;2161.2446;1177
2024-05-23T22:36:19.766;599617121901080227;2168.936;1198
2024-05-23T22:36:19.774;599617121908771668;2176.6274;1203
2024-05-23T22:36:19.782;599617121916463109;2184.319;1170
2024-05-23T22:36:19.790;599617121924154550;2192.0103;1124
2024-05-23T22:36:19.797;599617121931845991;2199.7017;1082
2024-05-23T22:36:19.805;599617121939537432;2207.3933;1057
2024-05-23T22:36:19.813;599617121947228873;2215.0847;1029
2024-05-23T22:36:19.820;599617121954920314;2222.7761;992
2024-05-23T22:36:19.828;599617121962611755;2230.4675;936
2024-05-23T22:36:19.836;599617121970303196;2238.1592;885
2024-05-23T22:36:19.843;599617121978024790;2245.8806;873
2024-05-23T22:36:19.851;599617121985715813;2253.5715;875
2024-05-23T22:36:19.859;599617121993406836;2261.2627;873
2024-05-23T22:36:19.866;599617122001097859;2268.9536;894
2024-05-23T22:36:19.874;599617122008788882;2276.6445;906
2024-05-23T22:36:19.882;599617122016479905;2284.3357;878
2024-05-23T22:36:19.890;599617122024170928;2292.0266;871
2024-05-23T22:36:19.897;599617122031861951;2299.7178;899
2024-05-23T22:36:19.905;599617122039552974;2307.409;873
2024-05-23T22:36:19.913;599617122047243997;2315.0999;785
2024-05-23T22:36:19.920;599617122054935020;2322.791;755
2024-05-23T22:36:19.928;599617122062626043;2330.482;785
2024-05-23T22:36:19.936;599617122070317066;2338.1729;771
2024-05-23T22:36:19.943;599617122078008089;2345.864;759
2024-05-23T22:36:19.951;599617122085699112;2353.555;799
2024-05-23T22:36:19.959;599617122093390135;2361.2458;827
2024-05-23T22:36:19.966;599617122101081158;2368.937;799
2024-05-23T22:36:19.974;599617122108772181;2376.628;752
2024-05-23T22:36:19.982;599617122116463204;2384.319;738
2024-05-23T22:36:19.990;599617122124154227;2392.01;752
2024-05-23T22:36:19.997;599617122131845250;2399.701;745
2024-05-23T22:36:20.005;599617122139536273;2407.392;734
2024-05-23T22:36:20.013;599617122147227296;2415.083;755
2024-05-23T22:36:20.020;599617122154918319;2422.774;764
2024-05-23T22:36:20.028;599617122162609342;2430.4653;748
2024-05-23T22:36:20.036;599617122170300365;2438.1562;750
2024-05-23T22:36:20.043;599617122177991388;2445.8474;778
2024-05-23T22:36:20.051;599617122185682411;2453.5383;794
2024-05-23T22:36:20.059;599617122193373434;2461.2292;787
2024-05-23T22:36:20.066;599617122201064457;2468.9204;759
2024-05-23T22:36:20.074;599617122208755480;2476.6113;697
2024-05-23T22:36:20.082;599617122216446503;2484.3022;611
2024-05-23T22:36:20.089;599617122224137526;2491.9934;550
2024-05-23T22:36:20.097;599617122231828549;2499.6843;559
2024-05-23T22:36:20.105;599617122239519572;2507.3752;592
2024-05-23T22:36:20.113;599617122247210595;2515.0664;594
2024-05-23T22:36:20.120;599617122254901618;2522.7573;592
2024-05-23T22:36:20.128;599617122262592641;2530.4485;620
2024-05-23T22:36:20.136;599617122270283664;2538.1394;645
2024-05-23T22:36:20.143;599617122277974687;2545.8303;655
2024-05-23T22:36:20.151;599617122285665710;2553.5215;650
2024-05-23T22:36:20.159;599617122293356733;2561.2126;643
2024-05-23T22:36:20.166;599617122301047756;2568.9036;648
2024-05-23T22:36:20.174;599617122308738779;2576.5947;662
2024-05-23T22:36:20.182;599617122316429802;2584.2856;669
2024-05-23T22:36:20.189;599617122324120825;2591.9768;680
2024-05-23T22:36:20.197;599617122331811848;2599.6677;703
2024-05-23T22:36:20.205;599617122339502871;2607.3586;710
2024-05-23T22:36:20.213;599617122347193894;2615.0498;706
2024-05-23T22:36:20.220;599617122354884917;2622.7407;717
2024-05-23T22:36:20.228;599617122362575940;2630.4316;734
2024-05-23T22:36:20.236;599617122370266963;2638.1228;734
2024-05-23T22:36:20.243;599617122377957986;2645.8137;724
2024-05-23T22:36:20.251;599617122385649009;2653.505;717
2024-05-23T22:36:20.259;599617122393340032;2661.1958;713
2024-05-23T22:36:20.266;599617122401031055;2668.8867;692
2024-05-23T22:36:20.274;599617122408722078;2676.578;673
2024-05-23T22:36:20.282;599617122416413101;2684.2688;806
2024-05-23T22:36:20.289;599617122424104124;2691.96;1219
2024-05-23T22:36:20.297;599617122431795147;2699.6511;1675
2024-05-23T22:36:20.305;599617122439486170;2707.342;1644
2024-05-23T22:36:20.313;599617122447177193;2715.0332;1031
2024-05-23T22:36:20.320;599617122454868216;2722.724;457
2024-05-23T22:36:20.328;599617122462559239;2730.415;404
2024-05-23T22:36:20.336;599617122470250262;2738.1062;518
2024-05-23T22:36:20.343;599617122477941285;2745.797;460
2024-05-23T22:36:20.351;599617122485632308;2753.488;408
2024-05-23T22:36:20.359;599617122493323331;2761.1792;434
2024-05-23T22:36:20.366;599617122501014354;2768.87;434
2024-05-23T22:36:20.374;599617122508705377;2776.561;420
2024-05-23T22:36:20.382;599617122516396400;2784.2522;401
2024-05-23T22:36:20.389;599617122524087423;2791.943;350
2024-05-23T22:36:20.397;599617122531778446;2799.6343;311
2024-05-23T22:36:20.405;599617122539444396;2807.3;311
2024-05-23T22:36:20.412;599617122547135768;2814.9917;309
2024-05-23T22:36:20.420;599617122554827140;2822.6829;285
2024-05-23T22:36:20.428;599617122562518512;2830.3745;278
2024-05-23T22:36:20.436;599617122570209884;2838.0657;285
2024-05-23T22:36:20.443;599617122577901256;2845.757;248
2024-05-23T22:36:20.451;599617122585592628;2853.4485;188
2024-05-23T22:36:20.459;599617122593284000;2861.1396;195
2024-05-23T22:36:20.466;599617122600975372;2868.8313;248
2024-05-23T22:36:20.474;599617122608666744;2876.5225;250
2024-05-23T22:36:20.482;599617122616358116;2884.214;230
2024-05-23T22:36:20.489;599617122624049488;2891.9053;255
2024-05-23T22:36:20.497;599617122631740860;2899.5967;302
2024-05-23T22:36:20.505;599617122639432232;2907.288;320
2024-05-23T22:36:20.512;599617122647123604;2914.9792;327
2024-05-23T22:36:20.520;599617122654814976;2922.671;355
2024-05-23T22:36:20.528;599617122662506348;2930.362;362
2024-05-23T22:36:20.536;599617122670197720;2938.0537;339
2024-05-23T22:36:20.543;599617122677889092;2945.7449;348
2024-05-23T22:36:20.551;599617122685580464;2953.4363;381
2024-05-23T22:36:20.559;599617122693271836;2961.1277;378
2024-05-23T22:36:20.566;599617122700963208;2968.8188;318
2024-05-23T22:36:20.574;599617122708654580;2976.5105;234
2024-05-23T22:36:20.582;599617122716345952;2984.2017;167
2024-05-23T22:36:20.589;599617122724037324;2991.8933;130
2024-05-23T22:36:20.597;599617122731728696;2999.5845;127
2024-05-23T22:36:20.605;599617122739420068;3007.276;153
2024-05-23T22:36:20.612;599617122747111440;3014.9673;195
2024-05-23T22:36:20.620;599617122754802812;3022.6584;211
2024-05-23T22:36:20.628;599617122762494184;3030.35;199
2024-05-23T22:36:20.636;599617122770185556;3038.0413;223
2024-05-23T22:36:20.643;599617122777876928;3045.733;276
2024-05-23T22:36:20.651;599617122785568300;3053.424;311
2024-05-23T22:36:20.659;599617122793259672;3061.1155;320
2024-05-23T22:36:20.666;599617122800951044;3068.807;315
2024-05-23T22:36:20.674;599617122808642416;3076.4983;322
2024-05-23T22:36:20.682;599617122816333788;3084.1897;353
2024-05-23T22:36:20.689;599617122824025160;3091.8809;369
2024-05-23T22:36:20.697;599617122831716532;3099.5723;385
2024-05-23T22:36:20.705;599617122839407904;3107.2637;413
2024-05-23T22:36:20.712;599617122847099276;3114.955;406
2024-05-23T22:36:20.720;599617122854790648;3122.6465;392
2024-05-23T22:36:20.728;599617122862482020;3130.338;422
2024-05-23T22:36:20.736;599617122870173392;3138.0293;443
2024-05-23T22:36:20.743;599617122877864764;3145.7205;443
2024-05-23T22:36:20.751;599617122885556136;3153.4119;448
2024-05-23T22:36:20.759;599617122893247508;3161.1033;453
2024-05-23T22:36:20.766;599617122900938880;3168.7947;462
2024-05-23T22:36:20.774;599617122908630252;3176.486;473
2024-05-23T22:36:20.782;599617122916321624;3184.1775;485
2024-05-23T22:36:20.789;599617122924012996;3191.869;506
2024-05-23T22:36:20.797;599617122931704368;3199.5603;520
2024-05-23T22:36:20.805;599617122939395740;3207.2515;504
2024-05-23T22:36:20.812;599617122947087112;3214.9429;462
2024-05-23T22:36:20.820;599617122954778484;3222.6343;443
2024-05-23T22:36:20.828;599617122962469856;3230.3257;469
2024-05-23T22:36:20.836;599617122970161228;3238.017;473
2024-05-23T22:36:20.843;599617122977852600;3245.7085;413
2024-05-23T22:36:20.851;599617122985543972;3253.4;388
2024-05-23T22:36:20.859;599617122993235344;3261.091;580
2024-05-23T22:36:20.866;599617123000926716;3268.7825;1085
2024-05-23T22:36:20.874;599617123008618088;3276.4739;1549
2024-05-23T22:36:20.882;599617123016309460;3284.1653;1398
2024-05-23T22:36:20.889;599617123024000832;3291.8567;685
2024-05-23T22:36:20.897;599617123031692204;3299.5479;185
2024-05-23T22:36:20.905;599617123039383576;3307.2395;241
2024-05-23T22:36:20.912;599617123047074948;3314.9307;355
2024-05-23T22:36:20.920;599617123054766320;3322.6223;285
2024-05-23T22:36:20.928;599617123062457692;3330.3135;260
2024-05-23T22:36:20.936;599617123070149064;3338.005;281
2024-05-23T22:36:20.943;599617123077840436;3345.6963;264
2024-05-23T22:36:20.951;599617123085531808;3353.3875;232
2024-05-23T22:36:20.959;599617123093223180;3361.079;199
2024-05-23T22:36:20.966;599617123100914560;3368.7703;169
2024-05-23T22:36:20.974;599617123108605932;3376.462;137
2024-05-23T22:36:20.982;599617123116297304;3384.153;111
2024-05-23T22:36:20.989;599617123123988676;3391.8447;95
2024-05-23T22:36:20.997;599617123131680048;3399.536;88
2024-05-23T22:36:21.005;599617123139371420;3407.227;113
2024-05-23T22:36:21.012;599617123147062792;3414.9187;116
2024-05-23T22:36:21.020;599617123154754164;3422.6099;53
2024-05-23T22:36:21.028;599617123162445536;3430.3015;20
2024-05-23T22:36:21.035;599617123170136908;3437.9927;46
2024-05-23T22:36:21.043;599617123177828280;3445.6843;76
2024-05-23T22:36:21.051;599617123185519652;3453.3755;65
2024-05-23T22:36:21.059;599617123193211024;3461.0667;41
2024-05-23T22:36:21.066;599617123200902396;3468.7583;55
2024-05-23T22:36:21.074;599617123208593768;3476.4495;62
2024-05-23T22:36:21.082;599617123216285140;3484.141;6
2024-05-23T22:36:21.089;599617123223976512;3491.8323;-34
2024-05-23T22:36:21.097;599617123231667884;3499.5237;-9
2024-05-23T22:36:21.105;599617123239359256;3507.215;16
2024-05-23T22:36:21.112;599617123247050628;3514.9062;16
2024-05-23T22:36:21.120;599617123254742000;3522.598;51
2024-05-23T22:36:21.128;599617123262433372;3530.289;69
2024-05-23T22:36:21.135;599617123270124744;3537.9807;51
2024-05-23T22:36:21.143;599617123277816116;3545.6719;41
2024-05-23T22:36:21.151;599617123285507488;3553.3633;53
2024-05-23T22:36:21.159;599617123293198860;3561.0547;92
2024-05-23T22:36:21.166;599617123300890232;3568.746;104
2024-05-23T22:36:21.174;599617123308581604;3576.4375;65
2024-05-23T22:36:21.182;599617123316272976;3584.1287;83
2024-05-23T22:36:21.189;599617123323964348;3591.8203;162
2024-05-23T22:36:21.197;599617123331655720;3599.5115;188
2024-05-23T22:36:21.205;599617123339347092;3607.203;195
2024-05-23T22:36:21.212;599617123347038464;3614.8943;220
2024-05-23T22:36:21.220;599617123354729836;3622.5857;230
2024-05-23T22:36:21.228;599617123362421208;3630.277;248
2024-05-23T22:36:21.235;599617123370112580;3637.9685;267
2024-05-23T22:36:21.243;599617123377803952;3645.6597;278
2024-05-23T22:36:21.251;599617123385495324;3653.351;332
2024-05-23T22:36:21.259;599617123393186696;3661.0425;371
2024-05-23T22:36:21.266;599617123400878068;3668.734;336
2024-05-23T22:36:21.274;599617123408569440;3676.4253;306
2024-05-23T22:36:21.282;599617123416260812;3684.1167;320
2024-05-23T22:36:21.289;599617123423952184;3691.808;348
2024-05-23T22:36:21.297;599617123431643556;3699.4993;367
2024-05-23T22:36:21.305;599617123439334928;3707.1907;343
2024-05-23T22:36:21.312;599617123447026300;3714.882;297
2024-05-23T22:36:21.320;599617123454717672;3722.5735;267
2024-05-23T22:36:21.328;599617123462409044;3730.265;267
2024-05-23T22:36:21.335;599617123470100416;3737.9563;325
2024-05-23T22:36:21.343;599617123477791788;3745.6477;362
2024-05-23T22:36:21.351;599617123485483160;3753.3389;336
2024-05-23T22:36:21.359;599617123493174532;3761.0305;350
2024-05-23T22:36:21.366;599617123500865904;3768.7217;362
2024-05-23T22:36:21.374;599617123508557276;3776.413;348
2024-05-23T22:36:21.382;599617123516248648;3784.1045;394
2024-05-23T22:36:21.389;599617123523940020;3791.7957;425
2024-05-23T22:36:21.397;599617123531631392;3799.4873;378
2024-05-23T22:36:21.405;599617123539322764;3807.1785;329
2024-05-23T22:36:21.412;599617123547014136;3814.87;315
2024-05-23T22:36:21.420;599617123554705508;3822.5613;492
2024-05-23T22:36:21.428;599617123562396880;3830.2527;1026
2024-05-23T22:36:21.435;599617123570088252;3837.944;1526
2024-05-23T22:36:21.443;599617123577779624;3845.6353;1366
2024-05-23T22:36:21.451;599617123585470996;3853.327;648
2024-05-23T22:36:21.459;599617123593162368;3861.018;230
2024-05-23T22:36:21.466;599617123600853740;3868.7097;376
2024-05-23T22:36:21.474;599617123608545112;3876.401;457
2024-05-23T22:36:21.482;599617123616236484;3884.0925;334
2024-05-23T22:36:21.489;599617123623927856;3891.7837;315
2024-05-23T22:36:21.497;599617123631619228;3899.4749;306
2024-05-23T22:36:21.505;599617123639310600;3907.1665;248
2024-05-23T22:36:21.512;599617123647001972;3914.8577;271
2024-05-23T22:36:21.520;599617123654693344;3922.5493;309
2024-05-23T22:36:21.528;599617123662384724;3930.2405;292
2024-05-23T22:36:21.535;599617123670076096;3937.9321;285
2024-05-23T22:36:21.543;599617123677767468;3945.6233;278
2024-05-23T22:36:21.551;599617123685458840;3953.3145;225
2024-05-23T22:36:21.559;599617123693150212;3961.006;181
2024-05-23T22:36:21.566;599617123700841584;3968.6973;169
2024-05-23T22:36:21.574;599617123708532956;3976.389;148
2024-05-23T22:36:21.582;599617123716224328;3984.08;125
2024-05-23T22:36:21.589;599617123723915700;3991.7715;76
2024-05-23T22:36:21.597;599617123731607072;3999.463;-16
2024-05-23T22:36:21.605;599617123739298444;4007.1543;-60
2024-05-23T22:36:21.612;599617123746989816;4014.8457;-51
2024-05-23T22:36:21.620;599617123754681188;4022.5369;-88
2024-05-23T22:36:21.628;599617123762372560;4030.2285;-123
2024-05-23T22:36:21.635;599617123770063932;4037.9197;-95
2024-05-23T22:36:21.643;599617123777755304;4045.611;-74
2024-05-23T22:36:21.651;599617123785446676;4053.3025;-78
2024-05-23T22:36:21.658;599617123793138048;4060.994;-53
2024-05-23T22:36:21.666;599617123800829420;4068.6853;-18
2024-05-23T22:36:21.674;599617123808520792;4076.3765;-13
2024-05-23T22:36:21.682;599617123816212164;4084.068;-25
2024-05-23T22:36:21.689;599617123823903536;4091.7593;-4
2024-05-23T22:36:21.697;599617123831594908;4099.4507;27
2024-05-23T22:36:21.705;599617123839286280;4107.142;23
2024-05-23T22:36:21.712;599617123846977652;4114.8335;18
2024-05-23T22:36:21.720;599617123854669024;4122.525;34
2024-05-23T22:36:21.728;599617123862360396;4130.2163;44
2024-05-23T22:36:21.735;599617123870051768;4137.9077;46
2024-05-23T22:36:21.743;599617123877743140;4145.599;74
2024-05-23T22:36:21.751;599617123885434512;4153.29;106
2024-05-23T22:36:21.758;599617123893125884;4160.982;123
2024-05-23T22:36:21.766;599617123900817256;4168.673;123
2024-05-23T22:36:21.774;599617123908508628;4176.3647;127
2024-05-23T22:36:21.782;599617123916200000;4184.0557;155
2024-05-23T22:36:21.789;599617123923891372;4191.747;169
2024-05-23T22:36:21.797;599617123931582744;4199.4385;144
2024-05-23T22:36:21.805;599617123939274116;4207.13;137
2024-05-23T22:36:21.812;599617123946965488;4214.8213;162
2024-05-23T22:36:21.820;599617123954656860;4222.5127;183
2024-05-23T22:36:21.828;599617123962348232;4230.204;183
2024-05-23T22:36:21.835;599617123970039604;4237.8955;188
2024-05-23T22:36:21.843;599617123977730976;4245.587;223
2024-05-23T22:36:21.851;599617123985422348;4253.2783;264
2024-05-23T22:36:21.858;599617123993113720;4260.969;274
2024-05-23T22:36:21.866;599617124000805092;4268.661;255
2024-05-23T22:36:21.874;599617124008496464;4276.352;260
2024-05-23T22:36:21.882;599617124016187836;4284.044;288
2024-05-23T22:36:21.889;599617124023879208;4291.735;299
2024-05-23T22:36:21.897;599617124031570580;4299.4263;311
2024-05-23T22:36:21.905;599617124039261952;4307.1177;320
2024-05-23T22:36:21.912;599617124046953324;4314.8096;290
2024-05-23T22:36:21.920;599617124054644696;4322.5005;262
2024-05-23T22:36:21.928;599617124062336068;4330.192;292
2024-05-23T22:36:21.935;599617124070027440;4337.8833;329
2024-05-23T22:36:21.943;599617124077718812;4345.574;332
2024-05-23T22:36:21.951;599617124085410184;4353.266;327
2024-05-23T22:36:21.958;599617124093101556;4360.9575;329
2024-05-23T22:36:21.966;599617124100792928;4368.649;341
2024-05-23T22:36:21.974;599617124108484300;4376.34;348
2024-05-23T22:36:21.982;599617124116175672;4384.0317;346
2024-05-23T22:36:21.989;599617124123867044;4391.723;360
2024-05-23T22:36:21.997;599617124131558416;4399.414;390
2024-05-23T22:36:22.005;599617124139249788;4407.1055;381
2024-05-23T22:36:22.012;599617124146941160;4414.797;355
2024-05-23T22:36:22.020;599617124154632532;4422.489;350
2024-05-23T22:36:22.028;599617124162323904;4430.1797;334
2024-05-23T22:36:22.035;599617124170015276;4437.871;397
2024-05-23T22:36:22.043;599617124177706648;4445.5625;703
2024-05-23T22:36:22.051;599617124185398020;4453.2534;1166
2024-05-23T22:36:22.058;599617124193089392;4460.9453;1382
2024-05-23T22:36:22.066;599617124200780764;4468.6367;1001
2024-05-23T22:36:22.074;599617124208472136;4476.328;381
2024-05-23T22:36:22.082;599617124216163508;4484.019;218
2024-05-23T22:36:22.089;599617124223834872;4491.6904;350
2024-05-23T22:36:22.097;599617124231526522;4499.3823;230
2024-05-23T22:36:22.105;599617124239218172;4507.074;30
2024-05-23T22:36:22.112;599617124246909822;4514.7656;53
2024-05-23T22:36:22.120;599617124254601472;4522.457;104
2024-05-23T22:36:22.128;599617124262293122;4530.149;72
2024-05-23T22:36:22.135;599617124269984772;4537.841;72
2024-05-23T22:36:22.143;599617124277676422;4545.532;97
2024-05-23T22:36:22.151;599617124285368072;4553.2236;69
2024-05-23T22:36:22.158;599617124293059722;4560.9155;2
2024-05-23T22:36:22.166;599617124300751372;4568.6074;-30
2024-05-23T22:36:22.174;599617124308443022;4576.299;-2
2024-05-23T22:36:22.181;599617124316134672;4583.99;-13
2024-05-23T22:36:22.189;599617124323826322;4591.682;-81
2024-05-23T22:36:22.197;599617124331517972;4599.374;-120
2024-05-23T22:36:22.205;599617124339209622;4607.0654;-113
2024-05-23T22:36:22.212;599617124346901272;4614.757;-102
2024-05-23T22:36:22.220;599617124354592922;4622.4487;-102
2024-05-23T22:36:22.228;599617124362284572;4630.1406;-99
2024-05-23T22:36:22.235;599617124369976222;4637.832;-90
2024-05-23T22:36:22.243;599617124377667872;4645.5234;-72
2024-05-23T22:36:22.251;599617124385359522;4653.2153;-60
2024-05-23T22:36:22.258;599617124393051172;4660.907;-37
2024-05-23T22:36:22.266;599617124400742822;4668.5986;-2
2024-05-23T22:36:22.274;599617124408434472;4676.29;-4
2024-05-23T22:36:22.281;599617124416126122;4683.982;-46
2024-05-23T22:36:22.289;599617124423817772;4691.674;-81
2024-05-23T22:36:22.297;599617124431509422;4699.365;-78
2024-05-23T22:36:22.305;599617124439201072;4707.0566;-44
2024-05-23T22:36:22.312;599617124446892722;4714.7485;-23
2024-05-23T22:36:22.320;599617124454584372;4722.4404;-25
2024-05-23T22:36:22.328;599617124462276022;4730.132;-11
2024-05-23T22:36:22.335;599617124469967672;4737.8237;4
2024-05-23T22:36:22.343;599617124477659322;4745.515;13
2024-05-23T22:36:22.351;599617124485350972;4753.2065;51
2024-05-23T22:36:22.358;599617124493042622;4760.8984;97
2024-05-23T22:36:22.366;599617124500734272;4768.5903;104
2024-05-23T22:36:22.374;599617124508425922;4776.2817;97
2024-05-23T22:36:22.381;599617124516117572;4783.973;120
2024-05-23T22:36:22.389;599617124523809222;4791.665;157
2024-05-23T22:36:22.397;599617124531500872;4799.357;181
2024-05-23T22:36:22.405;599617124539192522;4807.0483;199
2024-05-23T22:36:22.412;599617124546884172;4814.7397;216
2024-05-23T22:36:22.420;599617124554575822;4822.4316;220
2024-05-23T22:36:22.428;599617124562267472;4830.1235;223
2024-05-23T22:36:22.435;599617124569959122;4837.815;234
2024-05-23T22:36:22.443;599617124577650772;4845.5063;271
2024-05-23T22:36:22.451;599617124585342422;4853.198;299
2024-05-23T22:36:22.458;599617124593034072;4860.89;283
2024-05-23T22:36:22.466;599617124600725722;4868.5815;274
2024-05-23T22:36:22.474;599617124608417372;4876.273;299
2024-05-23T22:36:22.481;599617124616109022;4883.965;311
2024-05-23T22:36:22.489;599617124623800672;4891.6567;309
2024-05-23T22:36:22.497;599617124631492322;4899.348;339
2024-05-23T22:36:22.505;599617124639183972;4907.0396;374
2024-05-23T22:36:22.512;599617124646875622;4914.7314;350
2024-05-23T22:36:22.520;599617124654567272;4922.4233;325
2024-05-23T22:36:22.528;599617124662258922;4930.1147;329
2024-05-23T22:36:22.535;599617124669950572;4937.806;318
2024-05-23T22:36:22.543;599617124677642222;4945.498;283
2024-05-23T22:36:22.551;599617124685333872;4953.19;262
2024-05-23T22:36:22.558;599617124693025522;4960.8813;274
2024-05-23T22:36:22.566;599617124700717172;4968.5728;306
2024-05-23T22:36:22.574;599617124708408822;4976.2646;327
2024-05-23T22:36:22.581;599617124716100472;4983.9565;336
2024-05-23T22:36:22.589;599617124723792122;4991.648;355
2024-05-23T22:36:22.597;599617124731483772;4999.3394;371
2024-05-23T22:36:22.605;599617124739175422;5007.0312;327
2024-05-23T22:36:22.612;599617124746867072;5014.723;248
2024-05-23T22:36:22.620;599617124754558722;5022.4146;236
2024-05-23T22:36:22.628;599617124762250372;5030.106;281
2024-05-23T22:36:22.635;599617124769942022;5037.798;292
2024-05-23T22:36:22.643;599617124777633672;5045.4897;253
2024-05-23T22:36:22.651;599617124785335388;5053.1914;230
2024-05-23T22:36:22.658;599617124793026899;5060.883;362
2024-05-23T22:36:22.666;599617124800718410;5068.574;750
2024-05-23T22:36:22.674;599617124808409921;5076.266;1208
2024-05-23T22:36:22.681;599617124816101432;5083.957;1315
2024-05-23T22:36:22.689;599617124823792943;5091.6484;855
2024-05-23T22:36:22.697;599617124831484454;5099.3403;267
2024-05-23T22:36:22.705;599617124839175965;5107.0317;127
2024-05-23T22:36:22.712;599617124846867476;5114.723;239
2024-05-23T22:36:22.720;599617124854558987;5122.4146;211
2024-05-23T22:36:22.728;599617124862250498;5130.1064;139
2024-05-23T22:36:22.735;599617124869942009;5137.798;120
2024-05-23T22:36:22.743;599617124877633520;5145.4893;106
2024-05-23T22:36:22.751;599617124885325031;5153.1807;113
2024-05-23T22:36:22.758;599617124893016542;5160.8726;125
2024-05-23T22:36:22.766;599617124900708053;5168.5635;127
2024-05-23T22:36:22.774;599617124908399564;5176.2554;151
2024-05-23T22:36:22.781;599617124916091075;5183.947;134
2024-05-23T22:36:22.789;599617124923782586;5191.6387;65
2024-05-23T22:36:22.797;599617124931474097;5199.3296;58
2024-05-23T22:36:22.805;599617124939165608;5207.0215;95
2024-05-23T22:36:22.812;599617124946857119;5214.713;76
2024-05-23T22:36:22.820;599617124954548630;5222.405;27
2024-05-23T22:36:22.828;599617124962240141;5230.0957;9
2024-05-23T22:36:22.835;599617124969931652;5237.7876;-9
2024-05-23T22:36:22.843;599617124977623163;5245.479;-13
2024-05-23T22:36:22.851;599617124985314674;5253.171;0
2024-05-23T22:36:22.858;599617124993006185;5260.862;18
2024-05-23T22:36:22.866;599617125000697696;5268.5537;46
2024-05-23T22:36:22.874;599617125008389207;5276.245;51
2024-05-23T22:36:22.881;599617125016080718;5283.937;16
2024-05-23T22:36:22.889;599617125023772229;5291.628;18
2024-05-23T22:36:22.897;599617125031463740;5299.32;74
2024-05-23T22:36:22.905;599617125039155251;5307.011;83
2024-05-23T22:36:22.912;599617125046846762;5314.702;60
2024-05-23T22:36:22.920;599617125054538273;5322.394;83
2024-05-23T22:36:22.928;599617125062229784;5330.0854;99
2024-05-23T22:36:22.935;599617125069921295;5337.7773;76
2024-05-23T22:36:22.943;599617125077612806;5345.4683;83
2024-05-23T22:36:22.951;599617125085304317;5353.16;127
2024-05-23T22:36:22.958;599617125092995828;5360.8516;144
2024-05-23T22:36:22.966;599617125100687339;5368.5435;123
2024-05-23T22:36:22.974;599617125108378850;5376.2344;109
2024-05-23T22:36:22.981;599617125116070361;5383.9263;137
2024-05-23T22:36:22.989;599617125123761872;5391.6177;174
2024-05-23T22:36:22.997;599617125131453383;5399.309;171
2024-05-23T22:36:23.005;599617125139144894;5407.0005;167
2024-05-23T22:36:23.012;599617125146836405;5414.6924;192
2024-05-23T22:36:23.020;599617125154527916;5422.384;199
2024-05-23T22:36:23.028;599617125162219427;5430.075;160
2024-05-23T22:36:23.035;599617125169910938;5437.7666;153
2024-05-23T22:36:23.043;599617125177602449;5445.4585;192
2024-05-23T22:36:23.051;599617125185293960;5453.15;213
2024-05-23T22:36:23.058;599617125192985471;5460.8413;202
2024-05-23T22:36:23.066;599617125200676982;5468.5327;197
2024-05-23T22:36:23.074;599617125208368493;5476.2246;218
2024-05-23T22:36:23.081;599617125216060004;5483.916;253
2024-05-23T22:36:23.089;599617125223751515;5491.6074;260
2024-05-23T22:36:23.097;599617125231443026;5499.299;257
2024-05-23T22:36:23.104;599617125239134537;5506.9907;264
2024-05-23T22:36:23.112;599617125246826048;5514.6816;192
2024-05-23T22:36:23.120;599617125254517559;5522.3735;99
2024-05-23T22:36:23.128;599617125262209070;5530.065;132
2024-05-23T22:36:23.135;599617125269900581;5537.7563;199
2024-05-23T22:36:23.143;599617125277592092;5545.4478;185
2024-05-23T22:36:23.151;599617125285283603;5553.139;171
2024-05-23T22:36:23.158;599617125292975114;5560.831;202
2024-05-23T22:36:23.166;599617125300666625;5568.5225;223
2024-05-23T22:36:23.174;599617125308358136;5576.214;227
2024-05-23T22:36:23.181;599617125316049647;5583.9053;227
2024-05-23T22:36:23.189;599617125323741158;5591.597;243
2024-05-23T22:36:23.197;599617125331432669;5599.288;267
2024-05-23T22:36:23.204;599617125339124180;5606.98;267
2024-05-23T22:36:23.212;599617125346825734;5614.6816;260
2024-05-23T22:36:23.220;599617125354517106;5622.373;288
2024-05-23T22:36:23.228;599617125362208478;5630.064;343
2024-05-23T22:36:23.235;599617125369899850;5637.756;357
2024-05-23T22:36:23.243;599617125377591222;5645.4473;332
2024-05-23T22:36:23.251;599617125385282594;5653.1387;315
2024-05-23T22:36:23.258;599617125392973966;5660.8296;325
2024-05-23T22:36:23.266;599617125400665338;5668.521;341
2024-05-23T22:36:23.274;599617125408356710;5676.213;327
2024-05-23T22:36:23.281;599617125416048082;5683.904;295
2024-05-23T22:36:23.289;599617125423739454;5691.595;267
2024-05-23T22:36:23.297;599617125431430826;5699.2866;250
2024-05-23T22:36:23.304;599617125439122198;5706.978;362
2024-05-23T22:36:23.312;599617125446813570;5714.6694;727
2024-05-23T22:36:23.320;599617125454504942;5722.361;1124
2024-05-23T22:36:23.328;599617125462196314;5730.0522;1094
2024-05-23T22:36:23.335;599617125469887686;5737.743;571
2024-05-23T22:36:23.343;599617125477579058;5745.4346;141
2024-05-23T22:36:23.351;599617125485270430;5753.1265;125
2024-05-23T22:36:23.358;599617125492961802;5760.818;155
2024-05-23T22:36:23.366;599617125500653174;5768.509;76
2024-05-23T22:36:23.374;599617125508344546;5776.2;81
2024-05-23T22:36:23.381;599617125516035918;5783.892;116
2024-05-23T22:36:23.389;599617125523727290;5791.583;88
2024-05-23T22:36:23.397;599617125531418662;5799.2744;85
2024-05-23T22:36:23.404;599617125539110034;5806.966;123
2024-05-23T22:36:23.412;599617125546801406;5814.657;139
2024-05-23T22:36:23.420;599617125554492778;5822.3486;134
2024-05-23T22:36:23.428;599617125562184150;5830.04;125
2024-05-23T22:36:23.435;599617125569875522;5837.7314;99
2024-05-23T22:36:23.443;599617125577566894;5845.4224;69
2024-05-23T22:36:23.451;599617125585258266;5853.114;32
2024-05-23T22:36:23.458;599617125592949638;5860.8057;16
2024-05-23T22:36:23.466;599617125600641010;5868.497;44
2024-05-23T22:36:23.474;599617125608332382;5876.188;44
2024-05-23T22:36:23.481;599617125616023754;5883.8794;13
2024-05-23T22:36:23.489;599617125623715126;5891.571;30
2024-05-23T22:36:23.497;599617125631406498;5899.2627;69
2024-05-23T22:36:23.504;599617125639097870;5906.9536;74
2024-05-23T22:36:23.512;599617125646789242;5914.645;65
2024-05-23T22:36:23.520;599617125654480614;5922.3364;27
2024-05-23T22:36:23.528;599617125662171986;5930.028;-16
2024-05-23T22:36:23.535;599617125669863358;5937.719;-11
2024-05-23T22:36:23.543;599617125677554730;5945.4106;18
2024-05-23T22:36:23.551;599617125685246102;5953.102;44
2024-05-23T22:36:23.558;599617125692937474;5960.793;62
2024-05-23T22:36:23.566;599617125700628846;5968.485;74
2024-05-23T22:36:23.574;599617125708320218;5976.1763;67
2024-05-23T22:36:23.581;599617125716011590;5983.867;76
2024-05-23T22:36:23.589;599617125723702962;5991.5586;97
2024-05-23T22:36:23.597;599617125731394334;5999.25;97
2024-05-23T22:36:23.604;599617125739085706;6006.942;81
2024-05-23T22:36:23.612;599617125746777078;6014.633;23
2024-05-23T22:36:23.620;599617125754468450;6022.324;-62
2024-05-23T22:36:23.628;599617125762159822;6030.0156;-67
2024-05-23T22:36:23.635;599617125769851194;6037.707;-4
2024-05-23T22:36:23.643;599617125777542566;6045.3984;32
2024-05-23T22:36:23.651;599617125785233938;6053.09;41
2024-05-23T22:36:23.658;599617125792925310;6060.7812;51
2024-05-23T22:36:23.666;599617125800616682;6068.472;60
2024-05-23T22:36:23.674;599617125808308054;6076.164;85
2024-05-23T22:36:23.681;599617125815999426;6083.8555;118
2024-05-23T22:36:23.689;599617125823690798;6091.5464;137
2024-05-23T22:36:23.697;599617125831382170;6099.238;153
2024-05-23T22:36:23.704;599617125839073542;6106.929;174
2024-05-23T22:36:23.712;599617125846764914;6114.621;174
2024-05-23T22:36:23.720;599617125854456286;6122.312;169
2024-05-23T22:36:23.728;599617125862147658;6130.0034;192
2024-05-23T22:36:23.735;599617125869839030;6137.695;230
2024-05-23T22:36:23.743;599617125877530402;6145.3857;243
2024-05-23T22:36:23.751;599617125885221774;6153.0776;239
2024-05-23T22:36:23.758;599617125892913146;6160.769;218
2024-05-23T22:36:23.766;599617125900604518;6168.4604;188
2024-05-23T22:36:23.774;599617125908321026;6176.177;162
2024-05-23T22:36:23.781;599617125916012049;6183.8677;169
2024-05-23T22:36:23.789;599617125923703072;6191.5586;197
2024-05-23T22:36:23.797;599617125931394095;6199.25;209
2024-05-23T22:36:23.804;599617125939085118;6206.9414;155
2024-05-23T22:36:23.812;599617125946776141;6214.632;81
2024-05-23T22:36:23.820;599617125954467164;6222.323;85
2024-05-23T22:36:23.828;599617125962158187;6230.014;125
2024-05-23T22:36:23.835;599617125969849210;6237.705;88
2024-05-23T22:36:23.843;599617125977540233;6245.396;32
2024-05-23T22:36:23.851;599617125985231256;6253.0874;48
2024-05-23T22:36:23.858;599617125992922279;6260.778;78
2024-05-23T22:36:23.866;599617126000613302;6268.469;48
2024-05-23T22:36:23.874;599617126008304325;6276.16;23
2024-05-23T22:36:23.881;599617126015995348;6283.851;55
2024-05-23T22:36:23.889;599617126023686371;6291.542;76
2024-05-23T22:36:23.897;599617126031377394;6299.2334;58
2024-05-23T22:36:23.904;599617126039068417;6306.924;65
2024-05-23T22:36:23.912;599617126046759440;6314.615;109
2024-05-23T22:36:23.920;599617126054450463;6322.306;132
2024-05-23T22:36:23.927;599617126062141486;6329.997;109
2024-05-23T22:36:23.935;599617126069832509;6337.6885;69
2024-05-23T22:36:23.943;599617126077523532;6345.3794;99
2024-05-23T22:36:23.951;599617126085214555;6353.071;346
2024-05-23T22:36:23.958;599617126092905578;6360.761;787
2024-05-23T22:36:23.966;599617126100596601;6368.4526;1017
2024-05-23T22:36:23.974;599617126108287624;6376.1436;673
2024-05-23T22:36:23.981;599617126115978647;6383.8345;116
2024-05-23T22:36:23.989;599617126123669670;6391.5254;-44
2024-05-23T22:36:23.997;599617126131360693;6399.217;74
2024-05-23T22:36:24.004;599617126139051716;6406.907;72
2024-05-23T22:36:24.012;599617126146742739;6414.5986;-30
2024-05-23T22:36:24.020;599617126154433762;6422.2896;-85
2024-05-23T22:36:24.027;599617126162124785;6429.9805;-113
2024-05-23T22:36:24.035;599617126169815808;6437.6714;-139
2024-05-23T22:36:24.043;599617126177506831;6445.363;-167
2024-05-23T22:36:24.051;599617126185197854;6453.053;-178
2024-05-23T22:36:24.058;599617126192888877;6460.7446;-162
2024-05-23T22:36:24.066;599617126200579900;6468.436;-132
2024-05-23T22:36:24.074;599617126208270923;6476.127;-127
2024-05-23T22:36:24.081;599617126215961946;6483.818;-153
2024-05-23T22:36:24.089;599617126223652969;6491.509;-137
2024-05-23T22:36:24.097;599617126231343992;6499.2;-88
2024-05-23T22:36:24.104;599617126239035015;6506.8906;-74
2024-05-23T22:36:24.112;599617126246726038;6514.582;-85
2024-05-23T22:36:24.120;599617126254417061;6522.273;-125
2024-05-23T22:36:24.127;599617126262108084;6529.964;-190
2024-05-23T22:36:24.135;599617126269799107;6537.655;-192
2024-05-23T22:36:24.143;599617126277490130;6545.346;-144
2024-05-23T22:36:24.151;599617126285181153;6553.0366;-113
2024-05-23T22:36:24.158;599617126292872176;6560.728;-88
2024-05-23T22:36:24.166;599617126300563199;6568.419;-62
2024-05-23T22:36:24.174;599617126308254222;6576.11;-58
2024-05-23T22:36:24.181;599617126315945245;6583.801;-41
2024-05-23T22:36:24.189;599617126323636268;6591.492;-6
2024-05-23T22:36:24.197;599617126331327291;6599.1836;11
2024-05-23T22:36:24.204;599617126339018314;6606.874;27
2024-05-23T22:36:24.212;599617126346709337;6614.5654;51
2024-05-23T22:36:24.220;599617126354400360;6622.2563;53
2024-05-23T22:36:24.227;599617126362091383;6629.9473;44
2024-05-23T22:36:24.235;599617126369782406;6637.638;53
2024-05-23T22:36:24.243;599617126377473429;6645.3296;74
2024-05-23T22:36:24.251;599617126385164452;6653.02;76
2024-05-23T22:36:24.258;599617126392855475;6660.7114;34
2024-05-23T22:36:24.266;599617126400546498;6668.4023;-4
2024-05-23T22:36:24.274;599617126408237521;6676.0933;18
2024-05-23T22:36:24.281;599617126415928544;6683.784;53
2024-05-23T22:36:24.289;599617126423619567;6691.4756;53
2024-05-23T22:36:24.297;599617126431310590;6699.166;74
2024-05-23T22:36:24.304;599617126439001613;6706.8574;106
2024-05-23T22:36:24.312;599617126446692636;6714.5483;109
2024-05-23T22:36:24.320;599617126454383659;6722.2393;104
2024-05-23T22:36:24.327;599617126462074682;6729.9307;127
2024-05-23T22:36:24.335;599617126469715574;6737.5713;155
2024-05-23T22:36:24.343;599617126477407294;6745.263;171
2024-05-23T22:36:24.350;599617126485099014;6752.955;169
2024-05-23T22:36:24.358;599617126492790734;6760.6465;160
2024-05-23T22:36:24.366;599617126500482454;6768.3384;171
2024-05-23T22:36:24.374;599617126508174174;6776.0303;157
2024-05-23T22:36:24.381;599617126515865894;6783.7217;92
2024-05-23T22:36:24.389;599617126523557614;6791.413;76
2024-05-23T22:36:24.397;599617126531249334;6799.105;120
2024-05-23T22:36:24.404;599617126538941054;6806.797;109
2024-05-23T22:36:24.412;599617126546632774;6814.489;78
2024-05-23T22:36:24.420;599617126554324494;6822.18;123
2024-05-23T22:36:24.427;599617126562016214;6829.872;171
2024-05-23T22:36:24.435;599617126569707934;6837.564;162
2024-05-23T22:36:24.443;599617126577399654;6845.256;160
2024-05-23T22:36:24.450;599617126585091374;6852.947;178
2024-05-23T22:36:24.458;599617126592783094;6860.6387;183
2024-05-23T22:36:24.466;599617126600474814;6868.3306;197
2024-05-23T22:36:24.474;599617126608166534;6876.0225;218
2024-05-23T22:36:24.481;599617126615858254;6883.714;234
2024-05-23T22:36:24.489;599617126623549974;6891.406;255
2024-05-23T22:36:24.497;599617126631241694;6899.0977;246
2024-05-23T22:36:24.504;599617126638933414;6906.7896;206
2024-05-23T22:36:24.512;599617126646625134;6914.481;185
2024-05-23T22:36:24.520;599617126654316854;6922.1724;176
2024-05-23T22:36:24.527;599617126662008574;6929.8643;106
2024-05-23T22:36:24.535;599617126669700294;6937.556;39
2024-05-23T22:36:24.543;599617126677392014;6945.2476;137
2024-05-23T22:36:24.550;599617126685083734;6952.9395;511
2024-05-23T22:36:24.558;599617126692775454;6960.6313;1001
2024-05-23T22:36:24.566;599617126700467174;6968.323;1124
2024-05-23T22:36:24.574;599617126708158894;6976.0146;636
2024-05-23T22:36:24.581;599617126715850614;6983.7065;62
2024-05-23T22:36:24.589;599617126723542334;6991.3984;-30
2024-05-23T22:36:24.597;599617126731234054;6999.09;81
2024-05-23T22:36:24.604;599617126738925774;7006.7812;13
2024-05-23T22:36:24.612;599617126746617494;7014.473;-72
2024-05-23T22:36:24.620;599617126754309214;7022.165;-116
2024-05-23T22:36:24.627;599617126762000934;7029.857;-223
2024-05-23T22:36:24.635;599617126769692654;7037.5483;-269
2024-05-23T22:36:24.643;599617126777384374;7045.24;-225
2024-05-23T22:36:24.650;599617126785076094;7052.932;-211
2024-05-23T22:36:24.658;599617126792767814;7060.624;-202
2024-05-23T22:36:24.666;599617126800459534;7068.315;-160
2024-05-23T22:36:24.674;599617126808151254;7076.007;-148
2024-05-23T22:36:24.681;599617126815842974;7083.6987;-162
2024-05-23T22:36:24.689;599617126823534694;7091.3906;-134
2024-05-23T22:36:24.697;599617126831226414;7099.082;-90
2024-05-23T22:36:24.704;599617126838918134;7106.774;-81
2024-05-23T22:36:24.712;599617126846609854;7114.466;-72
2024-05-23T22:36:24.720;599617126854301574;7122.1577;-37
2024-05-23T22:36:24.727;599617126861993294;7129.849;-20
2024-05-23T22:36:24.735;599617126869685014;7137.5405;-18
2024-05-23T22:36:24.743;599617126877376734;7145.2324;-4
2024-05-23T22:36:24.750;599617126885068454;7152.9243;-4
2024-05-23T22:36:24.758;599617126892760174;7160.6157;-16
2024-05-23T22:36:24.766;599617126900451894;7168.3076;-11
2024-05-23T22:36:24.773;599617126908143614;7175.9995;-9
2024-05-23T22:36:24.781;599617126915835334;7183.6914;9
2024-05-23T22:36:24.789;599617126923527054;7191.383;48
2024-05-23T22:36:24.797;599617126931218774;7199.0747;67
2024-05-23T22:36:24.804;599617126938910494;7206.766;72
2024-05-23T22:36:24.812;599617126946602214;7214.458;92
2024-05-23T22:36:24.820;599617126954293934;7222.1494;95
2024-05-23T22:36:24.827;599617126961985654;7229.8413;76
2024-05-23T22:36:24.835;599617126969677374;7237.533;76
2024-05-23T22:36:24.843;599617126977369094;7245.225;99
2024-05-23T22:36:24.850;599617126985060814;7252.9165;113
2024-05-23T22:36:24.858;599617126992752534;7260.6084;102
2024-05-23T22:36:24.866;599617127000444254;7268.3003;95
2024-05-23T22:36:24.873;599617127008135974;7275.9917;123
2024-05-23T22:36:24.881;599617127015827694;7283.683;153
2024-05-23T22:36:24.889;599617127023519414;7291.375;153
2024-05-23T22:36:24.897;599617127031266322;7299.122;157
2024-05-23T22:36:24.904;599617127038957276;7306.813;181
2024-05-23T22:36:24.912;599617127046648230;7314.5044;185
2024-05-23T22:36:24.920;599617127054339184;7322.195;176
2024-05-23T22:36:24.927;599617127062030138;7329.886;202
2024-05-23T22:36:24.935;599617127069721092;7337.577;236
2024-05-23T22:36:24.943;599617127077412046;7345.2676;234
2024-05-23T22:36:24.950;599617127085103000;7352.959;223
2024-05-23T22:36:24.958;599617127092793954;7360.65;223
2024-05-23T22:36:24.966;599617127100484908;7368.3403;218
2024-05-23T22:36:24.974;599617127108175862;7376.0317;190
2024-05-23T22:36:24.981;599617127115866816;7383.7227;151
2024-05-23T22:36:24.989;599617127123557770;7391.4136;137
2024-05-23T22:36:24.997;599617127131248724;7399.1045;123
2024-05-23T22:36:25.004;599617127138939678;7406.7954;67
2024-05-23T22:36:25.012;599617127146630632;7414.4863;44
2024-05-23T22:36:25.020;599617127154321586;7422.1772;88
2024-05-23T22:36:25.027;599617127162012540;7429.8687;125
2024-05-23T22:36:25.035;599617127169703494;7437.559;130
2024-05-23T22:36:25.043;599617127177394448;7445.25;139
2024-05-23T22:36:25.050;599617127185085402;7452.9414;155
2024-05-23T22:36:25.058;599617127192776356;7460.632;174
2024-05-23T22:36:25.066;599617127200467310;7468.323;188
2024-05-23T22:36:25.074;599617127208158264;7476.014;185
2024-05-23T22:36:25.081;599617127215849218;7483.7046;178
2024-05-23T22:36:25.089;599617127223540172;7491.396;153
2024-05-23T22:36:25.097;599617127231231126;7499.087;120
2024-05-23T22:36:25.104;599617127238922080;7506.7783;109
2024-05-23T22:36:25.112;599617127246613034;7514.4688;102
2024-05-23T22:36:25.120;599617127254303988;7522.1597;62
2024-05-23T22:36:25.127;599617127261994942;7529.851;76
2024-05-23T22:36:25.135;599617127269685896;7537.5415;381
2024-05-23T22:36:25.143;599617127277376850;7545.233;915
2024-05-23T22:36:25.150;599617127285067804;7552.924;1112
2024-05-23T22:36:25.158;599617127292758758;7560.6143;599
2024-05-23T22:36:25.166;599617127300449712;7568.3057;-85
2024-05-23T22:36:25.173;599617127308140666;7575.9966;-209
2024-05-23T22:36:25.181;599617127315831620;7583.6875;-62
2024-05-23T22:36:25.189;599617127323522574;7591.3784;-155
2024-05-23T22:36:25.197;599617127331213528;7599.0693;-248
2024-05-23T22:36:25.204;599617127338904482;7606.7603;-174
2024-05-23T22:36:25.212;599617127346595436;7614.451;-151
2024-05-23T22:36:25.220;599617127354286390;7622.142;-171
2024-05-23T22:36:25.227;599617127361977344;7629.833;-137
2024-05-23T22:36:25.235;599617127369668298;7637.524;-132
2024-05-23T22:36:25.243;599617127377359252;7645.2153;-183
2024-05-23T22:36:25.250;599617127385050206;7652.906;-202
2024-05-23T22:36:25.258;599617127392741160;7660.5967;-155
2024-05-23T22:36:25.266;599617127400432114;7668.288;-116
2024-05-23T22:36:25.273;599617127408123068;7675.9785;-118
2024-05-23T22:36:25.281;599617127415814022;7683.67;-123
2024-05-23T22:36:25.289;599617127423504976;7691.361;-88
2024-05-23T22:36:25.297;599617127431195930;7699.052;-39
2024-05-23T22:36:25.304;599617127438886884;7706.7427;-11
2024-05-23T22:36:25.312;599617127446577838;7714.4336;2
2024-05-23T22:36:25.320;599617127454268792;7722.125;32
2024-05-23T22:36:25.327;599617127461959746;7729.8154;60
2024-05-23T22:36:25.335;599617127469650700;7737.5063;69
2024-05-23T22:36:25.343;599617127477341654;7745.1978;83
2024-05-23T22:36:25.350;599617127485032608;7752.888;123
2024-05-23T22:36:25.358;599617127492723562;7760.5796;164
2024-05-23T22:36:25.366;599617127500414516;7768.2705;176
2024-05-23T22:36:25.373;599617127508105470;7775.961;160
2024-05-23T22:36:25.381;599617127515796424;7783.6523;167
2024-05-23T22:36:25.389;599617127523487378;7791.3433;197
2024-05-23T22:36:25.397;599617127531178332;7799.034;199
2024-05-23T22:36:25.404;599617127538869286;7806.725;192
2024-05-23T22:36:25.412;599617127546560240;7814.416;204
2024-05-23T22:36:25.420;599617127554251194;7822.107;185
2024-05-23T22:36:25.427;599617127561942148;7829.798;148
2024-05-23T22:36:25.435;599617127569633102;7837.4893;153
2024-05-23T22:36:25.443;599617127577324056;7845.1797;188
2024-05-23T22:36:25.450;599617127585015010;7852.8706;216
2024-05-23T22:36:25.458;599617127592675872;7860.5317;216
2024-05-23T22:36:25.466;599617127600367244;7868.223;211
2024-05-23T22:36:25.473;599617127608058616;7875.914;230
2024-05-23T22:36:25.481;599617127615749988;7883.606;250
2024-05-23T22:36:25.489;599617127623441360;7891.2974;230
2024-05-23T22:36:25.496;599617127631132732;7898.989;204
2024-05-23T22:36:25.504;599617127638824104;7906.6797;218
2024-05-23T22:36:25.512;599617127646515476;7914.371;197
2024-05-23T22:36:25.520;599617127654206848;7922.063;123
2024-05-23T22:36:25.527;599617127661898220;7929.754;104
2024-05-23T22:36:25.535;599617127669589592;7937.4453;157
2024-05-23T22:36:25.543;599617127677280964;7945.1367;183
2024-05-23T22:36:25.550;599617127684972336;7952.828;157
2024-05-23T22:36:25.558;599617127692663708;7960.5195;148
2024-05-23T22:36:25.566;599617127700355080;7968.211;174
2024-05-23T22:36:25.573;599617127708046452;7975.9023;195
2024-05-23T22:36:25.581;599617127715737824;7983.5933;199
2024-05-23T22:36:25.589;599617127723429196;7991.285;223
2024-05-23T22:36:25.596;599617127731120568;7998.9766;241
2024-05-23T22:36:25.604;599617127738811940;8006.668;230
2024-05-23T22:36:25.612;599617127746503312;8014.359;234
2024-05-23T22:36:25.620;599617127754194684;8022.0503;260
2024-05-23T22:36:25.627;599617127761886056;8029.742;239
2024-05-23T22:36:25.635;599617127769577428;8037.433;153
2024-05-23T22:36:25.643;599617127777268800;8045.1245;104
2024-05-23T22:36:25.650;599617127784960172;8052.816;146
2024-05-23T22:36:25.658;599617127792651544;8060.5073;174
2024-05-23T22:36:25.666;599617127800342916;8068.1987;157
2024-05-23T22:36:25.673;599617127808034288;8075.89;176
2024-05-23T22:36:25.681;599617127815725660;8083.5815;183
2024-05-23T22:36:25.689;599617127823417032;8091.2725;130
2024-05-23T22:36:25.696;599617127831108404;8098.964;146
2024-05-23T22:36:25.704;599617127838799776;8106.656;411
2024-05-23T22:36:25.712;599617127846491148;8114.347;917
2024-05-23T22:36:25.720;599617127854182520;8122.038;1249
2024-05-23T22:36:25.727;599617127861873892;8129.7295;908
2024-05-23T22:36:25.735;599617127869565264;8137.4214;174
2024-05-23T22:36:25.743;599617127877256636;8145.113;-109
2024-05-23T22:36:25.750;599617127884948008;8152.8037;76
2024-05-23T22:36:25.758;599617127892639380;8160.495;81
2024-05-23T22:36:25.766;599617127900330752;8168.1865;-39
2024-05-23T22:36:25.773;599617127908022124;8175.878;13
2024-05-23T22:36:25.781;599617127915713496;8183.5693;34
2024-05-23T22:36:25.789;599617127923404868;8191.2607;-60
2024-05-23T22:36:25.796;599617127931096240;8198.952;-99
2024-05-23T22:36:25.804;599617127938787612;8206.644;-78
2024-05-23T22:36:25.812;599617127946478984;8214.335;-92
2024-05-23T22:36:25.820;599617127954170356;8222.026;-123
2024-05-23T22:36:25.827;599617127961861728;8229.718;-99
2024-05-23T22:36:25.835;599617127969553100;8237.409;-62
2024-05-23T22:36:25.843;599617127977244472;8245.101;-67
2024-05-23T22:36:25.850;599617127984935844;8252.792;-81
2024-05-23T22:36:25.858;599617127992627216;8260.483;-55
2024-05-23T22:36:25.866;599617128000318588;8268.175;0
2024-05-23T22:36:25.873;599617128008009960;8275.865;9
2024-05-23T22:36:25.881;599617128015701332;8283.558;-16
2024-05-23T22:36:25.889;599617128023392704;8291.249;13
2024-05-23T22:36:25.896;599617128031084076;8298.939;69
2024-05-23T22:36:25.904;599617128038775448;8306.631;76
2024-05-23T22:36:25.912;599617128046466820;8314.322;69
2024-05-23T22:36:25.920;599617128054158192;8322.015;90
2024-05-23T22:36:25.927;599617128061849564;8329.705;102
2024-05-23T22:36:25.935;599617128069540936;8337.396;99
2024-05-23T22:36:25.943;599617128077232308;8345.088;106
2024-05-23T22:36:25.950;599617128084923680;8352.779;137
2024-05-23T22:36:25.958;599617128092615052;8360.471;162
2024-05-23T22:36:25.966;599617128100306424;8368.162;148
2024-05-23T22:36:25.973;599617128107997796;8375.854;106
2024-05-23T22:36:25.981;599617128115689168;8383.545;65
2024-05-23T22:36:25.989;599617128123380540;8391.236;37
2024-05-23T22:36:25.996;599617128131071912;8398.928;25
2024-05-23T22:36:26.004;599617128138763284;8406.619;37
2024-05-23T22:36:26.012;599617128146454656;8414.311;55
2024-05-23T22:36:26.020;599617128154146036;8422.002;67
2024-05-23T22:36:26.027;599617128161837408;8429.693;83
2024-05-23T22:36:26.035;599617128169528780;8437.385;109
2024-05-23T22:36:26.043;599617128177220152;8445.076;139
2024-05-23T22:36:26.050;599617128184911524;8452.768;171
2024-05-23T22:36:26.058;599617128192602896;8460.458;178
2024-05-23T22:36:26.066;599617128200294268;8468.15;174
2024-05-23T22:36:26.073;599617128207985640;8475.842;192
2024-05-23T22:36:26.081;599617128215677012;8483.533;202
2024-05-23T22:36:26.089;599617128223368384;8491.224;160
2024-05-23T22:36:26.096;599617128231059756;8498.915;137
2024-05-23T22:36:26.104;599617128238751128;8506.607;171
2024-05-23T22:36:26.112;599617128246442500;8514.299;181
2024-05-23T22:36:26.119;599617128254133872;8521.989;160
2024-05-23T22:36:26.127;599617128261825244;8529.681;162
2024-05-23T22:36:26.135;599617128269516616;8537.373;132
2024-05-23T22:36:26.143;599617128277207988;8545.063;67
2024-05-23T22:36:26.150;599617128284899360;8552.755;62
2024-05-23T22:36:26.158;599617128292590732;8560.446;90
2024-05-23T22:36:26.166;599617128300282104;8568.138;104
2024-05-23T22:36:26.173;599617128307973476;8575.829;125
2024-05-23T22:36:26.181;599617128315664848;8583.5205;146
2024-05-23T22:36:26.189;599617128323356220;8591.213;167
2024-05-23T22:36:26.196;599617128331047592;8598.903;188
2024-05-23T22:36:26.204;599617128338738964;8606.595;185
2024-05-23T22:36:26.212;599617128346430336;8614.286;181
2024-05-23T22:36:26.219;599617128354121708;8621.978;202
2024-05-23T22:36:26.227;599617128361813080;8629.669;202
2024-05-23T22:36:26.235;599617128369504452;8637.36;167
2024-05-23T22:36:26.243;599617128377195824;8645.052;157
2024-05-23T22:36:26.250;599617128384887196;8652.742;185
2024-05-23T22:36:26.258;599617128392578568;8660.434;204
2024-05-23T22:36:26.266;599617128400269940;8668.126;209
2024-05-23T22:36:26.273;599617128407961312;8675.817;227
2024-05-23T22:36:26.281;599617128415652684;8683.509;267
2024-05-23T22:36:26.289;599617128423344056;8691.2;267
2024-05-23T22:36:26.296;599617128431035428;8698.892;199
2024-05-23T22:36:26.304;599617128438726800;8706.583;192
2024-05-23T22:36:26.312;599617128446418172;8714.273;422
2024-05-23T22:36:26.319;599617128454109544;8721.965;892
2024-05-23T22:36:26.327;599617128461800916;8729.656;1275
2024-05-23T22:36:26.335;599617128469492288;8737.349;1150
2024-05-23T22:36:26.343;599617128477183660;8745.04;536
2024-05-23T22:36:26.350;599617128484875032;8752.731;81
2024-05-23T22:36:26.358;599617128492566404;8760.423;137
2024-05-23T22:36:26.366;599617128500257776;8768.113;236
2024-05-23T22:36:26.373;599617128507949148;8775.805;146
2024-05-23T22:36:26.381;599617128515640520;8783.496;127
2024-05-23T22:36:26.389;599617128523331892;8791.1875;155
2024-05-23T22:36:26.396;599617128531023264;8798.879;113
2024-05-23T22:36:26.404;599617128538714636;8806.57;83
2024-05-23T22:36:26.412;599617128546406008;8814.263;85
2024-05-23T22:36:26.419;599617128554097380;8821.953;53
2024-05-23T22:36:26.427;599617128561788752;8829.645;4
2024-05-23T22:36:26.435;599617128569480124;8837.336;0
2024-05-23T22:36:26.443;599617128577171496;8845.027;2
2024-05-23T22:36:26.450;599617128584862868;8852.719;0
2024-05-23T22:36:26.458;599617128592554240;8860.41;23
2024-05-23T22:36:26.466;599617128600245612;8868.102;46
2024-05-23T22:36:26.473;599617128607936984;8875.792;13
2024-05-23T22:36:26.481;599617128615628356;8883.484;-39
2024-05-23T22:36:26.489;599617128623319728;8891.176;-27
2024-05-23T22:36:26.496;599617128631011100;8898.867;23
2024-05-23T22:36:26.504;599617128638702472;8906.559;34
2024-05-23T22:36:26.512;599617128646393844;8914.25;30
2024-05-23T22:36:26.519;599617128654085216;8921.941;53
2024-05-23T22:36:26.527;599617128661776588;8929.632;72
2024-05-23T22:36:26.535;599617128669467960;8937.323;62
2024-05-23T22:36:26.543;599617128677159332;8945.015;72
2024-05-23T22:36:26.550;599617128684850704;8952.706;106
2024-05-23T22:36:26.558;599617128692542076;8960.398;125
2024-05-23T22:36:26.566;599617128700233448;8968.09;118
2024-05-23T22:36:26.573;599617128707924820;8975.781;116
2024-05-23T22:36:26.581;599617128715586104;8983.442;132
2024-05-23T22:36:26.589;599617128723277894;8991.134;144
2024-05-23T22:36:26.596;599617128730969684;8998.826;148
2024-05-23T22:36:26.604;599617128738661474;9006.518;155
2024-05-23T22:36:26.612;599617128746353264;9014.21;167
2024-05-23T22:36:26.619;599617128754045054;9021.9;153
2024-05-23T22:36:26.627;599617128761736844;9029.593;83
2024-05-23T22:36:26.635;599617128769428634;9037.284;25
2024-05-23T22:36:26.642;599617128777120424;9044.977;-6
2024-05-23T22:36:26.650;599617128784812214;9052.668;-51
2024-05-23T22:36:26.658;599617128792504004;9060.36;-60
2024-05-23T22:36:26.666;599617128800195794;9068.052;-37
2024-05-23T22:36:26.673;599617128807887584;9075.744;-4
2024-05-23T22:36:26.681;599617128815579374;9083.435;30
2024-05-23T22:36:26.689;599617128823271164;9091.127;46
2024-05-23T22:36:26.696;599617128830962954;9098.818;67
2024-05-23T22:36:26.704;599617128838654744;9106.511;102
2024-05-23T22:36:26.712;599617128846346534;9114.202;106
2024-05-23T22:36:26.719;599617128854038324;9121.895;85
2024-05-23T22:36:26.727;599617128861730114;9129.586;83
2024-05-23T22:36:26.735;599617128869421904;9137.278;120
2024-05-23T22:36:26.742;599617128877113694;9144.969;141
2024-05-23T22:36:26.750;599617128884805484;9152.661;130
2024-05-23T22:36:26.758;599617128892497274;9160.353;134
2024-05-23T22:36:26.766;599617128900189064;9168.045;171
2024-05-23T22:36:26.773;599617128907880854;9175.736;195
2024-05-23T22:36:26.781;599617128915572644;9183.429;202
2024-05-23T22:36:26.789;599617128923264434;9191.12;225
2024-05-23T22:36:26.796;599617128930956224;9198.8125;248
2024-05-23T22:36:26.804;599617128938648014;9206.504;239
2024-05-23T22:36:26.812;599617128946339804;9214.195;230
2024-05-23T22:36:26.819;599617128954031594;9221.887;260
2024-05-23T22:36:26.827;599617128961723384;9229.579;295
2024-05-23T22:36:26.835;599617128969415174;9237.2705;297
2024-05-23T22:36:26.842;599617128977106964;9244.963;290
2024-05-23T22:36:26.850;599617128984798754;9252.654;306
2024-05-23T22:36:26.858;599617128992490544;9260.347;327
2024-05-23T22:36:26.866;599617129000182334;9268.039;329
2024-05-23T22:36:26.873;599617129007874124;9275.7295;334
2024-05-23T22:36:26.881;599617129015565914;9283.422;357
2024-05-23T22:36:26.889;599617129023257704;9291.113;371
2024-05-23T22:36:26.896;599617129030949494;9298.806;355
2024-05-23T22:36:26.904;599617129038641284;9306.497;339
2024-05-23T22:36:26.912;599617129046333074;9314.189;322
2024-05-23T22:36:26.919;599617129054024864;9321.881;306
2024-05-23T22:36:26.927;599617129061716654;9329.573;392
2024-05-23T22:36:26.935;599617129069408444;9337.264;734
2024-05-23T22:36:26.942;599617129077100234;9344.956;1219
2024-05-23T22:36:26.950;599617129084792024;9352.647;1377
2024-05-23T22:36:26.958;599617129092483814;9360.34;917
2024-05-23T22:36:26.966;599617129100175604;9368.031;297
2024-05-23T22:36:26.973;599617129107867394;9375.724;134
2024-05-23T22:36:26.981;599617129115559184;9383.415;218
2024-05-23T22:36:26.989;599617129123250974;9391.107;134
2024-05-23T22:36:26.996;599617129130942764;9398.798;72
2024-05-23T22:36:27.004;599617129138634554;9406.49;141
2024-05-23T22:36:27.012;599617129146326344;9414.182;153
2024-05-23T22:36:27.019;599617129154018134;9421.874;123
2024-05-23T22:36:27.027;599617129161709924;9429.565;148
2024-05-23T22:36:27.035;599617129169401714;9437.258;160
2024-05-23T22:36:27.042;599617129177093504;9444.949;123
2024-05-23T22:36:27.050;599617129184785294;9452.642;90
2024-05-23T22:36:27.058;599617129192477084;9460.333;85
2024-05-23T22:36:27.066;599617129200168874;9468.024;60
2024-05-23T22:36:27.073;599617129207860664;9475.716;9
2024-05-23T22:36:27.081;599617129215552454;9483.408;-6
2024-05-23T22:36:27.089;599617129223244244;9491.1;16
2024-05-23T22:36:27.096;599617129230936034;9498.792;39
2024-05-23T22:36:27.104;599617129238627824;9506.483;37
2024-05-23T22:36:27.112;599617129246319614;9514.176;25
2024-05-23T22:36:27.119;599617129254011404;9521.867;41
2024-05-23T22:36:27.127;599617129261703194;9529.559;62
2024-05-23T22:36:27.135;599617129269394984;9537.25;55
2024-05-23T22:36:27.142;599617129277142008;9544.998;27
2024-05-23T22:36:27.150;599617129284833031;9552.689;-34
2024-05-23T22:36:27.158;599617129292524054;9560.379;-83
2024-05-23T22:36:27.166;599617129300215077;9568.07;-81
2024-05-23T22:36:27.173;599617129307906100;9575.762;-76
2024-05-23T22:36:27.181;599617129315597123;9583.453;-65
2024-05-23T22:36:27.189;599617129323288146;9591.145;-27
2024-05-23T22:36:27.196;599617129330979169;9598.835;-46
2024-05-23T22:36:27.204;599617129338670192;9606.526;-104
2024-05-23T22:36:27.212;599617129346361215;9614.217;-127
2024-05-23T22:36:27.219;599617129354052238;9621.908;-153
2024-05-23T22:36:27.227;599617129361743261;9629.599;-162
2024-05-23T22:36:27.235;599617129369434284;9637.29;-123
2024-05-23T22:36:27.242;599617129377125307;9644.981;-81
2024-05-23T22:36:27.250;599617129384816330;9652.673;-48
2024-05-23T22:36:27.258;599617129392507353;9660.362;-23
2024-05-23T22:36:27.266;599617129400198376;9668.054;-16
2024-05-23T22:36:27.273;599617129407889399;9675.745;0
2024-05-23T22:36:27.281;599617129415580422;9683.437;37
2024-05-23T22:36:27.289;599617129423271445;9691.127;62
2024-05-23T22:36:27.296;599617129430962468;9698.818;81
2024-05-23T22:36:27.304;599617129438653491;9706.51;113
2024-05-23T22:36:27.312;599617129446344514;9714.2;127
2024-05-23T22:36:27.319;599617129454035537;9721.892;116
2024-05-23T22:36:27.327;599617129461726560;9729.582;137
2024-05-23T22:36:27.335;599617129469417583;9737.273;192
2024-05-23T22:36:27.342;599617129477108606;9744.965;213
2024-05-23T22:36:27.350;599617129484799629;9752.656;202
2024-05-23T22:36:27.358;599617129492490652;9760.346;197
2024-05-23T22:36:27.366;599617129500181675;9768.037;223
2024-05-23T22:36:27.373;599617129507872698;9775.729;257
2024-05-23T22:36:27.381;599617129515563721;9783.42;260
2024-05-23T22:36:27.389;599617129523254744;9791.11;260
2024-05-23T22:36:27.396;599617129530945767;9798.802;281
2024-05-23T22:36:27.404;599617129538636790;9806.492;297
2024-05-23T22:36:27.412;599617129546327813;9814.184;285
2024-05-23T22:36:27.419;599617129554018836;9821.874;297
2024-05-23T22:36:27.427;599617129561709859;9829.565;332
2024-05-23T22:36:27.435;599617129569400882;9837.257;329
2024-05-23T22:36:27.442;599617129577091905;9844.948;313
2024-05-23T22:36:27.450;599617129584782928;9852.64;325
2024-05-23T22:36:27.458;599617129592473951;9860.329;292
2024-05-23T22:36:27.466;599617129600164974;9868.0205;225
2024-05-23T22:36:27.473;599617129607855997;9875.712;216
2024-05-23T22:36:27.481;599617129615547020;9883.403;260
2024-05-23T22:36:27.489;599617129623238043;9891.094;285
2024-05-23T22:36:27.496;599617129630929066;9898.785;278
2024-05-23T22:36:27.504;599617129638620089;9906.476;276
2024-05-23T22:36:27.512;599617129646311112;9914.167;306
2024-05-23T22:36:27.519;599617129654002135;9921.857;339
2024-05-23T22:36:27.527;599617129661693158;9929.549;334
2024-05-23T22:36:27.535;599617129669384181;9937.24;325
2024-05-23T22:36:27.542;599617129677075204;9944.932;332
2024-05-23T22:36:27.550;599617129684766227;9952.621;334
2024-05-23T22:36:27.558;599617129692457250;9960.3125;329
2024-05-23T22:36:27.566;599617129700148273;9968.004;339
2024-05-23T22:36:27.573;599617129707839296;9975.695;348
2024-05-23T22:36:27.581;599617129715530319;9983.387;320
2024-05-23T22:36:27.589;599617129723221342;9991.077;336
2024-05-23T22:36:27.596;599617129730912365;9998.769;573
2024-05-23T22:36:27.604;599617129738603388;10006.459;1024
2024-05-23T22:36:27.612;599617129746294411;10014.15;1277
2024-05-23T22:36:27.619;599617129753985434;10021.841;954
2024-05-23T22:36:27.627;599617129761676457;10029.532;374
2024-05-23T22:36:27.635;599617129769367480;10037.224;153
2024-05-23T22:36:27.642;599617129777058503;10044.915;225
2024-05-23T22:36:27.650;599617129784749526;10052.6045;178
2024-05-23T22:36:27.658;599617129792440549;10060.296;44
2024-05-23T22:36:27.665;599617129800131572;10067.987;13
2024-05-23T22:36:27.673;599617129807822595;10075.679;23
2024-05-23T22:36:27.681;599617129815513618;10083.369;-18
2024-05-23T22:36:27.689;599617129823204641;10091.061;-48
2024-05-23T22:36:27.696;599617129830895664;10098.752;-48
2024-05-23T22:36:27.704;599617129838556646;10106.412;-92
2024-05-23T22:36:27.712;599617129846248087;10114.1045;-146
2024-05-23T22:36:27.719;599617129853939528;10121.796;-146
2024-05-23T22:36:27.727;599617129861630969;10129.487;-148
2024-05-23T22:36:27.735;599617129869322410;10137.178;-204
2024-05-23T22:36:27.742;599617129877013851;10144.869;-248
2024-05-23T22:36:27.750;599617129884705292;10152.561;-220
2024-05-23T22:36:27.758;599617129892396733;10160.253;-169
2024-05-23T22:36:27.765;599617129900088174;10167.944;-162
2024-05-23T22:36:27.773;599617129907779615;10175.636;-164
2024-05-23T22:36:27.781;599617129915471056;10183.327;-134
2024-05-23T22:36:27.789;599617129923162497;10191.018;-95
2024-05-23T22:36:27.796;599617129930853938;10198.709;-72
2024-05-23T22:36:27.804;599617129938545379;10206.401;-48
2024-05-23T22:36:27.812;599617129946236820;10214.093;-27
2024-05-23T22:36:27.819;599617129953928261;10221.784;-25
2024-05-23T22:36:27.827;599617129961619702;10229.476;-20
2024-05-23T22:36:27.835;599617129969311143;10237.167;4
2024-05-23T22:36:27.842;599617129977002584;10244.858;41
2024-05-23T22:36:27.850;599617129984694025;10252.55;72
2024-05-23T22:36:27.858;599617129992385466;10260.241;78
2024-05-23T22:36:27.865;599617130000076907;10267.933;72
2024-05-23T22:36:27.873;599617130007768348;10275.624;83
2024-05-23T22:36:27.881;599617130015459789;10283.315;104
2024-05-23T22:36:27.889;599617130023151230;10291.008;104
2024-05-23T22:36:27.896;599617130030842671;10298.699;111
2024-05-23T22:36:27.904;599617130038534112;10306.39;125
2024-05-23T22:36:27.912;599617130046225553;10314.081;111
2024-05-23T22:36:27.919;599617130053916994;10321.772;92
2024-05-23T22:36:27.927;599617130061608435;10329.464;111
2024-05-23T22:36:27.935;599617130069299876;10337.156;146
2024-05-23T22:36:27.942;599617130076991317;10344.848;169
2024-05-23T22:36:27.950;599617130084682758;10352.539;157
2024-05-23T22:36:27.958;599617130092374199;10360.2295;120
2024-05-23T22:36:27.965;599617130100065640;10367.921;120
2024-05-23T22:36:27.973;599617130107757081;10375.612;144
2024-05-23T22:36:27.981;599617130115448522;10383.305;144
2024-05-23T22:36:27.988;599617130123139963;10390.996;160
2024-05-23T22:36:27.996;599617130130831404;10398.6875;190
2024-05-23T22:36:28.004;599617130138522845;10406.379;178
2024-05-23T22:36:28.012;599617130146214286;10414.069;169
2024-05-23T22:36:28.019;599617130153905727;10421.762;202
2024-05-23T22:36:28.027;599617130161597168;10429.453;227
2024-05-23T22:36:28.035;599617130169288609;10437.145;218
2024-05-23T22:36:28.042;599617130176980050;10444.836;211
2024-05-23T22:36:28.050;599617130184671491;10452.527;223
2024-05-23T22:36:28.058;599617130192362932;10460.219;243
2024-05-23T22:36:28.065;599617130200054373;10467.911;248
2024-05-23T22:36:28.073;599617130207745814;10475.602;248
2024-05-23T22:36:28.081;599617130215437255;10483.293;274
2024-05-23T22:36:28.088;599617130223128696;10490.984;285
2024-05-23T22:36:28.096;599617130230820137;10498.676;260
2024-05-23T22:36:28.104;599617130238511578;10506.367;246
2024-05-23T22:36:28.112;599617130246203019;10514.06;269
2024-05-23T22:36:28.119;599617130253894460;10521.751;288
2024-05-23T22:36:28.127;599617130261585901;10529.441;283
2024-05-23T22:36:28.135;599617130269277342;10537.133;278
2024-05-23T22:36:28.142;599617130276968783;10544.824;288
2024-05-23T22:36:28.150;599617130284660224;10552.516;299
2024-05-23T22:36:28.158;599617130292351665;10560.208;274
2024-05-23T22:36:28.165;599617130300043106;10567.899;209
2024-05-23T22:36:28.173;599617130307734547;10575.591;185
2024-05-23T22:36:28.181;599617130315425988;10583.281;204
2024-05-23T22:36:28.188;599617130323117429;10590.973;190
2024-05-23T22:36:28.196;599617130330808870;10598.664;146
2024-05-23T22:36:28.204;599617130338500311;10606.356;102
2024-05-23T22:36:28.212;599617130346191752;10614.048;62
2024-05-23T22:36:28.219;599617130353883193;10621.739;18
2024-05-23T22:36:28.227;599617130361574634;10629.431;-6
2024-05-23T22:36:28.235;599617130369266075;10637.121;69
2024-05-23T22:36:28.242;599617130376957516;10644.813;367
2024-05-23T22:36:28.250;599617130384648957;10652.505;820
2024-05-23T22:36:28.258;599617130392340398;10660.196;1001
2024-05-23T22:36:28.265;599617130400046944;10667.903;601
2024-05-23T22:36:28.273;599617130407738176;10675.595;60
2024-05-23T22:36:28.281;599617130415429408;10683.285;-74
2024-05-23T22:36:28.288;599617130423120640;10690.977;-2
2024-05-23T22:36:28.296;599617130430811872;10698.668;-60
2024-05-23T22:36:28.304;599617130438503104;10706.359;-148
2024-05-23T22:36:28.312;599617130446194336;10714.051;-157
2024-05-23T22:36:28.319;599617130453885568;10721.742;-148
2024-05-23T22:36:28.327;599617130461576800;10729.433;-169
2024-05-23T22:36:28.335;599617130469268032;10737.124;-218
2024-05-23T22:36:28.342;599617130476959264;10744.814;-260
2024-05-23T22:36:28.350;599617130484650496;10752.506;-234
2024-05-23T22:36:28.358;599617130492341728;10760.197;-185
2024-05-23T22:36:28.365;599617130500032960;10767.889;-190
2024-05-23T22:36:28.373;599617130507724192;10775.58;-218
2024-05-23T22:36:28.381;599617130515415424;10783.2705;-185
2024-05-23T22:36:28.388;599617130523106656;10790.962;-134
2024-05-23T22:36:28.396;599617130530797888;10798.653;-125
2024-05-23T22:36:28.404;599617130538489120;10806.345;-109
2024-05-23T22:36:28.412;599617130546180352;10814.036;-76
2024-05-23T22:36:28.419;599617130553871584;10821.728;-67
2024-05-23T22:36:28.427;599617130561562816;10829.419;-62
2024-05-23T22:36:28.435;599617130569254048;10837.109;-37
2024-05-23T22:36:28.442;599617130576945280;10844.801;-34
2024-05-23T22:36:28.450;599617130584636512;10852.492;-69
2024-05-23T22:36:28.458;599617130592327744;10860.184;-85
2024-05-23T22:36:28.465;599617130600018976;10867.875;-67
2024-05-23T22:36:28.473;599617130607710208;10875.566;-34
2024-05-23T22:36:28.481;599617130615401440;10883.258;0
2024-05-23T22:36:28.488;599617130623092672;10890.948;13
2024-05-23T22:36:28.496;599617130630783904;10898.64;37
2024-05-23T22:36:28.504;599617130638475136;10906.331;65
2024-05-23T22:36:28.512;599617130646166368;10914.022;60
2024-05-23T22:36:28.519;599617130653857600;10921.714;39
2024-05-23T22:36:28.527;599617130661548832;10929.405;46
2024-05-23T22:36:28.535;599617130669240064;10937.097;69
2024-05-23T22:36:28.542;599617130676931296;10944.787;76
2024-05-23T22:36:28.550;599617130684622528;10952.479;69
2024-05-23T22:36:28.558;599617130692313760;10960.17;69
2024-05-23T22:36:28.565;599617130700004992;10967.861;90
2024-05-23T22:36:28.573;599617130707696224;10975.553;111
2024-05-23T22:36:28.581;599617130715387456;10983.244;123
2024-05-23T22:36:28.588;599617130723078688;10990.934;141
2024-05-23T22:36:28.596;599617130730769920;10998.625;164
2024-05-23T22:36:28.604;599617130738461152;11006.316;153
2024-05-23T22:36:28.612;599617130746152384;11014.008;141
2024-05-23T22:36:28.619;599617130753843616;11021.699;171
2024-05-23T22:36:28.627;599617130761534848;11029.391;206
2024-05-23T22:36:28.635;599617130769226080;11037.082;206
2024-05-23T22:36:28.642;599617130776917312;11044.772;192
2024-05-23T22:36:28.650;599617130784608544;11052.464;195
2024-05-23T22:36:28.658;599617130792299776;11060.155;190
2024-05-23T22:36:28.665;599617130799991008;11067.847;139
2024-05-23T22:36:28.673;599617130807682240;11075.538;90
2024-05-23T22:36:28.681;599617130815373472;11083.2295;109
2024-05-23T22:36:28.688;599617130823064704;11090.921;109
2024-05-23T22:36:28.696;599617130830755936;11098.611;34
2024-05-23T22:36:28.704;599617130838447168;11106.303;9
2024-05-23T22:36:28.711;599617130846138400;11113.994;72
2024-05-23T22:36:28.719;599617130853829632;11121.686;104
2024-05-23T22:36:28.727;599617130861520864;11129.377;97
2024-05-23T22:36:28.735;599617130869212096;11137.068;106
2024-05-23T22:36:28.742;599617130876903328;11144.76;130
2024-05-23T22:36:28.750;599617130884594560;11152.45;141
2024-05-23T22:36:28.758;599617130892285792;11160.142;153
2024-05-23T22:36:28.765;599617130899977024;11167.833;174
2024-05-23T22:36:28.773;599617130907668256;11175.524;202
2024-05-23T22:36:28.781;599617130915359488;11183.216;213
2024-05-23T22:36:28.788;599617130923050720;11190.907;183
2024-05-23T22:36:28.796;599617130930741952;11198.598;141
2024-05-23T22:36:28.804;599617130938433184;11206.289;139
2024-05-23T22:36:28.811;599617130946124416;11213.98;157
2024-05-23T22:36:28.819;599617130953815648;11221.672;137
2024-05-23T22:36:28.827;599617130961496856;11229.353;83
2024-05-23T22:36:28.835;599617130969188228;11237.044;95
2024-05-23T22:36:28.842;599617130976879600;11244.735;346
2024-05-23T22:36:28.850;599617130984570972;11252.427;848
2024-05-23T22:36:28.858;599617130992262344;11260.118;1189
2024-05-23T22:36:28.865;599617130999953716;11267.81;903
2024-05-23T22:36:28.873;599617131007645088;11275.501;213
2024-05-23T22:36:28.881;599617131015336460;11283.191;-137
2024-05-23T22:36:28.888;599617131023027832;11290.884;-44
2024-05-23T22:36:28.896;599617131030719204;11298.575;-23
2024-05-23T22:36:28.904;599617131038410576;11306.267;-178
2024-05-23T22:36:28.911;599617131046101948;11313.958;-250
2024-05-23T22:36:28.919;599617131053793320;11321.649;-230
2024-05-23T22:36:28.927;599617131061484692;11329.341;-239
2024-05-23T22:36:28.935;599617131069176064;11337.031;-269
2024-05-23T22:36:28.942;599617131076867436;11344.723;-274
2024-05-23T22:36:28.950;599617131084558808;11352.414;-248
2024-05-23T22:36:28.958;599617131092250180;11360.106;-211
2024-05-23T22:36:28.965;599617131099941552;11367.798;-202
2024-05-23T22:36:28.973;599617131107632924;11375.489;-209
2024-05-23T22:36:28.981;599617131115324296;11383.181;-178
2024-05-23T22:36:28.988;599617131123015668;11390.871;-132
2024-05-23T22:36:28.996;599617131130707040;11398.5625;-120
2024-05-23T22:36:29.004;599617131138398412;11406.254;-106
2024-05-23T22:36:29.011;599617131146089784;11413.945;-69
2024-05-23T22:36:29.019;599617131153781156;11421.637;-55
2024-05-23T22:36:29.027;599617131161472528;11429.328;-55
2024-05-23T22:36:29.035;599617131169163900;11437.0205;-16
2024-05-23T22:36:29.042;599617131176855272;11444.711;44
2024-05-23T22:36:29.050;599617131184546644;11452.402;67
2024-05-23T22:36:29.058;599617131192238016;11460.094;60
2024-05-23T22:36:29.065;599617131199929388;11467.785;55
2024-05-23T22:36:29.073;599617131207620760;11475.477;81
2024-05-23T22:36:29.081;599617131215312132;11483.168;116
2024-05-23T22:36:29.088;599617131223003504;11490.859;137
2024-05-23T22:36:29.096;599617131230694876;11498.55;157
2024-05-23T22:36:29.104;599617131238386248;11506.242;171
2024-05-23T22:36:29.111;599617131246077620;11513.934;157
2024-05-23T22:36:29.119;599617131253768992;11521.625;132
2024-05-23T22:36:29.127;599617131261460364;11529.316;139
2024-05-23T22:36:29.135;599617131269151736;11537.008;160
2024-05-23T22:36:29.142;599617131276843108;11544.699;164
2024-05-23T22:36:29.150;599617131284534480;11552.391;146
2024-05-23T22:36:29.158;599617131292225852;11560.081;113
2024-05-23T22:36:29.165;599617131299917224;11567.772;58
2024-05-23T22:36:29.173;599617131307608596;11575.464;16
2024-05-23T22:36:29.181;599617131315299968;11583.156;13
2024-05-23T22:36:29.188;599617131322991340;11590.848;9
2024-05-23T22:36:29.196;599617131330682712;11598.539;4
2024-05-23T22:36:29.204;599617131338374084;11606.23;11
2024-05-23T22:36:29.211;599617131346065456;11613.921;18
2024-05-23T22:36:29.219;599617131353756828;11621.612;46
2024-05-23T22:36:29.227;599617131361448200;11629.304;88
2024-05-23T22:36:29.234;599617131369139572;11636.995;109
2024-05-23T22:36:29.242;599617131376830944;11644.687;111
2024-05-23T22:36:29.250;599617131384522316;11652.379;123
2024-05-23T22:36:29.258;599617131392213688;11660.07;141
2024-05-23T22:36:29.265;599617131399905060;11667.761;146
2024-05-23T22:36:29.273;599617131407596432;11675.452;148
2024-05-23T22:36:29.281;599617131415287804;11683.144;176
2024-05-23T22:36:29.288;599617131422979176;11690.835;209
2024-05-23T22:36:29.296;599617131430670548;11698.526;197
2024-05-23T22:36:29.304;599617131438361920;11706.218;181
2024-05-23T22:36:29.311;599617131446053292;11713.909;204
2024-05-23T22:36:29.319;599617131453744664;11721.6;230
2024-05-23T22:36:29.327;599617131461436036;11729.292;234
2024-05-23T22:36:29.334;599617131469127408;11736.983;236
2024-05-23T22:36:29.342;599617131476818780;11744.675;255
2024-05-23T22:36:29.350;599617131484510152;11752.366;269
2024-05-23T22:36:29.358;599617131492201524;11760.058;250
2024-05-23T22:36:29.365;599617131499892896;11767.749;218
2024-05-23T22:36:29.373;599617131507584268;11775.439;199
2024-05-23T22:36:29.381;599617131515275640;11783.131;192
2024-05-23T22:36:29.388;599617131522972060;11790.827;181
2024-05-23T22:36:29.396;599617131530663362;11798.519;167
2024-05-23T22:36:29.404;599617131538354664;11806.21;160
2024-05-23T22:36:29.411;599617131546045966;11813.901;130
2024-05-23T22:36:29.419;599617131553737268;11821.593;162
2024-05-23T22:36:29.427;599617131561428570;11829.285;434
2024-05-23T22:36:29.434;599617131569119872;11836.977;913
2024-05-23T22:36:29.442;599617131576811174;11844.667;1115
2024-05-23T22:36:29.450;599617131584502476;11852.358;604
2024-05-23T22:36:29.458;599617131592193778;11860.05;-164
2024-05-23T22:36:29.465;599617131599885080;11867.741;-360
2024-05-23T22:36:29.473;599617131607576382;11875.433;-171
2024-05-23T22:36:29.481;599617131615267684;11883.124;-209
2024-05-23T22:36:29.488;599617131622958986;11890.815;-309
2024-05-23T22:36:29.496;599617131630650288;11898.506;-232
2024-05-23T22:36:29.504;599617131638341590;11906.197;-206
2024-05-23T22:36:29.511;599617131646032892;11913.889;-250
2024-05-23T22:36:29.519;599617131653724194;11921.58;-216
2024-05-23T22:36:29.527;599617131661415496;11929.271;-176
2024-05-23T22:36:29.534;599617131669106798;11936.963;-195
2024-05-23T22:36:29.542;599617131676798100;11944.654;-174
2024-05-23T22:36:29.550;599617131684489402;11952.345;-116
2024-05-23T22:36:29.558;599617131692180704;11960.036;-92
2024-05-23T22:36:29.565;599617131699872006;11967.728;-97
2024-05-23T22:36:29.573;599617131707563308;11975.419;-92
2024-05-23T22:36:29.581;599617131715254610;11983.11;-67
2024-05-23T22:36:29.588;599617131722945912;11990.802;-34
2024-05-23T22:36:29.596;599617131730637214;11998.492;-13
2024-05-23T22:36:29.604;599617131738328516;12006.184;11
2024-05-23T22:36:29.611;599617131746019818;12013.875;39
2024-05-23T22:36:29.619;599617131753711120;12021.566;51
2024-05-23T22:36:29.627;599617131761402422;12029.258;67
2024-05-23T22:36:29.634;599617131769093724;12036.95;92
2024-05-23T22:36:29.642;599617131776785026;12044.642;120
2024-05-23T22:36:29.650;599617131784476328;12052.333;141
2024-05-23T22:36:29.658;599617131792167630;12060.023;127
2024-05-23T22:36:29.665;599617131799858932;12067.715;58
2024-05-23T22:36:29.673;599617131807550234;12075.406;-27
2024-05-23T22:36:29.681;599617131815241536;12083.098;-69
2024-05-23T22:36:29.688;599617131822932838;12090.789;-67
2024-05-23T22:36:29.696;599617131830624140;12098.48;-58
2024-05-23T22:36:29.704;599617131838315442;12106.172;-46
2024-05-23T22:36:29.711;599617131846006744;12113.862;-48
2024-05-23T22:36:29.719;599617131853698046;12121.554;-76
2024-05-23T22:36:29.727;599617131861389348;12129.245;-72
2024-05-23T22:36:29.734;599617131869080650;12136.937;-18
2024-05-23T22:36:29.742;599617131876771952;12144.628;18
2024-05-23T22:36:29.750;599617131884463254;12152.319;16
2024-05-23T22:36:29.758;599617131892154556;12160.01;27
2024-05-23T22:36:29.765;599617131899845858;12167.701;72
2024-05-23T22:36:29.773;599617131907537160;12175.393;92
2024-05-23T22:36:29.781;599617131915228462;12183.084;83
2024-05-23T22:36:29.788;599617131922919764;12190.775;106
2024-05-23T22:36:29.796;599617131930611066;12198.467;151
2024-05-23T22:36:29.804;599617131938302368;12206.158;155
2024-05-23T22:36:29.811;599617131945993670;12213.849;146
2024-05-23T22:36:29.819;599617131953684972;12221.54;164
2024-05-23T22:36:29.827;599617131961376274;12229.231;192
2024-05-23T22:36:29.834;599617131969067576;12236.924;197
2024-05-23T22:36:29.842;599617131976758878;12244.615;195
2024-05-23T22:36:29.850;599617131984450180;12252.307;197
2024-05-23T22:36:29.857;599617131992141482;12259.998;202
2024-05-23T22:36:29.865;599617131999832784;12267.688;216
2024-05-23T22:36:29.873;599617132007524086;12275.38;232
2024-05-23T22:36:29.881;599617132015215388;12283.071;243
2024-05-23T22:36:29.888;599617132022906690;12290.763;250
2024-05-23T22:36:29.896;599617132030597992;12298.454;248
2024-05-23T22:36:29.904;599617132038289294;12306.1455;232
2024-05-23T22:36:29.911;599617132045980596;12313.837;234
2024-05-23T22:36:29.919;599617132053671898;12321.527;248
2024-05-23T22:36:29.927;599617132061363200;12329.219;204
2024-05-23T22:36:29.934;599617132069054502;12336.91;134
2024-05-23T22:36:29.942;599617132076745804;12344.602;146
2024-05-23T22:36:29.950;599617132084427128;12352.282;204
2024-05-23T22:36:29.957;599617132092118569;12359.974;209
2024-05-23T22:36:29.965;599617132099810010;12367.666;183
2024-05-23T22:36:29.973;599617132107501451;12375.357;153
2024-05-23T22:36:29.981;599617132115192892;12383.049;62
2024-05-23T22:36:29.988;599617132122884333;12390.74;-39
2024-05-23T22:36:29.996;599617132130575774;12398.432;125
2024-05-23T22:36:30.004;599617132138267215;12406.123;652
2024-05-23T22:36:30.011;599617132145958656;12413.814;1105
2024-05-23T22:36:30.019;599617132153650097;12421.506;929
2024-05-23T22:36:30.027;599617132161341538;12429.197;236
2024-05-23T22:36:30.034;599617132169032979;12436.889;-178
2024-05-23T22:36:30.042;599617132176724420;12444.58;-39
2024-05-23T22:36:30.050;599617132184415861;12452.272;27
2024-05-23T22:36:30.057;599617132192107302;12459.964;-118
2024-05-23T22:36:30.065;599617132199798743;12467.654;-125
2024-05-23T22:36:30.073;599617132207490184;12475.346;-120
2024-05-23T22:36:30.081;599617132215181625;12483.037;-216
2024-05-23T22:36:30.088;599617132222873066;12490.729;-213
2024-05-23T22:36:30.096;599617132230564507;12498.421;-130
2024-05-23T22:36:30.104;599617132238255948;12506.112;-111
2024-05-23T22:36:30.111;599617132245947389;12513.804;-130
2024-05-23T22:36:30.119;599617132253638830;12521.494;-118
2024-05-23T22:36:30.127;599617132261330271;12529.186;-111
2024-05-23T22:36:30.134;599617132269021712;12536.877;-127
2024-05-23T22:36:30.142;599617132276713153;12544.569;-104
2024-05-23T22:36:30.150;599617132284404594;12552.261;-27
2024-05-23T22:36:30.157;599617132292096035;12559.952;4
2024-05-23T22:36:30.165;599617132299787476;12567.644;-55
2024-05-23T22:36:30.173;599617132307478917;12575.334;-134
2024-05-23T22:36:30.181;599617132315170358;12583.026;-141
2024-05-23T22:36:30.188;599617132322861799;12590.718;-83
2024-05-23T22:36:30.196;599617132330553240;12598.409;-20
2024-05-23T22:36:30.204;599617132338244681;12606.101;-11
2024-05-23T22:36:30.211;599617132345936122;12613.792;-11
2024-05-23T22:36:30.219;599617132353627563;12621.483;34
2024-05-23T22:36:30.227;599617132361319004;12629.176;74
2024-05-23T22:36:30.234;599617132369010445;12636.866;58
2024-05-23T22:36:30.242;599617132376701886;12644.558;53
2024-05-23T22:36:30.250;599617132384393327;12652.249;88
2024-05-23T22:36:30.257;599617132392084768;12659.94;88
2024-05-23T22:36:30.265;599617132399776209;12667.632;53
2024-05-23T22:36:30.273;599617132407467650;12675.324;76
2024-05-23T22:36:30.281;599617132415159091;12683.016;120
2024-05-23T22:36:30.288;599617132422850532;12690.706;99
2024-05-23T22:36:30.296;599617132430541973;12698.397;83
2024-05-23T22:36:30.304;599617132438233414;12706.089;99
2024-05-23T22:36:30.311;599617132445924855;12713.78;95
2024-05-23T22:36:30.319;599617132453616296;12721.473;95
2024-05-23T22:36:30.327;599617132461307737;12729.164;130
2024-05-23T22:36:30.334;599617132468999178;12736.855;162
2024-05-23T22:36:30.342;599617132476690619;12744.546;181
2024-05-23T22:36:30.350;599617132484382060;12752.237;185
2024-05-23T22:36:30.357;599617132492073501;12759.929;190
2024-05-23T22:36:30.365;599617132499764942;12767.621;178
2024-05-23T22:36:30.373;599617132507456383;12775.3125;162
2024-05-23T22:36:30.381;599617132515147824;12783.004;192
2024-05-23T22:36:30.388;599617132522839265;12790.695;239
2024-05-23T22:36:30.396;599617132530530706;12798.386;253
2024-05-23T22:36:30.404;599617132538222147;12806.078;250
2024-05-23T22:36:30.411;599617132545913588;12813.77;232
2024-05-23T22:36:30.419;599617132553605029;12821.461;192
2024-05-23T22:36:30.427;599617132561296470;12829.152;195
2024-05-23T22:36:30.434;599617132568987911;12836.844;216
2024-05-23T22:36:30.442;599617132576679352;12844.535;204
2024-05-23T22:36:30.450;599617132584370793;12852.228;202
2024-05-23T22:36:30.457;599617132592062234;12859.918;230
2024-05-23T22:36:30.465;599617132599753675;12867.609;243
2024-05-23T22:36:30.473;599617132607445116;12875.301;253
2024-05-23T22:36:30.480;599617132615136557;12882.992;278
2024-05-23T22:36:30.488;599617132622827998;12890.684;285
2024-05-23T22:36:30.496;599617132630519439;12898.376;267
2024-05-23T22:36:30.504;599617132638210880;12906.067;262
2024-05-23T22:36:30.511;599617132645932474;12913.788;297
2024-05-23T22:36:30.519;599617132653623497;12921.4795;322
2024-05-23T22:36:30.527;599617132661314520;12929.171;311
2024-05-23T22:36:30.534;599617132669005543;12936.861;264
2024-05-23T22:36:30.542;599617132676696566;12944.552;211
2024-05-23T22:36:30.550;599617132684387589;12952.243;281
2024-05-23T22:36:30.557;599617132692078612;12959.935;611
2024-05-23T22:36:30.565;599617132699769635;12967.626;1092
2024-05-23T22:36:30.573;599617132707460658;12975.316;1266
2024-05-23T22:36:30.581;599617132715151681;12983.007;782
2024-05-23T22:36:30.588;599617132722842704;12990.698;109
2024-05-23T22:36:30.596;599617132730533727;12998.39;-16
2024-05-23T22:36:30.604;599617132738224750;13006.081;169
2024-05-23T22:36:30.611;599617132745915773;13013.771;123
2024-05-23T22:36:30.619;599617132753606796;13021.463;25
2024-05-23T22:36:30.627;599617132761297819;13029.153;74
2024-05-23T22:36:30.634;599617132768988842;13036.845;92
2024-05-23T22:36:30.642;599617132776679865;13044.535;60
2024-05-23T22:36:30.650;599617132784370888;13052.227;74
2024-05-23T22:36:30.657;599617132792061911;13059.918;81
2024-05-23T22:36:30.665;599617132799752934;13067.609;0
2024-05-23T22:36:30.673;599617132807443957;13075.3;-137
2024-05-23T22:36:30.680;599617132815134980;13082.99;-232
2024-05-23T22:36:30.688;599617132822826003;13090.682;-246
2024-05-23T22:36:30.696;599617132830517026;13098.373;-246
2024-05-23T22:36:30.704;599617132838208049;13106.063;-248
2024-05-23T22:36:30.711;599617132845899072;13113.755;-232
2024-05-23T22:36:30.719;599617132853590095;13121.446;-211
2024-05-23T22:36:30.727;599617132861281118;13129.137;-206
2024-05-23T22:36:30.734;599617132868972141;13136.828;-199
2024-05-23T22:36:30.742;599617132876663164;13144.519;-176
2024-05-23T22:36:30.750;599617132884354187;13152.21;-134
2024-05-23T22:36:30.757;599617132892045210;13159.901;-97
2024-05-23T22:36:30.765;599617132899736233;13167.593;-90
2024-05-23T22:36:30.773;599617132907427256;13175.282;-102
2024-05-23T22:36:30.780;599617132915118279;13182.974;-78
2024-05-23T22:36:30.788;599617132922809302;13190.665;-39
2024-05-23T22:36:30.796;599617132930500325;13198.356;-25
2024-05-23T22:36:30.804;599617132938191348;13206.047;-16
2024-05-23T22:36:30.811;599617132945882371;13213.738;2
2024-05-23T22:36:30.819;599617132953573394;13221.43;6
2024-05-23T22:36:30.827;599617132961264417;13229.12;0
2024-05-23T22:36:30.834;599617132968955440;13236.811;6
2024-05-23T22:36:30.842;599617132976646463;13244.502;25
2024-05-23T22:36:30.850;599617132984337486;13252.193;41
2024-05-23T22:36:30.857;599617132992028509;13259.885;37
2024-05-23T22:36:30.865;599617132999719532;13267.576;34
2024-05-23T22:36:30.873;599617133007410555;13275.266;58
2024-05-23T22:36:30.880;599617133015101578;13282.957;76
2024-05-23T22:36:30.888;599617133022792601;13290.648;76
2024-05-23T22:36:30.896;599617133030483624;13298.34;95
2024-05-23T22:36:30.904;599617133038174647;13306.03;97
2024-05-23T22:36:30.911;599617133045865670;13313.722;51
2024-05-23T22:36:30.919;599617133053556693;13321.413;32
2024-05-23T22:36:30.927;599617133061247716;13329.104;67
2024-05-23T22:36:30.934;599617133068938739;13336.794;97
2024-05-23T22:36:30.942;599617133076629762;13344.485;109
2024-05-23T22:36:30.950;599617133084320785;13352.177;109
2024-05-23T22:36:30.957;599617133092011808;13359.868;106
2024-05-23T22:36:30.965;599617133099702831;13367.559;125
2024-05-23T22:36:30.973;599617133107393854;13375.249;153
2024-05-23T22:36:30.980;599617133115084877;13382.94;164
2024-05-23T22:36:30.988;599617133122775900;13390.632;181
2024-05-23T22:36:30.996;599617133130466923;13398.323;202
2024-05-23T22:36:31.004;599617133138157946;13406.014;192
2024-05-23T22:36:31.011;599617133145848969;13413.705;178
2024-05-23T22:36:31.019;599617133153539992;13421.3955;204
2024-05-23T22:36:31.027;599617133161231015;13429.087;234
2024-05-23T22:36:31.034;599617133168922038;13436.777;234
2024-05-23T22:36:31.042;599617133176613061;13444.469;227
2024-05-23T22:36:31.050;599617133184304084;13452.16;232
2024-05-23T22:36:31.057;599617133191995107;13459.852;243
2024-05-23T22:36:31.065;599617133199686130;13467.542;264
2024-05-23T22:36:31.073;599617133207327024;13475.183;285
2024-05-23T22:36:31.080;599617133215018744;13482.875;290
2024-05-23T22:36:31.088;599617133222710464;13490.566;285
2024-05-23T22:36:31.096;599617133230402184;13498.259;234
2024-05-23T22:36:31.103;599617133238093904;13505.949;155
2024-05-23T22:36:31.111;599617133245785624;13513.641;162
2024-05-23T22:36:31.119;599617133253477344;13521.333;204
2024-05-23T22:36:31.127;599617133261169064;13529.024;171
2024-05-23T22:36:31.134;599617133268860784;13536.717;113
2024-05-23T22:36:31.142;599617133276552504;13544.408;160
2024-05-23T22:36:31.150;599617133284244224;13552.101;455
2024-05-23T22:36:31.157;599617133291935944;13559.792;931
2024-05-23T22:36:31.165;599617133299627664;13567.484;1212
2024-05-23T22:36:31.173;599617133307319384;13575.175;906
2024-05-23T22:36:31.180;599617133315011104;13582.866;213
2024-05-23T22:36:31.188;599617133322702824;13590.559;-109
2024-05-23T22:36:31.196;599617133330394544;13598.25;25
2024-05-23T22:36:31.203;599617133338086264;13605.942;55
2024-05-23T22:36:31.211;599617133345777984;13613.634;-25
2024-05-23T22:36:31.219;599617133353469704;13621.326;13
2024-05-23T22:36:31.227;599617133361161424;13629.017;51
2024-05-23T22:36:31.234;599617133368853144;13636.709;34
2024-05-23T22:36:31.242;599617133376544864;13644.4;53
2024-05-23T22:36:31.250;599617133384236584;13652.092;72
2024-05-23T22:36:31.257;599617133391928304;13659.784;48
2024-05-23T22:36:31.265;599617133399620024;13667.476;37
2024-05-23T22:36:31.273;599617133407311744;13675.168;41
2024-05-23T22:36:31.280;599617133415003464;13682.859;30
2024-05-23T22:36:31.288;599617133422695184;13690.552;30
2024-05-23T22:36:31.296;599617133430386904;13698.242;60
2024-05-23T22:36:31.303;599617133438078624;13705.935;74
2024-05-23T22:36:31.311;599617133445770344;13713.626;76
2024-05-23T22:36:31.319;599617133453462064;13721.317;92
2024-05-23T22:36:31.327;599617133461153784;13729.01;90
2024-05-23T22:36:31.334;599617133468845504;13736.701;44
2024-05-23T22:36:31.342;599617133476537224;13744.394;9
2024-05-23T22:36:31.350;599617133484228944;13752.085;-4
2024-05-23T22:36:31.357;599617133491920664;13759.776;-30
2024-05-23T22:36:31.365;599617133499612384;13767.468;-62
2024-05-23T22:36:31.373;599617133507304104;13775.16;-83
2024-05-23T22:36:31.380;599617133514995824;13782.852;-78
2024-05-23T22:36:31.388;599617133522687544;13790.544;-69
2024-05-23T22:36:31.396;599617133530379264;13798.235;-76
2024-05-23T22:36:31.403;599617133538070984;13805.927;-92
2024-05-23T22:36:31.411;599617133545762704;13813.619;-92
2024-05-23T22:36:31.419;599617133553454424;13821.31;-92
2024-05-23T22:36:31.427;599617133561146144;13829.002;-113
2024-05-23T22:36:31.434;599617133568837864;13836.693;-99
2024-05-23T22:36:31.442;599617133576529584;13844.386;-48
2024-05-23T22:36:31.450;599617133584221304;13852.077;-18
2024-05-23T22:36:31.457;599617133591913024;13859.77;-27
2024-05-23T22:36:31.465;599617133599604744;13867.461;-41
2024-05-23T22:36:31.473;599617133607296464;13875.152;-23
2024-05-23T22:36:31.480;599617133614988184;13882.844;13
2024-05-23T22:36:31.488;599617133622679904;13890.535;23
2024-05-23T22:36:31.496;599617133630371624;13898.228;39
2024-05-23T22:36:31.503;599617133638063344;13905.919;72
2024-05-23T22:36:31.511;599617133645755064;13913.611;76
2024-05-23T22:36:31.519;599617133653446784;13921.303;58
2024-05-23T22:36:31.526;599617133661138504;13928.995;72
2024-05-23T22:36:31.534;599617133668830224;13936.687;116
2024-05-23T22:36:31.542;599617133676521944;13944.377;137
2024-05-23T22:36:31.550;599617133684213664;13952.069;127
2024-05-23T22:36:31.557;599617133691905384;13959.761;127
2024-05-23T22:36:31.565;599617133699597104;13967.453;148
2024-05-23T22:36:31.573;599617133707288824;13975.145;167
2024-05-23T22:36:31.580;599617133714980544;13982.837;171
2024-05-23T22:36:31.588;599617133722672264;13990.528;183
2024-05-23T22:36:31.596;599617133730363984;13998.221;204
2024-05-23T22:36:31.603;599617133738055704;14005.911;199
2024-05-23T22:36:31.611;599617133745747424;14013.603;181
2024-05-23T22:36:31.619;599617133753439144;14021.295;192
2024-05-23T22:36:31.626;599617133761130864;14028.986;209
2024-05-23T22:36:31.634;599617133768847676;14036.703;220
2024-05-23T22:36:31.642;599617133776539048;14044.395;236
2024-05-23T22:36:31.650;599617133784230420;14052.086;206
2024-05-23T22:36:31.657;599617133791921792;14059.778;188
2024-05-23T22:36:31.665;599617133799613164;14067.47;223
2024-05-23T22:36:31.673;599617133807304536;14075.16;199
2024-05-23T22:36:31.680;599617133814995908;14082.852;118
2024-05-23T22:36:31.688;599617133822687280;14090.543;90
2024-05-23T22:36:31.696;599617133830378652;14098.234;69
2024-05-23T22:36:31.703;599617133838070024;14105.926;11
2024-05-23T22:36:31.711;599617133845761396;14113.617;16
2024-05-23T22:36:31.719;599617133853452768;14121.309;46
2024-05-23T22:36:31.726;599617133861144140;14129.0;11
2024-05-23T22:36:31.734;599617133868835512;14136.691;20
2024-05-23T22:36:31.742;599617133876526884;14144.383;278
2024-05-23T22:36:31.750;599617133884218256;14152.074;778
2024-05-23T22:36:31.757;599617133891909628;14159.766;1150
2024-05-23T22:36:31.765;599617133899601000;14167.457;950
2024-05-23T22:36:31.773;599617133907292372;14175.148;355
2024-05-23T22:36:31.780;599617133914983744;14182.839;41
2024-05-23T22:36:31.788;599617133922675116;14190.53;123
2024-05-23T22:36:31.796;599617133930366488;14198.222;151
2024-05-23T22:36:31.803;599617133938057860;14205.914;81
2024-05-23T22:36:31.811;599617133945749232;14213.605;111
2024-05-23T22:36:31.819;599617133953440604;14221.297;155
2024-05-23T22:36:31.826;599617133961131976;14228.988;141
2024-05-23T22:36:31.834;599617133968823348;14236.679;144
2024-05-23T22:36:31.842;599617133976514720;14244.37;160
2024-05-23T22:36:31.850;599617133984206092;14252.062;164
2024-05-23T22:36:31.857;599617133991897464;14259.753;181
2024-05-23T22:36:31.865;599617133999588836;14267.444;211
2024-05-23T22:36:31.873;599617134007280208;14275.137;218
2024-05-23T22:36:31.880;599617134014971580;14282.828;199
2024-05-23T22:36:31.888;599617134022662952;14290.519;178
2024-05-23T22:36:31.896;599617134030354324;14298.21;146
2024-05-23T22:36:31.903;599617134038045696;14305.901;97
2024-05-23T22:36:31.911;599617134045737068;14313.593;67
2024-05-23T22:36:31.919;599617134053428440;14321.284;62
2024-05-23T22:36:31.926;599617134061119812;14328.976;72
2024-05-23T22:36:31.934;599617134068811184;14336.667;76
2024-05-23T22:36:31.942;599617134076502556;14344.357;74
2024-05-23T22:36:31.950;599617134084193928;14352.05;92
2024-05-23T22:36:31.957;599617134091885300;14359.741;120
2024-05-23T22:36:31.965;599617134099576672;14367.433;109
2024-05-23T22:36:31.973;599617134107268044;14375.124;55
2024-05-23T22:36:31.980;599617134114959416;14382.815;23
2024-05-23T22:36:31.988;599617134122650788;14390.507;18
2024-05-23T22:36:31.996;599617134130342160;14398.198;-13
2024-05-23T22:36:32.003;599617134138033532;14405.889;-41
2024-05-23T22:36:32.011;599617134145724904;14413.58;-23
2024-05-23T22:36:32.019;599617134153416276;14421.272;-30
2024-05-23T22:36:32.026;599617134161107648;14428.964;-69
2024-05-23T22:36:32.034;599617134168799020;14436.655;-65
2024-05-23T22:36:32.042;599617134176490392;14444.347;-25
2024-05-23T22:36:32.050;599617134184181764;14452.038;-9
2024-05-23T22:36:32.057;599617134191873136;14459.729;-37
2024-05-23T22:36:32.065;599617134199564508;14467.42;-53
2024-05-23T22:36:32.073;599617134207255880;14475.111;-25
2024-05-23T22:36:32.080;599617134214947252;14482.803;6
2024-05-23T22:36:32.088;599617134222638624;14490.494;9
2024-05-23T22:36:32.096;599617134230329996;14498.187;18
2024-05-23T22:36:32.103;599617134238021368;14505.878;41
2024-05-23T22:36:32.111;599617134245712740;14513.568;44
2024-05-23T22:36:32.119;599617134253404112;14521.26;30
2024-05-23T22:36:32.126;599617134261095484;14528.951;41
2024-05-23T22:36:32.134;599617134268786856;14536.643;60
2024-05-23T22:36:32.142;599617134276478228;14544.334;20
2024-05-23T22:36:32.150;599617134284169600;14552.025;-18
2024-05-23T22:36:32.157;599617134291860972;14559.717;-2
2024-05-23T22:36:32.165;599617134299552344;14567.408;18
2024-05-23T22:36:32.173;599617134307243716;14575.1;41
2024-05-23T22:36:32.180;599617134314935088;14582.791;51
2024-05-23T22:36:32.188;599617134322626460;14590.482;0
2024-05-23T22:36:32.196;599617134330317840;14598.174;-37
2024-05-23T22:36:32.203;599617134338009212;14605.865;-25
2024-05-23T22:36:32.211;599617134345700584;14613.557;-20
2024-05-23T22:36:32.219;599617134353391956;14621.247;-2
2024-05-23T22:36:32.226;599617134361083328;14628.938;41
2024-05-23T22:36:32.234;599617134368774700;14636.63;60
2024-05-23T22:36:32.242;599617134376466072;14644.322;51
2024-05-23T22:36:32.250;599617134384157444;14652.014;58
2024-05-23T22:36:32.257;599617134391848816;14659.705;78
2024-05-23T22:36:32.265;599617134399540188;14667.396;62
2024-05-23T22:36:32.273;599617134407231560;14675.087;20
2024-05-23T22:36:32.280;599617134414922932;14682.778;30
2024-05-23T22:36:32.288;599617134422614304;14690.47;62
2024-05-23T22:36:32.296;599617134430305676;14698.161;48
2024-05-23T22:36:32.303;599617134437997048;14705.853;39
2024-05-23T22:36:32.311;599617134445688420;14713.545;78
2024-05-23T22:36:32.319;599617134453379792;14721.236;116
2024-05-23T22:36:32.326;599617134461071164;14728.927;106
2024-05-23T22:36:32.334;599617134468762536;14736.618;69
2024-05-23T22:36:32.342;599617134476453908;14744.31;102
2024-05-23T22:36:32.350;599617134484145280;14752.001;350
2024-05-23T22:36:32.357;599617134491836652;14759.692;801
2024-05-23T22:36:32.365;599617134499528024;14767.384;1115
2024-05-23T22:36:32.373;599617134507219396;14775.075;903
2024-05-23T22:36:32.380;599617134514910768;14782.766;339
2024-05-23T22:36:32.388;599617134522602140;14790.458;27
2024-05-23T22:36:32.396;599617134530293512;14798.149;97
2024-05-23T22:36:32.403;599617134537984884;14805.841;148
2024-05-23T22:36:32.411;599617134545676256;14813.532;88
2024-05-23T22:36:32.419;599617134553367628;14821.224;88
2024-05-23T22:36:32.426;599617134561059000;14828.915;125
2024-05-23T22:36:32.434;599617134568750372;14836.605;127
2024-05-23T22:36:32.442;599617134576441744;14844.297;130
2024-05-23T22:36:32.449;599617134584133116;14851.988;148
2024-05-23T22:36:32.457;599617134591824488;14859.681;169
2024-05-23T22:36:32.465;599617134599515860;14867.372;199
2024-05-23T22:36:32.473;599617134607207232;14875.063;213
2024-05-23T22:36:32.480;599617134614898604;14882.755;188
2024-05-23T22:36:32.488;599617134622589976;14890.446;188
2024-05-23T22:36:32.496;599617134630281348;14898.137;223
2024-05-23T22:36:32.503;599617134637972720;14905.828;209
2024-05-23T22:36:32.511;599617134645664092;14913.52;164
2024-05-23T22:36:32.519;599617134653355464;14921.211;167
2024-05-23T22:36:32.526;599617134661046836;14928.902;181
2024-05-23T22:36:32.534;599617134668738208;14936.595;169
2024-05-23T22:36:32.542;599617134676429580;14944.286;169
2024-05-23T22:36:32.549;599617134684120952;14951.977;192
2024-05-23T22:36:32.557;599617134691812324;14959.668;216
2024-05-23T22:36:32.565;599617134699503696;14967.359;204
2024-05-23T22:36:32.573;599617134707195068;14975.051;164
2024-05-23T22:36:32.580;599617134714886440;14982.742;125
2024-05-23T22:36:32.588;599617134722577812;14990.434;109
2024-05-23T22:36:32.596;599617134730269184;14998.125;81
2024-05-23T22:36:32.603;599617134737960556;15005.816;32
2024-05-23T22:36:32.611;599617134745651928;15013.508;13
2024-05-23T22:36:32.619;599617134753343300;15021.199;16
2024-05-23T22:36:32.626;599617134761034672;15028.891;-11
2024-05-23T22:36:32.634;599617134768726044;15036.582;-62
2024-05-23T22:36:32.642;599617134776417416;15044.273;-85
2024-05-23T22:36:32.649;599617134784108788;15051.965;-74
2024-05-23T22:36:32.657;599617134791800160;15059.655;-85
2024-05-23T22:36:32.665;599617134799491532;15067.347;-111
2024-05-23T22:36:32.673;599617134807182904;15075.039;-95
2024-05-23T22:36:32.680;599617134814874276;15082.73;-65
2024-05-23T22:36:32.688;599617134822565648;15090.422;-102
2024-05-23T22:36:32.696;599617134830257020;15098.113;-164
2024-05-23T22:36:32.703;599617134837948392;15105.805;-162
2024-05-23T22:36:32.711;599617134845639764;15113.495;-134
2024-05-23T22:36:32.719;599617134853331136;15121.187;-137
2024-05-23T22:36:32.726;599617134861022508;15128.878;-123
2024-05-23T22:36:32.734;599617134868713880;15136.569;-83
2024-05-23T22:36:32.742;599617134876405252;15144.261;-58
2024-05-23T22:36:32.749;599617134884096624;15151.953;-60
2024-05-23T22:36:32.757;599617134891788004;15159.645;-58
2024-05-23T22:36:32.765;599617134899479376;15167.335;-37
2024-05-23T22:36:32.773;599617134907170748;15175.026;-11
2024-05-23T22:36:32.780;599617134914862120;15182.718;2
2024-05-23T22:36:32.788;599617134922553492;15190.409;20
2024-05-23T22:36:32.796;599617134930244864;15198.101;37
2024-05-23T22:36:32.803;599617134937936236;15205.792;4
2024-05-23T22:36:32.811;599617134945627608;15213.483;-60
2024-05-23T22:36:32.819;599617134953318980;15221.176;-65
2024-05-23T22:36:32.826;599617134961010352;15228.866;-18
2024-05-23T22:36:32.834;599617134968701724;15236.558;-2
2024-05-23T22:36:32.842;599617134976393096;15244.249;-16
2024-05-23T22:36:32.849;599617134984084468;15251.94;2
2024-05-23T22:36:32.857;599617134991775840;15259.632;34
2024-05-23T22:36:32.865;599617134999467212;15267.323;48
2024-05-23T22:36:32.873;599617135007158584;15275.014;51
2024-05-23T22:36:32.880;599617135014849956;15282.705;39
2024-05-23T22:36:32.888;599617135022541328;15290.396;23
2024-05-23T22:36:32.896;599617135030232700;15298.089;13
2024-05-23T22:36:32.903;599617135037924072;15305.78;16
2024-05-23T22:36:32.911;599617135045615444;15313.472;44
2024-05-23T22:36:32.919;599617135053306816;15321.163;76
2024-05-23T22:36:32.926;599617135060998188;15328.8545;76
2024-05-23T22:36:32.934;599617135068689560;15336.545;39
2024-05-23T22:36:32.942;599617135076380932;15344.236;20
2024-05-23T22:36:32.949;599617135084072304;15351.928;155
2024-05-23T22:36:32.957;599617135091763676;15359.619;543
2024-05-23T22:36:32.965;599617135099455048;15367.312;999
2024-05-23T22:36:32.973;599617135107146420;15375.003;1057
2024-05-23T22:36:32.980;599617135114837792;15382.694;562
2024-05-23T22:36:32.988;599617135122529164;15390.385;65
2024-05-23T22:36:32.996;599617135130220536;15398.076;48
2024-05-23T22:36:33.003;599617135137911908;15405.768;183
2024-05-23T22:36:33.011;599617135145603280;15413.459;134
2024-05-23T22:36:33.019;599617135153294652;15421.15;88
2024-05-23T22:36:33.026;599617135160986024;15428.842;125
2024-05-23T22:36:33.034;599617135168677396;15436.533;137
2024-05-23T22:36:33.042;599617135176368768;15444.225;130
2024-05-23T22:36:33.049;599617135184060140;15451.916;141
2024-05-23T22:36:33.057;599617135191751512;15459.607;164
2024-05-23T22:36:33.065;599617135199442884;15467.299;185
2024-05-23T22:36:33.072;599617135207134256;15474.99;192
2024-05-23T22:36:33.080;599617135214825628;15482.682;167
2024-05-23T22:36:33.088;599617135222517000;15490.373;132
2024-05-23T22:36:33.096;599617135230208372;15498.063;127
2024-05-23T22:36:33.103;599617135237899744;15505.755;127
2024-05-23T22:36:33.111;599617135245591116;15513.447;118
2024-05-23T22:36:33.119;599617135253282488;15521.139;109
2024-05-23T22:36:33.126;599617135260973860;15528.83;81
2024-05-23T22:36:33.134;599617135268665232;15536.521;44
2024-05-23T22:36:33.142;599617135276356604;15544.213;48
2024-05-23T22:36:33.149;599617135284047976;15551.903;78
2024-05-23T22:36:33.157;599617135291739348;15559.595;85
2024-05-23T22:36:33.165;599617135299430720;15567.286;34
2024-05-23T22:36:33.172;599617135307122092;15574.978;-25
2024-05-23T22:36:33.180;599617135314813464;15582.669;-55
2024-05-23T22:36:33.188;599617135322504836;15590.361;-116
2024-05-23T22:36:33.196;599617135330196208;15598.053;-209
2024-05-23T22:36:33.203;599617135337887580;15605.743;-232
2024-05-23T22:36:33.211;599617135345578952;15613.435;-192
2024-05-23T22:36:33.219;599617135353270324;15621.126;-197
2024-05-23T22:36:33.226;599617135360961696;15628.817;-225
2024-05-23T22:36:33.234;599617135368653068;15636.509;-216
2024-05-23T22:36:33.242;599617135376344440;15644.2;-188
2024-05-23T22:36:33.249;599617135384035812;15651.892;-181
2024-05-23T22:36:33.257;599617135391727184;15659.583;-192
2024-05-23T22:36:33.265;599617135399418556;15667.274;-202
2024-05-23T22:36:33.272;599617135407109928;15674.966;-178
2024-05-23T22:36:33.280;599617135414801300;15682.657;-141
2024-05-23T22:36:33.288;599617135422492672;15690.349;-125
2024-05-23T22:36:33.296;599617135430184044;15698.04;-109
2024-05-23T22:36:33.303;599617135437875416;15705.731;-78
2024-05-23T22:36:33.311;599617135445566788;15713.422;-72
2024-05-23T22:36:33.319;599617135453258168;15721.113;-69
2024-05-23T22:36:33.326;599617135460949540;15728.805;-39
2024-05-23T22:36:33.334;599617135468640912;15736.497;-6
2024-05-23T22:36:33.342;599617135476332284;15744.188;4
2024-05-23T22:36:33.349;599617135484023656;15751.88;4
2024-05-23T22:36:33.357;599617135491715028;15759.571;6
2024-05-23T22:36:33.365;599617135499406400;15767.263;2
2024-05-23T22:36:33.372;599617135507097772;15774.953;-51
2024-05-23T22:36:33.380;599617135514789144;15782.645;-141
2024-05-23T22:36:33.388;599617135522480516;15790.336;-160
2024-05-23T22:36:33.396;599617135530171888;15798.027;-104
2024-05-23T22:36:33.403;599617135537863260;15805.72;-95
2024-05-23T22:36:33.411;599617135545554632;15813.411;-113
2024-05-23T22:36:33.419;599617135553246004;15821.103;-81
2024-05-23T22:36:33.426;599617135560937376;15828.793;-27
2024-05-23T22:36:33.434;599617135568628748;15836.484;-11
2024-05-23T22:36:33.442;599617135576320120;15844.176;-11
2024-05-23T22:36:33.449;599617135584011492;15851.867;18
2024-05-23T22:36:33.457;599617135591702864;15859.559;55
2024-05-23T22:36:33.465;599617135599394236;15867.25;60
2024-05-23T22:36:33.472;599617135607085608;15874.941;67
2024-05-23T22:36:33.480;599617135614776980;15882.633;99
2024-05-23T22:36:33.488;599617135622468352;15890.324;125
2024-05-23T22:36:33.496;599617135630159724;15898.016;116
2024-05-23T22:36:33.503;599617135637851096;15905.707;99
2024-05-23T22:36:33.511;599617135645542468;15913.398;90
2024-05-23T22:36:33.519;599617135653233840;15921.09;81
2024-05-23T22:36:33.526;599617135660925212;15928.781;185
2024-05-23T22:36:33.534;599617135668616584;15936.472;580
2024-05-23T22:36:33.542;599617135676307956;15944.163;1087
2024-05-23T22:36:33.549;599617135683999328;15951.855;1166
2024-05-23T22:36:33.557;599617135691690700;15959.547;634
2024-05-23T22:36:33.565;599617135699382072;15967.238;92
2024-05-23T22:36:33.572;599617135707073444;15974.93;90
2024-05-23T22:36:33.580;599617135714764816;15982.621;241
2024-05-23T22:36:33.588;599617135722456188;15990.312;151
