Phone timestamp;sensor timestamp [ns];timestamp [ms];ecg [uV]
2024-05-23T22:26:04.305;599616506430555110;0.0;3231
2024-05-23T22:26:04.312;599616506438246482;7.691372;4293
2024-05-23T22:26:04.320;599616506445937854;15.382744;4874
2024-05-23T22:26:04.328;599616506453629226;23.074116;5741
2024-05-23T22:26:04.335;599616506461320598;30.765488;6473
2024-05-23T22:26:04.343;599616506469011970;38.45686;6972
2024-05-23T22:26:04.351;599616506476703342;46.14823;7597
2024-05-23T22:26:04.358;599616506484394714;53.839603;8215
2024-05-23T22:26:04.366;599616506492086086;61.530975;8694
2024-05-23T22:26:04.374;599616506499777458;69.22235;9221
2024-05-23T22:26:04.381;599616506507468830;76.91372;9744
2024-05-23T22:26:04.389;599616506515160202;84.60509;10076
2024-05-23T22:26:04.397;599616506522851574;92.29646;10387
2024-05-23T22:26:04.404;599616506530542946;99.98784;10820
2024-05-23T22:26:04.412;599616506538234318;107.67921;11275
2024-05-23T22:26:04.420;599616506545925690;115.370575;11623
2024-05-23T22:26:04.428;599616506553617062;123.06195;11870
2024-05-23T22:26:04.435;599616506561308434;130.75333;12169
2024-05-23T22:26:04.443;599616506568999806;138.4447;12537
2024-05-23T22:26:04.451;599616506576691178;146.13606;12813
2024-05-23T22:26:04.458;599616506584382550;153.82744;13043
2024-05-23T22:26:04.466;599616506592073922;161.51881;13308
2024-05-23T22:26:04.474;599616506599765294;169.21017;13515
2024-05-23T22:26:04.481;599616506607456666;176.90155;13670
2024-05-23T22:26:04.489;599616506615148038;184.59293;13849
2024-05-23T22:26:04.497;599616506622839410;192.2843;14079
2024-05-23T22:26:04.504;599616506630530782;199.97568;14351
2024-05-23T22:26:04.512;599616506638222154;207.66704;14516
2024-05-23T22:26:04.520;599616506645913526;215.35841;14553
2024-05-23T22:26:04.528;599616506653604898;223.04979;14709
2024-05-23T22:26:04.535;599616506661296270;230.74115;14944
2024-05-23T22:26:04.543;599616506668987642;238.43253;15037
2024-05-23T22:26:04.551;599616506676679014;246.1239;15123
2024-05-23T22:26:04.558;599616506684370386;253.81528;15304
2024-05-23T22:26:04.566;599616506692061758;261.50665;15394
2024-05-23T22:26:04.574;599616506699753130;269.19803;15392
2024-05-23T22:26:04.581;599616506707444502;276.8894;15445
2024-05-23T22:26:04.589;599616506715135874;284.58078;15590
2024-05-23T22:26:04.597;599616506722827246;292.27213;15741
2024-05-23T22:26:04.604;599616506730518618;299.96353;15748
2024-05-23T22:26:04.612;599616506738209990;307.65488;15682
2024-05-23T22:26:04.620;599616506745901362;315.34625;15817
2024-05-23T22:26:04.628;599616506753592734;323.03763;15938
2024-05-23T22:26:04.635;599616506761284106;330.729;15780
2024-05-23T22:26:04.643;599616506768975478;338.42035;15741
2024-05-23T22:26:04.651;599616506776666850;346.11176;15901
2024-05-23T22:26:04.658;599616506784358222;353.8031;15864
2024-05-23T22:26:04.666;599616506792049594;361.4945;15720
2024-05-23T22:26:04.674;599616506799740966;369.18585;15734
2024-05-23T22:26:04.681;599616506807432338;376.87723;15824
2024-05-23T22:26:04.689;599616506815123710;384.5686;15843
2024-05-23T22:26:04.697;599616506822815082;392.25998;15750
2024-05-23T22:26:04.704;599616506830506454;399.95135;15645
2024-05-23T22:26:04.712;599616506838197826;407.64273;15662
2024-05-23T22:26:04.720;599616506845889198;415.33408;15659
2024-05-23T22:26:04.728;599616506853580570;423.02548;15548
2024-05-23T22:26:04.735;599616506861271942;430.71683;15534
2024-05-23T22:26:04.743;599616506868963314;438.4082;15573
2024-05-23T22:26:04.751;599616506876654686;446.09958;15448
2024-05-23T22:26:04.758;599616506884346058;453.79095;15278
2024-05-23T22:26:04.766;599616506892037430;461.4823;15322
2024-05-23T22:26:04.774;599616506899728802;469.1737;15464
2024-05-23T22:26:04.781;599616506907420174;476.86505;15315
2024-05-23T22:26:04.789;599616506915111546;484.55646;14939
2024-05-23T22:26:04.797;599616506922802918;492.2478;14816
2024-05-23T22:26:04.804;599616506930494290;499.93918;14879
2024-05-23T22:26:04.812;599616506938185662;507.63055;14772
2024-05-23T22:26:04.820;599616506945877034;515.3219;14616
2024-05-23T22:26:04.828;599616506953568406;523.0133;14637
2024-05-23T22:26:04.835;599616506961259778;530.70465;14628
2024-05-23T22:26:04.843;599616506968951150;538.39606;14416
2024-05-23T22:26:04.851;599616506976642522;546.0874;14295
2024-05-23T22:26:04.858;599616506984333894;553.7788;14330
2024-05-23T22:26:04.866;599616506992055370;561.5003;14270
2024-05-23T22:26:04.874;599616506999746324;569.1912;14117
2024-05-23T22:26:04.881;599616507007437278;576.8822;13882
2024-05-23T22:26:04.889;599616507015128232;584.5731;13668
2024-05-23T22:26:04.897;599616507022819186;592.26404;13668
2024-05-23T22:26:04.904;599616507030510140;599.955;13824
2024-05-23T22:26:04.912;599616507038201094;607.64594;14086
2024-05-23T22:26:04.920;599616507045892048;615.337;14391
2024-05-23T22:26:04.928;599616507053583002;623.0279;14175
2024-05-23T22:26:04.935;599616507061273956;630.7189;13208
2024-05-23T22:26:04.943;599616507068964910;638.4098;12592
2024-05-23T22:26:04.951;599616507076655864;646.1007;12769
2024-05-23T22:26:04.958;599616507084346818;653.7917;12688
2024-05-23T22:26:04.966;599616507092037772;661.48267;12265
2024-05-23T22:26:04.974;599616507099728726;669.17365;12165
2024-05-23T22:26:04.981;599616507107419680;676.86456;12151
2024-05-23T22:26:04.989;599616507115110634;684.55554;11965
2024-05-23T22:26:04.997;599616507122801588;692.24646;11809
2024-05-23T22:26:05.004;599616507130492542;699.9374;11749
2024-05-23T22:26:05.012;599616507138183496;707.6284;11719
2024-05-23T22:26:05.020;599616507145874450;715.31934;11621
2024-05-23T22:26:05.028;599616507153565404;723.0103;11419
2024-05-23T22:26:05.035;599616507161256358;730.70123;11301
2024-05-23T22:26:05.043;599616507168947312;738.3922;11289
2024-05-23T22:26:05.051;599616507176638266;746.0831;11201
2024-05-23T22:26:05.058;599616507184329220;753.7741;11064
2024-05-23T22:26:05.066;599616507192020174;761.4651;10989
2024-05-23T22:26:05.074;599616507199711128;769.156;10913
2024-05-23T22:26:05.081;599616507207402082;776.847;10778
2024-05-23T22:26:05.089;599616507215093036;784.5379;10652
2024-05-23T22:26:05.097;599616507222783990;792.2289;10594
2024-05-23T22:26:05.104;599616507230474944;799.9198;10580
2024-05-23T22:26:05.112;599616507238165898;807.61084;10522
2024-05-23T22:26:05.120;599616507245856852;815.30176;10343
2024-05-23T22:26:05.127;599616507253547806;822.9927;10143
2024-05-23T22:26:05.135;599616507261238760;830.68365;10067
2024-05-23T22:26:05.143;599616507268929714;838.3746;9988
2024-05-23T22:26:05.151;599616507276620668;846.06555;9855
2024-05-23T22:26:05.158;599616507284311622;853.75653;9788
2024-05-23T22:26:05.166;599616507292002576;861.4475;9714
2024-05-23T22:26:05.174;599616507299693530;869.1384;9558
2024-05-23T22:26:05.181;599616507307384484;876.82935;9430
2024-05-23T22:26:05.189;599616507315075438;884.5203;9388
2024-05-23T22:26:05.197;599616507322766392;892.21124;9342
2024-05-23T22:26:05.204;599616507330457346;899.9022;9182
2024-05-23T22:26:05.212;599616507338148300;907.5932;8986
2024-05-23T22:26:05.220;599616507345839254;915.2842;8924
2024-05-23T22:26:05.227;599616507353530208;922.9751;8891
2024-05-23T22:26:05.235;599616507361221162;930.6661;8756
2024-05-23T22:26:05.243;599616507368912116;938.357;8654
2024-05-23T22:26:05.251;599616507376603070;946.0479;8622
2024-05-23T22:26:05.258;599616507384294024;953.73895;8494
2024-05-23T22:26:05.266;599616507391984978;961.4299;8341
2024-05-23T22:26:05.274;599616507399675932;969.12085;8310
2024-05-23T22:26:05.281;599616507407366886;976.81177;8334
2024-05-23T22:26:05.289;599616507415057840;984.50275;8208
2024-05-23T22:26:05.297;599616507422748794;992.19366;7929
2024-05-23T22:26:05.304;599616507430439748;999.8846;7788
2024-05-23T22:26:05.312;599616507438130702;1007.5756;7792
2024-05-23T22:26:05.320;599616507445821656;1015.26654;7709
2024-05-23T22:26:05.327;599616507453512610;1022.9575;7576
2024-05-23T22:26:05.335;599616507461203564;1030.6484;7534
2024-05-23T22:26:05.343;599616507468894518;1038.3394;7495
2024-05-23T22:26:05.351;599616507476585472;1046.0304;7365
2024-05-23T22:26:05.358;599616507484276426;1053.7213;7281
2024-05-23T22:26:05.366;599616507491967380;1061.4122;7244
2024-05-23T22:26:05.374;599616507499658334;1069.1033;7095
2024-05-23T22:26:05.381;599616507507349288;1076.7942;6949
2024-05-23T22:26:05.389;599616507515040242;1084.4851;6884
2024-05-23T22:26:05.397;599616507522731196;1092.1761;6800
2024-05-23T22:26:05.404;599616507530422150;1099.8671;6716
2024-05-23T22:26:05.412;599616507538113104;1107.558;6663
2024-05-23T22:26:05.420;599616507545804058;1115.2489;6598
2024-05-23T22:26:05.427;599616507553464920;1122.9098;6540
2024-05-23T22:26:05.435;599616507561156292;1130.6012;6475
2024-05-23T22:26:05.443;599616507568847664;1138.2926;6363
2024-05-23T22:26:05.450;599616507576539036;1145.9839;6273
2024-05-23T22:26:05.458;599616507584230408;1153.6753;6240
2024-05-23T22:26:05.466;599616507591921780;1161.3667;6208
2024-05-23T22:26:05.474;599616507599613152;1169.0581;6133
2024-05-23T22:26:05.481;599616507607304524;1176.7494;6019
2024-05-23T22:26:05.489;599616507614995896;1184.4408;5966
2024-05-23T22:26:05.497;599616507622687268;1192.1321;5947
2024-05-23T22:26:05.504;599616507630378640;1199.8235;5766
2024-05-23T22:26:05.512;599616507638070012;1207.5149;5592
2024-05-23T22:26:05.520;599616507645761384;1215.2063;5638
2024-05-23T22:26:05.527;599616507653452756;1222.8977;5606
2024-05-23T22:26:05.535;599616507661144128;1230.5891;5404
2024-05-23T22:26:05.543;599616507668835500;1238.2804;5327
2024-05-23T22:26:05.550;599616507676526872;1245.9717;5357
2024-05-23T22:26:05.558;599616507684218244;1253.6631;5297
2024-05-23T22:26:05.566;599616507691909616;1261.3545;5195
2024-05-23T22:26:05.574;599616507699600988;1269.0459;5144
2024-05-23T22:26:05.581;599616507707292360;1276.7373;5097
2024-05-23T22:26:05.589;599616507714983732;1284.4287;4990
2024-05-23T22:26:05.597;599616507722675104;1292.12;4958
2024-05-23T22:26:05.604;599616507730366476;1299.8113;5204
2024-05-23T22:26:05.612;599616507738057848;1307.5027;5555
2024-05-23T22:26:05.620;599616507745749220;1315.1941;5552
2024-05-23T22:26:05.627;599616507753440592;1322.8855;5067
2024-05-23T22:26:05.635;599616507761131964;1330.5769;4542
2024-05-23T22:26:05.643;599616507768823336;1338.2683;4393
2024-05-23T22:26:05.650;599616507776514708;1345.9596;4416
2024-05-23T22:26:05.658;599616507784206080;1353.651;4316
2024-05-23T22:26:05.666;599616507791897452;1361.3423;4210
2024-05-23T22:26:05.674;599616507799588824;1369.0337;4184
2024-05-23T22:26:05.681;599616507807280196;1376.7251;4110
2024-05-23T22:26:05.689;599616507814971568;1384.4165;3993
2024-05-23T22:26:05.697;599616507822662940;1392.1078;3947
2024-05-23T22:26:05.704;599616507830354312;1399.7992;3894
2024-05-23T22:26:05.712;599616507838045684;1407.4906;3761
2024-05-23T22:26:05.720;599616507845737056;1415.182;3661
2024-05-23T22:26:05.727;599616507853428428;1422.8733;3636
2024-05-23T22:26:05.735;599616507861119800;1430.5647;3619
2024-05-23T22:26:05.743;599616507868811172;1438.256;3575
2024-05-23T22:26:05.750;599616507876502544;1445.9474;3522
2024-05-23T22:26:05.758;599616507884193916;1453.6388;3482
2024-05-23T22:26:05.766;599616507891885288;1461.3302;3454
2024-05-23T22:26:05.774;599616507899576660;1469.0216;3417
2024-05-23T22:26:05.781;599616507907268032;1476.713;3392
2024-05-23T22:26:05.789;599616507914959404;1484.4043;3343
2024-05-23T22:26:05.797;599616507922650776;1492.0956;3203
2024-05-23T22:26:05.804;599616507930342148;1499.787;3087
2024-05-23T22:26:05.812;599616507938033520;1507.4784;3092
2024-05-23T22:26:05.820;599616507945724892;1515.1698;3129
2024-05-23T22:26:05.827;599616507953416264;1522.8612;3111
2024-05-23T22:26:05.835;599616507961107636;1530.5526;3064
2024-05-23T22:26:05.843;599616507968799008;1538.2439;3059
2024-05-23T22:26:05.850;599616507976490380;1545.9352;3055
2024-05-23T22:26:05.858;599616507984181752;1553.6266;2985
2024-05-23T22:26:05.866;599616507991873124;1561.318;2918
2024-05-23T22:26:05.874;599616507999564496;1569.0094;2908
2024-05-23T22:26:05.881;599616508007255868;1576.7008;2887
2024-05-23T22:26:05.889;599616508014947240;1584.3922;2834
2024-05-23T22:26:05.897;599616508022638612;1592.0835;2771
2024-05-23T22:26:05.904;599616508030329984;1599.7749;2713
2024-05-23T22:26:05.912;599616508038021356;1607.4662;2676
2024-05-23T22:26:05.920;599616508045712728;1615.1576;2644
2024-05-23T22:26:05.927;599616508053404100;1622.849;2604
2024-05-23T22:26:05.935;599616508061095472;1630.5404;2595
2024-05-23T22:26:05.943;599616508068786844;1638.2317;2592
2024-05-23T22:26:05.950;599616508076478216;1645.9231;2551
2024-05-23T22:26:05.958;599616508084169588;1653.6145;2513
2024-05-23T22:26:05.966;599616508091860960;1661.3059;2525
2024-05-23T22:26:05.973;599616508099552332;1668.9972;2544
2024-05-23T22:26:05.981;599616508107243704;1676.6886;2513
2024-05-23T22:26:05.989;599616508114935084;1684.38;2462
2024-05-23T22:26:05.997;599616508122626456;1692.0713;2453
2024-05-23T22:26:06.004;599616508130317828;1699.7627;2458
2024-05-23T22:26:06.012;599616508138009200;1707.4541;2423
2024-05-23T22:26:06.020;599616508145700572;1715.1455;2397
2024-05-23T22:26:06.027;599616508153391944;1722.8369;2416
2024-05-23T22:26:06.035;599616508161083316;1730.5282;2379
2024-05-23T22:26:06.043;599616508168774688;1738.2195;2253
2024-05-23T22:26:06.050;599616508176466060;1745.9109;2186
2024-05-23T22:26:06.058;599616508184157432;1753.6023;2211
2024-05-23T22:26:06.066;599616508191848804;1761.2937;2207
2024-05-23T22:26:06.073;599616508199540176;1768.9851;2156
2024-05-23T22:26:06.081;599616508207231548;1776.6765;2128
2024-05-23T22:26:06.089;599616508214922920;1784.3679;2121
2024-05-23T22:26:06.097;599616508222614292;1792.0591;2123
2024-05-23T22:26:06.104;599616508230305664;1799.7505;2100
2024-05-23T22:26:06.112;599616508237997036;1807.4419;2042
2024-05-23T22:26:06.120;599616508245688408;1815.1333;2014
2024-05-23T22:26:06.127;599616508253379780;1822.8247;2002
2024-05-23T22:26:06.135;599616508261071152;1830.5161;1951
2024-05-23T22:26:06.143;599616508268762524;1838.2074;1933
2024-05-23T22:26:06.150;599616508276453896;1845.8988;1967
2024-05-23T22:26:06.158;599616508284145268;1853.5901;1965
2024-05-23T22:26:06.166;599616508291836640;1861.2815;1933
2024-05-23T22:26:06.173;599616508299528012;1868.9729;1928
2024-05-23T22:26:06.181;599616508307219384;1876.6643;1923
2024-05-23T22:26:06.189;599616508314910756;1884.3556;1907
2024-05-23T22:26:06.197;599616508322602128;1892.047;1905
2024-05-23T22:26:06.204;599616508330293500;1899.7384;1907
2024-05-23T22:26:06.212;599616508337984872;1907.4298;1893
2024-05-23T22:26:06.220;599616508345676244;1915.1211;1849
2024-05-23T22:26:06.227;599616508353367616;1922.8125;1819
2024-05-23T22:26:06.235;599616508361058988;1930.5039;1828
2024-05-23T22:26:06.243;599616508368750360;1938.1952;1823
2024-05-23T22:26:06.250;599616508376441732;1945.8866;1782
2024-05-23T22:26:06.258;599616508384133104;1953.578;1756
2024-05-23T22:26:06.266;599616508391824476;1961.2694;1756
2024-05-23T22:26:06.273;599616508399515848;1968.9608;1842
2024-05-23T22:26:06.281;599616508407207220;1976.6521;2165
2024-05-23T22:26:06.289;599616508414898592;1984.3434;2562
2024-05-23T22:26:06.297;599616508422589964;1992.0348;2490
2024-05-23T22:26:06.304;599616508430281336;1999.7262;1874
2024-05-23T22:26:06.312;599616508437972708;2007.4176;1387
2024-05-23T22:26:06.320;599616508445664080;2015.109;1389
2024-05-23T22:26:06.327;599616508453355452;2022.8004;1477
2024-05-23T22:26:06.335;599616508461046824;2030.4918;1407
2024-05-23T22:26:06.343;599616508468738196;2038.183;1359
2024-05-23T22:26:06.350;599616508476429568;2045.8744;1342
2024-05-23T22:26:06.358;599616508484120940;2053.566;1268
2024-05-23T22:26:06.366;599616508491812312;2061.2573;1229
2024-05-23T22:26:06.373;599616508499503684;2068.9485;1240
2024-05-23T22:26:06.381;599616508507195056;2076.64;1210
2024-05-23T22:26:06.389;599616508514886428;2084.3313;1177
2024-05-23T22:26:06.397;599616508522577800;2092.0227;1166
2024-05-23T22:26:06.404;599616508530269172;2099.714;1133
2024-05-23T22:26:06.412;599616508537960544;2107.4055;1122
2024-05-23T22:26:06.420;599616508545651916;2115.097;1147
2024-05-23T22:26:06.427;599616508553343288;2122.7883;1152
2024-05-23T22:26:06.435;599616508561034660;2130.4795;1136
2024-05-23T22:26:06.443;599616508568726032;2138.171;1145
2024-05-23T22:26:06.450;599616508576417404;2145.8623;1126
2024-05-23T22:26:06.458;599616508584108776;2153.5537;1054
2024-05-23T22:26:06.466;599616508591800148;2161.2449;1017
2024-05-23T22:26:06.473;599616508599491520;2168.9365;1006
2024-05-23T22:26:06.481;599616508607182892;2176.6277;961
2024-05-23T22:26:06.489;599616508614874264;2184.3193;931
2024-05-23T22:26:06.497;599616508622565636;2192.0105;922
2024-05-23T22:26:06.504;599616508630257008;2199.702;908
2024-05-23T22:26:06.512;599616508637948380;2207.3933;892
2024-05-23T22:26:06.520;599616508645639752;2215.0845;889
2024-05-23T22:26:06.527;599616508653331124;2222.7761;906
2024-05-23T22:26:06.535;599616508661022496;2230.4673;908
2024-05-23T22:26:06.543;599616508668713868;2238.159;873
2024-05-23T22:26:06.550;599616508676435344;2245.8804;848
2024-05-23T22:26:06.558;599616508684126298;2253.571;843
2024-05-23T22:26:06.566;599616508691817252;2261.262;841
2024-05-23T22:26:06.573;599616508699508206;2268.9531;827
2024-05-23T22:26:06.581;599616508707199160;2276.644;789
2024-05-23T22:26:06.589;599616508714890114;2284.3352;741
2024-05-23T22:26:06.597;599616508722581068;2292.026;690
2024-05-23T22:26:06.604;599616508730272022;2299.7168;611
2024-05-23T22:26:06.612;599616508737962976;2307.408;525
2024-05-23T22:26:06.620;599616508745653930;2315.0989;520
2024-05-23T22:26:06.627;599616508753344884;2322.7898;580
2024-05-23T22:26:06.635;599616508761035838;2330.4807;583
2024-05-23T22:26:06.643;599616508768726792;2338.1716;548
2024-05-23T22:26:06.650;599616508776417746;2345.8625;576
2024-05-23T22:26:06.658;599616508784108700;2353.5537;634
2024-05-23T22:26:06.666;599616508791799654;2361.2446;655
2024-05-23T22:26:06.673;599616508799490608;2368.9353;648
2024-05-23T22:26:06.681;599616508807181562;2376.6265;650
2024-05-23T22:26:06.689;599616508814872516;2384.3174;669
2024-05-23T22:26:06.697;599616508822563470;2392.0085;678
2024-05-23T22:26:06.704;599616508830254424;2399.6992;685
2024-05-23T22:26:06.712;599616508837945378;2407.3901;715
2024-05-23T22:26:06.720;599616508845636332;2415.0813;738
2024-05-23T22:26:06.727;599616508853327286;2422.7722;720
2024-05-23T22:26:06.735;599616508861018240;2430.4631;706
2024-05-23T22:26:06.743;599616508868709194;2438.154;736
2024-05-23T22:26:06.750;599616508876400148;2445.845;764
2024-05-23T22:26:06.758;599616508884091102;2453.536;762
2024-05-23T22:26:06.766;599616508891782056;2461.227;759
2024-05-23T22:26:06.773;599616508899473010;2468.918;764
2024-05-23T22:26:06.781;599616508907163964;2476.609;766
2024-05-23T22:26:06.789;599616508914854918;2484.2998;752
2024-05-23T22:26:06.796;599616508922545872;2491.9907;692
2024-05-23T22:26:06.804;599616508930236826;2499.682;620
2024-05-23T22:26:06.812;599616508937927780;2507.3726;611
2024-05-23T22:26:06.820;599616508945618734;2515.0635;618
2024-05-23T22:26:06.827;599616508953309688;2522.7546;608
2024-05-23T22:26:06.835;599616508961000642;2530.4456;620
2024-05-23T22:26:06.843;599616508968691596;2538.1365;604
2024-05-23T22:26:06.850;599616508976382550;2545.8274;550
2024-05-23T22:26:06.858;599616508984073504;2553.5183;552
2024-05-23T22:26:06.866;599616508991764458;2561.2092;594
2024-05-23T22:26:06.873;599616508999455412;2568.9004;604
2024-05-23T22:26:06.881;599616509007146366;2576.5913;608
2024-05-23T22:26:06.889;599616509014837320;2584.2822;638
2024-05-23T22:26:06.896;599616509022528274;2591.9731;659
2024-05-23T22:26:06.904;599616509030219228;2599.664;650
2024-05-23T22:26:06.912;599616509037910182;2607.3552;627
2024-05-23T22:26:06.920;599616509045601136;2615.0461;624
2024-05-23T22:26:06.927;599616509053292090;2622.7368;659
2024-05-23T22:26:06.935;599616509060983044;2630.428;671
2024-05-23T22:26:06.943;599616509068673998;2638.119;648
2024-05-23T22:26:06.950;599616509076364952;2645.8098;643
2024-05-23T22:26:06.958;599616509084055906;2653.5007;699
2024-05-23T22:26:06.966;599616509091746860;2661.1917;922
2024-05-23T22:26:06.973;599616509099437814;2668.8826;1347
2024-05-23T22:26:06.981;599616509107128768;2676.5737;1635
2024-05-23T22:26:06.989;599616509114819722;2684.2646;1377
2024-05-23T22:26:06.996;599616509122510676;2691.9556;792
2024-05-23T22:26:07.004;599616509130201630;2699.6465;522
2024-05-23T22:26:07.012;599616509137892584;2707.3374;624
2024-05-23T22:26:07.020;599616509145583538;2715.0286;662
2024-05-23T22:26:07.027;599616509153274492;2722.7195;587
2024-05-23T22:26:07.035;599616509160965446;2730.4102;590
2024-05-23T22:26:07.043;599616509168656400;2738.1013;622
2024-05-23T22:26:07.050;599616509176347354;2745.7922;601
2024-05-23T22:26:07.058;599616509184038308;2753.4832;578
2024-05-23T22:26:07.066;599616509191729262;2761.1743;592
2024-05-23T22:26:07.073;599616509199420216;2768.865;620
2024-05-23T22:26:07.081;599616509207111170;2776.5562;629
2024-05-23T22:26:07.089;599616509214802124;2784.247;597
2024-05-23T22:26:07.096;599616509222493078;2791.938;550
2024-05-23T22:26:07.104;599616509230184032;2799.629;548
2024-05-23T22:26:07.112;599616509237844894;2807.2898;583
2024-05-23T22:26:07.119;599616509245536266;2814.9812;594
2024-05-23T22:26:07.127;599616509253227638;2822.6726;590
2024-05-23T22:26:07.135;599616509260919010;2830.364;604
2024-05-23T22:26:07.143;599616509268610382;2838.0552;564
2024-05-23T22:26:07.150;599616509276301754;2845.7466;460
2024-05-23T22:26:07.158;599616509283993126;2853.438;411
2024-05-23T22:26:07.166;599616509291684498;2861.1294;450
2024-05-23T22:26:07.173;599616509299375870;2868.8208;467
2024-05-23T22:26:07.181;599616509307067242;2876.5122;443
2024-05-23T22:26:07.189;599616509314758614;2884.2036;443
2024-05-23T22:26:07.196;599616509322449986;2891.8948;464
2024-05-23T22:26:07.204;599616509330141358;2899.5864;464
2024-05-23T22:26:07.212;599616509337832730;2907.2776;450
2024-05-23T22:26:07.219;599616509345524102;2914.969;434
2024-05-23T22:26:07.227;599616509353215474;2922.6604;401
2024-05-23T22:26:07.235;599616509360906846;2930.3516;341
2024-05-23T22:26:07.243;599616509368598218;2938.0432;271
2024-05-23T22:26:07.250;599616509376289590;2945.7344;232
2024-05-23T22:26:07.258;599616509383980962;2953.426;225
2024-05-23T22:26:07.266;599616509391672334;2961.1172;199
2024-05-23T22:26:07.273;599616509399363706;2968.8086;157
2024-05-23T22:26:07.281;599616509407055078;2976.5;144
2024-05-23T22:26:07.289;599616509414746450;2984.1912;151
2024-05-23T22:26:07.296;599616509422437822;2991.8828;113
2024-05-23T22:26:07.304;599616509430129194;2999.574;30
2024-05-23T22:26:07.312;599616509437820566;3007.2656;18
2024-05-23T22:26:07.319;599616509445511938;3014.9568;67
2024-05-23T22:26:07.327;599616509453203310;3022.6484;58
2024-05-23T22:26:07.335;599616509460894682;3030.3396;20
2024-05-23T22:26:07.343;599616509468586054;3038.0308;25
2024-05-23T22:26:07.350;599616509476277426;3045.7224;51
2024-05-23T22:26:07.358;599616509483968798;3053.4136;58
2024-05-23T22:26:07.366;599616509491660170;3061.1052;60
2024-05-23T22:26:07.373;599616509499351542;3068.7964;83
2024-05-23T22:26:07.381;599616509507042914;3076.4878;104
2024-05-23T22:26:07.389;599616509514734286;3084.1792;113
2024-05-23T22:26:07.396;599616509522425658;3091.8704;130
2024-05-23T22:26:07.404;599616509530117030;3099.562;167
2024-05-23T22:26:07.412;599616509537808402;3107.2532;190
2024-05-23T22:26:07.419;599616509545499774;3114.9448;188
2024-05-23T22:26:07.427;599616509553191146;3122.636;192
2024-05-23T22:26:07.435;599616509560882518;3130.3274;230
2024-05-23T22:26:07.443;599616509568573890;3138.0188;260
2024-05-23T22:26:07.450;599616509576265262;3145.71;267
2024-05-23T22:26:07.458;599616509583956634;3153.4016;283
2024-05-23T22:26:07.466;599616509591648006;3161.0928;297
2024-05-23T22:26:07.473;599616509599339378;3168.7844;297
2024-05-23T22:26:07.481;599616509607030750;3176.4756;304
2024-05-23T22:26:07.489;599616509614722122;3184.167;327
2024-05-23T22:26:07.496;599616509622413494;3191.8584;355
2024-05-23T22:26:07.504;599616509630104866;3199.5498;364
2024-05-23T22:26:07.512;599616509637796238;3207.2412;348
2024-05-23T22:26:07.519;599616509645487610;3214.9324;350
2024-05-23T22:26:07.527;599616509653178982;3222.6238;381
2024-05-23T22:26:07.535;599616509660870354;3230.3152;394
2024-05-23T22:26:07.543;599616509668561726;3238.0066;390
2024-05-23T22:26:07.550;599616509676253098;3245.698;397
2024-05-23T22:26:07.558;599616509683944470;3253.3894;399
2024-05-23T22:26:07.566;599616509691635842;3261.0808;388
2024-05-23T22:26:07.573;599616509699327214;3268.7722;385
2024-05-23T22:26:07.581;599616509707018586;3276.4634;374
2024-05-23T22:26:07.589;599616509714709958;3284.1548;353
2024-05-23T22:26:07.596;599616509722401330;3291.8462;357
2024-05-23T22:26:07.604;599616509730092702;3299.5376;350
2024-05-23T22:26:07.612;599616509737784074;3307.229;336
2024-05-23T22:26:07.619;599616509745475446;3314.9204;364
2024-05-23T22:26:07.627;599616509753166818;3322.6118;385
2024-05-23T22:26:07.635;599616509760858190;3330.303;381
2024-05-23T22:26:07.642;599616509768549562;3337.9944;390
2024-05-23T22:26:07.650;599616509776240934;3345.6858;392
2024-05-23T22:26:07.658;599616509783932306;3353.3772;360
2024-05-23T22:26:07.666;599616509791623678;3361.0686;348
2024-05-23T22:26:07.673;599616509799315058;3368.76;446
2024-05-23T22:26:07.681;599616509807006430;3376.4514;738
2024-05-23T22:26:07.689;599616509814697802;3384.1426;1157
2024-05-23T22:26:07.696;599616509822389174;3391.8342;1340
2024-05-23T22:26:07.704;599616509830080546;3399.5254;1006
2024-05-23T22:26:07.712;599616509837771918;3407.2168;446
2024-05-23T22:26:07.719;599616509845463290;3414.9082;199
2024-05-23T22:26:07.727;599616509853154662;3422.5996;255
2024-05-23T22:26:07.735;599616509860846034;3430.291;257
2024-05-23T22:26:07.742;599616509868537406;3437.9822;185
2024-05-23T22:26:07.750;599616509876228778;3445.6738;183
2024-05-23T22:26:07.758;599616509883920150;3453.365;216
2024-05-23T22:26:07.766;599616509891611522;3461.0564;232
2024-05-23T22:26:07.773;599616509899302894;3468.7478;248
2024-05-23T22:26:07.781;599616509906994266;3476.439;257
2024-05-23T22:26:07.789;599616509914685638;3484.1306;250
2024-05-23T22:26:07.796;599616509922377010;3491.8218;223
2024-05-23T22:26:07.804;599616509930068382;3499.5134;148
2024-05-23T22:26:07.812;599616509937759754;3507.2046;99
2024-05-23T22:26:07.819;599616509945451126;3514.8962;130
2024-05-23T22:26:07.827;599616509953142498;3522.5874;123
2024-05-23T22:26:07.835;599616509960833870;3530.2786;53
2024-05-23T22:26:07.842;599616509968525242;3537.9702;51
2024-05-23T22:26:07.850;599616509976216614;3545.6614;120
2024-05-23T22:26:07.858;599616509983907986;3553.353;160
2024-05-23T22:26:07.866;599616509991599358;3561.0442;164
2024-05-23T22:26:07.873;599616509999290730;3568.7358;144
2024-05-23T22:26:07.881;599616510006982102;3576.427;113
2024-05-23T22:26:07.889;599616510014673474;3584.1182;118
2024-05-23T22:26:07.896;599616510022364846;3591.8098;141
2024-05-23T22:26:07.904;599616510030056218;3599.501;141
2024-05-23T22:26:07.912;599616510037747590;3607.1926;155
2024-05-23T22:26:07.919;599616510045438962;3614.8838;176
2024-05-23T22:26:07.927;599616510053130334;3622.5752;155
2024-05-23T22:26:07.935;599616510060821706;3630.2666;139
2024-05-23T22:26:07.942;599616510068513078;3637.958;155
2024-05-23T22:26:07.950;599616510076204450;3645.6494;137
2024-05-23T22:26:07.958;599616510083895822;3653.3406;81
2024-05-23T22:26:07.966;599616510091587194;3661.0322;39
2024-05-23T22:26:07.973;599616510099278566;3668.7234;-6
2024-05-23T22:26:07.981;599616510106969938;3676.4148;-58
2024-05-23T22:26:07.989;599616510114661310;3684.1062;-76
2024-05-23T22:26:07.996;599616510122352682;3691.7976;-76
2024-05-23T22:26:08.004;599616510130044054;3699.489;-65
2024-05-23T22:26:08.012;599616510137735426;3707.1802;-51
2024-05-23T22:26:08.019;599616510145426798;3714.8718;-65
2024-05-23T22:26:08.027;599616510153118170;3722.563;-72
2024-05-23T22:26:08.035;599616510160809542;3730.2544;-37
2024-05-23T22:26:08.042;599616510168500914;3737.9458;-9
2024-05-23T22:26:08.050;599616510176192286;3745.6372;-4
2024-05-23T22:26:08.058;599616510183883658;3753.3286;2
2024-05-23T22:26:08.066;599616510191575030;3761.02;2
2024-05-23T22:26:08.073;599616510199266402;3768.7112;-37
2024-05-23T22:26:08.081;599616510206957774;3776.4026;-72
2024-05-23T22:26:08.089;599616510214649146;3784.094;-41
2024-05-23T22:26:08.096;599616510222340518;3791.7854;4
2024-05-23T22:26:08.104;599616510230031890;3799.4768;4
2024-05-23T22:26:08.112;599616510237723262;3807.1682;-9
2024-05-23T22:26:08.119;599616510245414634;3814.8596;11
2024-05-23T22:26:08.127;599616510253106006;3822.5508;53
2024-05-23T22:26:08.135;599616510260797378;3830.2422;72
2024-05-23T22:26:08.142;599616510268488750;3837.9336;81
2024-05-23T22:26:08.150;599616510276180122;3845.625;104
2024-05-23T22:26:08.158;599616510283871494;3853.3164;118
2024-05-23T22:26:08.166;599616510291562866;3861.0078;118
2024-05-23T22:26:08.173;599616510299254238;3868.6992;134
2024-05-23T22:26:08.181;599616510306945610;3876.3904;176
2024-05-23T22:26:08.189;599616510314636982;3884.082;202
2024-05-23T22:26:08.196;599616510322328354;3891.7732;195
2024-05-23T22:26:08.204;599616510330019726;3899.4646;185
2024-05-23T22:26:08.212;599616510337711098;3907.156;202
2024-05-23T22:26:08.219;599616510345402470;3914.8472;232
2024-05-23T22:26:08.227;599616510353093842;3922.5388;241
2024-05-23T22:26:08.235;599616510360785222;3930.23;253
2024-05-23T22:26:08.242;599616510368476594;3937.9216;274
2024-05-23T22:26:08.250;599616510376167966;3945.6128;276
2024-05-23T22:26:08.258;599616510383859338;3953.3042;260
2024-05-23T22:26:08.265;599616510391550710;3960.9956;267
2024-05-23T22:26:08.273;599616510399242082;3968.6868;295
2024-05-23T22:26:08.281;599616510406933454;3976.3784;311
2024-05-23T22:26:08.289;599616510414624826;3984.0696;306
2024-05-23T22:26:08.296;599616510422316198;3991.7612;260
2024-05-23T22:26:08.304;599616510430007570;3999.4524;185
2024-05-23T22:26:08.312;599616510437698942;4007.144;160
2024-05-23T22:26:08.319;599616510445390314;4014.8352;164
2024-05-23T22:26:08.327;599616510453081686;4022.5264;134
2024-05-23T22:26:08.335;599616510460773058;4030.218;125
2024-05-23T22:26:08.342;599616510468464430;4037.9092;120
2024-05-23T22:26:08.350;599616510476155802;4045.6008;65
2024-05-23T22:26:08.358;599616510483847174;4053.292;44
2024-05-23T22:26:08.365;599616510491538546;4060.9836;97
2024-05-23T22:26:08.373;599616510499229918;4068.6748;116
2024-05-23T22:26:08.381;599616510506921290;4076.366;76
2024-05-23T22:26:08.389;599616510514612662;4084.0576;102
2024-05-23T22:26:08.396;599616510522304034;4091.7488;315
2024-05-23T22:26:08.404;599616510529995406;4099.4404;731
2024-05-23T22:26:08.412;599616510537686778;4107.132;1087
2024-05-23T22:26:08.419;599616510545378150;4114.823;992
2024-05-23T22:26:08.427;599616510553069522;4122.5146;480
2024-05-23T22:26:08.435;599616510560760894;4130.2056;106
2024-05-23T22:26:08.442;599616510568452266;4137.897;137
2024-05-23T22:26:08.450;599616510576143638;4145.5884;236
2024-05-23T22:26:08.458;599616510583835010;4153.28;204
2024-05-23T22:26:08.465;599616510591526382;4160.971;190
2024-05-23T22:26:08.473;599616510599217754;4168.6626;213
2024-05-23T22:26:08.481;599616510606909126;4176.354;209
2024-05-23T22:26:08.489;599616510614600498;4184.0454;216
2024-05-23T22:26:08.496;599616510622291870;4191.737;241
2024-05-23T22:26:08.504;599616510629983242;4199.428;253
2024-05-23T22:26:08.512;599616510637674614;4207.1196;278
2024-05-23T22:26:08.519;599616510645365986;4214.811;299
2024-05-23T22:26:08.527;599616510653057358;4222.502;283
2024-05-23T22:26:08.535;599616510660748730;4230.194;276
2024-05-23T22:26:08.542;599616510668440102;4237.885;318
2024-05-23T22:26:08.550;599616510676131474;4245.5767;357
2024-05-23T22:26:08.558;599616510683822846;4253.2676;362
2024-05-23T22:26:08.565;599616510691514218;4260.9595;341
2024-05-23T22:26:08.573;599616510699205590;4268.6504;304
2024-05-23T22:26:08.581;599616510706896962;4276.342;302
2024-05-23T22:26:08.589;599616510714588334;4284.033;329
2024-05-23T22:26:08.596;599616510722279706;4291.7246;339
2024-05-23T22:26:08.604;599616510729971078;4299.416;329
2024-05-23T22:26:08.612;599616510737662450;4307.1074;299
2024-05-23T22:26:08.619;599616510745353822;4314.799;260
2024-05-23T22:26:08.627;599616510753045194;4322.4897;260
2024-05-23T22:26:08.635;599616510760736566;4330.1816;290
2024-05-23T22:26:08.642;599616510768427938;4337.873;302
2024-05-23T22:26:08.650;599616510776119310;4345.564;288
2024-05-23T22:26:08.658;599616510783810682;4353.2554;285
2024-05-23T22:26:08.665;599616510791502054;4360.947;292
2024-05-23T22:26:08.673;599616510799193426;4368.6387;264
2024-05-23T22:26:08.681;599616510806884798;4376.3296;199
2024-05-23T22:26:08.689;599616510814576170;4384.021;155
2024-05-23T22:26:08.696;599616510822267542;4391.7124;134
2024-05-23T22:26:08.704;599616510829958914;4399.404;65
2024-05-23T22:26:08.712;599616510837650286;4407.095;-25
2024-05-23T22:26:08.719;599616510845341658;4414.7866;-39
2024-05-23T22:26:08.727;599616510853033030;4422.478;-4
2024-05-23T22:26:08.735;599616510860724402;4430.169;-11
2024-05-23T22:26:08.742;599616510868415774;4437.861;-30
2024-05-23T22:26:08.750;599616510876107146;4445.5522;-13
2024-05-23T22:26:08.758;599616510883798518;4453.243;-2
2024-05-23T22:26:08.765;599616510891489890;4460.9346;-16
2024-05-23T22:26:08.773;599616510899181262;4468.626;-16
2024-05-23T22:26:08.781;599616510906872634;4476.318;11
2024-05-23T22:26:08.789;599616510914564006;4484.009;41
2024-05-23T22:26:08.796;599616510922265466;4491.7104;30
2024-05-23T22:26:08.804;599616510929956698;4499.402;-48
2024-05-23T22:26:08.812;599616510937647930;4507.093;-151
2024-05-23T22:26:08.819;599616510945339162;4514.784;-176
2024-05-23T22:26:08.827;599616510953030394;4522.4756;-146
2024-05-23T22:26:08.835;599616510960721626;4530.1665;-123
2024-05-23T22:26:08.842;599616510968412858;4537.8574;-102
2024-05-23T22:26:08.850;599616510976104090;4545.549;-106
2024-05-23T22:26:08.858;599616510983795322;4553.24;-162
2024-05-23T22:26:08.865;599616510991486554;4560.931;-202
2024-05-23T22:26:08.873;599616510999177786;4568.6226;-157
2024-05-23T22:26:08.881;599616511006869018;4576.314;-111
2024-05-23T22:26:08.889;599616511014560250;4584.005;-106
2024-05-23T22:26:08.896;599616511022251482;4591.6963;-97
2024-05-23T22:26:08.904;599616511029942714;4599.3877;-62
2024-05-23T22:26:08.912;599616511037633946;4607.079;-39
2024-05-23T22:26:08.919;599616511045325178;4614.77;-32
2024-05-23T22:26:08.927;599616511053016410;4622.4614;-2
2024-05-23T22:26:08.935;599616511060707642;4630.153;39
2024-05-23T22:26:08.942;599616511068398874;4637.8438;44
2024-05-23T22:26:08.950;599616511076090106;4645.535;39
2024-05-23T22:26:08.958;599616511083781338;4653.226;69
2024-05-23T22:26:08.965;599616511091472570;4660.9175;116
2024-05-23T22:26:08.973;599616511099163802;4668.6084;137
2024-05-23T22:26:08.981;599616511106855034;4676.3;125
2024-05-23T22:26:08.988;599616511114546266;4683.991;125
2024-05-23T22:26:08.996;599616511122237498;4691.682;162
2024-05-23T22:26:09.004;599616511129928730;4699.3735;195
2024-05-23T22:26:09.012;599616511137619962;4707.065;211
2024-05-23T22:26:09.019;599616511145311194;4714.756;250
2024-05-23T22:26:09.027;599616511153002426;4722.4473;281
2024-05-23T22:26:09.035;599616511160693658;4730.1387;260
2024-05-23T22:26:09.042;599616511168384890;4737.83;239
2024-05-23T22:26:09.050;599616511176076122;4745.521;262
2024-05-23T22:26:09.058;599616511183767354;4753.2124;253
2024-05-23T22:26:09.065;599616511191458586;4760.904;202
2024-05-23T22:26:09.073;599616511199149818;4768.5947;183
2024-05-23T22:26:09.081;599616511206841050;4776.2856;192
2024-05-23T22:26:09.088;599616511214532282;4783.977;188
2024-05-23T22:26:09.096;599616511222223514;4791.6685;260
2024-05-23T22:26:09.104;599616511229914746;4799.3594;555
2024-05-23T22:26:09.112;599616511237605978;4807.051;1019
2024-05-23T22:26:09.119;599616511245297210;4814.742;1256
2024-05-23T22:26:09.127;599616511252988442;4822.433;913
2024-05-23T22:26:09.135;599616511260679674;4830.1245;327
2024-05-23T22:26:09.142;599616511268370906;4837.816;155
2024-05-23T22:26:09.150;599616511276062138;4845.507;302
2024-05-23T22:26:09.158;599616511283753370;4853.198;288
2024-05-23T22:26:09.165;599616511291444602;4860.8896;199
2024-05-23T22:26:09.173;599616511299135834;4868.581;232
2024-05-23T22:26:09.181;599616511306827066;4876.272;262
2024-05-23T22:26:09.188;599616511314518298;4883.9634;246
2024-05-23T22:26:09.196;599616511322209530;4891.655;264
2024-05-23T22:26:09.204;599616511329900762;4899.345;309
2024-05-23T22:26:09.212;599616511337591994;4907.0366;318
2024-05-23T22:26:09.219;599616511345283226;4914.728;292
2024-05-23T22:26:09.227;599616511352974458;4922.4194;295
2024-05-23T22:26:09.235;599616511360665690;4930.1104;334
2024-05-23T22:26:09.242;599616511368356922;4937.802;353
2024-05-23T22:26:09.250;599616511376048154;4945.493;341
2024-05-23T22:26:09.258;599616511383739386;4953.184;346
2024-05-23T22:26:09.265;599616511391430618;4960.8755;362
2024-05-23T22:26:09.273;599616511399121850;4968.567;362
2024-05-23T22:26:09.281;599616511406813082;4976.258;362
2024-05-23T22:26:09.288;599616511414504314;4983.949;383
2024-05-23T22:26:09.296;599616511422195546;4991.6406;388
2024-05-23T22:26:09.304;599616511429886778;4999.332;297
2024-05-23T22:26:09.312;599616511437578010;5007.023;139
2024-05-23T22:26:09.319;599616511445269242;5014.7144;60
2024-05-23T22:26:09.327;599616511452960474;5022.4053;95
2024-05-23T22:26:09.335;599616511460651706;5030.096;120
2024-05-23T22:26:09.342;599616511468342938;5037.7876;109
2024-05-23T22:26:09.350;599616511476034170;5045.479;123
2024-05-23T22:26:09.358;599616511483735464;5053.18;132
2024-05-23T22:26:09.365;599616511491426557;5060.8716;116
2024-05-23T22:26:09.373;599616511499117650;5068.5625;90
2024-05-23T22:26:09.381;599616511506808743;5076.254;60
2024-05-23T22:26:09.388;599616511514499836;5083.945;32
2024-05-23T22:26:09.396;599616511522190929;5091.6357;-30
2024-05-23T22:26:09.404;599616511529882022;5099.327;-109
2024-05-23T22:26:09.412;599616511537573115;5107.018;-125
2024-05-23T22:26:09.419;599616511545264208;5114.709;-120
2024-05-23T22:26:09.427;599616511552955301;5122.4004;-174
2024-05-23T22:26:09.435;599616511560646394;5130.0913;-225
2024-05-23T22:26:09.442;599616511568337487;5137.782;-206
2024-05-23T22:26:09.450;599616511576028580;5145.4736;-190
2024-05-23T22:26:09.458;599616511583719673;5153.165;-211
2024-05-23T22:26:09.465;599616511591410766;5160.8555;-197
2024-05-23T22:26:09.473;599616511599101859;5168.547;-144
2024-05-23T22:26:09.481;599616511606792952;5176.2383;-113
2024-05-23T22:26:09.488;599616511614484045;5183.9287;-111
2024-05-23T22:26:09.496;599616511622175138;5191.62;-106
2024-05-23T22:26:09.504;599616511629866231;5199.3115;-83
2024-05-23T22:26:09.512;599616511637557324;5207.002;-55
2024-05-23T22:26:09.519;599616511645248417;5214.6934;-48
2024-05-23T22:26:09.527;599616511652939510;5222.385;-34
2024-05-23T22:26:09.535;599616511660630603;5230.075;0
2024-05-23T22:26:09.542;599616511668321696;5237.7666;13
2024-05-23T22:26:09.550;599616511676012789;5245.458;-13
2024-05-23T22:26:09.558;599616511683703882;5253.1484;-32
2024-05-23T22:26:09.565;599616511691394975;5260.84;0
2024-05-23T22:26:09.573;599616511699086068;5268.5312;34
2024-05-23T22:26:09.581;599616511706777161;5276.222;34
2024-05-23T22:26:09.588;599616511714468254;5283.913;37
2024-05-23T22:26:09.596;599616511722159347;5291.6045;67
2024-05-23T22:26:09.604;599616511729850440;5299.2954;92
2024-05-23T22:26:09.611;599616511737541533;5306.9863;102
2024-05-23T22:26:09.619;599616511745232626;5314.6777;125
2024-05-23T22:26:09.627;599616511752923719;5322.3687;155
2024-05-23T22:26:09.635;599616511760614812;5330.0596;153
2024-05-23T22:26:09.642;599616511768305905;5337.751;146
2024-05-23T22:26:09.650;599616511775996998;5345.442;178
2024-05-23T22:26:09.658;599616511783688091;5353.133;218
2024-05-23T22:26:09.665;599616511791379184;5360.824;225
2024-05-23T22:26:09.673;599616511799070277;5368.515;220
2024-05-23T22:26:09.681;599616511806761370;5376.2065;223
2024-05-23T22:26:09.688;599616511814452463;5383.8975;239
2024-05-23T22:26:09.696;599616511822143556;5391.5884;250
2024-05-23T22:26:09.704;599616511829834649;5399.28;250
2024-05-23T22:26:09.711;599616511837525742;5406.9707;267
2024-05-23T22:26:09.719;599616511845216835;5414.6616;285
2024-05-23T22:26:09.727;599616511852907928;5422.353;271
2024-05-23T22:26:09.735;599616511860599021;5430.044;264
2024-05-23T22:26:09.742;599616511868290114;5437.735;306
2024-05-23T22:26:09.750;599616511875981207;5445.4263;350
2024-05-23T22:26:09.758;599616511883672300;5453.1177;357
2024-05-23T22:26:09.765;599616511891363393;5460.808;339
2024-05-23T22:26:09.773;599616511899054486;5468.4995;327
2024-05-23T22:26:09.781;599616511906745579;5476.191;329
2024-05-23T22:26:09.788;599616511914436672;5483.8813;327
2024-05-23T22:26:09.796;599616511922127765;5491.5728;292
2024-05-23T22:26:09.804;599616511929818858;5499.264;248
2024-05-23T22:26:09.811;599616511937509951;5506.9546;199
2024-05-23T22:26:09.819;599616511945201044;5514.646;95
2024-05-23T22:26:09.827;599616511952892137;5522.3374;53
2024-05-23T22:26:09.835;599616511960583230;5530.028;257
2024-05-23T22:26:09.842;599616511968274323;5537.719;678
2024-05-23T22:26:09.850;599616511975965416;5545.4106;1057
2024-05-23T22:26:09.858;599616511983656509;5553.101;1008
2024-05-23T22:26:09.865;599616511991347602;5560.7925;492
2024-05-23T22:26:09.873;599616511999038695;5568.484;78
2024-05-23T22:26:09.881;599616512006729788;5576.175;111
2024-05-23T22:26:09.888;599616512014420881;5583.8657;202
2024-05-23T22:26:09.896;599616512022111974;5591.557;146
2024-05-23T22:26:09.904;599616512029803067;5599.248;134
2024-05-23T22:26:09.911;599616512037494160;5606.939;148
2024-05-23T22:26:09.919;599616512045165196;5614.61;137
2024-05-23T22:26:09.927;599616512052856568;5622.302;164
2024-05-23T22:26:09.934;599616512060547940;5629.993;190
2024-05-23T22:26:09.942;599616512068239312;5637.684;178
2024-05-23T22:26:09.950;599616512075930684;5645.3755;192
2024-05-23T22:26:09.958;599616512083622056;5653.067;206
2024-05-23T22:26:09.965;599616512091313428;5660.7583;141
2024-05-23T22:26:09.973;599616512099004800;5668.4497;37
2024-05-23T22:26:09.981;599616512106696172;5676.141;6
2024-05-23T22:26:09.988;599616512114387544;5683.8325;41
2024-05-23T22:26:09.996;599616512122078916;5691.5234;34
2024-05-23T22:26:10.004;599616512129770288;5699.2153;4
2024-05-23T22:26:10.011;599616512137461660;5706.9067;32
2024-05-23T22:26:10.019;599616512145153032;5714.5977;78
2024-05-23T22:26:10.027;599616512152844404;5722.289;83
2024-05-23T22:26:10.034;599616512160535776;5729.9805;90
2024-05-23T22:26:10.042;599616512168227148;5737.6724;69
2024-05-23T22:26:10.050;599616512175918520;5745.3633;-20
2024-05-23T22:26:10.058;599616512183609892;5753.0547;-78
2024-05-23T22:26:10.065;599616512191301264;5760.746;-74
2024-05-23T22:26:10.073;599616512198992636;5768.438;-92
2024-05-23T22:26:10.081;599616512206684008;5776.129;-116
2024-05-23T22:26:10.088;599616512214375380;5783.8203;-116
2024-05-23T22:26:10.096;599616512222066752;5791.5117;-125
2024-05-23T22:26:10.104;599616512229758124;5799.2026;-120
2024-05-23T22:26:10.111;599616512237449496;5806.8945;-97
2024-05-23T22:26:10.119;599616512245140868;5814.586;-97
2024-05-23T22:26:10.127;599616512252832240;5822.2773;-102
2024-05-23T22:26:10.134;599616512260523612;5829.9683;-92
2024-05-23T22:26:10.142;599616512268214984;5837.6597;-106
2024-05-23T22:26:10.150;599616512275906356;5845.3516;-132
2024-05-23T22:26:10.158;599616512283597728;5853.0425;-116
2024-05-23T22:26:10.165;599616512291289100;5860.734;-72
2024-05-23T22:26:10.173;599616512298980472;5868.4253;-48
2024-05-23T22:26:10.181;599616512306671844;5876.1167;-53
2024-05-23T22:26:10.188;599616512314363216;5883.808;-46
2024-05-23T22:26:10.196;599616512322054588;5891.4995;-20
2024-05-23T22:26:10.204;599616512329745960;5899.191;0
2024-05-23T22:26:10.211;599616512337437332;5906.882;2
2024-05-23T22:26:10.219;599616512345128704;5914.5737;27
2024-05-23T22:26:10.227;599616512352820076;5922.265;65
2024-05-23T22:26:10.234;599616512360511448;5929.9565;65
2024-05-23T22:26:10.242;599616512368202820;5937.6475;51
2024-05-23T22:26:10.250;599616512375894192;5945.339;78
2024-05-23T22:26:10.258;599616512383585564;5953.031;118
2024-05-23T22:26:10.265;599616512391276936;5960.7217;130
2024-05-23T22:26:10.273;599616512398968308;5968.413;130
2024-05-23T22:26:10.281;599616512406659680;5976.1045;125
2024-05-23T22:26:10.288;599616512414351052;5983.796;104
2024-05-23T22:26:10.296;599616512422042424;5991.4873;65
2024-05-23T22:26:10.304;599616512429733796;5999.1787;58
2024-05-23T22:26:10.311;599616512437425168;6006.87;48
2024-05-23T22:26:10.319;599616512445116540;6014.5615;-27
2024-05-23T22:26:10.327;599616512452807912;6022.253;-83
2024-05-23T22:26:10.334;599616512460499284;6029.9443;-55
2024-05-23T22:26:10.342;599616512468190656;6037.6357;-6
2024-05-23T22:26:10.350;599616512475882028;6045.3267;23
2024-05-23T22:26:10.358;599616512483573400;6053.018;44
2024-05-23T22:26:10.365;599616512491264772;6060.71;58
2024-05-23T22:26:10.373;599616512498956144;6068.4014;69
2024-05-23T22:26:10.381;599616512506647516;6076.0923;88
2024-05-23T22:26:10.388;599616512514338888;6083.7837;109
2024-05-23T22:26:10.396;599616512522030260;6091.475;130
2024-05-23T22:26:10.404;599616512529721632;6099.1665;164
2024-05-23T22:26:10.411;599616512537413004;6106.858;190
2024-05-23T22:26:10.419;599616512545104376;6114.5493;181
2024-05-23T22:26:10.427;599616512552795748;6122.2407;181
2024-05-23T22:26:10.434;599616512560487120;6129.9316;218
2024-05-23T22:26:10.442;599616512568178492;6137.6235;248
2024-05-23T22:26:10.450;599616512575869864;6145.315;248
2024-05-23T22:26:10.458;599616512583561236;6153.006;250
2024-05-23T22:26:10.465;599616512591252608;6160.6973;262
2024-05-23T22:26:10.473;599616512598943980;6168.389;264
2024-05-23T22:26:10.481;599616512606635360;6176.0806;264
2024-05-23T22:26:10.488;599616512614326732;6183.7715;281
2024-05-23T22:26:10.496;599616512622018104;6191.463;318
2024-05-23T22:26:10.504;599616512629709476;6199.1543;329
2024-05-23T22:26:10.511;599616512637400848;6206.846;311
2024-05-23T22:26:10.519;599616512645092220;6214.537;325
2024-05-23T22:26:10.527;599616512652783592;6222.2285;350
2024-05-23T22:26:10.534;599616512660474964;6229.92;315
2024-05-23T22:26:10.542;599616512668166336;6237.611;271
2024-05-23T22:26:10.550;599616512675857708;6245.3027;278
2024-05-23T22:26:10.557;599616512683549080;6252.994;288
2024-05-23T22:26:10.565;599616512691240452;6260.6855;236
2024-05-23T22:26:10.573;599616512698931824;6268.3765;171
2024-05-23T22:26:10.581;599616512706623196;6276.068;164
2024-05-23T22:26:10.588;599616512714314568;6283.76;199
2024-05-23T22:26:10.596;599616512722005940;6291.4507;292
2024-05-23T22:26:10.604;599616512729697312;6299.142;583
2024-05-23T22:26:10.611;599616512737388684;6306.8335;1019
2024-05-23T22:26:10.619;599616512745080056;6314.5254;1161
2024-05-23T22:26:10.627;599616512752771428;6322.2163;729
2024-05-23T22:26:10.634;599616512760462800;6329.9077;206
2024-05-23T22:26:10.642;599616512768154172;6337.599;146
2024-05-23T22:26:10.650;599616512775845544;6345.29;255
2024-05-23T22:26:10.657;599616512783536916;6352.982;164
2024-05-23T22:26:10.665;599616512791228288;6360.6733;76
2024-05-23T22:26:10.673;599616512798919660;6368.3647;109
2024-05-23T22:26:10.681;599616512806611032;6376.0557;120
2024-05-23T22:26:10.688;599616512814302404;6383.747;90
2024-05-23T22:26:10.696;599616512821993776;6391.439;83
2024-05-23T22:26:10.704;599616512829685148;6399.13;99
2024-05-23T22:26:10.711;599616512837376520;6406.8213;116
2024-05-23T22:26:10.719;599616512845067892;6414.5127;116
2024-05-23T22:26:10.727;599616512852759264;6422.204;123
2024-05-23T22:26:10.734;599616512860450636;6429.8955;130
2024-05-23T22:26:10.742;599616512868142008;6437.587;90
2024-05-23T22:26:10.750;599616512875833380;6445.2783;37
2024-05-23T22:26:10.757;599616512883524752;6452.969;16
2024-05-23T22:26:10.765;599616512891216124;6460.661;4
2024-05-23T22:26:10.773;599616512898907496;6468.3525;-9
2024-05-23T22:26:10.781;599616512906598868;6476.044;-34
2024-05-23T22:26:10.788;599616512914290240;6483.735;-83
2024-05-23T22:26:10.796;599616512921981612;6491.4263;-97
2024-05-23T22:26:10.804;599616512929672984;6499.118;-72
2024-05-23T22:26:10.811;599616512937364356;6506.8096;-76
2024-05-23T22:26:10.819;599616512945055728;6514.5005;-130
2024-05-23T22:26:10.827;599616512952747100;6522.192;-192
2024-05-23T22:26:10.834;599616512960438472;6529.8833;-209
2024-05-23T22:26:10.842;599616512968129844;6537.5747;-192
2024-05-23T22:26:10.850;599616512975821216;6545.266;-167
2024-05-23T22:26:10.857;599616512983512588;6552.9575;-127
2024-05-23T22:26:10.865;599616512991203960;6560.649;-97
2024-05-23T22:26:10.873;599616512998895332;6568.34;-99
2024-05-23T22:26:10.881;599616513006586704;6576.0317;-106
2024-05-23T22:26:10.888;599616513014278076;6583.723;-95
2024-05-23T22:26:10.896;599616513021969448;6591.414;-85
2024-05-23T22:26:10.904;599616513029660820;6599.1055;-83
2024-05-23T22:26:10.911;599616513037352192;6606.7974;-62
2024-05-23T22:26:10.919;599616513045043564;6614.489;-46
2024-05-23T22:26:10.927;599616513052734936;6622.1797;-67
2024-05-23T22:26:10.934;599616513060426308;6629.871;-69
2024-05-23T22:26:10.942;599616513068117680;6637.5625;-20
2024-05-23T22:26:10.950;599616513075809052;6645.254;20
2024-05-23T22:26:10.957;599616513083500424;6652.9453;25
2024-05-23T22:26:10.965;599616513091191796;6660.6367;27
2024-05-23T22:26:10.973;599616513098883168;6668.328;44
2024-05-23T22:26:10.981;599616513106574540;6676.019;62
2024-05-23T22:26:10.988;599616513114265912;6683.711;74
2024-05-23T22:26:10.996;599616513121957284;6691.4023;88
2024-05-23T22:26:11.004;599616513129648656;6699.0933;120
2024-05-23T22:26:11.011;599616513137340028;6706.7847;141
2024-05-23T22:26:11.019;599616513145031400;6714.4766;123
2024-05-23T22:26:11.027;599616513152722772;6722.168;85
2024-05-23T22:26:11.034;599616513160414144;6729.859;62
2024-05-23T22:26:11.042;599616513168135620;6737.5806;72
2024-05-23T22:26:11.050;599616513175826574;6745.2715;95
2024-05-23T22:26:11.057;599616513183517528;6752.9624;109
2024-05-23T22:26:11.065;599616513191208482;6760.6533;111
2024-05-23T22:26:11.073;599616513198899436;6768.3447;90
2024-05-23T22:26:11.081;599616513206590390;6776.035;27
2024-05-23T22:26:11.088;599616513214281344;6783.726;4
2024-05-23T22:26:11.096;599616513221972298;6791.4175;58
2024-05-23T22:26:11.104;599616513229663252;6799.108;83
2024-05-23T22:26:11.111;599616513237354206;6806.799;55
2024-05-23T22:26:11.119;599616513245045160;6814.49;69
2024-05-23T22:26:11.127;599616513252736114;6822.1807;120
2024-05-23T22:26:11.134;599616513260427068;6829.872;139
2024-05-23T22:26:11.142;599616513268118022;6837.563;141
2024-05-23T22:26:11.150;599616513275808976;6845.2534;162
2024-05-23T22:26:11.157;599616513283499930;6852.945;181
2024-05-23T22:26:11.165;599616513291190884;6860.6357;178
2024-05-23T22:26:11.173;599616513298881838;6868.327;188
2024-05-23T22:26:11.181;599616513306572792;6876.0176;218
2024-05-23T22:26:11.188;599616513314263746;6883.7085;248
2024-05-23T22:26:11.196;599616513321954700;6891.4;253
2024-05-23T22:26:11.204;599616513329645654;6899.0903;239
2024-05-23T22:26:11.211;599616513337336608;6906.7817;246
2024-05-23T22:26:11.219;599616513345027562;6914.4727;271
2024-05-23T22:26:11.227;599616513352718516;6922.163;276
2024-05-23T22:26:11.234;599616513360409470;6929.8545;278
2024-05-23T22:26:11.242;599616513368100424;6937.5454;295
2024-05-23T22:26:11.250;599616513375791378;6945.2363;292
2024-05-23T22:26:11.257;599616513383482332;6952.9272;278
2024-05-23T22:26:11.265;599616513391173286;6960.618;292
2024-05-23T22:26:11.273;599616513398864240;6968.309;292
2024-05-23T22:26:11.281;599616513406555194;6976.0;260
2024-05-23T22:26:11.288;599616513414246148;6983.6914;243
2024-05-23T22:26:11.296;599616513421937102;6991.382;234
2024-05-23T22:26:11.304;599616513429628056;6999.0728;227
2024-05-23T22:26:11.311;599616513437319010;7006.764;243
2024-05-23T22:26:11.319;599616513445009964;7014.4546;218
2024-05-23T22:26:11.327;599616513452700918;7022.146;146
2024-05-23T22:26:11.334;599616513460391872;7029.837;127
2024-05-23T22:26:11.342;599616513468082826;7037.5273;141
2024-05-23T22:26:11.350;599616513475773780;7045.2188;111
2024-05-23T22:26:11.357;599616513483464734;7052.9097;125
2024-05-23T22:26:11.365;599616513491155688;7060.601;327
2024-05-23T22:26:11.373;599616513498846642;7068.2915;727
2024-05-23T22:26:11.380;599616513506537596;7075.9824;1052
2024-05-23T22:26:11.388;599616513514228550;7083.674;917
2024-05-23T22:26:11.396;599616513521919504;7091.3643;381
2024-05-23T22:26:11.404;599616513529610458;7099.055;4
2024-05-23T22:26:11.411;599616513537301412;7106.7466;46
2024-05-23T22:26:11.419;599616513544992366;7114.437;130
2024-05-23T22:26:11.427;599616513552683320;7122.1284;62
2024-05-23T22:26:11.434;599616513560374274;7129.8193;25
2024-05-23T22:26:11.442;599616513568065228;7137.51;46
2024-05-23T22:26:11.450;599616513575756182;7145.201;32
2024-05-23T22:26:11.457;599616513583447136;7152.892;2
2024-05-23T22:26:11.465;599616513591138090;7160.583;-13
2024-05-23T22:26:11.473;599616513598829044;7168.274;-58
2024-05-23T22:26:11.480;599616513606519998;7175.965;-116
2024-05-23T22:26:11.488;599616513614210952;7183.656;-116
2024-05-23T22:26:11.496;599616513621901906;7191.3467;-95
2024-05-23T22:26:11.504;599616513629592860;7199.038;-99
2024-05-23T22:26:11.511;599616513637283814;7206.7285;-92
2024-05-23T22:26:11.519;599616513644974768;7214.4194;-109
2024-05-23T22:26:11.527;599616513652665722;7222.111;-176
2024-05-23T22:26:11.534;599616513660356676;7229.8013;-195
2024-05-23T22:26:11.542;599616513668047630;7237.4927;-134
2024-05-23T22:26:11.550;599616513675738584;7245.1836;-97
2024-05-23T22:26:11.557;599616513683429538;7252.874;-95
2024-05-23T22:26:11.565;599616513691120492;7260.5654;-81
2024-05-23T22:26:11.573;599616513698811446;7268.2563;-58
2024-05-23T22:26:11.580;599616513706502400;7275.9478;-37
2024-05-23T22:26:11.588;599616513714193354;7283.638;-25
2024-05-23T22:26:11.596;599616513721884308;7291.329;-6
2024-05-23T22:26:11.603;599616513729545170;7298.99;37
2024-05-23T22:26:11.611;599616513737236542;7306.681;62
2024-05-23T22:26:11.619;599616513744927914;7314.3726;46
2024-05-23T22:26:11.627;599616513752619286;7322.0645;46
2024-05-23T22:26:11.634;599616513760310658;7329.756;90
2024-05-23T22:26:11.642;599616513768002030;7337.447;120
2024-05-23T22:26:11.650;599616513775693402;7345.138;116
2024-05-23T22:26:11.657;599616513783384774;7352.8296;102
2024-05-23T22:26:11.665;599616513791076146;7360.521;85
2024-05-23T22:26:11.673;599616513798767518;7368.2124;51
2024-05-23T22:26:11.680;599616513806458890;7375.904;-6
2024-05-23T22:26:11.688;599616513814150262;7383.595;-32
2024-05-23T22:26:11.696;599616513821841634;7391.286;4
2024-05-23T22:26:11.703;599616513829533006;7398.978;25
2024-05-23T22:26:11.711;599616513837224378;7406.6694;2
2024-05-23T22:26:11.719;599616513844915750;7414.3604;16
2024-05-23T22:26:11.727;599616513852607122;7422.052;62
2024-05-23T22:26:11.734;599616513860298494;7429.7437;81
2024-05-23T22:26:11.742;599616513867989866;7437.435;88
2024-05-23T22:26:11.750;599616513875681238;7445.126;111
2024-05-23T22:26:11.757;599616513883372610;7452.8174;118
2024-05-23T22:26:11.765;599616513891063982;7460.509;97
2024-05-23T22:26:11.773;599616513898755354;7468.2007;74
2024-05-23T22:26:11.780;599616513906446726;7475.8916;92
2024-05-23T22:26:11.788;599616513914138098;7483.583;134
2024-05-23T22:26:11.796;599616513921829470;7491.2744;141
2024-05-23T22:26:11.803;599616513929520842;7498.9653;123
2024-05-23T22:26:11.811;599616513937212214;7506.657;134
2024-05-23T22:26:11.819;599616513944903586;7514.3486;125
2024-05-23T22:26:11.827;599616513952594958;7522.04;48
2024-05-23T22:26:11.834;599616513960286330;7529.731;11
2024-05-23T22:26:11.842;599616513967977702;7537.4224;51
2024-05-23T22:26:11.850;599616513975669074;7545.1143;60
2024-05-23T22:26:11.857;599616513983360446;7552.805;46
2024-05-23T22:26:11.865;599616513991051818;7560.4966;72
2024-05-23T22:26:11.873;599616513998743190;7568.188;113
2024-05-23T22:26:11.880;599616514006434562;7575.88;137
2024-05-23T22:26:11.888;599616514014125934;7583.571;141
2024-05-23T22:26:11.896;599616514021817306;7591.262;139
2024-05-23T22:26:11.903;599616514029508678;7598.9536;155
2024-05-23T22:26:11.911;599616514037200050;7606.6445;174
2024-05-23T22:26:11.919;599616514044891422;7614.3364;174
2024-05-23T22:26:11.927;599616514052582794;7622.028;181
2024-05-23T22:26:11.934;599616514060274166;7629.719;211
2024-05-23T22:26:11.942;599616514067965538;7637.41;216
2024-05-23T22:26:11.950;599616514075656910;7645.1016;199
2024-05-23T22:26:11.957;599616514083348282;7652.7935;213
2024-05-23T22:26:11.965;599616514091039654;7660.4844;248
2024-05-23T22:26:11.973;599616514098731026;7668.176;253
2024-05-23T22:26:11.980;599616514106422398;7675.867;236
2024-05-23T22:26:11.988;599616514114113770;7683.559;236
2024-05-23T22:26:11.996;599616514121805142;7691.25;255
2024-05-23T22:26:12.003;599616514129496514;7698.9414;285
2024-05-23T22:26:12.011;599616514137187886;7706.633;299
2024-05-23T22:26:12.019;599616514144879258;7714.3237;278
2024-05-23T22:26:12.027;599616514152570630;7722.0156;260
2024-05-23T22:26:12.034;599616514160262002;7729.707;248
2024-05-23T22:26:12.042;599616514167953374;7737.3984;234
2024-05-23T22:26:12.050;599616514175644746;7745.0894;248
2024-05-23T22:26:12.057;599616514183336118;7752.781;278
2024-05-23T22:26:12.065;599616514191027490;7760.4727;288
2024-05-23T22:26:12.073;599616514198718862;7768.164;274
2024-05-23T22:26:12.080;599616514206410234;7775.855;248
2024-05-23T22:26:12.088;599616514214101606;7783.5464;239
2024-05-23T22:26:12.096;599616514221792978;7791.238;322
2024-05-23T22:26:12.103;599616514229484350;7798.929;615
2024-05-23T22:26:12.111;599616514237175722;7806.6206;1050
2024-05-23T22:26:12.119;599616514244867094;7814.312;1170
2024-05-23T22:26:12.127;599616514252558466;7822.0034;687
2024-05-23T22:26:12.134;599616514260249838;7829.695;118
2024-05-23T22:26:12.142;599616514267941210;7837.386;58
2024-05-23T22:26:12.150;599616514275632582;7845.0776;199
2024-05-23T22:26:12.157;599616514283323954;7852.7686;144
2024-05-23T22:26:12.165;599616514291015334;7860.46;76
2024-05-23T22:26:12.173;599616514298706706;7868.152;78
2024-05-23T22:26:12.180;599616514306398078;7875.8433;32
2024-05-23T22:26:12.188;599616514314089450;7883.534;-25
2024-05-23T22:26:12.196;599616514321780822;7891.2256;-53
2024-05-23T22:26:12.203;599616514329472194;7898.917;-55
2024-05-23T22:26:12.211;599616514337163566;7906.6084;-78
2024-05-23T22:26:12.219;599616514344854938;7914.3;-169
2024-05-23T22:26:12.226;599616514352546310;7921.991;-234
2024-05-23T22:26:12.234;599616514360237682;7929.6826;-188
2024-05-23T22:26:12.242;599616514367929054;7937.3735;-148
2024-05-23T22:26:12.250;599616514375620426;7945.0654;-169
2024-05-23T22:26:12.257;599616514383311798;7952.757;-199
2024-05-23T22:26:12.265;599616514391003170;7960.448;-230
2024-05-23T22:26:12.273;599616514398694542;7968.139;-234
2024-05-23T22:26:12.280;599616514406385914;7975.831;-204
2024-05-23T22:26:12.288;599616514414077286;7983.5225;-162
2024-05-23T22:26:12.296;599616514421768658;7991.2134;-118
2024-05-23T22:26:12.303;599616514429460030;7998.905;-99
2024-05-23T22:26:12.311;599616514437151402;8006.596;-113
2024-05-23T22:26:12.319;599616514444842774;8014.288;-139
2024-05-23T22:26:12.326;599616514452534146;8021.979;-178
2024-05-23T22:26:12.334;599616514460225518;8029.6704;-204
2024-05-23T22:26:12.342;599616514467916890;8037.362;-178
2024-05-23T22:26:12.350;599616514475608262;8045.0527;-144
2024-05-23T22:26:12.357;599616514483299634;8052.7446;-130
2024-05-23T22:26:12.365;599616514490991006;8060.436;-120
2024-05-23T22:26:12.373;599616514498682378;8068.1274;-95
2024-05-23T22:26:12.380;599616514506373750;8075.8184;-62
2024-05-23T22:26:12.388;599616514514065122;8083.51;-34
2024-05-23T22:26:12.396;599616514521756494;8091.2017;-34
2024-05-23T22:26:12.403;599616514529447866;8098.8926;-53
2024-05-23T22:26:12.411;599616514537139238;8106.584;-41
2024-05-23T22:26:12.419;599616514544830610;8114.2754;-11
2024-05-23T22:26:12.426;599616514552521982;8121.9673;-2
2024-05-23T22:26:12.434;599616514560213354;8129.658;13
2024-05-23T22:26:12.442;599616514567904726;8137.3496;51
2024-05-23T22:26:12.450;599616514575596098;8145.041;60
2024-05-23T22:26:12.457;599616514583287470;8152.732;53
2024-05-23T22:26:12.465;599616514590978842;8160.424;78
2024-05-23T22:26:12.473;599616514598670214;8168.115;125
2024-05-23T22:26:12.480;599616514606361586;8175.8066;148
2024-05-23T22:26:12.488;599616514614052958;8183.4976;148
2024-05-23T22:26:12.496;599616514621744330;8191.189;141
2024-05-23T22:26:12.503;599616514629435702;8198.881;123
2024-05-23T22:26:12.511;599616514637127074;8206.572;92
2024-05-23T22:26:12.519;599616514644818446;8214.264;85
2024-05-23T22:26:12.526;599616514652509818;8221.954;111
2024-05-23T22:26:12.534;599616514660201190;8229.646;132
2024-05-23T22:26:12.542;599616514667892562;8237.338;130
2024-05-23T22:26:12.550;599616514675583934;8245.029;134
2024-05-23T22:26:12.557;599616514683275306;8252.72;157
2024-05-23T22:26:12.565;599616514690966678;8260.411;185
2024-05-23T22:26:12.573;599616514698658050;8268.104;204
2024-05-23T22:26:12.580;599616514706349422;8275.794;202
2024-05-23T22:26:12.588;599616514714040794;8283.485;197
2024-05-23T22:26:12.596;599616514721732166;8291.177;213
2024-05-23T22:26:12.603;599616514729423538;8298.868;230
2024-05-23T22:26:12.611;599616514737114910;8306.56;236
2024-05-23T22:26:12.619;599616514744806282;8314.251;250
2024-05-23T22:26:12.626;599616514752497654;8321.942;271
2024-05-23T22:26:12.634;599616514760189026;8329.634;262
2024-05-23T22:26:12.642;599616514767880398;8337.325;248
2024-05-23T22:26:12.650;599616514775571770;8345.017;269
2024-05-23T22:26:12.657;599616514783263142;8352.708;302
2024-05-23T22:26:12.665;599616514790954514;8360.399;306
2024-05-23T22:26:12.673;599616514798645886;8368.091;292
2024-05-23T22:26:12.680;599616514806337258;8375.782;288
2024-05-23T22:26:12.688;599616514814028630;8383.474;299
2024-05-23T22:26:12.696;599616514821720002;8391.165;302
2024-05-23T22:26:12.703;599616514829411374;8398.856;297
2024-05-23T22:26:12.711;599616514837102746;8406.548;311
2024-05-23T22:26:12.719;599616514844794118;8414.239;322
2024-05-23T22:26:12.726;599616514852490538;8421.936;302
2024-05-23T22:26:12.734;599616514860181840;8429.627;297
2024-05-23T22:26:12.742;599616514867873142;8437.318;327
2024-05-23T22:26:12.750;599616514875564444;8445.01;327
2024-05-23T22:26:12.757;599616514883255746;8452.7;278
2024-05-23T22:26:12.765;599616514890947048;8460.392;241
2024-05-23T22:26:12.773;599616514898638350;8468.083;234
2024-05-23T22:26:12.780;599616514906329652;8475.774;218
2024-05-23T22:26:12.788;599616514914020954;8483.466;164
2024-05-23T22:26:12.796;599616514921712256;8491.157;102
2024-05-23T22:26:12.803;599616514929403558;8498.849;81
2024-05-23T22:26:12.811;599616514937094860;8506.539;65
2024-05-23T22:26:12.819;599616514944786162;8514.231;9
2024-05-23T22:26:12.826;599616514952477464;8521.923;-44
2024-05-23T22:26:12.834;599616514960168766;8529.614;-2
2024-05-23T22:26:12.842;599616514967860068;8537.305;267
2024-05-23T22:26:12.849;599616514975551370;8544.996;701
2024-05-23T22:26:12.857;599616514983242672;8552.6875;843
2024-05-23T22:26:12.865;599616514990933974;8560.379;404
2024-05-23T22:26:12.873;599616514998625276;8568.07;-144
2024-05-23T22:26:12.880;599616515006316578;8575.762;-250
2024-05-23T22:26:12.888;599616515014007880;8583.453;-146
2024-05-23T22:26:12.896;599616515021699182;8591.144;-216
2024-05-23T22:26:12.903;599616515029390484;8598.835;-315
2024-05-23T22:26:12.911;599616515037081786;8606.526;-313
2024-05-23T22:26:12.919;599616515044773088;8614.218;-299
2024-05-23T22:26:12.926;599616515052464390;8621.909;-290
2024-05-23T22:26:12.934;599616515060155692;8629.601;-264
2024-05-23T22:26:12.942;599616515067846994;8637.292;-253
2024-05-23T22:26:12.949;599616515075538296;8644.982;-239
2024-05-23T22:26:12.957;599616515083229598;8652.674;-225
2024-05-23T22:26:12.965;599616515090920900;8660.365;-225
2024-05-23T22:26:12.973;599616515098612202;8668.058;-213
2024-05-23T22:26:12.980;599616515106303504;8675.749;-171
2024-05-23T22:26:12.988;599616515113994806;8683.44;-125
2024-05-23T22:26:12.996;599616515121686108;8691.132;-130
2024-05-23T22:26:13.003;599616515129377410;8698.822;-167
2024-05-23T22:26:13.011;599616515137068712;8706.514;-151
2024-05-23T22:26:13.019;599616515144760014;8714.205;-90
2024-05-23T22:26:13.026;599616515152451316;8721.896;-72
2024-05-23T22:26:13.034;599616515160142618;8729.588;-65
2024-05-23T22:26:13.042;599616515167833920;8737.279;-20
2024-05-23T22:26:13.049;599616515175525222;8744.971;2
2024-05-23T22:26:13.057;599616515183216524;8752.661;-2
2024-05-23T22:26:13.065;599616515190907826;8760.353;20
2024-05-23T22:26:13.073;599616515198599128;8768.044;65
2024-05-23T22:26:13.080;599616515206290430;8775.735;92
2024-05-23T22:26:13.088;599616515213981732;8783.427;95
2024-05-23T22:26:13.096;599616515221673034;8791.118;88
2024-05-23T22:26:13.103;599616515229364336;8798.81;106
2024-05-23T22:26:13.111;599616515237055638;8806.5;137
2024-05-23T22:26:13.119;599616515244746940;8814.191;139
2024-05-23T22:26:13.126;599616515252438242;8821.883;141
2024-05-23T22:26:13.134;599616515260129544;8829.574;151
2024-05-23T22:26:13.142;599616515267820846;8837.266;132
2024-05-23T22:26:13.149;599616515275512148;8844.957;106
2024-05-23T22:26:13.157;599616515283203450;8852.647;118
2024-05-23T22:26:13.165;599616515290894752;8860.339;151
2024-05-23T22:26:13.173;599616515298586054;8868.03;169
2024-05-23T22:26:13.180;599616515306277356;8875.723;167
2024-05-23T22:26:13.188;599616515313968658;8883.414;164
2024-05-23T22:26:13.196;599616515321659960;8891.105;183
2024-05-23T22:26:13.203;599616515329351262;8898.797;199
2024-05-23T22:26:13.211;599616515337042564;8906.488;202
2024-05-23T22:26:13.219;599616515344733866;8914.179;216
2024-05-23T22:26:13.226;599616515352425168;8921.87;246
2024-05-23T22:26:13.234;599616515360116470;8929.562;248
2024-05-23T22:26:13.242;599616515367807772;8937.253;225
2024-05-23T22:26:13.249;599616515375499074;8944.944;195
2024-05-23T22:26:13.257;599616515383190376;8952.636;197
2024-05-23T22:26:13.265;599616515390881678;8960.326;220
2024-05-23T22:26:13.273;599616515398572980;8968.018;220
2024-05-23T22:26:13.280;599616515406264282;8975.709;206
2024-05-23T22:26:13.288;599616515413975702;8983.421;220
2024-05-23T22:26:13.296;599616515421666725;8991.111;239
2024-05-23T22:26:13.303;599616515429357748;8998.803;239
2024-05-23T22:26:13.311;599616515437048771;9006.494;255
2024-05-23T22:26:13.319;599616515444739794;9014.185;264
2024-05-23T22:26:13.326;599616515452430817;9021.875;195
2024-05-23T22:26:13.334;599616515460121840;9029.566;76
2024-05-23T22:26:13.342;599616515467812863;9037.258;-4
2024-05-23T22:26:13.349;599616515475503886;9044.949;-30
2024-05-23T22:26:13.357;599616515483194909;9052.641;-16
2024-05-23T22:26:13.365;599616515490885932;9060.33;2
2024-05-23T22:26:13.373;599616515498576955;9068.021;9
2024-05-23T22:26:13.380;599616515506267978;9075.713;27
2024-05-23T22:26:13.388;599616515513959001;9083.404;48
2024-05-23T22:26:13.396;599616515521650024;9091.095;69
2024-05-23T22:26:13.403;599616515529341047;9098.786;104
2024-05-23T22:26:13.411;599616515537032070;9106.478;130
2024-05-23T22:26:13.419;599616515544723093;9114.168;123
2024-05-23T22:26:13.426;599616515552414116;9121.858;125
2024-05-23T22:26:13.434;599616515560105139;9129.55;160
2024-05-23T22:26:13.442;599616515567796162;9137.241;185
2024-05-23T22:26:13.449;599616515575487185;9144.933;183
2024-05-23T22:26:13.457;599616515583178208;9152.623;181
2024-05-23T22:26:13.465;599616515590869231;9160.313;190
2024-05-23T22:26:13.473;599616515598560254;9168.005;202
2024-05-23T22:26:13.480;599616515606251277;9175.696;211
2024-05-23T22:26:13.488;599616515613942300;9183.388;209
2024-05-23T22:26:13.496;599616515621633323;9191.078;192
2024-05-23T22:26:13.503;599616515629324346;9198.77;174
2024-05-23T22:26:13.511;599616515637015369;9206.46;151
2024-05-23T22:26:13.519;599616515644706392;9214.151;146
2024-05-23T22:26:13.526;599616515652397415;9221.842;174
2024-05-23T22:26:13.534;599616515660088438;9229.533;164
2024-05-23T22:26:13.542;599616515667779461;9237.225;118
2024-05-23T22:26:13.549;599616515675470484;9244.916;106
2024-05-23T22:26:13.557;599616515683161507;9252.605;106
2024-05-23T22:26:13.565;599616515690852530;9260.297;72
2024-05-23T22:26:13.572;599616515698543553;9267.988;92
2024-05-23T22:26:13.580;599616515706234576;9275.68;315
2024-05-23T22:26:13.588;599616515713925599;9283.37;748
2024-05-23T22:26:13.596;599616515721616622;9291.062;1068
2024-05-23T22:26:13.603;599616515729307645;9298.753;857
2024-05-23T22:26:13.611;599616515736998668;9306.443;248
2024-05-23T22:26:13.619;599616515744689691;9314.135;-97
2024-05-23T22:26:13.626;599616515752380714;9321.825;-44
2024-05-23T22:26:13.634;599616515760071737;9329.517;-53
2024-05-23T22:26:13.642;599616515767762760;9337.208;-169
2024-05-23T22:26:13.649;599616515775453783;9344.899;-167
2024-05-23T22:26:13.657;599616515783144806;9352.589;-151
2024-05-23T22:26:13.665;599616515790835829;9360.28;-174
2024-05-23T22:26:13.672;599616515798526852;9367.972;-146
2024-05-23T22:26:13.680;599616515806217875;9375.663;-111
2024-05-23T22:26:13.688;599616515813908898;9383.354;-125
2024-05-23T22:26:13.696;599616515821599921;9391.045;-139
2024-05-23T22:26:13.703;599616515829290944;9398.736;-113
2024-05-23T22:26:13.711;599616515836981967;9406.427;-83
2024-05-23T22:26:13.719;599616515844672990;9414.117;-74
2024-05-23T22:26:13.726;599616515852364013;9421.809;-62
2024-05-23T22:26:13.734;599616515860055036;9429.5;-65
2024-05-23T22:26:13.742;599616515867746059;9437.191;-106
2024-05-23T22:26:13.749;599616515875437082;9444.883;-125
2024-05-23T22:26:13.757;599616515883128105;9452.572;-85
2024-05-23T22:26:13.765;599616515890819128;9460.264;-41
2024-05-23T22:26:13.772;599616515898510151;9467.955;-18
2024-05-23T22:26:13.780;599616515906201174;9475.646;-11
2024-05-23T22:26:13.788;599616515913892197;9483.337;-4
2024-05-23T22:26:13.796;599616515921583220;9491.028;23
2024-05-23T22:26:13.803;599616515929274243;9498.719;55
2024-05-23T22:26:13.811;599616515936965266;9506.41;67
2024-05-23T22:26:13.819;599616515944656289;9514.101;88
2024-05-23T22:26:13.826;599616515952347312;9521.792;111
2024-05-23T22:26:13.834;599616515960038335;9529.483;99
2024-05-23T22:26:13.842;599616515967729358;9537.175;60
2024-05-23T22:26:13.849;599616515975395308;9544.84;4
2024-05-23T22:26:13.857;599616515983086680;9552.531;-34
2024-05-23T22:26:13.865;599616515990778052;9560.223;-25
2024-05-23T22:26:13.872;599616515998469424;9567.914;-23
2024-05-23T22:26:13.880;599616516006160796;9575.605;-48
2024-05-23T22:26:13.888;599616516013852168;9583.298;-48
2024-05-23T22:26:13.895;599616516021543540;9590.989;-16
2024-05-23T22:26:13.903;599616516029234912;9598.68;-2
2024-05-23T22:26:13.911;599616516036926284;9606.371;6
2024-05-23T22:26:13.919;599616516044617656;9614.0625;16
2024-05-23T22:26:13.926;599616516052309028;9621.754;-37
2024-05-23T22:26:13.934;599616516060000400;9629.445;-109
2024-05-23T22:26:13.942;599616516067691772;9637.137;-81
2024-05-23T22:26:13.949;599616516075383144;9644.828;-20
2024-05-23T22:26:13.957;599616516083074516;9652.519;-23
2024-05-23T22:26:13.965;599616516090765888;9660.211;-23
2024-05-23T22:26:13.972;599616516098457260;9667.902;4
2024-05-23T22:26:13.980;599616516106148632;9675.594;-2
2024-05-23T22:26:13.988;599616516113840004;9683.285;-46
2024-05-23T22:26:13.995;599616516121531376;9690.977;-46
2024-05-23T22:26:14.003;599616516129222748;9698.668;0
2024-05-23T22:26:14.011;599616516136914120;9706.358;23
2024-05-23T22:26:14.019;599616516144605492;9714.05;16
2024-05-23T22:26:14.026;599616516152296864;9721.741;27
2024-05-23T22:26:14.034;599616516159988236;9729.434;69
2024-05-23T22:26:14.042;599616516167679608;9737.125;97
2024-05-23T22:26:14.049;599616516175370980;9744.816;106
2024-05-23T22:26:14.057;599616516183062352;9752.508;120
2024-05-23T22:26:14.065;599616516190753724;9760.198;146
2024-05-23T22:26:14.072;599616516198445096;9767.89;160
2024-05-23T22:26:14.080;599616516206136468;9775.581;160
2024-05-23T22:26:14.088;599616516213827840;9783.272;181
2024-05-23T22:26:14.095;599616516221519212;9790.964;213
2024-05-23T22:26:14.103;599616516229210584;9798.655;218
2024-05-23T22:26:14.111;599616516236901956;9806.348;197
2024-05-23T22:26:14.119;599616516244593328;9814.038;204
2024-05-23T22:26:14.126;599616516252284700;9821.7295;243
2024-05-23T22:26:14.134;599616516259976072;9829.421;260
2024-05-23T22:26:14.142;599616516267667444;9837.112;260
2024-05-23T22:26:14.149;599616516275358816;9844.804;274
2024-05-23T22:26:14.157;599616516283050188;9852.495;278
2024-05-23T22:26:14.165;599616516290741560;9860.187;269
2024-05-23T22:26:14.172;599616516298432932;9867.877;276
2024-05-23T22:26:14.180;599616516306124304;9875.569;295
2024-05-23T22:26:14.188;599616516313815676;9883.261;306
2024-05-23T22:26:14.195;599616516321507048;9890.952;295
2024-05-23T22:26:14.203;599616516329198420;9898.644;269
2024-05-23T22:26:14.211;599616516336889792;9906.335;271
2024-05-23T22:26:14.219;599616516344581164;9914.026;315
2024-05-23T22:26:14.226;599616516352272536;9921.717;329
2024-05-23T22:26:14.234;599616516359963908;9929.408;299
2024-05-23T22:26:14.242;599616516367655280;9937.1;278
2024-05-23T22:26:14.249;599616516375346652;9944.791;269
2024-05-23T22:26:14.257;599616516383038024;9952.483;257
2024-05-23T22:26:14.265;599616516390729396;9960.175;257
2024-05-23T22:26:14.272;599616516398420768;9967.866;283
2024-05-23T22:26:14.280;599616516406112140;9975.557;311
2024-05-23T22:26:14.288;599616516413803512;9983.248;297
2024-05-23T22:26:14.295;599616516421494884;9990.939;239
2024-05-23T22:26:14.303;599616516429186256;9998.631;176
2024-05-23T22:26:14.311;599616516436877628;10006.322;206
2024-05-23T22:26:14.319;599616516444569000;10014.014;429
2024-05-23T22:26:14.326;599616516452260372;10021.706;838
2024-05-23T22:26:14.334;599616516459951744;10029.397;1112
2024-05-23T22:26:14.342;599616516467643116;10037.088;845
2024-05-23T22:26:14.349;599616516475334488;10044.779;241
2024-05-23T22:26:14.357;599616516483025860;10052.471;-74
2024-05-23T22:26:14.365;599616516490717232;10060.162;-34
2024-05-23T22:26:14.372;599616516498408604;10067.854;-48
2024-05-23T22:26:14.380;599616516506099976;10075.545;-169
2024-05-23T22:26:14.388;599616516513791348;10083.236;-206
2024-05-23T22:26:14.395;599616516521482720;10090.927;-209
2024-05-23T22:26:14.403;599616516529174092;10098.619;-250
2024-05-23T22:26:14.411;599616516536895568;10106.341;-260
2024-05-23T22:26:14.419;599616516544586522;10114.031;-225
2024-05-23T22:26:14.426;599616516552277476;10121.722;-218
2024-05-23T22:26:14.434;599616516559968430;10129.413;-281
2024-05-23T22:26:14.442;599616516567659384;10137.1045;-355
2024-05-23T22:26:14.449;599616516575350338;10144.796;-348
2024-05-23T22:26:14.457;599616516583041292;10152.486;-285
2024-05-23T22:26:14.465;599616516590732246;10160.177;-246
2024-05-23T22:26:14.472;599616516598423200;10167.868;-253
2024-05-23T22:26:14.480;599616516606114154;10175.559;-283
2024-05-23T22:26:14.488;599616516613805108;10183.25;-274
2024-05-23T22:26:14.495;599616516621496062;10190.941;-239
2024-05-23T22:26:14.503;599616516629187016;10198.632;-218
2024-05-23T22:26:14.511;599616516636877970;10206.322;-181
2024-05-23T22:26:14.519;599616516644568924;10214.014;-139
2024-05-23T22:26:14.526;599616516652259878;10221.705;-137
2024-05-23T22:26:14.534;599616516659950832;10229.3955;-127
2024-05-23T22:26:14.542;599616516667641786;10237.087;-76
2024-05-23T22:26:14.549;599616516675332740;10244.778;-37
2024-05-23T22:26:14.557;599616516683023694;10252.468;-27
2024-05-23T22:26:14.565;599616516690714648;10260.159;-13
2024-05-23T22:26:14.572;599616516698405602;10267.851;6
2024-05-23T22:26:14.580;599616516706096556;10275.541;25
2024-05-23T22:26:14.588;599616516713787510;10283.232;39
2024-05-23T22:26:14.595;599616516721478464;10290.924;53
2024-05-23T22:26:14.603;599616516729169418;10298.615;78
2024-05-23T22:26:14.611;599616516736860372;10306.305;83
2024-05-23T22:26:14.618;599616516744551326;10313.996;53
2024-05-23T22:26:14.626;599616516752242280;10321.6875;37
2024-05-23T22:26:14.634;599616516759933234;10329.378;62
2024-05-23T22:26:14.642;599616516767624188;10337.069;90
2024-05-23T22:26:14.649;599616516775315142;10344.761;99
2024-05-23T22:26:14.657;599616516783006096;10352.45;106
2024-05-23T22:26:14.665;599616516790697050;10360.142;123
2024-05-23T22:26:14.672;599616516798388004;10367.833;132
2024-05-23T22:26:14.680;599616516806078958;10375.524;141
2024-05-23T22:26:14.688;599616516813769912;10383.215;162
2024-05-23T22:26:14.695;599616516821460866;10390.906;190
2024-05-23T22:26:14.703;599616516829151820;10398.597;202
2024-05-23T22:26:14.711;599616516836842774;10406.287;185
2024-05-23T22:26:14.718;599616516844533728;10413.979;167
2024-05-23T22:26:14.726;599616516852224682;10421.67;148
2024-05-23T22:26:14.734;599616516859915636;10429.36;123
2024-05-23T22:26:14.742;599616516867606590;10437.052;130
2024-05-23T22:26:14.749;599616516875297544;10444.742;155
2024-05-23T22:26:14.757;599616516882988498;10452.433;162
2024-05-23T22:26:14.765;599616516890679452;10460.124;155
2024-05-23T22:26:14.772;599616516898370406;10467.815;164
2024-05-23T22:26:14.780;599616516906061360;10475.507;195
2024-05-23T22:26:14.788;599616516913752314;10483.197;220
2024-05-23T22:26:14.795;599616516921443268;10490.889;218
2024-05-23T22:26:14.803;599616516929134222;10498.579;204
2024-05-23T22:26:14.811;599616516936825176;10506.27;220
2024-05-23T22:26:14.818;599616516944516130;10513.961;248
2024-05-23T22:26:14.826;599616516952207084;10521.652;246
2024-05-23T22:26:14.834;599616516959898038;10529.343;243
2024-05-23T22:26:14.842;599616516967588992;10537.034;267
2024-05-23T22:26:14.849;599616516975279946;10544.725;271
2024-05-23T22:26:14.857;599616516982970900;10552.416;230
2024-05-23T22:26:14.865;599616516990661854;10560.106;162
2024-05-23T22:26:14.872;599616516998352808;10567.798;127
2024-05-23T22:26:14.880;599616517006043762;10575.489;157
2024-05-23T22:26:14.888;599616517013734716;10583.18;176
2024-05-23T22:26:14.895;599616517021425670;10590.87;155
2024-05-23T22:26:14.903;599616517029116624;10598.562;157
2024-05-23T22:26:14.911;599616517036807578;10606.252;171
2024-05-23T22:26:14.918;599616517044498532;10613.943;169
2024-05-23T22:26:14.926;599616517052189486;10621.635;183
2024-05-23T22:26:14.934;599616517059880440;10629.326;216
2024-05-23T22:26:14.942;599616517067571394;10637.016;227
2024-05-23T22:26:14.949;599616517075262348;10644.707;220
2024-05-23T22:26:14.957;599616517082953302;10652.398;216
2024-05-23T22:26:14.965;599616517090644256;10660.089;206
2024-05-23T22:26:14.972;599616517098305118;10667.75;169
2024-05-23T22:26:14.980;599616517105996490;10675.441;132
2024-05-23T22:26:14.988;599616517113687862;10683.133;132
2024-05-23T22:26:14.995;599616517121379234;10690.824;157
2024-05-23T22:26:15.003;599616517129070606;10698.516;162
2024-05-23T22:26:15.011;599616517136761978;10706.207;144
2024-05-23T22:26:15.018;599616517144453350;10713.898;155
2024-05-23T22:26:15.026;599616517152144722;10721.589;299
2024-05-23T22:26:15.034;599616517159836094;10729.28;615
2024-05-23T22:26:15.041;599616517167527466;10736.973;950
2024-05-23T22:26:15.049;599616517175218838;10744.664;943
2024-05-23T22:26:15.057;599616517182910210;10752.355;467
2024-05-23T22:26:15.065;599616517190601582;10760.047;-6
2024-05-23T22:26:15.072;599616517198292954;10767.738;-60
2024-05-23T22:26:15.080;599616517205984326;10775.429;32
2024-05-23T22:26:15.088;599616517213675698;10783.12;-16
2024-05-23T22:26:15.095;599616517221367070;10790.812;-51
2024-05-23T22:26:15.103;599616517229058442;10798.503;-13
2024-05-23T22:26:15.111;599616517236749814;10806.195;4
2024-05-23T22:26:15.118;599616517244441186;10813.887;6
2024-05-23T22:26:15.126;599616517252132558;10821.578;9
2024-05-23T22:26:15.134;599616517259823930;10829.269;0
2024-05-23T22:26:15.141;599616517267515302;10836.96;-13
2024-05-23T22:26:15.149;599616517275206674;10844.651;-30
2024-05-23T22:26:15.157;599616517282898046;10852.343;-60
2024-05-23T22:26:15.165;599616517290589418;10860.034;-109
2024-05-23T22:26:15.172;599616517298280790;10867.726;-132
2024-05-23T22:26:15.180;599616517305972162;10875.417;-118
2024-05-23T22:26:15.188;599616517313663534;10883.108;-118
2024-05-23T22:26:15.195;599616517321354906;10890.8;-116
2024-05-23T22:26:15.203;599616517329046278;10898.491;-81
2024-05-23T22:26:15.211;599616517336737650;10906.183;-83
2024-05-23T22:26:15.218;599616517344429022;10913.874;-137
2024-05-23T22:26:15.226;599616517352120394;10921.565;-144
2024-05-23T22:26:15.234;599616517359811766;10929.257;-90
2024-05-23T22:26:15.241;599616517367503138;10936.947;-65
2024-05-23T22:26:15.249;599616517375194510;10944.639;-62
2024-05-23T22:26:15.257;599616517382885882;10952.331;-44
2024-05-23T22:26:15.265;599616517390577254;10960.022;-30
2024-05-23T22:26:15.272;599616517398268626;10967.714;-23
2024-05-23T22:26:15.280;599616517405959998;10975.405;-11
2024-05-23T22:26:15.288;599616517413651370;10983.097;11
2024-05-23T22:26:15.295;599616517421342742;10990.787;44
2024-05-23T22:26:15.303;599616517429034114;10998.479;53
2024-05-23T22:26:15.311;599616517436725486;11006.17;23
2024-05-23T22:26:15.318;599616517444416858;11013.861;11
2024-05-23T22:26:15.326;599616517452108230;11021.553;37
2024-05-23T22:26:15.334;599616517459799602;11029.245;46
2024-05-23T22:26:15.341;599616517467490974;11036.937;37
2024-05-23T22:26:15.349;599616517475182346;11044.628;46
2024-05-23T22:26:15.357;599616517482873718;11052.318;16
2024-05-23T22:26:15.365;599616517490565090;11060.01;-81
2024-05-23T22:26:15.372;599616517498256462;11067.701;-123
2024-05-23T22:26:15.380;599616517505947834;11075.393;-67
2024-05-23T22:26:15.388;599616517513639206;11083.084;-25
2024-05-23T22:26:15.395;599616517521330578;11090.775;-27
2024-05-23T22:26:15.403;599616517529021950;11098.468;-27
2024-05-23T22:26:15.411;599616517536713322;11106.158;-4
2024-05-23T22:26:15.418;599616517544404694;11113.85;32
2024-05-23T22:26:15.426;599616517552096066;11121.541;60
2024-05-23T22:26:15.434;599616517559787438;11129.232;67
2024-05-23T22:26:15.441;599616517567478810;11136.924;83
2024-05-23T22:26:15.449;599616517575170182;11144.615;99
2024-05-23T22:26:15.457;599616517582861554;11152.307;95
2024-05-23T22:26:15.464;599616517590552926;11159.997;74
2024-05-23T22:26:15.472;599616517598244298;11167.688;78
2024-05-23T22:26:15.480;599616517605935670;11175.381;111
2024-05-23T22:26:15.488;599616517613627042;11183.072;123
2024-05-23T22:26:15.495;599616517621318414;11190.764;109
2024-05-23T22:26:15.503;599616517629009786;11198.455;127
2024-05-23T22:26:15.511;599616517636701158;11206.146;164
2024-05-23T22:26:15.518;599616517644392530;11213.837;167
2024-05-23T22:26:15.526;599616517652083902;11221.528;169
2024-05-23T22:26:15.534;599616517659775282;11229.22;199
2024-05-23T22:26:15.541;599616517667466654;11236.911;211
2024-05-23T22:26:15.549;599616517675158026;11244.604;195
2024-05-23T22:26:15.557;599616517682849398;11252.295;211
2024-05-23T22:26:15.564;599616517690540770;11259.986;250
2024-05-23T22:26:15.572;599616517698232142;11267.677;264
2024-05-23T22:26:15.580;599616517705923514;11275.368;253
2024-05-23T22:26:15.588;599616517713614886;11283.06;239
2024-05-23T22:26:15.595;599616517721306258;11290.751;236
2024-05-23T22:26:15.603;599616517728997630;11298.442;225
2024-05-23T22:26:15.611;599616517736689002;11306.134;162
2024-05-23T22:26:15.618;599616517744380374;11313.825;123
2024-05-23T22:26:15.626;599616517752071746;11321.517;146
2024-05-23T22:26:15.634;599616517759763118;11329.208;153
2024-05-23T22:26:15.641;599616517767454490;11336.899;146
2024-05-23T22:26:15.649;599616517775145862;11344.591;188
2024-05-23T22:26:15.657;599616517782837234;11352.282;239
2024-05-23T22:26:15.664;599616517790528606;11359.974;236
2024-05-23T22:26:15.672;599616517798219978;11367.665;213
2024-05-23T22:26:15.680;599616517805911350;11375.355;213
2024-05-23T22:26:15.688;599616517813602722;11383.047;236
2024-05-23T22:26:15.695;599616517821294094;11390.739;241
2024-05-23T22:26:15.703;599616517828985466;11398.431;216
2024-05-23T22:26:15.711;599616517836676838;11406.122;178
2024-05-23T22:26:15.718;599616517844368210;11413.813;141
2024-05-23T22:26:15.726;599616517852059582;11421.505;118
2024-05-23T22:26:15.734;599616517859750954;11429.195;239
2024-05-23T22:26:15.741;599616517867442326;11436.887;622
2024-05-23T22:26:15.749;599616517875133698;11444.578;1075
2024-05-23T22:26:15.757;599616517882825070;11452.27;1115
2024-05-23T22:26:15.764;599616517890516442;11459.961;608
2024-05-23T22:26:15.772;599616517898207814;11467.653;125
2024-05-23T22:26:15.780;599616517905899186;11475.345;113
2024-05-23T22:26:15.788;599616517913590558;11483.036;211
2024-05-23T22:26:15.795;599616517921281930;11490.727;123
2024-05-23T22:26:15.803;599616517928973302;11498.418;67
2024-05-23T22:26:15.811;599616517936664674;11506.109;88
2024-05-23T22:26:15.818;599616517944356046;11513.801;53
2024-05-23T22:26:15.826;599616517952047418;11521.492;25
2024-05-23T22:26:15.834;599616517959738790;11529.184;65
2024-05-23T22:26:15.841;599616517967430162;11536.876;88
2024-05-23T22:26:15.849;599616517975121534;11544.566;76
2024-05-23T22:26:15.857;599616517982812906;11552.258;69
2024-05-23T22:26:15.864;599616517990504278;11559.949;18
2024-05-23T22:26:15.872;599616517998195650;11567.641;-95
2024-05-23T22:26:15.880;599616518005887022;11575.332;-155
2024-05-23T22:26:15.888;599616518013578394;11583.023;-141
2024-05-23T22:26:15.895;599616518021269766;11590.715;-148
2024-05-23T22:26:15.903;599616518028961138;11598.405;-192
2024-05-23T22:26:15.911;599616518036652510;11606.097;-223
2024-05-23T22:26:15.918;599616518044343882;11613.789;-211
2024-05-23T22:26:15.926;599616518052035254;11621.48;-176
2024-05-23T22:26:15.934;599616518059726626;11629.172;-160
2024-05-23T22:26:15.941;599616518067417998;11636.863;-160
2024-05-23T22:26:15.949;599616518075109370;11644.555;-167
2024-05-23T22:26:15.957;599616518082800742;11652.245;-206
2024-05-23T22:26:15.964;599616518090492114;11659.937;-234
2024-05-23T22:26:15.972;599616518098183486;11667.628;-213
2024-05-23T22:26:15.980;599616518105874858;11675.319;-178
2024-05-23T22:26:15.988;599616518113566230;11683.012;-148
2024-05-23T22:26:15.995;599616518121257602;11690.703;-144
2024-05-23T22:26:16.003;599616518128948974;11698.395;-153
2024-05-23T22:26:16.011;599616518136640346;11706.085;-130
2024-05-23T22:26:16.018;599616518144331718;11713.776;-90
2024-05-23T22:26:16.026;599616518152023090;11721.468;-88
2024-05-23T22:26:16.034;599616518159714462;11729.159;-99
2024-05-23T22:26:16.041;599616518167405834;11736.851;-83
2024-05-23T22:26:16.049;599616518175097206;11744.542;-74
2024-05-23T22:26:16.057;599616518182788578;11752.233;-88
2024-05-23T22:26:16.064;599616518190479950;11759.925;-76
2024-05-23T22:26:16.072;599616518198171322;11767.616;-32
2024-05-23T22:26:16.080;599616518205862694;11775.308;-2
2024-05-23T22:26:16.087;599616518213554066;11782.999;-4
2024-05-23T22:26:16.095;599616518221275542;11790.72;-6
2024-05-23T22:26:16.103;599616518228966496;11798.411;18
2024-05-23T22:26:16.111;599616518236657450;11806.103;53
2024-05-23T22:26:16.118;599616518244348404;11813.794;60
2024-05-23T22:26:16.126;599616518252039358;11821.484;72
2024-05-23T22:26:16.134;599616518259730312;11829.176;99
2024-05-23T22:26:16.141;599616518267421266;11836.866;76
2024-05-23T22:26:16.149;599616518275112220;11844.557;2
2024-05-23T22:26:16.157;599616518282803174;11852.248;-23
2024-05-23T22:26:16.164;599616518290494128;11859.939;25
2024-05-23T22:26:16.172;599616518298185082;11867.63;55
2024-05-23T22:26:16.180;599616518305876036;11875.321;37
2024-05-23T22:26:16.188;599616518313566990;11883.012;34
2024-05-23T22:26:16.195;599616518321257944;11890.702;39
2024-05-23T22:26:16.203;599616518328948898;11898.394;13
2024-05-23T22:26:16.211;599616518336639852;11906.085;-9
2024-05-23T22:26:16.218;599616518344330806;11913.776;23
2024-05-23T22:26:16.226;599616518352021760;11921.467;58
2024-05-23T22:26:16.234;599616518359712714;11929.157;53
2024-05-23T22:26:16.241;599616518367403668;11936.849;48
2024-05-23T22:26:16.249;599616518375094622;11944.539;83
2024-05-23T22:26:16.257;599616518382785576;11952.23;125
2024-05-23T22:26:16.264;599616518390476530;11959.922;139
2024-05-23T22:26:16.272;599616518398167484;11967.612;134
2024-05-23T22:26:16.280;599616518405858438;11975.303;141
2024-05-23T22:26:16.287;599616518413549392;11982.994;162
2024-05-23T22:26:16.295;599616518421240346;11990.686;167
2024-05-23T22:26:16.303;599616518428931300;11998.376;174
2024-05-23T22:26:16.311;599616518436622254;12006.067;204
2024-05-23T22:26:16.318;599616518444313208;12013.759;220
2024-05-23T22:26:16.326;599616518452004162;12021.448;197
2024-05-23T22:26:16.334;599616518459695116;12029.14;181
2024-05-23T22:26:16.341;599616518467386070;12036.831;213
2024-05-23T22:26:16.349;599616518475077024;12044.521;243
2024-05-23T22:26:16.357;599616518482767978;12052.213;241
2024-05-23T22:26:16.364;599616518490458932;12059.904;185
2024-05-23T22:26:16.372;599616518498149886;12067.596;106
2024-05-23T22:26:16.380;599616518505840840;12075.285;90
2024-05-23T22:26:16.387;599616518513531794;12082.977;113
2024-05-23T22:26:16.395;599616518521222748;12090.668;113
2024-05-23T22:26:16.403;599616518528913702;12098.358;127
2024-05-23T22:26:16.411;599616518536604656;12106.05;157
2024-05-23T22:26:16.418;599616518544295610;12113.741;151
2024-05-23T22:26:16.426;599616518551986564;12121.431;144
2024-05-23T22:26:16.434;599616518559677518;12129.122;171
2024-05-23T22:26:16.441;599616518567368472;12136.813;162
2024-05-23T22:26:16.449;599616518575059426;12144.504;127
2024-05-23T22:26:16.457;599616518582750380;12152.195;241
2024-05-23T22:26:16.464;599616518590441334;12159.887;622
2024-05-23T22:26:16.472;599616518598132288;12167.577;1031
2024-05-23T22:26:16.480;599616518605823242;12175.268;1019
2024-05-23T22:26:16.487;599616518613514196;12182.959;518
2024-05-23T22:26:16.495;599616518621205150;12190.65;95
2024-05-23T22:26:16.503;599616518628896104;12198.341;106
2024-05-23T22:26:16.511;599616518636587058;12206.032;176
2024-05-23T22:26:16.518;599616518644278012;12213.723;106
2024-05-23T22:26:16.526;599616518651968966;12221.413;109
2024-05-23T22:26:16.534;599616518659659920;12229.1045;141
2024-05-23T22:26:16.541;599616518667350874;12236.796;85
2024-05-23T22:26:16.549;599616518675041828;12244.487;51
2024-05-23T22:26:16.557;599616518682732782;12252.178;69
2024-05-23T22:26:16.564;599616518690423736;12259.869;65
2024-05-23T22:26:16.572;599616518698114690;12267.56;51
2024-05-23T22:26:16.580;599616518705805644;12275.25;72
2024-05-23T22:26:16.587;599616518713496598;12282.941;99
2024-05-23T22:26:16.595;599616518721187552;12290.633;97
2024-05-23T22:26:16.603;599616518728878506;12298.323;74
2024-05-23T22:26:16.611;599616518736569460;12306.015;55
2024-05-23T22:26:16.618;599616518744260414;12313.705;37
2024-05-23T22:26:16.626;599616518751951368;12321.396;6
2024-05-23T22:26:16.634;599616518759642322;12329.087;-32
2024-05-23T22:26:16.641;599616518767333276;12336.778;-58
2024-05-23T22:26:16.649;599616518775024230;12344.47;-69
2024-05-23T22:26:16.657;599616518782715188;12352.16;-83
2024-05-23T22:26:16.664;599616518790406142;12359.851;-85
2024-05-23T22:26:16.672;599616518798097096;12367.542;-65
2024-05-23T22:26:16.680;599616518805788050;12375.232;-41
2024-05-23T22:26:16.687;599616518813479004;12382.924;-55
2024-05-23T22:26:16.695;599616518821169958;12390.615;-104
2024-05-23T22:26:16.703;599616518828860912;12398.307;-130
2024-05-23T22:26:16.710;599616518836551866;12405.996;-120
2024-05-23T22:26:16.718;599616518844242820;12413.6875;-169
2024-05-23T22:26:16.726;599616518851933774;12421.379;-230
2024-05-23T22:26:16.734;599616518859624728;12429.069;-209
2024-05-23T22:26:16.741;599616518867315682;12436.761;-190
2024-05-23T22:26:16.749;599616518875006636;12444.452;-223
2024-05-23T22:26:16.757;599616518882697590;12452.142;-218
2024-05-23T22:26:16.764;599616518890388544;12459.833;-171
2024-05-23T22:26:16.772;599616518898079498;12467.524;-157
2024-05-23T22:26:16.780;599616518905770452;12475.215;-164
2024-05-23T22:26:16.787;599616518913461406;12482.906;-162
2024-05-23T22:26:16.795;599616518921152360;12490.598;-134
2024-05-23T22:26:16.803;599616518928843314;12498.289;-104
2024-05-23T22:26:16.810;599616518936534268;12505.979;-88
2024-05-23T22:26:16.818;599616518944225222;12513.67;-60
2024-05-23T22:26:16.826;599616518951916176;12521.361;-25
2024-05-23T22:26:16.834;599616518959607130;12529.052;-23
2024-05-23T22:26:16.841;599616518967298084;12536.743;-32
2024-05-23T22:26:16.849;599616518974989038;12544.435;-4
2024-05-23T22:26:16.857;599616518982679992;12552.124;39
2024-05-23T22:26:16.864;599616518990370946;12559.815;34
2024-05-23T22:26:16.872;599616518998061900;12567.507;-37
2024-05-23T22:26:16.880;599616519005752854;12575.198;-85
2024-05-23T22:26:16.887;599616519013443808;12582.889;-55
2024-05-23T22:26:16.895;599616519021134762;12590.58;-23
2024-05-23T22:26:16.903;599616519028825716;12598.2705;-23
2024-05-23T22:26:16.910;599616519036516670;12605.961;-2
2024-05-23T22:26:16.918;599616519044207624;12613.652;25
2024-05-23T22:26:16.926;599616519051898578;12621.344;16
2024-05-23T22:26:16.934;599616519059589532;12629.034;-11
2024-05-23T22:26:16.941;599616519067280486;12636.726;-27
2024-05-23T22:26:16.949;599616519074971440;12644.417;-25
2024-05-23T22:26:16.957;599616519082662394;12652.107;-13
2024-05-23T22:26:16.964;599616519090353348;12659.798;-9
2024-05-23T22:26:16.972;599616519098044302;12667.489;4
2024-05-23T22:26:16.980;599616519105735256;12675.181;30
2024-05-23T22:26:16.987;599616519113426210;12682.871;46
2024-05-23T22:26:16.995;599616519121117164;12690.5625;62
2024-05-23T22:26:17.003;599616519128808118;12698.253;97
2024-05-23T22:26:17.010;599616519136499072;12705.943;123
2024-05-23T22:26:17.018;599616519144190026;12713.635;109
2024-05-23T22:26:17.026;599616519151880980;12721.326;111
2024-05-23T22:26:17.034;599616519159571934;12729.017;144
2024-05-23T22:26:17.041;599616519167262888;12736.708;171
2024-05-23T22:26:17.049;599616519174953842;12744.398;181
2024-05-23T22:26:17.057;599616519182644796;12752.09;188
2024-05-23T22:26:17.064;599616519190335750;12759.78;192
2024-05-23T22:26:17.072;599616519198026704;12767.472;190
2024-05-23T22:26:17.080;599616519205717658;12775.163;195
2024-05-23T22:26:17.087;599616519213408612;12782.854;213
2024-05-23T22:26:17.095;599616519221099566;12790.544;243
2024-05-23T22:26:17.103;599616519228790520;12798.235;260
2024-05-23T22:26:17.110;599616519236481474;12805.926;253
2024-05-23T22:26:17.118;599616519244172428;12813.617;264
2024-05-23T22:26:17.126;599616519251863382;12821.309;302
2024-05-23T22:26:17.133;599616519259554336;12829.0;306
2024-05-23T22:26:17.141;599616519267245290;12836.689;290
2024-05-23T22:26:17.149;599616519274936244;12844.381;290
2024-05-23T22:26:17.157;599616519282627198;12852.072;290
2024-05-23T22:26:17.164;599616519290318152;12859.763;281
2024-05-23T22:26:17.172;599616519298009106;12867.454;288
2024-05-23T22:26:17.180;599616519305700060;12875.1455;283
2024-05-23T22:26:17.187;599616519313391014;12882.836;225
2024-05-23T22:26:17.195;599616519321081968;12890.526;195
2024-05-23T22:26:17.203;599616519328772922;12898.218;376
2024-05-23T22:26:17.210;599616519336463876;12905.909;799
2024-05-23T22:26:17.218;599616519344124738;12913.569;1143
2024-05-23T22:26:17.226;599616519351816110;12921.261;978
2024-05-23T22:26:17.233;599616519359507482;12928.952;406
2024-05-23T22:26:17.241;599616519367198854;12936.644;90
2024-05-23T22:26:17.249;599616519374890226;12944.335;169
2024-05-23T22:26:17.257;599616519382581598;12952.026;153
2024-05-23T22:26:17.264;599616519390272970;12959.718;6
2024-05-23T22:26:17.272;599616519397964342;12967.409;11
2024-05-23T22:26:17.280;599616519405655714;12975.101;44
2024-05-23T22:26:17.287;599616519413347086;12982.792;-34
2024-05-23T22:26:17.295;599616519421038458;12990.483;-74
2024-05-23T22:26:17.303;599616519428729830;12998.175;-34
2024-05-23T22:26:17.310;599616519436421202;13005.866;-11
2024-05-23T22:26:17.318;599616519444112574;13013.558;-18
2024-05-23T22:26:17.326;599616519451803946;13021.248;-6
2024-05-23T22:26:17.333;599616519459495318;13028.939;20
2024-05-23T22:26:17.341;599616519467186690;13036.632;23
2024-05-23T22:26:17.349;599616519474878062;13044.323;0
2024-05-23T22:26:17.357;599616519482569434;13052.015;-30
2024-05-23T22:26:17.364;599616519490260806;13059.706;-41
2024-05-23T22:26:17.372;599616519497952178;13067.397;-88
2024-05-23T22:26:17.380;599616519505643550;13075.089;-204
2024-05-23T22:26:17.387;599616519513334922;13082.779;-269
2024-05-23T22:26:17.395;599616519521026294;13090.471;-227
2024-05-23T22:26:17.403;599616519528717666;13098.162;-199
2024-05-23T22:26:17.410;599616519536409038;13105.854;-211
2024-05-23T22:26:17.418;599616519544100410;13113.546;-190
2024-05-23T22:26:17.426;599616519551791782;13121.237;-174
2024-05-23T22:26:17.433;599616519559483154;13128.929;-234
2024-05-23T22:26:17.441;599616519567174526;13136.619;-276
2024-05-23T22:26:17.449;599616519574865898;13144.311;-234
2024-05-23T22:26:17.457;599616519582557270;13152.002;-188
2024-05-23T22:26:17.464;599616519590248642;13159.693;-178
2024-05-23T22:26:17.472;599616519597940014;13167.385;-171
2024-05-23T22:26:17.480;599616519605631386;13175.076;-157
2024-05-23T22:26:17.487;599616519613322758;13182.769;-141
2024-05-23T22:26:17.495;599616519621014130;13190.459;-139
2024-05-23T22:26:17.503;599616519628705502;13198.15;-137
2024-05-23T22:26:17.510;599616519636396874;13205.842;-116
2024-05-23T22:26:17.518;599616519644088246;13213.533;-95
2024-05-23T22:26:17.526;599616519651779618;13221.225;-109
2024-05-23T22:26:17.533;599616519659470990;13228.916;-113
2024-05-23T22:26:17.541;599616519667162362;13236.607;-74
2024-05-23T22:26:17.549;599616519674853734;13244.298;-30
2024-05-23T22:26:17.556;599616519682545106;13251.989;-16
2024-05-23T22:26:17.564;599616519690236478;13259.682;-9
2024-05-23T22:26:17.572;599616519697927850;13267.373;6
2024-05-23T22:26:17.580;599616519705619222;13275.064;25
2024-05-23T22:26:17.587;599616519713310594;13282.756;39
2024-05-23T22:26:17.595;599616519721001966;13290.447;55
2024-05-23T22:26:17.603;599616519728693338;13298.138;85
2024-05-23T22:26:17.610;599616519736384710;13305.829;106
2024-05-23T22:26:17.618;599616519744076082;13313.5205;92
2024-05-23T22:26:17.626;599616519751767454;13321.212;90
2024-05-23T22:26:17.633;599616519759458826;13328.904;130
2024-05-23T22:26:17.641;599616519767150198;13336.596;162
2024-05-23T22:26:17.649;599616519774841570;13344.287;162
2024-05-23T22:26:17.656;599616519782532942;13351.978;162
2024-05-23T22:26:17.664;599616519790224314;13359.669;174
2024-05-23T22:26:17.672;599616519797915686;13367.36;174
2024-05-23T22:26:17.680;599616519805607058;13375.052;148
2024-05-23T22:26:17.687;599616519813298430;13382.743;134
2024-05-23T22:26:17.695;599616519820989802;13390.435;164
2024-05-23T22:26:17.703;599616519828681174;13398.126;190
2024-05-23T22:26:17.710;599616519836372546;13405.817;164
2024-05-23T22:26:17.718;599616519844063918;13413.509;162
2024-05-23T22:26:17.726;599616519851755290;13421.2;204
2024-05-23T22:26:17.733;599616519859446662;13428.892;220
2024-05-23T22:26:17.741;599616519867138034;13436.583;213
2024-05-23T22:26:17.749;599616519874829406;13444.274;230
2024-05-23T22:26:17.756;599616519882520778;13451.966;243
2024-05-23T22:26:17.764;599616519890212150;13459.656;234
2024-05-23T22:26:17.772;599616519897903522;13467.348;239
2024-05-23T22:26:17.780;599616519905594902;13475.04;262
2024-05-23T22:26:17.787;599616519913286274;13482.731;283
2024-05-23T22:26:17.795;599616519920977646;13490.423;276
2024-05-23T22:26:17.803;599616519928669018;13498.114;250
2024-05-23T22:26:17.810;599616519936360390;13505.806;253
2024-05-23T22:26:17.818;599616519944051762;13513.496;274
2024-05-23T22:26:17.826;599616519951743134;13521.1875;234
2024-05-23T22:26:17.833;599616519959434506;13528.879;153
2024-05-23T22:26:17.841;599616519967125878;13536.57;144
2024-05-23T22:26:17.849;599616519974817250;13544.262;164
2024-05-23T22:26:17.856;599616519982508622;13551.954;141
2024-05-23T22:26:17.864;599616519990199994;13559.6455;139
2024-05-23T22:26:17.872;599616519997891366;13567.337;169
2024-05-23T22:26:17.880;599616520005582738;13575.027;127
2024-05-23T22:26:17.887;599616520013274110;13582.719;41
2024-05-23T22:26:17.895;599616520020965482;13590.41;20
2024-05-23T22:26:17.903;599616520028656854;13598.102;46
2024-05-23T22:26:17.910;599616520036348226;13605.793;62
2024-05-23T22:26:17.918;599616520044039598;13613.484;72
2024-05-23T22:26:17.926;599616520051730970;13621.177;58
2024-05-23T22:26:17.933;599616520059422342;13628.867;32
2024-05-23T22:26:17.941;599616520067113714;13636.559;34
2024-05-23T22:26:17.949;599616520074805086;13644.25;34
2024-05-23T22:26:17.956;599616520082496458;13651.941;25
2024-05-23T22:26:17.964;599616520090187830;13659.633;113
2024-05-23T22:26:17.972;599616520097879202;13667.324;397
2024-05-23T22:26:17.980;599616520105570574;13675.016;815
2024-05-23T22:26:17.987;599616520113261946;13682.706;1024
2024-05-23T22:26:17.995;599616520120953318;13690.398;708
2024-05-23T22:26:18.003;599616520128644690;13698.09;176
2024-05-23T22:26:18.010;599616520136336062;13705.781;-6
2024-05-23T22:26:18.018;599616520144027434;13713.473;74
2024-05-23T22:26:18.026;599616520151718806;13721.164;51
2024-05-23T22:26:18.033;599616520159410178;13728.855;-34
2024-05-23T22:26:18.041;599616520167101550;13736.546;-30
2024-05-23T22:26:18.049;599616520174792922;13744.237;-2
2024-05-23T22:26:18.056;599616520182484294;13751.929;9
2024-05-23T22:26:18.064;599616520190175666;13759.62;27
2024-05-23T22:26:18.072;599616520197867038;13767.3125;30
2024-05-23T22:26:18.080;599616520205558410;13775.004;18
2024-05-23T22:26:18.087;599616520213249782;13782.695;13
2024-05-23T22:26:18.095;599616520220941154;13790.386;-11
2024-05-23T22:26:18.103;599616520228632526;13798.077;-46
2024-05-23T22:26:18.110;599616520236323898;13805.769;-58
2024-05-23T22:26:18.118;599616520244015270;13813.46;-88
2024-05-23T22:26:18.126;599616520251706642;13821.151;-127
2024-05-23T22:26:18.133;599616520259398014;13828.843;-132
2024-05-23T22:26:18.141;599616520267089386;13836.535;-109
2024-05-23T22:26:18.149;599616520274780758;13844.226;-90
2024-05-23T22:26:18.156;599616520282472130;13851.917;-85
2024-05-23T22:26:18.164;599616520290163502;13859.608;-95
2024-05-23T22:26:18.172;599616520297854874;13867.3;-132
2024-05-23T22:26:18.179;599616520305546246;13874.991;-157
2024-05-23T22:26:18.187;599616520313237618;13882.683;-141
2024-05-23T22:26:18.195;599616520320928990;13890.374;-118
2024-05-23T22:26:18.203;599616520328620362;13898.064;-90
2024-05-23T22:26:18.210;599616520336311734;13905.756;-65
2024-05-23T22:26:18.218;599616520344003106;13913.448;-72
2024-05-23T22:26:18.226;599616520351694478;13921.14;-72
2024-05-23T22:26:18.233;599616520359385850;13928.831;-37
2024-05-23T22:26:18.241;599616520367077222;13936.522;-6
2024-05-23T22:26:18.249;599616520374768594;13944.214;-2
2024-05-23T22:26:18.256;599616520382459966;13951.904;-4
2024-05-23T22:26:18.264;599616520390151338;13959.596;-6
2024-05-23T22:26:18.272;599616520397842710;13967.287;-9
2024-05-23T22:26:18.279;599616520405534082;13974.979;-16
2024-05-23T22:26:18.287;599616520413225454;13982.671;-9
2024-05-23T22:26:18.295;599616520420916826;13990.362;20
2024-05-23T22:26:18.303;599616520428608198;13998.054;34
2024-05-23T22:26:18.310;599616520436299570;14005.745;20
2024-05-23T22:26:18.318;599616520443990942;14013.436;27
2024-05-23T22:26:18.326;599616520451682314;14021.127;74
2024-05-23T22:26:18.333;599616520459373686;14028.818;102
2024-05-23T22:26:18.341;599616520467095162;14036.54;99
2024-05-23T22:26:18.349;599616520474786116;14044.23;113
2024-05-23T22:26:18.356;599616520482477070;14051.922;130
2024-05-23T22:26:18.364;599616520490168024;14059.613;127
2024-05-23T22:26:18.372;599616520497858978;14067.304;132
2024-05-23T22:26:18.379;599616520505549932;14074.995;146
2024-05-23T22:26:18.387;599616520513240886;14082.686;111
2024-05-23T22:26:18.395;599616520520931840;14090.377;16
2024-05-23T22:26:18.403;599616520528622794;14098.067;-32
2024-05-23T22:26:18.410;599616520536313748;14105.759;-11
2024-05-23T22:26:18.418;599616520544004702;14113.45;-32
2024-05-23T22:26:18.426;599616520551695656;14121.141;-109
2024-05-23T22:26:18.433;599616520559386610;14128.831;-151
2024-05-23T22:26:18.441;599616520567077564;14136.522;-123
2024-05-23T22:26:18.449;599616520574768518;14144.213;-95
2024-05-23T22:26:18.456;599616520582459472;14151.904;-97
2024-05-23T22:26:18.464;599616520590150426;14159.596;-78
2024-05-23T22:26:18.472;599616520597841380;14167.286;-30
2024-05-23T22:26:18.479;599616520605532334;14174.977;11
2024-05-23T22:26:18.487;599616520613223288;14182.668;18
2024-05-23T22:26:18.495;599616520620914242;14190.359;13
2024-05-23T22:26:18.503;599616520628605196;14198.05;39
2024-05-23T22:26:18.510;599616520636296150;14205.741;74
2024-05-23T22:26:18.518;599616520643987104;14213.433;92
2024-05-23T22:26:18.526;599616520651678058;14221.123;106
2024-05-23T22:26:18.533;599616520659369012;14228.813;130
2024-05-23T22:26:18.541;599616520667059966;14236.505;139
2024-05-23T22:26:18.549;599616520674750920;14244.195;137
2024-05-23T22:26:18.556;599616520682441874;14251.887;155
2024-05-23T22:26:18.564;599616520690132828;14259.578;192
2024-05-23T22:26:18.572;599616520697823782;14267.27;216
2024-05-23T22:26:18.579;599616520705514736;14274.959;211
2024-05-23T22:26:18.587;599616520713205690;14282.65;206
2024-05-23T22:26:18.595;599616520720896644;14290.342;220
2024-05-23T22:26:18.603;599616520728587598;14298.032;239
2024-05-23T22:26:18.610;599616520736278552;14305.724;239
2024-05-23T22:26:18.618;599616520743969506;14313.415;241
2024-05-23T22:26:18.626;599616520751660460;14321.1045;262
2024-05-23T22:26:18.633;599616520759351414;14328.796;262
2024-05-23T22:26:18.641;599616520767042368;14336.487;250
2024-05-23T22:26:18.649;599616520774733322;14344.179;274
2024-05-23T22:26:18.656;599616520782424276;14351.869;304
2024-05-23T22:26:18.664;599616520790115230;14359.561;276
2024-05-23T22:26:18.672;599616520797806184;14367.251;204
2024-05-23T22:26:18.679;599616520805497138;14374.941;185
2024-05-23T22:26:18.687;599616520813188092;14382.633;213
2024-05-23T22:26:18.695;599616520820879046;14390.324;218
2024-05-23T22:26:18.703;599616520828570000;14398.015;218
2024-05-23T22:26:18.710;599616520836260954;14405.706;236
2024-05-23T22:26:18.718;599616520843951908;14413.397;246
2024-05-23T22:26:18.726;599616520851642862;14421.088;190
2024-05-23T22:26:18.733;599616520859333816;14428.778;130
2024-05-23T22:26:18.741;599616520867024770;14436.47;274
2024-05-23T22:26:18.749;599616520874715724;14444.161;690
2024-05-23T22:26:18.756;599616520882406678;14451.852;1080
2024-05-23T22:26:18.764;599616520890097632;14459.543;1019
2024-05-23T22:26:18.772;599616520897788586;14467.233;492
2024-05-23T22:26:18.779;599616520905479540;14474.924;65
2024-05-23T22:26:18.787;599616520913170494;14482.615;76
2024-05-23T22:26:18.795;599616520920861448;14490.307;151
2024-05-23T22:26:18.802;599616520928552402;14497.997;53
2024-05-23T22:26:18.810;599616520936243356;14505.688;-16
2024-05-23T22:26:18.818;599616520943934310;14513.379;-39
2024-05-23T22:26:18.826;599616520951625264;14521.07;-102
2024-05-23T22:26:18.833;599616520959316218;14528.761;-123
2024-05-23T22:26:18.841;599616520967007172;14536.452;-90
2024-05-23T22:26:18.849;599616520974698126;14544.144;-95
2024-05-23T22:26:18.856;599616520982389080;14551.834;-118
2024-05-23T22:26:18.864;599616520990080034;14559.524;-109
2024-05-23T22:26:18.872;599616520997770988;14567.216;-95
2024-05-23T22:26:18.879;599616521005461942;14574.906;-92
2024-05-23T22:26:18.887;599616521013152896;14582.598;-83
2024-05-23T22:26:18.895;599616521020843850;14590.289;-116
2024-05-23T22:26:18.902;599616521028504712;14597.949;-216
2024-05-23T22:26:18.910;599616521036196084;14605.641;-278
2024-05-23T22:26:18.918;599616521043887456;14613.332;-260
2024-05-23T22:26:18.926;599616521051578828;14621.023;-220
2024-05-23T22:26:18.933;599616521059270200;14628.716;-190
2024-05-23T22:26:18.941;599616521066961572;14636.407;-164
2024-05-23T22:26:18.949;599616521074652944;14644.098;-144
2024-05-23T22:26:18.956;599616521082344316;14651.789;-134
2024-05-23T22:26:18.964;599616521090035688;14659.48;-160
2024-05-23T22:26:18.972;599616521097727060;14667.172;-211
2024-05-23T22:26:18.979;599616521105418432;14674.863;-204
2024-05-23T22:26:18.987;599616521113109804;14682.555;-146
2024-05-23T22:26:18.995;599616521120801176;14690.246;-134
2024-05-23T22:26:19.002;599616521128492548;14697.9375;-148
2024-05-23T22:26:19.010;599616521136183920;14705.629;-118
2024-05-23T22:26:19.018;599616521143875292;14713.32;-67
2024-05-23T22:26:19.026;599616521151566664;14721.012;-48
2024-05-23T22:26:19.033;599616521159258036;14728.703;-44
2024-05-23T22:26:19.041;599616521166949408;14736.395;-34
2024-05-23T22:26:19.049;599616521174640780;14744.086;-37
2024-05-23T22:26:19.056;599616521182332152;14751.776;-37
2024-05-23T22:26:19.064;599616521190023524;14759.468;-23
2024-05-23T22:26:19.072;599616521197714896;14767.159;9
2024-05-23T22:26:19.079;599616521205406268;14774.852;46
2024-05-23T22:26:19.087;599616521213097640;14782.543;58
2024-05-23T22:26:19.095;599616521220789012;14790.234;46
2024-05-23T22:26:19.102;599616521228480384;14797.926;65
2024-05-23T22:26:19.110;599616521236171756;14805.616;102
2024-05-23T22:26:19.118;599616521243863128;14813.308;116
2024-05-23T22:26:19.125;599616521251554500;14820.999;130
2024-05-23T22:26:19.133;599616521259245872;14828.69;164
2024-05-23T22:26:19.141;599616521266937244;14836.382;181
2024-05-23T22:26:19.149;599616521274628616;14844.074;171
2024-05-23T22:26:19.156;599616521282319988;14851.766;155
2024-05-23T22:26:19.164;599616521290011360;14859.456;141
2024-05-23T22:26:19.172;599616521297702732;14867.147;146
2024-05-23T22:26:19.179;599616521305394104;14874.839;153
2024-05-23T22:26:19.187;599616521313085476;14882.53;148
2024-05-23T22:26:19.195;599616521320776848;14890.222;162
2024-05-23T22:26:19.202;599616521328468220;14897.913;192
2024-05-23T22:26:19.210;599616521336159592;14905.6045;199
2024-05-23T22:26:19.218;599616521343850964;14913.295;213
2024-05-23T22:26:19.225;599616521351542336;14920.987;243
2024-05-23T22:26:19.233;599616521359233708;14928.679;234
2024-05-23T22:26:19.241;599616521366925080;14936.37;209
2024-05-23T22:26:19.249;599616521374616452;14944.062;232
2024-05-23T22:26:19.256;599616521382307824;14951.753;278
2024-05-23T22:26:19.264;599616521389999196;14959.444;285
2024-05-23T22:26:19.272;599616521397690568;14967.135;264
2024-05-23T22:26:19.279;599616521405381940;14974.826;262
2024-05-23T22:26:19.287;599616521413073312;14982.518;292
2024-05-23T22:26:19.295;599616521420764684;14990.21;311
2024-05-23T22:26:19.302;599616521428456056;14997.901;309
2024-05-23T22:26:19.310;599616521436147428;15005.593;325
2024-05-23T22:26:19.318;599616521443838800;15013.284;341
2024-05-23T22:26:19.325;599616521451530172;15020.976;318
2024-05-23T22:26:19.333;599616521459221544;15028.666;295
2024-05-23T22:26:19.341;599616521466912916;15036.357;322
2024-05-23T22:26:19.349;599616521474604288;15044.049;357
2024-05-23T22:26:19.356;599616521482295660;15051.74;346
2024-05-23T22:26:19.364;599616521489987032;15059.432;332
2024-05-23T22:26:19.372;599616521497678404;15067.124;343
2024-05-23T22:26:19.379;599616521505369776;15074.815;348
2024-05-23T22:26:19.387;599616521513061148;15082.506;341
2024-05-23T22:26:19.395;599616521520752520;15090.197;332
2024-05-23T22:26:19.402;599616521528443892;15097.889;271
2024-05-23T22:26:19.410;599616521536135264;15105.58;181
2024-05-23T22:26:19.418;599616521543826636;15113.271;144
2024-05-23T22:26:19.425;599616521551518008;15120.963;151
2024-05-23T22:26:19.433;599616521559209380;15128.654;146
2024-05-23T22:26:19.441;599616521566900752;15136.346;130
2024-05-23T22:26:19.449;599616521574592124;15144.037;123
2024-05-23T22:26:19.456;599616521582283496;15151.729;137
2024-05-23T22:26:19.464;599616521589974876;15159.42;144
2024-05-23T22:26:19.472;599616521597666248;15167.111;123
2024-05-23T22:26:19.479;599616521605357620;15174.803;109
2024-05-23T22:26:19.487;599616521613048992;15182.494;120
2024-05-23T22:26:19.495;599616521620740364;15190.185;148
2024-05-23T22:26:19.502;599616521628431736;15197.876;151
2024-05-23T22:26:19.510;599616521636123108;15205.567;85
2024-05-23T22:26:19.518;599616521643814480;15213.26;13
2024-05-23T22:26:19.525;599616521651505852;15220.951;-9
2024-05-23T22:26:19.533;599616521659197224;15228.643;-20
2024-05-23T22:26:19.541;599616521666888596;15236.334;97
2024-05-23T22:26:19.549;599616521674579968;15244.024;478
2024-05-23T22:26:19.556;599616521682271340;15251.716;771
2024-05-23T22:26:19.564;599616521689962712;15259.407;487
2024-05-23T22:26:19.572;599616521697654084;15267.099;-88
2024-05-23T22:26:19.579;599616521705345456;15274.79;-285
2024-05-23T22:26:19.587;599616521713036828;15282.482;-148
2024-05-23T22:26:19.595;599616521720728200;15290.174;-155
2024-05-23T22:26:19.602;599616521728419572;15297.864;-253
2024-05-23T22:26:19.610;599616521736110944;15305.556;-218
2024-05-23T22:26:19.618;599616521743802316;15313.247;-157
2024-05-23T22:26:19.625;599616521751493688;15320.938;-162
2024-05-23T22:26:19.633;599616521759185060;15328.63;-153
2024-05-23T22:26:19.641;599616521766876432;15336.321;-127
2024-05-23T22:26:19.649;599616521774567804;15344.013;-162
2024-05-23T22:26:19.656;599616521782259176;15351.704;-213
2024-05-23T22:26:19.664;599616521789950548;15359.3955;-188
2024-05-23T22:26:19.672;599616521797641920;15367.087;-120
2024-05-23T22:26:19.679;599616521805333292;15374.778;-90
2024-05-23T22:26:19.687;599616521813024664;15382.47;-88
2024-05-23T22:26:19.695;599616521820716036;15390.161;-81
2024-05-23T22:26:19.702;599616521828407408;15397.853;-51
2024-05-23T22:26:19.710;599616521836098780;15405.543;-9
2024-05-23T22:26:19.718;599616521843790152;15413.234;18
2024-05-23T22:26:19.725;599616521851481524;15420.926;44
2024-05-23T22:26:19.733;599616521859172896;15428.618;72
2024-05-23T22:26:19.741;599616521866864268;15436.31;81
2024-05-23T22:26:19.749;599616521874555640;15444.001;83
2024-05-23T22:26:19.756;599616521882247012;15451.692;118
2024-05-23T22:26:19.764;599616521889938384;15459.383;171
2024-05-23T22:26:19.772;599616521897629756;15467.074;195
2024-05-23T22:26:19.779;599616521905321128;15474.766;188
2024-05-23T22:26:19.787;599616521913012500;15482.457;183
2024-05-23T22:26:19.795;599616521920703872;15490.148;206
2024-05-23T22:26:19.802;599616521928395244;15497.841;230
2024-05-23T22:26:19.810;599616521936086616;15505.532;227
2024-05-23T22:26:19.818;599616521943777988;15513.224;232
2024-05-23T22:26:19.825;599616521951469360;15520.914;248
2024-05-23T22:26:19.833;599616521959160732;15528.605;230
2024-05-23T22:26:19.841;599616521966852104;15536.297;195
2024-05-23T22:26:19.848;599616521974543476;15543.988;199
2024-05-23T22:26:19.856;599616521982234848;15551.68;234
2024-05-23T22:26:19.864;599616521989926220;15559.371;236
2024-05-23T22:26:19.872;599616521997617592;15567.0625;216
2024-05-23T22:26:19.879;599616522005308964;15574.754;218
2024-05-23T22:26:19.887;599616522013000336;15582.445;227
2024-05-23T22:26:19.895;599616522020691708;15590.137;195
2024-05-23T22:26:19.902;599616522028383080;15597.828;118
2024-05-23T22:26:19.910;599616522036074452;15605.52;46
2024-05-23T22:26:19.918;599616522043765824;15613.211;20
2024-05-23T22:26:19.925;599616522051457196;15620.902;20
2024-05-23T22:26:19.933;599616522059148568;15628.593;16
2024-05-23T22:26:19.941;599616522066839940;15636.284;41
2024-05-23T22:26:19.948;599616522074531312;15643.977;90
2024-05-23T22:26:19.956;599616522082222684;15651.668;106
2024-05-23T22:26:19.964;599616522089914056;15659.359;95
2024-05-23T22:26:19.972;599616522097605428;15667.051;97
2024-05-23T22:26:19.979;599616522105296800;15674.742;120
2024-05-23T22:26:19.987;599616522112988172;15682.433;134
2024-05-23T22:26:19.995;599616522120679544;15690.124;146
2024-05-23T22:26:20.002;599616522128370916;15697.815;174
2024-05-23T22:26:20.010;599616522136062288;15705.507;192
2024-05-23T22:26:20.018;599616522143753660;15713.198;181
2024-05-23T22:26:20.025;599616522151475136;15720.92;181
2024-05-23T22:26:20.033;599616522159166090;15728.611;206
2024-05-23T22:26:20.041;599616522166857044;15736.302;230
2024-05-23T22:26:20.048;599616522174547998;15743.993;230
2024-05-23T22:26:20.056;599616522182238952;15751.685;230
2024-05-23T22:26:20.064;599616522189929906;15759.374;234
2024-05-23T22:26:20.072;599616522197620860;15767.065;209
2024-05-23T22:26:20.079;599616522205311814;15774.757;148
2024-05-23T22:26:20.087;599616522213002768;15782.448;113
2024-05-23T22:26:20.095;599616522220693722;15790.139;139
2024-05-23T22:26:20.102;599616522228384676;15797.83;157
2024-05-23T22:26:20.110;599616522236075630;15805.5205;134
2024-05-23T22:26:20.118;599616522243766584;15813.211;137
2024-05-23T22:26:20.125;599616522251457538;15820.902;181
2024-05-23T22:26:20.133;599616522259148492;15828.594;197
2024-05-23T22:26:20.141;599616522266839446;15836.284;176
2024-05-23T22:26:20.148;599616522274530400;15843.976;141
2024-05-23T22:26:20.156;599616522282221354;15851.666;106
2024-05-23T22:26:20.164;599616522289912308;15859.357;67
2024-05-23T22:26:20.172;599616522297603262;15867.048;53
2024-05-23T22:26:20.179;599616522305294216;15874.739;69
2024-05-23T22:26:20.187;599616522312985170;15882.431;88
2024-05-23T22:26:20.195;599616522320676124;15890.121;88
2024-05-23T22:26:20.202;599616522328367078;15897.812;72
2024-05-23T22:26:20.210;599616522336058032;15905.503;69
2024-05-23T22:26:20.218;599616522343748986;15913.193;88
2024-05-23T22:26:20.225;599616522351439940;15920.885;92
2024-05-23T22:26:20.233;599616522359130894;15928.576;62
2024-05-23T22:26:20.241;599616522366821848;15936.267;34
2024-05-23T22:26:20.248;599616522374512802;15943.957;11
2024-05-23T22:26:20.256;599616522382203756;15951.648;-34
2024-05-23T22:26:20.264;599616522389894710;15959.34;-69
2024-05-23T22:26:20.272;599616522397585664;15967.03;-67
