Phone timestamp;sensor timestamp [ns];timestamp [ms];ecg [uV]
2024-05-23T22:34:29.865;599617012023054578;0.0;645
2024-05-23T22:34:29.872;599617012030745950;7.691372;2416
2024-05-23T22:34:29.880;599617012038437322;15.382744;4012
2024-05-23T22:34:29.888;599617012046128694;23.074116;4665
2024-05-23T22:34:29.895;599617012053820066;30.765488;5341
2024-05-23T22:34:29.903;599617012061511438;38.45686;6215
2024-05-23T22:34:29.911;599617012069202810;46.14823;6768
2024-05-23T22:34:29.918;599617012076894182;53.839603;7288
2024-05-23T22:34:29.926;599617012084585554;61.530975;7973
2024-05-23T22:34:29.934;599617012092276926;69.22235;8501
2024-05-23T22:34:29.941;599617012099968298;76.91372;8877
2024-05-23T22:34:29.949;599617012107659670;84.60509;9374
2024-05-23T22:34:29.957;599617012115351042;92.29646;9934
2024-05-23T22:34:29.964;599617012123042414;99.98784;10334
2024-05-23T22:34:29.972;599617012130733786;107.67921;10650
2024-05-23T22:34:29.980;599617012138425158;115.370575;11052
2024-05-23T22:34:29.988;599617012146116530;123.06195;11445
2024-05-23T22:34:29.995;599617012153807902;130.75333;11733
2024-05-23T22:34:30.003;599617012161499274;138.4447;12023
2024-05-23T22:34:30.011;599617012169190646;146.13606;12386
2024-05-23T22:34:30.018;599617012176882018;153.82744;12753
2024-05-23T22:34:30.026;599617012184573390;161.51881;12994
2024-05-23T22:34:30.034;599617012192264762;169.21017;13159
2024-05-23T22:34:30.041;599617012199956134;176.90155;13429
2024-05-23T22:34:30.049;599617012207647506;184.59293;13738
2024-05-23T22:34:30.057;599617012215338878;192.2843;13912
2024-05-23T22:34:30.064;599617012223030250;199.97568;14100
2024-05-23T22:34:30.072;599617012230721622;207.66704;14372
2024-05-23T22:34:30.080;599617012238412994;215.35841;14530
2024-05-23T22:34:30.088;599617012246104366;223.04979;14595
2024-05-23T22:34:30.095;599617012253795738;230.74115;14748
2024-05-23T22:34:30.103;599617012261487110;238.43253;14974
2024-05-23T22:34:30.111;599617012269178482;246.1239;15153
2024-05-23T22:34:30.118;599617012276869854;253.81528;15211
2024-05-23T22:34:30.126;599617012284561226;261.50665;15243
2024-05-23T22:34:30.134;599617012292252598;269.19803;15387
2024-05-23T22:34:30.141;599617012299943970;276.8894;15522
2024-05-23T22:34:30.149;599617012307635342;284.58078;15543
2024-05-23T22:34:30.157;599617012315326714;292.27213;15650
2024-05-23T22:34:30.164;599617012323018086;299.96353;15834
2024-05-23T22:34:30.172;599617012330709458;307.65488;15829
2024-05-23T22:34:30.180;599617012338400830;315.34625;15736
2024-05-23T22:34:30.188;599617012346092202;323.03763;15785
2024-05-23T22:34:30.195;599617012353783574;330.729;15910
2024-05-23T22:34:30.203;599617012361474946;338.42035;16052
2024-05-23T22:34:30.211;599617012369166318;346.11176;16052
2024-05-23T22:34:30.218;599617012376857690;353.8031;15864
2024-05-23T22:34:30.226;599617012384549062;361.4945;15829
2024-05-23T22:34:30.234;599617012392240434;369.18585;15866
2024-05-23T22:34:30.241;599617012399931806;376.87723;15845
2024-05-23T22:34:30.249;599617012407623178;384.5686;16154
2024-05-23T22:34:30.257;599617012415314550;392.25998;16698
2024-05-23T22:34:30.264;599617012423005922;399.95135;16777
2024-05-23T22:34:30.272;599617012430697294;407.64273;16268
2024-05-23T22:34:30.280;599617012438388666;415.33408;15752
2024-05-23T22:34:30.288;599617012446080038;423.02548;15631
2024-05-23T22:34:30.295;599617012453771410;430.71683;15671
2024-05-23T22:34:30.303;599617012461462782;438.4082;15555
2024-05-23T22:34:30.311;599617012469154154;446.09958;15427
2024-05-23T22:34:30.318;599617012476845526;453.79095;15425
2024-05-23T22:34:30.326;599617012484536898;461.4823;15353
2024-05-23T22:34:30.334;599617012492228270;469.1737;15234
2024-05-23T22:34:30.341;599617012499919642;476.86505;15269
2024-05-23T22:34:30.349;599617012507611014;484.55646;15274
2024-05-23T22:34:30.357;599617012515302386;492.2478;15090
2024-05-23T22:34:30.364;599617012522993758;499.93918;15092
2024-05-23T22:34:30.372;599617012530685130;507.63055;15206
2024-05-23T22:34:30.380;599617012538376502;515.3219;14909
2024-05-23T22:34:30.388;599617012546067874;523.0133;14588
2024-05-23T22:34:30.395;599617012553759246;530.70465;14604
2024-05-23T22:34:30.403;599617012561450618;538.39606;14565
2024-05-23T22:34:30.411;599617012569141990;546.0874;14416
2024-05-23T22:34:30.418;599617012576833362;553.7788;14316
2024-05-23T22:34:30.426;599617012584524742;561.47015;14261
2024-05-23T22:34:30.434;599617012592216114;569.16156;14263
2024-05-23T22:34:30.441;599617012599907486;576.8529;14240
2024-05-23T22:34:30.449;599617012607598858;584.54425;14123
2024-05-23T22:34:30.457;599617012615290230;592.23566;13977
2024-05-23T22:34:30.464;599617012622981602;599.92706;13828
2024-05-23T22:34:30.472;599617012630672974;607.61835;13722
2024-05-23T22:34:30.480;599617012638364346;615.30975;13643
2024-05-23T22:34:30.488;599617012646055718;623.00116;13564
2024-05-23T22:34:30.495;599617012653747090;630.6925;13524
2024-05-23T22:34:30.503;599617012661438462;638.38385;13380
2024-05-23T22:34:30.511;599617012669129834;646.07526;13055
2024-05-23T22:34:30.518;599617012676821206;653.76666;12894
2024-05-23T22:34:30.526;599617012684512578;661.458;12941
2024-05-23T22:34:30.534;599617012692203950;669.14935;12792
2024-05-23T22:34:30.541;599617012699895322;676.84076;12497
2024-05-23T22:34:30.549;599617012707586694;684.5321;12397
2024-05-23T22:34:30.557;599617012715278066;692.2235;12388
2024-05-23T22:34:30.564;599617012722969438;699.91486;12242
2024-05-23T22:34:30.572;599617012730660810;707.6062;12109
2024-05-23T22:34:30.580;599617012738352182;715.2976;12065
2024-05-23T22:34:30.587;599617012746043554;722.989;11956
2024-05-23T22:34:30.595;599617012753734926;730.6803;11786
2024-05-23T22:34:30.603;599617012761426298;738.3717;11670
2024-05-23T22:34:30.611;599617012769117670;746.0631;11623
2024-05-23T22:34:30.618;599617012776809042;753.7545;11586
2024-05-23T22:34:30.626;599617012784500414;761.4458;11489
2024-05-23T22:34:30.634;599617012792191786;769.1372;11317
2024-05-23T22:34:30.641;599617012799883158;776.8286;11147
2024-05-23T22:34:30.649;599617012807574530;784.51996;11033
2024-05-23T22:34:30.657;599617012815265902;792.2113;10906
2024-05-23T22:34:30.664;599617012822957274;799.9027;10785
2024-05-23T22:34:30.672;599617012830648646;807.59406;10713
2024-05-23T22:34:30.680;599617012838340018;815.28546;10583
2024-05-23T22:34:30.687;599617012846031390;822.9768;10429
2024-05-23T22:34:30.695;599617012853722762;830.66815;10394
2024-05-23T22:34:30.703;599617012861414134;838.35956;10353
2024-05-23T22:34:30.711;599617012869105506;846.05096;10132
2024-05-23T22:34:30.718;599617012876796878;853.74225;9902
2024-05-23T22:34:30.726;599617012884488250;861.43365;9804
2024-05-23T22:34:30.734;599617012892179622;869.12506;9681
2024-05-23T22:34:30.741;599617012899870994;876.8164;9488
2024-05-23T22:34:30.749;599617012907562366;884.50775;9354
2024-05-23T22:34:30.757;599617012915253738;892.19916;9300
2024-05-23T22:34:30.764;599617012922945110;899.89056;9221
2024-05-23T22:34:30.772;599617012930636482;907.5819;9061
2024-05-23T22:34:30.780;599617012938327854;915.27325;8910
2024-05-23T22:34:30.787;599617012946019226;922.96466;8849
2024-05-23T22:34:30.795;599617012953710598;930.656;8805
2024-05-23T22:34:30.803;599617012961401970;938.3474;8712
2024-05-23T22:34:30.811;599617012969093342;946.03876;8575
2024-05-23T22:34:30.818;599617012976784714;953.7301;8468
2024-05-23T22:34:30.826;599617012984476086;961.4215;8413
2024-05-23T22:34:30.834;599617012992167458;969.1129;8322
2024-05-23T22:34:30.841;599617012999858830;976.8042;8194
2024-05-23T22:34:30.849;599617013007550202;984.4956;8148
2024-05-23T22:34:30.857;599617013015241574;992.187;8104
2024-05-23T22:34:30.864;599617013022932946;999.8784;8006
2024-05-23T22:34:30.872;599617013030624318;1007.5697;7911
2024-05-23T22:34:30.880;599617013038315690;1015.2611;7734
2024-05-23T22:34:30.887;599617013046007062;1022.9525;7544
2024-05-23T22:34:30.895;599617013053698434;1030.6438;7467
2024-05-23T22:34:30.903;599617013061389806;1038.3352;7390
2024-05-23T22:34:30.911;599617013069081178;1046.0266;7293
2024-05-23T22:34:30.918;599617013076772550;1053.7179;7244
2024-05-23T22:34:30.926;599617013084463922;1061.4093;7176
2024-05-23T22:34:30.934;599617013092155294;1069.1007;7114
2024-05-23T22:34:30.941;599617013099846666;1076.7921;7118
2024-05-23T22:34:30.949;599617013107538038;1084.4834;7007
2024-05-23T22:34:30.957;599617013115229410;1092.1748;6761
2024-05-23T22:34:30.964;599617013122920782;1099.8662;6675
2024-05-23T22:34:30.972;599617013130612154;1107.5576;6714
2024-05-23T22:34:30.980;599617013138303526;1115.2489;6647
2024-05-23T22:34:30.987;599617013146025002;1122.9703;6531
2024-05-23T22:34:30.995;599617013153715956;1130.6614;6440
2024-05-23T22:34:31.003;599617013161406910;1138.3524;6354
2024-05-23T22:34:31.011;599617013169097864;1146.0432;6373
2024-05-23T22:34:31.018;599617013176788818;1153.7343;6610
2024-05-23T22:34:31.026;599617013184479772;1161.4252;6986
2024-05-23T22:34:31.034;599617013192170726;1169.1162;7135
2024-05-23T22:34:31.041;599617013199861680;1176.807;6644
2024-05-23T22:34:31.049;599617013207552634;1184.498;5873
2024-05-23T22:34:31.057;599617013215243588;1192.1891;5662
2024-05-23T22:34:31.064;599617013222934542;1199.8799;5822
2024-05-23T22:34:31.072;599617013230625496;1207.5709;5720
2024-05-23T22:34:31.080;599617013238316450;1215.2618;5552
2024-05-23T22:34:31.087;599617013246007404;1222.9529;5552
2024-05-23T22:34:31.095;599617013253698358;1230.6438;5520
2024-05-23T22:34:31.103;599617013261389312;1238.3347;5422
2024-05-23T22:34:31.111;599617013269080266;1246.0258;5374
2024-05-23T22:34:31.118;599617013276771220;1253.7166;5360
2024-05-23T22:34:31.126;599617013284462174;1261.4076;5332
2024-05-23T22:34:31.134;599617013292153128;1269.0985;5264
2024-05-23T22:34:31.141;599617013299844082;1276.7896;5174
2024-05-23T22:34:31.149;599617013307535036;1284.4805;5137
2024-05-23T22:34:31.157;599617013315225990;1292.1714;5125
2024-05-23T22:34:31.164;599617013322916944;1299.8624;5062
2024-05-23T22:34:31.172;599617013330607898;1307.5532;5006
2024-05-23T22:34:31.180;599617013338298852;1315.2443;4986
2024-05-23T22:34:31.187;599617013345989806;1322.9352;4944
2024-05-23T22:34:31.195;599617013353680760;1330.6262;4862
2024-05-23T22:34:31.203;599617013361371714;1338.3171;4776
2024-05-23T22:34:31.211;599617013369062668;1346.008;4762
2024-05-23T22:34:31.218;599617013376753622;1353.6991;4776
2024-05-23T22:34:31.226;599617013384444576;1361.3899;4707
2024-05-23T22:34:31.234;599617013392135530;1369.0809;4621
2024-05-23T22:34:31.241;599617013399826484;1376.772;4616
2024-05-23T22:34:31.249;599617013407517438;1384.4629;4604
2024-05-23T22:34:31.257;599617013415208392;1392.1538;4523
2024-05-23T22:34:31.264;599617013422899346;1399.8447;4465
2024-05-23T22:34:31.272;599617013430590300;1407.5358;4435
2024-05-23T22:34:31.280;599617013438281254;1415.2267;4354
2024-05-23T22:34:31.287;599617013445972208;1422.9176;4251
2024-05-23T22:34:31.295;599617013453663162;1430.6086;4198
2024-05-23T22:34:31.303;599617013461354116;1438.2996;4161
2024-05-23T22:34:31.310;599617013469045070;1445.9905;4098
2024-05-23T22:34:31.318;599617013476736024;1453.6814;3996
2024-05-23T22:34:31.326;599617013484426978;1461.3724;3912
2024-05-23T22:34:31.334;599617013492117932;1469.0634;3889
2024-05-23T22:34:31.341;599617013499808886;1476.7543;3861
2024-05-23T22:34:31.349;599617013507499840;1484.4453;3803
2024-05-23T22:34:31.357;599617013515190794;1492.1362;3773
2024-05-23T22:34:31.364;599617013522881748;1499.8271;3749
2024-05-23T22:34:31.372;599617013530572702;1507.5181;3696
2024-05-23T22:34:31.380;599617013538263656;1515.2091;3598
2024-05-23T22:34:31.387;599617013545954610;1522.9;3468
2024-05-23T22:34:31.395;599617013553645564;1530.591;3396
2024-05-23T22:34:31.403;599617013561336518;1538.282;3380
2024-05-23T22:34:31.410;599617013569027472;1545.9729;3322
2024-05-23T22:34:31.418;599617013576718426;1553.6638;3264
2024-05-23T22:34:31.426;599617013584409380;1561.3547;3266
2024-05-23T22:34:31.434;599617013592100334;1569.0458;3255
2024-05-23T22:34:31.441;599617013599791288;1576.7368;3176
2024-05-23T22:34:31.449;599617013607482242;1584.4276;3104
2024-05-23T22:34:31.457;599617013615173196;1592.1187;3078
2024-05-23T22:34:31.464;599617013622864150;1599.8096;3032
2024-05-23T22:34:31.472;599617013630555104;1607.5005;2980
2024-05-23T22:34:31.480;599617013638246058;1615.1914;2976
2024-05-23T22:34:31.487;599617013645937012;1622.8824;2962
2024-05-23T22:34:31.495;599617013653627966;1630.5735;2918
2024-05-23T22:34:31.503;599617013661318920;1638.2643;2881
2024-05-23T22:34:31.510;599617013669009874;1645.9553;2860
2024-05-23T22:34:31.518;599617013676700828;1653.6462;2818
2024-05-23T22:34:31.526;599617013684391782;1661.3372;2734
2024-05-23T22:34:31.534;599617013692082736;1669.0281;2678
2024-05-23T22:34:31.541;599617013699773690;1676.7191;2676
2024-05-23T22:34:31.549;599617013707434552;1684.38;2639
2024-05-23T22:34:31.557;599617013715125924;1692.0713;2565
2024-05-23T22:34:31.564;599617013722817296;1699.7627;2544
2024-05-23T22:34:31.572;599617013730508668;1707.4541;2551
2024-05-23T22:34:31.580;599617013738200040;1715.1455;2516
2024-05-23T22:34:31.587;599617013745891412;1722.8369;2474
2024-05-23T22:34:31.595;599617013753582784;1730.5282;2427
2024-05-23T22:34:31.603;599617013761274156;1738.2195;2353
2024-05-23T22:34:31.610;599617013768965528;1745.9109;2251
2024-05-23T22:34:31.618;599617013776656900;1753.6023;2116
2024-05-23T22:34:31.626;599617013784348272;1761.2937;2039
2024-05-23T22:34:31.633;599617013792039644;1768.9851;2039
2024-05-23T22:34:31.641;599617013799731016;1776.6765;1993
2024-05-23T22:34:31.649;599617013807422388;1784.3679;1923
2024-05-23T22:34:31.657;599617013815113760;1792.0591;1923
2024-05-23T22:34:31.664;599617013822805132;1799.7505;1940
2024-05-23T22:34:31.672;599617013830496504;1807.4419;1921
2024-05-23T22:34:31.680;599617013838187876;1815.1333;1893
2024-05-23T22:34:31.687;599617013845879248;1822.8247;1830
2024-05-23T22:34:31.695;599617013853570620;1830.5161;1747
2024-05-23T22:34:31.703;599617013861261992;1838.2074;1721
2024-05-23T22:34:31.710;599617013868953364;1845.8988;1733
2024-05-23T22:34:31.718;599617013876644736;1853.5901;1737
2024-05-23T22:34:31.726;599617013884336108;1861.2815;1723
2024-05-23T22:34:31.733;599617013892027480;1868.9729;1672
2024-05-23T22:34:31.741;599617013899718852;1876.6643;1614
2024-05-23T22:34:31.749;599617013907410224;1884.3556;1665
2024-05-23T22:34:31.757;599617013915101596;1892.047;1921
2024-05-23T22:34:31.764;599617013922792968;1899.7384;2337
2024-05-23T22:34:31.772;599617013930484340;1907.4298;2592
2024-05-23T22:34:31.780;599617013938175712;1915.1211;2307
2024-05-23T22:34:31.787;599617013945867084;1922.8125;1714
2024-05-23T22:34:31.795;599617013953558456;1930.5039;1456
2024-05-23T22:34:31.803;599617013961249828;1938.1952;1568
2024-05-23T22:34:31.810;599617013968941200;1945.8866;1607
2024-05-23T22:34:31.818;599617013976632572;1953.578;1521
2024-05-23T22:34:31.826;599617013984323944;1961.2694;1498
2024-05-23T22:34:31.833;599617013992015316;1968.9608;1514
2024-05-23T22:34:31.841;599617013999706688;1976.6521;1507
2024-05-23T22:34:31.849;599617014007398060;1984.3434;1505
2024-05-23T22:34:31.857;599617014015089432;1992.0348;1505
2024-05-23T22:34:31.864;599617014022780804;1999.7262;1512
2024-05-23T22:34:31.872;599617014030472176;2007.4176;1514
2024-05-23T22:34:31.880;599617014038163548;2015.109;1503
2024-05-23T22:34:31.887;599617014045854920;2022.8004;1442
2024-05-23T22:34:31.895;599617014053546292;2030.4918;1359
2024-05-23T22:34:31.903;599617014061237664;2038.183;1352
2024-05-23T22:34:31.910;599617014068929036;2045.8744;1373
2024-05-23T22:34:31.918;599617014076620408;2053.566;1345
2024-05-23T22:34:31.926;599617014084311780;2061.2573;1331
2024-05-23T22:34:31.933;599617014092003152;2068.9485;1324
2024-05-23T22:34:31.941;599617014099694524;2076.64;1287
2024-05-23T22:34:31.949;599617014107385896;2084.3313;1282
2024-05-23T22:34:31.957;599617014115077268;2092.0227;1326
2024-05-23T22:34:31.964;599617014122768640;2099.714;1342
2024-05-23T22:34:31.972;599617014130460012;2107.4055;1333
2024-05-23T22:34:31.980;599617014138151384;2115.097;1352
2024-05-23T22:34:31.987;599617014145842756;2122.7883;1380
2024-05-23T22:34:31.995;599617014153534128;2130.4795;1384
2024-05-23T22:34:32.003;599617014161225500;2138.171;1370
2024-05-23T22:34:32.010;599617014168916872;2145.8623;1345
2024-05-23T22:34:32.018;599617014176608244;2153.5537;1328
2024-05-23T22:34:32.026;599617014184299616;2161.2449;1315
2024-05-23T22:34:32.033;599617014191990988;2168.9365;1277
2024-05-23T22:34:32.041;599617014199682360;2176.6277;1240
2024-05-23T22:34:32.049;599617014207373732;2184.3193;1224
2024-05-23T22:34:32.057;599617014215065104;2192.0105;1191
2024-05-23T22:34:32.064;599617014222756476;2199.702;1140
2024-05-23T22:34:32.072;599617014230447848;2207.3933;1131
2024-05-23T22:34:32.080;599617014238139220;2215.0845;1152
2024-05-23T22:34:32.087;599617014245830592;2222.7761;1152
2024-05-23T22:34:32.095;599617014253521964;2230.4673;1138
2024-05-23T22:34:32.103;599617014261213336;2238.159;1126
2024-05-23T22:34:32.110;599617014268904716;2245.85;1126
2024-05-23T22:34:32.118;599617014276596088;2253.5417;1129
2024-05-23T22:34:32.126;599617014284287460;2261.233;1124
2024-05-23T22:34:32.133;599617014291978832;2268.924;1129
2024-05-23T22:34:32.141;599617014299670204;2276.6157;1131
2024-05-23T22:34:32.149;599617014307361576;2284.307;1066
2024-05-23T22:34:32.156;599617014315052948;2291.9985;971
2024-05-23T22:34:32.164;599617014322744320;2299.6897;966
2024-05-23T22:34:32.172;599617014330435692;2307.381;994
2024-05-23T22:34:32.180;599617014338127064;2315.0725;957
2024-05-23T22:34:32.187;599617014345818436;2322.7637;917
2024-05-23T22:34:32.195;599617014353509808;2330.4553;924
2024-05-23T22:34:32.203;599617014361201180;2338.1465;924
2024-05-23T22:34:32.210;599617014368892552;2345.8381;915
2024-05-23T22:34:32.218;599617014376583924;2353.5293;922
2024-05-23T22:34:32.226;599617014384275296;2361.2207;940
2024-05-23T22:34:32.233;599617014391966668;2368.912;947
2024-05-23T22:34:32.241;599617014399658040;2376.6033;922
2024-05-23T22:34:32.249;599617014407349412;2384.295;901
2024-05-23T22:34:32.256;599617014415040784;2391.986;915
2024-05-23T22:34:32.264;599617014422732156;2399.6777;929
2024-05-23T22:34:32.272;599617014430423528;2407.369;924
2024-05-23T22:34:32.280;599617014438114900;2415.0603;922
2024-05-23T22:34:32.287;599617014445806272;2422.7517;924
2024-05-23T22:34:32.295;599617014453497644;2430.443;908
2024-05-23T22:34:32.303;599617014461189016;2438.1345;892
2024-05-23T22:34:32.310;599617014468880388;2445.8257;896
2024-05-23T22:34:32.318;599617014476571760;2453.517;913
2024-05-23T22:34:32.326;599617014484263132;2461.2085;903
2024-05-23T22:34:32.333;599617014491954504;2468.9;864
2024-05-23T22:34:32.341;599617014499645876;2476.5913;852
2024-05-23T22:34:32.349;599617014507337248;2484.2827;878
2024-05-23T22:34:32.356;599617014515028620;2491.974;855
2024-05-23T22:34:32.364;599617014522719992;2499.6655;794
2024-05-23T22:34:32.372;599617014530411364;2507.3567;785
2024-05-23T22:34:32.380;599617014538102736;2515.048;782
2024-05-23T22:34:32.387;599617014545794108;2522.7395;748
2024-05-23T22:34:32.395;599617014553485480;2530.431;694
2024-05-23T22:34:32.403;599617014561176852;2538.1223;624
2024-05-23T22:34:32.410;599617014568868224;2545.8137;599
2024-05-23T22:34:32.418;599617014576559596;2553.5051;606
2024-05-23T22:34:32.426;599617014584250968;2561.1963;525
2024-05-23T22:34:32.433;599617014591942340;2568.8877;397
2024-05-23T22:34:32.441;599617014599633712;2576.579;385
2024-05-23T22:34:32.449;599617014607325084;2584.2705;550
2024-05-23T22:34:32.456;599617014615016456;2591.962;915
2024-05-23T22:34:32.464;599617014622707828;2599.6533;1296
2024-05-23T22:34:32.472;599617014630399200;2607.3447;1212
2024-05-23T22:34:32.480;599617014638090572;2615.036;608
2024-05-23T22:34:32.487;599617014645781944;2622.7275;162
2024-05-23T22:34:32.495;599617014653473316;2630.4187;227
2024-05-23T22:34:32.503;599617014661164688;2638.11;343
2024-05-23T22:34:32.510;599617014668856060;2645.8015;253
2024-05-23T22:34:32.518;599617014676547432;2653.4927;213
2024-05-23T22:34:32.526;599617014684238804;2661.1843;269
2024-05-23T22:34:32.533;599617014691930176;2668.8755;278
2024-05-23T22:34:32.541;599617014699621548;2676.5671;271
2024-05-23T22:34:32.549;599617014707312920;2684.2583;304
2024-05-23T22:34:32.556;599617014715004292;2691.9497;329
2024-05-23T22:34:32.564;599617014722695664;2699.641;320
2024-05-23T22:34:32.572;599617014730387036;2707.3323;320
2024-05-23T22:34:32.580;599617014738078408;2715.024;346
2024-05-23T22:34:32.587;599617014745769780;2722.715;378
2024-05-23T22:34:32.595;599617014753461152;2730.4067;404
2024-05-23T22:34:32.603;599617014761152524;2738.098;404
2024-05-23T22:34:32.610;599617014768843896;2745.7896;406
2024-05-23T22:34:32.618;599617014776535268;2753.4807;436
2024-05-23T22:34:32.626;599617014784226640;2761.1719;460
2024-05-23T22:34:32.633;599617014791918012;2768.8635;473
2024-05-23T22:34:32.641;599617014799609384;2776.5547;508
2024-05-23T22:34:32.649;599617014807300756;2784.2463;548
2024-05-23T22:34:32.656;599617014814992128;2791.9375;562
2024-05-23T22:34:32.664;599617014822683500;2799.629;566
2024-05-23T22:34:32.672;599617014830374880;2807.3203;552
2024-05-23T22:34:32.680;599617014838066252;2815.0115;546
2024-05-23T22:34:32.687;599617014845757624;2822.7031;564
2024-05-23T22:34:32.695;599617014853448996;2830.3943;557
2024-05-23T22:34:32.703;599617014861140368;2838.086;527
2024-05-23T22:34:32.710;599617014868831740;2845.777;511
2024-05-23T22:34:32.718;599617014876523112;2853.4685;469
2024-05-23T22:34:32.726;599617014884214484;2861.16;397
2024-05-23T22:34:32.733;599617014891905856;2868.8513;371
2024-05-23T22:34:32.741;599617014899597228;2876.5427;378
2024-05-23T22:34:32.749;599617014907288600;2884.234;341
2024-05-23T22:34:32.756;599617014914979972;2891.9255;313
2024-05-23T22:34:32.764;599617014922671344;2899.6167;341
2024-05-23T22:34:32.772;599617014930362716;2907.308;369
2024-05-23T22:34:32.779;599617014938054088;2914.9995;376
2024-05-23T22:34:32.787;599617014945745460;2922.691;385
2024-05-23T22:34:32.795;599617014953436832;2930.3823;397
2024-05-23T22:34:32.803;599617014961128204;2938.0735;411
2024-05-23T22:34:32.810;599617014968819576;2945.7651;420
2024-05-23T22:34:32.818;599617014976510948;2953.4563;432
2024-05-23T22:34:32.826;599617014984202320;2961.1477;453
2024-05-23T22:34:32.833;599617014991893692;2968.839;471
2024-05-23T22:34:32.841;599617014999585064;2976.5305;453
2024-05-23T22:34:32.849;599617015007276436;2984.222;434
2024-05-23T22:34:32.856;599617015014967808;2991.9133;457
2024-05-23T22:34:32.864;599617015022659180;2999.6045;478
2024-05-23T22:34:32.872;599617015030350552;3007.296;476
2024-05-23T22:34:32.879;599617015038041924;3014.9873;473
2024-05-23T22:34:32.887;599617015045733296;3022.6787;469
2024-05-23T22:34:32.895;599617015053424668;3030.37;450
2024-05-23T22:34:32.903;599617015061116040;3038.0615;397
2024-05-23T22:34:32.910;599617015068807412;3045.753;322
2024-05-23T22:34:32.918;599617015076498784;3053.444;285
2024-05-23T22:34:32.926;599617015084190156;3061.1355;276
2024-05-23T22:34:32.933;599617015091881528;3068.827;255
2024-05-23T22:34:32.941;599617015099572900;3076.5183;255
2024-05-23T22:34:32.949;599617015107264272;3084.2097;295
2024-05-23T22:34:32.956;599617015114955644;3091.9011;318
2024-05-23T22:34:32.964;599617015122647016;3099.5925;311
2024-05-23T22:34:32.972;599617015130338388;3107.2837;320
2024-05-23T22:34:32.979;599617015138029760;3114.9753;336
2024-05-23T22:34:32.987;599617015145721132;3122.6665;332
2024-05-23T22:34:32.995;599617015153412504;3130.358;329
2024-05-23T22:34:33.003;599617015161103876;3138.0493;355
2024-05-23T22:34:33.010;599617015168795248;3145.7405;381
2024-05-23T22:34:33.018;599617015176486620;3153.4321;374
2024-05-23T22:34:33.026;599617015184177992;3161.1233;360
2024-05-23T22:34:33.033;599617015191869364;3168.815;378
2024-05-23T22:34:33.041;599617015199560736;3176.506;413
2024-05-23T22:34:33.049;599617015207252108;3184.1978;434
2024-05-23T22:34:33.056;599617015214943480;3191.889;439
2024-05-23T22:34:33.064;599617015222634852;3199.58;429
2024-05-23T22:34:33.072;599617015230326224;3207.2717;422
2024-05-23T22:34:33.079;599617015238017596;3214.963;422
2024-05-23T22:34:33.087;599617015245708968;3222.6545;429
2024-05-23T22:34:33.095;599617015253400340;3230.3457;443
2024-05-23T22:34:33.103;599617015261091712;3238.0374;457
2024-05-23T22:34:33.110;599617015268783084;3245.7285;432
2024-05-23T22:34:33.118;599617015276474456;3253.4197;371
2024-05-23T22:34:33.126;599617015284165828;3261.1113;397
2024-05-23T22:34:33.133;599617015291857200;3268.8025;645
2024-05-23T22:34:33.141;599617015299548572;3276.4941;1089
2024-05-23T22:34:33.149;599617015307239944;3284.1853;1407
2024-05-23T22:34:33.156;599617015314931316;3291.877;1177
2024-05-23T22:34:33.164;599617015322622688;3299.568;494
2024-05-23T22:34:33.172;599617015330314060;3307.2593;62
2024-05-23T22:34:33.179;599617015338005432;3314.951;144
2024-05-23T22:34:33.187;599617015345696804;3322.642;227
2024-05-23T22:34:33.195;599617015353388176;3330.3337;134
2024-05-23T22:34:33.203;599617015361079548;3338.025;120
2024-05-23T22:34:33.210;599617015368770920;3345.7163;151
2024-05-23T22:34:33.218;599617015376462292;3353.4077;123
2024-05-23T22:34:33.226;599617015384153664;3361.099;95
2024-05-23T22:34:33.233;599617015391845044;3368.7905;81
2024-05-23T22:34:33.241;599617015399536416;3376.4817;58
2024-05-23T22:34:33.249;599617015407227788;3384.1733;18
2024-05-23T22:34:33.256;599617015414919160;3391.8645;-46
2024-05-23T22:34:33.264;599617015422610532;3399.556;-109
2024-05-23T22:34:33.272;599617015430301904;3407.2473;-99
2024-05-23T22:34:33.279;599617015437993276;3414.9387;-53
2024-05-23T22:34:33.287;599617015445684648;3422.6301;-48
2024-05-23T22:34:33.295;599617015453376020;3430.3213;-62
2024-05-23T22:34:33.303;599617015461067392;3438.013;-39
2024-05-23T22:34:33.310;599617015468758764;3445.704;0
2024-05-23T22:34:33.318;599617015476450136;3453.3955;23
2024-05-23T22:34:33.326;599617015484141508;3461.087;46
2024-05-23T22:34:33.333;599617015491832880;3468.7783;92
2024-05-23T22:34:33.341;599617015499524252;3476.4697;125
2024-05-23T22:34:33.349;599617015507215624;3484.1611;125
2024-05-23T22:34:33.356;599617015514906996;3491.8525;132
2024-05-23T22:34:33.364;599617015522598368;3499.5437;167
2024-05-23T22:34:33.372;599617015530289740;3507.235;190
2024-05-23T22:34:33.379;599617015537981112;3514.9265;190
2024-05-23T22:34:33.387;599617015545672484;3522.618;188
2024-05-23T22:34:33.395;599617015553363856;3530.3093;183
2024-05-23T22:34:33.403;599617015561055228;3538.0007;144
2024-05-23T22:34:33.410;599617015568746600;3545.692;65
2024-05-23T22:34:33.418;599617015576437972;3553.3835;32
2024-05-23T22:34:33.426;599617015584129344;3561.0747;69
2024-05-23T22:34:33.433;599617015591820716;3568.766;83
2024-05-23T22:34:33.441;599617015599512088;3576.4575;48
2024-05-23T22:34:33.449;599617015607203460;3584.149;53
2024-05-23T22:34:33.456;599617015614894832;3591.8403;104
2024-05-23T22:34:33.464;599617015622586204;3599.5315;134
2024-05-23T22:34:33.472;599617015630277576;3607.2231;141
2024-05-23T22:34:33.479;599617015637968948;3614.9143;160
2024-05-23T22:34:33.487;599617015645660320;3622.6057;181
2024-05-23T22:34:33.495;599617015653351692;3630.297;190
2024-05-23T22:34:33.502;599617015661043064;3637.9885;197
2024-05-23T22:34:33.510;599617015668734436;3645.68;220
2024-05-23T22:34:33.518;599617015676425808;3653.371;250
2024-05-23T22:34:33.526;599617015684117180;3661.0627;255
2024-05-23T22:34:33.533;599617015691808552;3668.754;239
2024-05-23T22:34:33.541;599617015699499924;3676.4456;246
2024-05-23T22:34:33.549;599617015707191296;3684.1367;278
2024-05-23T22:34:33.556;599617015714882668;3691.828;285
2024-05-23T22:34:33.564;599617015722574040;3699.5195;281
2024-05-23T22:34:33.572;599617015730265412;3707.2107;292
2024-05-23T22:34:33.579;599617015737956784;3714.9023;304
2024-05-23T22:34:33.587;599617015745648156;3722.5935;297
2024-05-23T22:34:33.595;599617015753339528;3730.2852;295
2024-05-23T22:34:33.602;599617015761030900;3737.9763;318
2024-05-23T22:34:33.610;599617015768722272;3745.6675;341
2024-05-23T22:34:33.618;599617015776413644;3753.3591;332
2024-05-23T22:34:33.626;599617015784105016;3761.0503;309
2024-05-23T22:34:33.633;599617015791796388;3768.742;318
2024-05-23T22:34:33.641;599617015799487760;3776.433;350
2024-05-23T22:34:33.649;599617015807179132;3784.1248;360
2024-05-23T22:34:33.656;599617015814870504;3791.816;325
2024-05-23T22:34:33.664;599617015822561876;3799.507;302
2024-05-23T22:34:33.672;599617015830253248;3807.1987;306
2024-05-23T22:34:33.679;599617015837944620;3814.89;299
2024-05-23T22:34:33.687;599617015845635992;3822.5815;297
2024-05-23T22:34:33.695;599617015853327364;3830.2727;325
2024-05-23T22:34:33.702;599617015861018736;3837.964;339
2024-05-23T22:34:33.710;599617015868710108;3845.6555;322
2024-05-23T22:34:33.718;599617015876401480;3853.347;311
2024-05-23T22:34:33.726;599617015884092852;3861.0383;329
2024-05-23T22:34:33.733;599617015891784224;3868.7295;360
2024-05-23T22:34:33.741;599617015899475596;3876.4211;376
2024-05-23T22:34:33.749;599617015907166968;3884.1123;381
2024-05-23T22:34:33.756;599617015914858340;3891.8037;381
2024-05-23T22:34:33.764;599617015922549712;3899.495;369
2024-05-23T22:34:33.772;599617015930241084;3907.1865;355
2024-05-23T22:34:33.779;599617015937932456;3914.878;364
2024-05-23T22:34:33.787;599617015945623828;3922.5693;390
2024-05-23T22:34:33.795;599617015953315208;3930.2607;390
2024-05-23T22:34:33.802;599617015961006580;3937.952;355
2024-05-23T22:34:33.810;599617015968697952;3945.6433;309
2024-05-23T22:34:33.818;599617015976389324;3953.3347;350
2024-05-23T22:34:33.826;599617015984080696;3961.0261;611
2024-05-23T22:34:33.833;599617015991772068;3968.7175;1057
2024-05-23T22:34:33.841;599617015999463440;3976.409;1340
2024-05-23T22:34:33.849;599617016007154812;3984.1003;1068
2024-05-23T22:34:33.856;599617016014846184;3991.7915;429
2024-05-23T22:34:33.864;599617016022537556;3999.483;97
2024-05-23T22:34:33.872;599617016030228928;4007.1743;190
2024-05-23T22:34:33.879;599617016037920300;4014.8657;234
2024-05-23T22:34:33.887;599617016045611672;4022.5571;141
2024-05-23T22:34:33.895;599617016053303044;4030.2485;113
2024-05-23T22:34:33.902;599617016060994416;4037.9397;90
2024-05-23T22:34:33.910;599617016068685788;4045.6313;-9
2024-05-23T22:34:33.918;599617016076377160;4053.3225;-111
2024-05-23T22:34:33.926;599617016084068532;4061.014;-134
2024-05-23T22:34:33.933;599617016091759904;4068.7053;-88
2024-05-23T22:34:33.941;599617016099451276;4076.3967;-58
2024-05-23T22:34:33.949;599617016107142648;4084.0881;-72
2024-05-23T22:34:33.956;599617016114834020;4091.7793;-65
2024-05-23T22:34:33.964;599617016122525392;4099.4707;-18
2024-05-23T22:34:33.972;599617016130216764;4107.162;13
2024-05-23T22:34:33.979;599617016137908136;4114.8535;23
2024-05-23T22:34:33.987;599617016145599508;4122.545;13
2024-05-23T22:34:33.995;599617016153290880;4130.2363;-2
2024-05-23T22:34:34.002;599617016160982252;4137.9277;-9
2024-05-23T22:34:34.010;599617016168673624;4145.619;-23
2024-05-23T22:34:34.018;599617016176364996;4153.3105;-34
2024-05-23T22:34:34.026;599617016184056368;4161.002;0
2024-05-23T22:34:34.033;599617016191747740;4168.6934;30
2024-05-23T22:34:34.041;599617016199439112;4176.3843;13
2024-05-23T22:34:34.049;599617016207130484;4184.076;9
2024-05-23T22:34:34.056;599617016214821856;4191.767;44
2024-05-23T22:34:34.064;599617016222513228;4199.4585;65
2024-05-23T22:34:34.072;599617016230204600;4207.15;55
2024-05-23T22:34:34.079;599617016237895972;4214.8413;55
2024-05-23T22:34:34.087;599617016245587344;4222.5327;58
2024-05-23T22:34:34.095;599617016253278716;4230.224;41
2024-05-23T22:34:34.102;599617016260970088;4237.9155;27
2024-05-23T22:34:34.110;599617016268661460;4245.607;32
2024-05-23T22:34:34.118;599617016276352832;4253.2983;44
2024-05-23T22:34:34.125;599617016284044204;4260.9897;37
2024-05-23T22:34:34.133;599617016291735576;4268.681;9
2024-05-23T22:34:34.141;599617016299426948;4276.3726;-6
2024-05-23T22:34:34.149;599617016307118320;4284.064;-18
2024-05-23T22:34:34.156;599617016314809692;4291.755;-34
2024-05-23T22:34:34.164;599617016322501064;4299.4463;-18
2024-05-23T22:34:34.172;599617016330192436;4307.138;13
2024-05-23T22:34:34.179;599617016337883808;4314.829;25
2024-05-23T22:34:34.187;599617016345575180;4322.5205;30
2024-05-23T22:34:34.195;599617016353266552;4330.212;53
2024-05-23T22:34:34.202;599617016360957924;4337.9033;81
2024-05-23T22:34:34.210;599617016368649296;4345.5947;106
2024-05-23T22:34:34.218;599617016376340668;4353.286;109
2024-05-23T22:34:34.225;599617016384032040;4360.9775;97
2024-05-23T22:34:34.233;599617016391723412;4368.6685;118
2024-05-23T22:34:34.241;599617016399414784;4376.3604;155
2024-05-23T22:34:34.249;599617016407106156;4384.052;155
2024-05-23T22:34:34.256;599617016414797528;4391.743;153
2024-05-23T22:34:34.264;599617016422488900;4399.434;181
2024-05-23T22:34:34.272;599617016430180272;4407.1255;190
2024-05-23T22:34:34.279;599617016437871644;4414.8174;174
2024-05-23T22:34:34.287;599617016445563016;4422.5083;188
2024-05-23T22:34:34.295;599617016453254388;4430.1997;225
2024-05-23T22:34:34.302;599617016460945760;4437.891;246
2024-05-23T22:34:34.310;599617016468637132;4445.5825;241
2024-05-23T22:34:34.318;599617016476328504;4453.274;227
2024-05-23T22:34:34.325;599617016484019876;4460.9653;239
2024-05-23T22:34:34.333;599617016491711248;4468.6567;262
2024-05-23T22:34:34.341;599617016499402620;4476.348;267
2024-05-23T22:34:34.349;599617016507093992;4484.039;271
2024-05-23T22:34:34.356;599617016514785372;4491.731;292
2024-05-23T22:34:34.364;599617016522476744;4499.4224;290
2024-05-23T22:34:34.372;599617016530168116;4507.1133;276
2024-05-23T22:34:34.379;599617016537859488;4514.8047;292
2024-05-23T22:34:34.387;599617016545550860;4522.4966;302
2024-05-23T22:34:34.395;599617016553242232;4530.188;257
2024-05-23T22:34:34.402;599617016560933604;4537.879;209
2024-05-23T22:34:34.410;599617016568624976;4545.5703;202
2024-05-23T22:34:34.418;599617016576316348;4553.2617;183
2024-05-23T22:34:34.425;599617016584007720;4560.953;78
2024-05-23T22:34:34.433;599617016591699092;4568.6445;-27
2024-05-23T22:34:34.441;599617016599390464;4576.336;-16
2024-05-23T22:34:34.449;599617016607081836;4584.0273;44
2024-05-23T22:34:34.456;599617016614773208;4591.7183;46
2024-05-23T22:34:34.464;599617016622464580;4599.41;46
2024-05-23T22:34:34.472;599617016630155952;4607.1016;92
2024-05-23T22:34:34.479;599617016637847324;4614.7925;120
2024-05-23T22:34:34.487;599617016645538696;4622.484;120
2024-05-23T22:34:34.495;599617016653230068;4630.176;125
2024-05-23T22:34:34.502;599617016660921440;4637.867;134
2024-05-23T22:34:34.510;599617016668612812;4645.558;148
2024-05-23T22:34:34.518;599617016676304184;4653.2495;167
2024-05-23T22:34:34.525;599617016683995556;4660.941;157
2024-05-23T22:34:34.533;599617016691686928;4668.633;141
2024-05-23T22:34:34.541;599617016699378300;4676.3237;209
2024-05-23T22:34:34.549;599617016707069672;4684.015;467
2024-05-23T22:34:34.556;599617016714761044;4691.7065;906
2024-05-23T22:34:34.564;599617016722452416;4699.3975;1187
2024-05-23T22:34:34.572;599617016730143788;4707.0894;910
2024-05-23T22:34:34.579;599617016737835160;4714.781;327
2024-05-23T22:34:34.587;599617016745526532;4722.472;97
2024-05-23T22:34:34.595;599617016753217904;4730.163;216
2024-05-23T22:34:34.602;599617016760909276;4737.8545;227
2024-05-23T22:34:34.610;599617016768600648;4745.5464;146
2024-05-23T22:34:34.618;599617016776292020;4753.2373;171
2024-05-23T22:34:34.625;599617016783983392;4760.9287;220
2024-05-23T22:34:34.633;599617016791674764;4768.62;202
2024-05-23T22:34:34.641;599617016799366136;4776.312;160
2024-05-23T22:34:34.649;599617016807057508;4784.003;151
2024-05-23T22:34:34.656;599617016814748880;4791.6943;185
2024-05-23T22:34:34.664;599617016822440252;4799.3857;213
2024-05-23T22:34:34.672;599617016830131624;4807.0767;211
2024-05-23T22:34:34.679;599617016837822996;4814.7686;202
2024-05-23T22:34:34.687;599617016845514368;4822.46;183
2024-05-23T22:34:34.695;599617016853205740;4830.1514;162
2024-05-23T22:34:34.702;599617016860897112;4837.8423;162
2024-05-23T22:34:34.710;599617016868588484;4845.5337;183
2024-05-23T22:34:34.718;599617016876279856;4853.2256;206
2024-05-23T22:34:34.725;599617016883971228;4860.9165;218
2024-05-23T22:34:34.733;599617016891662600;4868.608;211
2024-05-23T22:34:34.741;599617016899353972;4876.2993;216
2024-05-23T22:34:34.748;599617016907045344;4883.9907;246
2024-05-23T22:34:34.756;599617016914736716;4891.682;253
2024-05-23T22:34:34.764;599617016922428088;4899.3735;220
2024-05-23T22:34:34.772;599617016930119460;4907.065;197
2024-05-23T22:34:34.779;599617016937810832;4914.756;164
2024-05-23T22:34:34.787;599617016945502204;4922.4478;104
2024-05-23T22:34:34.795;599617016953193576;4930.139;76
2024-05-23T22:34:34.802;599617016960884948;4937.8306;85
2024-05-23T22:34:34.810;599617016968576320;4945.5215;83
2024-05-23T22:34:34.818;599617016976267692;4953.213;48
2024-05-23T22:34:34.825;599617016983959064;4960.905;6
2024-05-23T22:34:34.833;599617016991650436;4968.596;-9
2024-05-23T22:34:34.841;599617016999341808;4976.287;-6
2024-05-23T22:34:34.848;599617017007033180;4983.9785;-20
2024-05-23T22:34:34.856;599617017014724552;4991.67;-30
2024-05-23T22:34:34.864;599617017022415924;4999.3613;-18
2024-05-23T22:34:34.872;599617017030107296;5007.0527;-6
2024-05-23T22:34:34.879;599617017037798668;5014.744;-13
2024-05-23T22:34:34.887;599617017045490040;5022.4355;-37
2024-05-23T22:34:34.895;599617017053181412;5030.1265;-46
2024-05-23T22:34:34.902;599617017060872784;5037.8184;-20
2024-05-23T22:34:34.910;599617017068564156;5045.51;-16
2024-05-23T22:34:34.918;599617017076255536;5053.2007;-67
2024-05-23T22:34:34.925;599617017083946908;5060.892;-132
2024-05-23T22:34:34.933;599617017091638280;5068.584;-157
2024-05-23T22:34:34.941;599617017099329652;5076.2754;-134
2024-05-23T22:34:34.948;599617017107021024;5083.9663;-109
2024-05-23T22:34:34.956;599617017114712396;5091.6577;-92
2024-05-23T22:34:34.964;599617017122403768;5099.349;-113
2024-05-23T22:34:34.972;599617017130095140;5107.0405;-178
2024-05-23T22:34:34.979;599617017137786512;5114.732;-195
2024-05-23T22:34:34.987;599617017145477884;5122.4233;-137
2024-05-23T22:34:34.995;599617017153169256;5130.1147;-102
2024-05-23T22:34:35.002;599617017160860628;5137.8057;-109
2024-05-23T22:34:35.010;599617017168552000;5145.4976;-95
2024-05-23T22:34:35.018;599617017176243372;5153.189;-55
2024-05-23T22:34:35.025;599617017183934744;5160.8804;-32
2024-05-23T22:34:35.033;599617017191626116;5168.5713;-20
2024-05-23T22:34:35.041;599617017199317488;5176.2627;11
2024-05-23T22:34:35.048;599617017207008860;5183.9546;44
2024-05-23T22:34:35.056;599617017214700232;5191.6455;41
2024-05-23T22:34:35.064;599617017222391604;5199.337;34
2024-05-23T22:34:35.072;599617017230082976;5207.0283;69
2024-05-23T22:34:35.079;599617017237774348;5214.72;113
2024-05-23T22:34:35.087;599617017245465720;5222.411;125
2024-05-23T22:34:35.095;599617017253157092;5230.1025;120
2024-05-23T22:34:35.102;599617017260848464;5237.794;125
2024-05-23T22:34:35.110;599617017268539836;5245.485;137
2024-05-23T22:34:35.118;599617017276231208;5253.177;148
2024-05-23T22:34:35.125;599617017283922580;5260.868;153
2024-05-23T22:34:35.133;599617017291613952;5268.5596;141
2024-05-23T22:34:35.141;599617017299305324;5276.2505;118
2024-05-23T22:34:35.148;599617017306996696;5283.942;118
2024-05-23T22:34:35.156;599617017314688068;5291.634;144
2024-05-23T22:34:35.164;599617017322379440;5299.3247;162
2024-05-23T22:34:35.172;599617017330070812;5307.016;174
2024-05-23T22:34:35.179;599617017337762184;5314.7075;183
2024-05-23T22:34:35.187;599617017345453556;5322.3994;185
2024-05-23T22:34:35.195;599617017353144928;5330.0903;192
2024-05-23T22:34:35.202;599617017360836300;5337.7817;202
2024-05-23T22:34:35.210;599617017368527672;5345.473;195
2024-05-23T22:34:35.218;599617017376219044;5353.164;169
2024-05-23T22:34:35.225;599617017383910416;5360.856;204
2024-05-23T22:34:35.233;599617017391601788;5368.5474;401
2024-05-23T22:34:35.241;599617017399293160;5376.239;789
2024-05-23T22:34:35.248;599617017406984532;5383.9297;1145
2024-05-23T22:34:35.256;599617017414675904;5391.621;1054
2024-05-23T22:34:35.264;599617017422367276;5399.313;515
2024-05-23T22:34:35.272;599617017430058648;5407.0044;134
2024-05-23T22:34:35.279;599617017437750020;5414.6953;190
2024-05-23T22:34:35.287;599617017445441392;5422.3867;260
2024-05-23T22:34:35.295;599617017453132764;5430.078;174
2024-05-23T22:34:35.302;599617017460824136;5437.7695;162
2024-05-23T22:34:35.310;599617017468515508;5445.461;218
2024-05-23T22:34:35.318;599617017476206880;5453.1523;225
2024-05-23T22:34:35.325;599617017483898252;5460.8438;213
2024-05-23T22:34:35.333;599617017491589624;5468.535;209
2024-05-23T22:34:35.341;599617017499280996;5476.2266;218
2024-05-23T22:34:35.348;599617017506972368;5483.918;248
2024-05-23T22:34:35.356;599617017514663740;5491.609;262
2024-05-23T22:34:35.364;599617017522355112;5499.3003;253
2024-05-23T22:34:35.371;599617017530046484;5506.992;250
2024-05-23T22:34:35.379;599617017537737856;5514.6836;225
2024-05-23T22:34:35.387;599617017545429228;5522.3745;183
2024-05-23T22:34:35.395;599617017553120600;5530.066;190
2024-05-23T22:34:35.402;599617017560811972;5537.7573;225
2024-05-23T22:34:35.410;599617017568503344;5545.4487;255
2024-05-23T22:34:35.418;599617017576194716;5553.14;257
2024-05-23T22:34:35.425;599617017583886088;5560.8315;204
2024-05-23T22:34:35.433;599617017591577460;5568.523;113
2024-05-23T22:34:35.441;599617017599268832;5576.214;65
2024-05-23T22:34:35.448;599617017606960204;5583.906;85
2024-05-23T22:34:35.456;599617017614651576;5591.597;109
2024-05-23T22:34:35.464;599617017622342948;5599.288;111
2024-05-23T22:34:35.471;599617017630034320;5606.9795;111
2024-05-23T22:34:35.479;599617017637725700;5614.6714;104
2024-05-23T22:34:35.487;599617017645417072;5622.363;99
2024-05-23T22:34:35.495;599617017653108444;5630.0537;97
2024-05-23T22:34:35.502;599617017660799816;5637.745;60
2024-05-23T22:34:35.510;599617017668491188;5645.4365;-13
2024-05-23T22:34:35.518;599617017676182560;5653.1284;-92
2024-05-23T22:34:35.525;599617017683873932;5660.8193;-144
2024-05-23T22:34:35.533;599617017691565304;5668.5107;-171
2024-05-23T22:34:35.541;599617017699256676;5676.202;-225
2024-05-23T22:34:35.548;599617017706948048;5683.893;-271
2024-05-23T22:34:35.556;599617017714639420;5691.585;-253
2024-05-23T22:34:35.564;599617017722330792;5699.2764;-234
2024-05-23T22:34:35.571;599617017730022164;5706.968;-241
2024-05-23T22:34:35.579;599617017737713536;5714.6587;-223
2024-05-23T22:34:35.587;599617017745404908;5722.35;-185
2024-05-23T22:34:35.595;599617017753096280;5730.042;-162
2024-05-23T22:34:35.602;599617017760787652;5737.733;-157
2024-05-23T22:34:35.610;599617017768479024;5745.4243;-153
2024-05-23T22:34:35.618;599617017776170396;5753.1157;-148
2024-05-23T22:34:35.625;599617017783861768;5760.8076;-171
2024-05-23T22:34:35.633;599617017791553140;5768.4985;-197
2024-05-23T22:34:35.641;599617017799244512;5776.19;-162
2024-05-23T22:34:35.648;599617017806935884;5783.8813;-120
2024-05-23T22:34:35.656;599617017814627256;5791.5723;-132
2024-05-23T22:34:35.664;599617017822318628;5799.264;-134
2024-05-23T22:34:35.671;599617017830010000;5806.9556;-85
2024-05-23T22:34:35.679;599617017837701372;5814.647;-48
2024-05-23T22:34:35.687;599617017845392744;5822.338;-37
2024-05-23T22:34:35.695;599617017853084116;5830.0293;-27
2024-05-23T22:34:35.702;599617017860775488;5837.721;-11
2024-05-23T22:34:35.710;599617017868466860;5845.412;9
2024-05-23T22:34:35.718;599617017876158232;5853.1035;27
2024-05-23T22:34:35.725;599617017883849604;5860.795;41
2024-05-23T22:34:35.733;599617017891540976;5868.4863;65
2024-05-23T22:34:35.741;599617017899232348;5876.1777;92
2024-05-23T22:34:35.748;599617017906923720;5883.869;90
2024-05-23T22:34:35.756;599617017914615092;5891.5605;85
2024-05-23T22:34:35.764;599617017922306464;5899.252;116
2024-05-23T22:34:35.771;599617017929997836;5906.9434;148
2024-05-23T22:34:35.779;599617017937689208;5914.635;157
2024-05-23T22:34:35.787;599617017945380580;5922.326;164
2024-05-23T22:34:35.795;599617017953071952;5930.017;185
2024-05-23T22:34:35.802;599617017960763324;5937.7085;206
2024-05-23T22:34:35.810;599617017968454696;5945.4004;211
2024-05-23T22:34:35.818;599617017976146068;5953.092;211
2024-05-23T22:34:35.825;599617017983837440;5960.7827;239
2024-05-23T22:34:35.833;599617017991528812;5968.474;257
2024-05-23T22:34:35.841;599617017999220184;5976.1655;232
2024-05-23T22:34:35.848;599617018006911556;5983.857;220
2024-05-23T22:34:35.856;599617018014602928;5991.5483;250
2024-05-23T22:34:35.864;599617018022294300;5999.2397;243
2024-05-23T22:34:35.871;599617018029985672;6006.931;178
2024-05-23T22:34:35.879;599617018037677044;6014.6226;209
2024-05-23T22:34:35.887;599617018045368416;6022.314;501
2024-05-23T22:34:35.895;599617018053059788;6030.0054;952
2024-05-23T22:34:35.902;599617018060751160;6037.6963;1124
2024-05-23T22:34:35.910;599617018068442532;6045.3877;745
2024-05-23T22:34:35.918;599617018076133904;6053.0796;213
2024-05-23T22:34:35.925;599617018083825276;6060.771;74
2024-05-23T22:34:35.933;599617018091516648;6068.462;164
2024-05-23T22:34:35.941;599617018099208020;6076.1533;99
2024-05-23T22:34:35.948;599617018106899392;6083.8447;-18
2024-05-23T22:34:35.956;599617018114590764;6091.5366;2
2024-05-23T22:34:35.964;599617018122282136;6099.2275;48
2024-05-23T22:34:35.971;599617018129973508;6106.919;46
2024-05-23T22:34:35.979;599617018137664880;6114.6104;58
2024-05-23T22:34:35.987;599617018145356252;6122.3013;76
2024-05-23T22:34:35.994;599617018153047624;6129.993;83
2024-05-23T22:34:36.002;599617018160738996;6137.6846;113
2024-05-23T22:34:36.010;599617018168430368;6145.376;160
2024-05-23T22:34:36.018;599617018176121740;6153.067;174
2024-05-23T22:34:36.025;599617018183813112;6160.759;162
2024-05-23T22:34:36.033;599617018191504484;6168.45;183
2024-05-23T22:34:36.041;599617018199195864;6176.141;223
2024-05-23T22:34:36.048;599617018206887236;6183.8325;239
2024-05-23T22:34:36.056;599617018214578608;6191.524;248
2024-05-23T22:34:36.064;599617018222269980;6199.216;278
2024-05-23T22:34:36.071;599617018229961352;6206.9067;288
2024-05-23T22:34:36.079;599617018237652724;6214.598;246
2024-05-23T22:34:36.087;599617018245344096;6222.2896;211
2024-05-23T22:34:36.094;599617018253035468;6229.9805;248
2024-05-23T22:34:36.102;599617018260726840;6237.6724;297
2024-05-23T22:34:36.110;599617018268418212;6245.364;295
2024-05-23T22:34:36.118;599617018276109584;6253.055;236
2024-05-23T22:34:36.125;599617018283800956;6260.746;176
2024-05-23T22:34:36.133;599617018291492328;6268.4375;174
2024-05-23T22:34:36.141;599617018299183700;6276.1294;178
2024-05-23T22:34:36.148;599617018306875072;6283.8203;153
2024-05-23T22:34:36.156;599617018314566444;6291.5117;132
2024-05-23T22:34:36.164;599617018322257816;6299.203;106
2024-05-23T22:34:36.171;599617018329949188;6306.895;72
2024-05-23T22:34:36.179;599617018337640560;6314.586;65
2024-05-23T22:34:36.187;599617018345331932;6322.2773;72
2024-05-23T22:34:36.194;599617018353023304;6329.9688;37
2024-05-23T22:34:36.202;599617018360714676;6337.6597;-18
2024-05-23T22:34:36.210;599617018368406048;6345.3516;-53
2024-05-23T22:34:36.218;599617018376097420;6353.043;-76
2024-05-23T22:34:36.225;599617018383788792;6360.7344;-85
2024-05-23T22:34:36.233;599617018391480164;6368.4253;-81
2024-05-23T22:34:36.241;599617018399171536;6376.1167;-76
2024-05-23T22:34:36.248;599617018406862908;6383.8086;-67
2024-05-23T22:34:36.256;599617018414554280;6391.5;-69
2024-05-23T22:34:36.264;599617018422245652;6399.191;-78
2024-05-23T22:34:36.271;599617018429937024;6406.8823;-60
2024-05-23T22:34:36.279;599617018437628396;6414.5737;-32
2024-05-23T22:34:36.287;599617018445319768;6422.265;-20
2024-05-23T22:34:36.294;599617018453011140;6429.9565;-27
2024-05-23T22:34:36.302;599617018460702512;6437.648;-27
2024-05-23T22:34:36.310;599617018468393884;6445.3394;-16
2024-05-23T22:34:36.318;599617018476085256;6453.031;-2
2024-05-23T22:34:36.325;599617018483776628;6460.722;9
2024-05-23T22:34:36.333;599617018491468000;6468.4136;30
2024-05-23T22:34:36.341;599617018499159372;6476.1045;53
2024-05-23T22:34:36.348;599617018506850744;6483.796;41
2024-05-23T22:34:36.356;599617018514542116;6491.488;18
2024-05-23T22:34:36.364;599617018522233488;6499.179;2
2024-05-23T22:34:36.371;599617018529924860;6506.87;-9
2024-05-23T22:34:36.379;599617018537616232;6514.5615;0
2024-05-23T22:34:36.387;599617018545307604;6522.253;16
2024-05-23T22:34:36.394;599617018552998976;6529.9443;20
2024-05-23T22:34:36.402;599617018560690348;6537.6357;34
2024-05-23T22:34:36.410;599617018568381720;6545.327;48
2024-05-23T22:34:36.418;599617018576073092;6553.0186;58
2024-05-23T22:34:36.425;599617018583764464;6560.7095;83
2024-05-23T22:34:36.433;599617018591455836;6568.4014;111
2024-05-23T22:34:36.441;599617018599147208;6576.093;97
2024-05-23T22:34:36.448;599617018606838580;6583.784;48
2024-05-23T22:34:36.456;599617018614529952;6591.475;16
2024-05-23T22:34:36.464;599617018622221324;6599.167;18
2024-05-23T22:34:36.471;599617018629912696;6606.8584;30
2024-05-23T22:34:36.479;599617018637604068;6614.5493;34
2024-05-23T22:34:36.487;599617018645295440;6622.2407;48
2024-05-23T22:34:36.494;599617018652986812;6629.932;67
2024-05-23T22:34:36.502;599617018660678184;6637.624;81
2024-05-23T22:34:36.510;599617018668369556;6645.315;99
2024-05-23T22:34:36.518;599617018676060928;6653.0063;106
2024-05-23T22:34:36.525;599617018683752300;6660.6978;85
2024-05-23T22:34:36.533;599617018691443672;6668.3887;167
2024-05-23T22:34:36.541;599617018699135044;6676.0806;527
2024-05-23T22:34:36.548;599617018706826416;6683.772;1017
2024-05-23T22:34:36.556;599617018714517788;6691.4634;1154
2024-05-23T22:34:36.564;599617018722209160;6699.1543;699
2024-05-23T22:34:36.571;599617018729900532;6706.846;153
2024-05-23T22:34:36.579;599617018737591904;6714.5376;67
2024-05-23T22:34:36.587;599617018745283276;6722.2285;190
2024-05-23T22:34:36.594;599617018752974648;6729.92;146
2024-05-23T22:34:36.602;599617018760646012;6737.5913;97
2024-05-23T22:34:36.610;599617018768337662;6745.283;113
2024-05-23T22:34:36.617;599617018776029312;6752.9746;74
2024-05-23T22:34:36.625;599617018783720962;6760.6665;34
2024-05-23T22:34:36.633;599617018791412612;6768.358;74
2024-05-23T22:34:36.641;599617018799104262;6776.05;111
2024-05-23T22:34:36.648;599617018806795912;6783.741;76
2024-05-23T22:34:36.656;599617018814487562;6791.433;37
2024-05-23T22:34:36.664;599617018822179212;6799.1245;55
2024-05-23T22:34:36.671;599617018829870862;6806.8164;81
2024-05-23T22:34:36.679;599617018837562512;6814.508;76
2024-05-23T22:34:36.687;599617018845254162;6822.1997;95
2024-05-23T22:34:36.694;599617018852945812;6829.891;141
2024-05-23T22:34:36.702;599617018860637462;6837.583;174
2024-05-23T22:34:36.710;599617018868329112;6845.2744;181
2024-05-23T22:34:36.717;599617018876020762;6852.9663;188
2024-05-23T22:34:36.725;599617018883712412;6860.6577;213
2024-05-23T22:34:36.733;599617018891404062;6868.3496;253
2024-05-23T22:34:36.741;599617018899095712;6876.041;278
2024-05-23T22:34:36.748;599617018906787362;6883.733;297
2024-05-23T22:34:36.756;599617018914479012;6891.4243;322
2024-05-23T22:34:36.764;599617018922170662;6899.116;322
2024-05-23T22:34:36.771;599617018929862312;6906.8076;306
2024-05-23T22:34:36.779;599617018937553962;6914.4995;318
2024-05-23T22:34:36.787;599617018945245612;6922.191;346
2024-05-23T22:34:36.794;599617018952937262;6929.883;336
2024-05-23T22:34:36.802;599617018960628912;6937.574;269
2024-05-23T22:34:36.810;599617018968320562;6945.266;202
2024-05-23T22:34:36.817;599617018976012212;6952.9575;188
2024-05-23T22:34:36.825;599617018983703862;6960.6494;188
2024-05-23T22:34:36.833;599617018991395512;6968.341;162
2024-05-23T22:34:36.841;599617018999087162;6976.0327;157
2024-05-23T22:34:36.848;599617019006778812;6983.724;162
2024-05-23T22:34:36.856;599617019014470462;6991.416;102
2024-05-23T22:34:36.864;599617019022162112;6999.1074;32
2024-05-23T22:34:36.871;599617019029853762;7006.7993;39
2024-05-23T22:34:36.879;599617019037545412;7014.4907;39
2024-05-23T22:34:36.887;599617019045237062;7022.1826;-13
2024-05-23T22:34:36.894;599617019052928712;7029.874;-67
2024-05-23T22:34:36.902;599617019060620362;7037.566;-102
2024-05-23T22:34:36.910;599617019068312012;7045.2573;-109
2024-05-23T22:34:36.917;599617019076003662;7052.949;-106
2024-05-23T22:34:36.925;599617019083695312;7060.6406;-113
2024-05-23T22:34:36.933;599617019091386962;7068.3325;-104
2024-05-23T22:34:36.941;599617019099078612;7076.024;-85
2024-05-23T22:34:36.948;599617019106770262;7083.716;-120
2024-05-23T22:34:36.956;599617019114461912;7091.407;-197
2024-05-23T22:34:36.964;599617019122153562;7099.099;-213
2024-05-23T22:34:36.971;599617019129845212;7106.7905;-169
2024-05-23T22:34:36.979;599617019137536862;7114.482;-155
2024-05-23T22:34:36.987;599617019145228512;7122.174;-162
2024-05-23T22:34:36.994;599617019152920162;7129.8657;-137
2024-05-23T22:34:37.002;599617019160611812;7137.557;-109
2024-05-23T22:34:37.010;599617019168303462;7145.2485;-106
2024-05-23T22:34:37.017;599617019175995112;7152.9404;-92
2024-05-23T22:34:37.025;599617019183686762;7160.6323;-53
2024-05-23T22:34:37.033;599617019191378412;7168.3237;-27
2024-05-23T22:34:37.041;599617019199070062;7176.015;-37
2024-05-23T22:34:37.048;599617019206761712;7183.707;-27
2024-05-23T22:34:37.056;599617019214453362;7191.399;11
2024-05-23T22:34:37.064;599617019222145012;7199.091;37
2024-05-23T22:34:37.071;599617019229836662;7206.7817;44
2024-05-23T22:34:37.079;599617019237528312;7214.4736;53
2024-05-23T22:34:37.087;599617019245219962;7222.1655;67
2024-05-23T22:34:37.094;599617019252911612;7229.8574;78
2024-05-23T22:34:37.102;599617019260603262;7237.5483;67
2024-05-23T22:34:37.110;599617019268294912;7245.24;53
2024-05-23T22:34:37.117;599617019275986562;7252.932;76
2024-05-23T22:34:37.125;599617019283678212;7260.624;97
2024-05-23T22:34:37.133;599617019291369862;7268.315;76
2024-05-23T22:34:37.141;599617019299061512;7276.007;78
2024-05-23T22:34:37.148;599617019306753162;7283.6987;127
2024-05-23T22:34:37.156;599617019314444812;7291.3906;153
2024-05-23T22:34:37.164;599617019322176624;7299.122;157
2024-05-23T22:34:37.171;599617019329867717;7306.813;192
2024-05-23T22:34:37.179;599617019337558810;7314.5044;216
2024-05-23T22:34:37.187;599617019345249903;7322.1953;195
2024-05-23T22:34:37.194;599617019352940996;7329.886;192
2024-05-23T22:34:37.202;599617019360632089;7337.5776;225
2024-05-23T22:34:37.210;599617019368323182;7345.2686;248
2024-05-23T22:34:37.217;599617019376014275;7352.9595;241
2024-05-23T22:34:37.225;599617019383705368;7360.651;216
2024-05-23T22:34:37.233;599617019391396461;7368.342;195
2024-05-23T22:34:37.241;599617019399087554;7376.0327;192
2024-05-23T22:34:37.248;599617019406778647;7383.724;248
2024-05-23T22:34:37.256;599617019414469740;7391.4155;508
2024-05-23T22:34:37.264;599617019422160833;7399.106;954
2024-05-23T22:34:37.271;599617019429851926;7406.7974;1124
2024-05-23T22:34:37.279;599617019437543019;7414.489;692
2024-05-23T22:34:37.287;599617019445234112;7422.179;146
2024-05-23T22:34:37.294;599617019452925205;7429.8706;65
2024-05-23T22:34:37.302;599617019460616298;7437.562;199
2024-05-23T22:34:37.310;599617019468307391;7445.2524;144
2024-05-23T22:34:37.317;599617019475998484;7452.944;69
2024-05-23T22:34:37.325;599617019483689577;7460.6353;130
2024-05-23T22:34:37.333;599617019491380670;7468.3257;174
2024-05-23T22:34:37.341;599617019499071763;7476.017;162
2024-05-23T22:34:37.348;599617019506762856;7483.7085;155
2024-05-23T22:34:37.356;599617019514453949;7491.399;141
2024-05-23T22:34:37.364;599617019522145042;7499.0903;127
2024-05-23T22:34:37.371;599617019529836135;7506.7817;132
2024-05-23T22:34:37.379;599617019537527228;7514.4727;151
2024-05-23T22:34:37.387;599617019545218321;7522.1636;181
2024-05-23T22:34:37.394;599617019552909414;7529.855;209
2024-05-23T22:34:37.402;599617019560600507;7537.546;209
2024-05-23T22:34:37.410;599617019568291600;7545.237;204
2024-05-23T22:34:37.417;599617019575982693;7552.928;232
2024-05-23T22:34:37.425;599617019583673786;7560.619;262
2024-05-23T22:34:37.433;599617019591364879;7568.31;274
2024-05-23T22:34:37.441;599617019599055972;7576.0015;290
2024-05-23T22:34:37.448;599617019606747065;7583.6924;322
2024-05-23T22:34:37.456;599617019614438158;7591.384;320
2024-05-23T22:34:37.464;599617019622129251;7599.0747;262
2024-05-23T22:34:37.471;599617019629820344;7606.7656;211
2024-05-23T22:34:37.479;599617019637511437;7614.457;236
2024-05-23T22:34:37.487;599617019645202530;7622.148;255
2024-05-23T22:34:37.494;599617019652893623;7629.839;197
2024-05-23T22:34:37.502;599617019660584716;7637.5303;144
2024-05-23T22:34:37.510;599617019668275809;7645.221;148
2024-05-23T22:34:37.517;599617019675966902;7652.912;153
2024-05-23T22:34:37.525;599617019683657995;7660.6035;127
2024-05-23T22:34:37.533;599617019691349088;7668.2944;125
2024-05-23T22:34:37.540;599617019699040181;7675.9854;123
2024-05-23T22:34:37.548;599617019706731274;7683.677;85
2024-05-23T22:34:37.556;599617019714422367;7691.368;58
2024-05-23T22:34:37.564;599617019722113460;7699.0586;55
2024-05-23T22:34:37.571;599617019729804553;7706.75;34
2024-05-23T22:34:37.579;599617019737495646;7714.4414;-4
2024-05-23T22:34:37.587;599617019745186739;7722.132;-53
2024-05-23T22:34:37.594;599617019752877832;7729.823;-137
2024-05-23T22:34:37.602;599617019760568925;7737.5146;-190
2024-05-23T22:34:37.610;599617019768260018;7745.205;-181
2024-05-23T22:34:37.617;599617019775951111;7752.8965;-164
2024-05-23T22:34:37.625;599617019783642204;7760.588;-153
2024-05-23T22:34:37.633;599617019791333297;7768.2783;-137
2024-05-23T22:34:37.640;599617019799024390;7775.9697;-153
2024-05-23T22:34:37.648;599617019806715483;7783.661;-164
2024-05-23T22:34:37.656;599617019814406576;7791.352;-134
2024-05-23T22:34:37.664;599617019822097669;7799.043;-106
2024-05-23T22:34:37.671;599617019829788762;7806.7344;-99
2024-05-23T22:34:37.679;599617019837479855;7814.4253;-90
2024-05-23T22:34:37.687;599617019845170948;7822.116;-76
2024-05-23T22:34:37.694;599617019852862041;7829.8076;-65
2024-05-23T22:34:37.702;599617019860553134;7837.4985;-55
2024-05-23T22:34:37.710;599617019868244227;7845.1895;-37
2024-05-23T22:34:37.717;599617019875935320;7852.881;-6
2024-05-23T22:34:37.725;599617019883636452;7860.582;9
2024-05-23T22:34:37.733;599617019891327406;7868.2725;-2
2024-05-23T22:34:37.740;599617019899018360;7875.964;2
2024-05-23T22:34:37.748;599617019906709314;7883.655;37
2024-05-23T22:34:37.756;599617019914400268;7891.3457;58
2024-05-23T22:34:37.764;599617019922091222;7899.0366;58
2024-05-23T22:34:37.771;599617019929782176;7906.7275;72
2024-05-23T22:34:37.779;599617019937473130;7914.4185;83
2024-05-23T22:34:37.787;599617019945164084;7922.1094;48
2024-05-23T22:34:37.794;599617019952855038;7929.801;-4
2024-05-23T22:34:37.802;599617019960545992;7937.4917;4
2024-05-23T22:34:37.810;599617019968236946;7945.182;53
2024-05-23T22:34:37.817;599617019975927900;7952.8735;51
2024-05-23T22:34:37.825;599617019983618854;7960.5645;27
2024-05-23T22:34:37.833;599617019991309808;7968.255;39
2024-05-23T22:34:37.840;599617019999000762;7975.9463;37
2024-05-23T22:34:37.848;599617020006691716;7983.637;2
2024-05-23T22:34:37.856;599617020014382670;7991.328;9
2024-05-23T22:34:37.864;599617020022073624;7999.019;46
2024-05-23T22:34:37.871;599617020029764578;8006.71;55
2024-05-23T22:34:37.879;599617020037455532;8014.401;48
2024-05-23T22:34:37.887;599617020045146486;8022.092;55
2024-05-23T22:34:37.894;599617020052837440;8029.783;88
2024-05-23T22:34:37.902;599617020060528394;8037.4736;116
2024-05-23T22:34:37.910;599617020068219348;8045.1646;109
2024-05-23T22:34:37.917;599617020075910302;8052.856;95
2024-05-23T22:34:37.925;599617020083601256;8060.5464;109
2024-05-23T22:34:37.933;599617020091292210;8068.238;139
2024-05-23T22:34:37.940;599617020098983164;8075.9287;155
2024-05-23T22:34:37.948;599617020106674118;8083.619;174
2024-05-23T22:34:37.956;599617020114365072;8091.3105;216
2024-05-23T22:34:37.964;599617020122056026;8099.0015;192
2024-05-23T22:34:37.971;599617020129746980;8106.6924;92
2024-05-23T22:34:37.979;599617020137437934;8114.3833;60
2024-05-23T22:34:37.987;599617020145128888;8122.074;116
2024-05-23T22:34:37.994;599617020152819842;8129.765;144
2024-05-23T22:34:38.002;599617020160510796;8137.456;125
2024-05-23T22:34:38.010;599617020168201750;8145.1475;116
2024-05-23T22:34:38.017;599617020175892704;8152.8384;111
2024-05-23T22:34:38.025;599617020183583658;8160.529;109
2024-05-23T22:34:38.033;599617020191274612;8168.22;204
2024-05-23T22:34:38.040;599617020198965566;8175.911;527
2024-05-23T22:34:38.048;599617020206656520;8183.602;971
2024-05-23T22:34:38.056;599617020214347474;8191.293;1089
2024-05-23T22:34:38.063;599617020222038428;8198.983;650
2024-05-23T22:34:38.071;599617020229729382;8206.675;155
2024-05-23T22:34:38.079;599617020237420336;8214.365;90
2024-05-23T22:34:38.087;599617020245111290;8222.057;176
2024-05-23T22:34:38.094;599617020252802244;8229.748;97
2024-05-23T22:34:38.102;599617020260493198;8237.438;46
2024-05-23T22:34:38.110;599617020268184152;8245.13;104
2024-05-23T22:34:38.117;599617020275875106;8252.82;118
2024-05-23T22:34:38.125;599617020283566060;8260.512;104
2024-05-23T22:34:38.133;599617020291257014;8268.202;141
2024-05-23T22:34:38.140;599617020298947968;8275.894;174
2024-05-23T22:34:38.148;599617020306638922;8283.585;160
2024-05-23T22:34:38.156;599617020314329876;8291.275;151
2024-05-23T22:34:38.163;599617020322020830;8298.966;178
2024-05-23T22:34:38.171;599617020329711784;8306.657;206
2024-05-23T22:34:38.179;599617020337402738;8314.348;213
2024-05-23T22:34:38.187;599617020345093692;8322.039;218
2024-05-23T22:34:38.194;599617020352784646;8329.73;230
2024-05-23T22:34:38.202;599617020360475600;8337.421;239
2024-05-23T22:34:38.210;599617020368166554;8345.112;230
2024-05-23T22:34:38.217;599617020375857508;8352.803;206
2024-05-23T22:34:38.225;599617020383548462;8360.494;204
2024-05-23T22:34:38.233;599617020391239416;8368.185;216
2024-05-23T22:34:38.240;599617020398930370;8375.876;202
2024-05-23T22:34:38.248;599617020406621324;8383.566;197
2024-05-23T22:34:38.256;599617020414312278;8391.258;227
2024-05-23T22:34:38.263;599617020422003232;8398.949;246
2024-05-23T22:34:38.271;599617020429694186;8406.64;236
2024-05-23T22:34:38.279;599617020437385140;8414.33;223
2024-05-23T22:34:38.286;599617020445046002;8421.991;197
2024-05-23T22:34:38.294;599617020452737374;8429.683;148
2024-05-23T22:34:38.302;599617020460428746;8437.374;97
2024-05-23T22:34:38.310;599617020468120118;8445.065;44
2024-05-23T22:34:38.317;599617020475811490;8452.757;-2
2024-05-23T22:34:38.325;599617020483502862;8460.448;-32
2024-05-23T22:34:38.333;599617020491194234;8468.14;-106
2024-05-23T22:34:38.340;599617020498885606;8475.831;-185
2024-05-23T22:34:38.348;599617020506576978;8483.522;-176
2024-05-23T22:34:38.356;599617020514268350;8491.214;-178
2024-05-23T22:34:38.363;599617020521959722;8498.905;-246
2024-05-23T22:34:38.371;599617020529651094;8506.597;-269
2024-05-23T22:34:38.379;599617020537342466;8514.288;-234
2024-05-23T22:34:38.386;599617020545033838;8521.9795;-227
2024-05-23T22:34:38.394;599617020552725210;8529.671;-230
2024-05-23T22:34:38.402;599617020560416582;8537.362;-202
2024-05-23T22:34:38.410;599617020568107954;8545.053;-164
2024-05-23T22:34:38.417;599617020575799326;8552.745;-157
2024-05-23T22:34:38.425;599617020583490698;8560.437;-164
2024-05-23T22:34:38.433;599617020591182070;8568.128;-146
2024-05-23T22:34:38.440;599617020598873442;8575.818;-104
2024-05-23T22:34:38.448;599617020606564814;8583.51;-88
2024-05-23T22:34:38.456;599617020614256186;8591.201;-88
2024-05-23T22:34:38.463;599617020621947558;8598.893;-88
2024-05-23T22:34:38.471;599617020629638930;8606.585;-151
2024-05-23T22:34:38.479;599617020637330302;8614.276;-227
2024-05-23T22:34:38.486;599617020645021674;8621.968;-209
2024-05-23T22:34:38.494;599617020652713046;8629.658;-148
2024-05-23T22:34:38.502;599617020660404418;8637.35;-125
2024-05-23T22:34:38.510;599617020668095790;8645.041;-123
2024-05-23T22:34:38.517;599617020675787162;8652.732;-120
2024-05-23T22:34:38.525;599617020683478534;8660.424;-95
2024-05-23T22:34:38.533;599617020691169906;8668.115;-53
2024-05-23T22:34:38.540;599617020698861278;8675.807;-34
2024-05-23T22:34:38.548;599617020706552650;8683.498;-25
2024-05-23T22:34:38.556;599617020714244022;8691.189;2
2024-05-23T22:34:38.563;599617020721935394;8698.881;13
2024-05-23T22:34:38.571;599617020729626766;8706.572;2
2024-05-23T22:34:38.579;599617020737318138;8714.264;-16
2024-05-23T22:34:38.586;599617020745009510;8721.955;-25
2024-05-23T22:34:38.594;599617020752700882;8729.646;-13
2024-05-23T22:34:38.602;599617020760392254;8737.337;-2
2024-05-23T22:34:38.610;599617020768083626;8745.028;2
2024-05-23T22:34:38.617;599617020775774998;8752.721;27
2024-05-23T22:34:38.625;599617020783466370;8760.412;60
2024-05-23T22:34:38.633;599617020791157742;8768.104;67
2024-05-23T22:34:38.640;599617020798849114;8775.795;81
2024-05-23T22:34:38.648;599617020806540486;8783.486;109
2024-05-23T22:34:38.656;599617020814231858;8791.177;109
2024-05-23T22:34:38.663;599617020821923230;8798.868;97
2024-05-23T22:34:38.671;599617020829614602;8806.56;123
2024-05-23T22:34:38.679;599617020837305974;8814.251;160
2024-05-23T22:34:38.686;599617020844997346;8821.942;164
2024-05-23T22:34:38.694;599617020852688718;8829.635;155
2024-05-23T22:34:38.702;599617020860380090;8837.326;167
2024-05-23T22:34:38.710;599617020868071462;8845.017;199
2024-05-23T22:34:38.717;599617020875762834;8852.708;230
2024-05-23T22:34:38.725;599617020883454206;8860.399;234
2024-05-23T22:34:38.733;599617020891145578;8868.091;234
2024-05-23T22:34:38.740;599617020898836950;8875.782;241
2024-05-23T22:34:38.748;599617020906528322;8883.474;230
2024-05-23T22:34:38.756;599617020914219694;8891.165;218
2024-05-23T22:34:38.763;599617020921911066;8898.857;241
2024-05-23T22:34:38.771;599617020929602438;8906.548;260
2024-05-23T22:34:38.779;599617020937293810;8914.239;232
2024-05-23T22:34:38.786;599617020944985182;8921.931;190
2024-05-23T22:34:38.794;599617020952676554;8929.622;243
2024-05-23T22:34:38.802;599617020960367926;8937.313;529
2024-05-23T22:34:38.810;599617020968059298;8945.005;982
2024-05-23T22:34:38.817;599617020975750670;8952.696;1182
2024-05-23T22:34:38.825;599617020983442042;8960.387;796
2024-05-23T22:34:38.833;599617020991133414;8968.078;190
2024-05-23T22:34:38.840;599617020998824786;8975.7705;-6
2024-05-23T22:34:38.848;599617021006516166;8983.462;127
2024-05-23T22:34:38.856;599617021014207538;8991.153;157
2024-05-23T22:34:38.863;599617021021898910;8998.845;99
2024-05-23T22:34:38.871;599617021029590282;9006.536;120
2024-05-23T22:34:38.879;599617021037281654;9014.227;139
2024-05-23T22:34:38.886;599617021044973026;9021.918;111
2024-05-23T22:34:38.894;599617021052664398;9029.609;78
2024-05-23T22:34:38.902;599617021060355770;9037.301;18
2024-05-23T22:34:38.909;599617021068047142;9044.993;-37
2024-05-23T22:34:38.917;599617021075738514;9052.685;-9
2024-05-23T22:34:38.925;599617021083429886;9060.376;13
2024-05-23T22:34:38.933;599617021091121258;9068.066;-23
2024-05-23T22:34:38.940;599617021098812630;9075.758;-16
2024-05-23T22:34:38.948;599617021106504002;9083.449;34
2024-05-23T22:34:38.956;599617021114195374;9091.141;53
2024-05-23T22:34:38.963;599617021121886746;9098.832;55
2024-05-23T22:34:38.971;599617021129578118;9106.523;53
2024-05-23T22:34:38.979;599617021137269490;9114.215;-23
2024-05-23T22:34:38.986;599617021144960862;9121.906;-116
2024-05-23T22:34:38.994;599617021152652234;9129.598;-125
2024-05-23T22:34:39.002;599617021160343606;9137.289;-111
2024-05-23T22:34:39.009;599617021168034978;9144.98;-109
2024-05-23T22:34:39.017;599617021175726350;9152.672;-99
2024-05-23T22:34:39.025;599617021183417722;9160.363;-99
2024-05-23T22:34:39.033;599617021191109094;9168.055;-90
2024-05-23T22:34:39.040;599617021198800466;9175.745;-62
2024-05-23T22:34:39.048;599617021206491838;9183.437;-48
2024-05-23T22:34:39.056;599617021214183210;9191.129;-51
2024-05-23T22:34:39.063;599617021221874582;9198.82;-55
2024-05-23T22:34:39.071;599617021229565954;9206.512;-104
2024-05-23T22:34:39.079;599617021237257326;9214.203;-174
2024-05-23T22:34:39.086;599617021244948698;9221.895;-183
2024-05-23T22:34:39.094;599617021252640070;9229.585;-148
2024-05-23T22:34:39.102;599617021260331442;9237.276;-144
2024-05-23T22:34:39.109;599617021268022814;9244.968;-157
2024-05-23T22:34:39.117;599617021275714186;9252.659;-157
2024-05-23T22:34:39.125;599617021283405558;9260.352;-132
2024-05-23T22:34:39.133;599617021291096930;9268.043;-99
2024-05-23T22:34:39.140;599617021298788302;9275.734;-78
2024-05-23T22:34:39.148;599617021306479674;9283.425;-53
2024-05-23T22:34:39.156;599617021314171046;9291.116;-23
2024-05-23T22:34:39.163;599617021321862418;9298.808;-13
2024-05-23T22:34:39.171;599617021329553790;9306.499;-13
2024-05-23T22:34:39.179;599617021337245162;9314.19;13
2024-05-23T22:34:39.186;599617021344936534;9321.882;53
2024-05-23T22:34:39.194;599617021352627906;9329.573;74
2024-05-23T22:34:39.202;599617021360319278;9337.266;72
2024-05-23T22:34:39.209;599617021368010650;9344.956;72
2024-05-23T22:34:39.217;599617021375702022;9352.647;95
2024-05-23T22:34:39.225;599617021383393394;9360.339;120
2024-05-23T22:34:39.233;599617021391084766;9368.03;125
2024-05-23T22:34:39.240;599617021398776138;9375.722;141
2024-05-23T22:34:39.248;599617021406467510;9383.413;169
2024-05-23T22:34:39.256;599617021414158882;9391.104;167
2024-05-23T22:34:39.263;599617021421850254;9398.795;155
2024-05-23T22:34:39.271;599617021429541626;9406.487;178
2024-05-23T22:34:39.279;599617021437232998;9414.179;216
2024-05-23T22:34:39.286;599617021444924370;9421.87;223
2024-05-23T22:34:39.294;599617021452615742;9429.562;209
2024-05-23T22:34:39.302;599617021460307114;9437.253;206
2024-05-23T22:34:39.309;599617021467998486;9444.944;220
2024-05-23T22:34:39.317;599617021475689858;9452.635;211
2024-05-23T22:34:39.325;599617021483381230;9460.326;183
2024-05-23T22:34:39.333;599617021491072602;9468.018;199
2024-05-23T22:34:39.340;599617021498763974;9475.709;227
2024-05-23T22:34:39.348;599617021506455346;9483.401;213
2024-05-23T22:34:39.356;599617021514146718;9491.093;202
2024-05-23T22:34:39.363;599617021521838090;9498.784;227
2024-05-23T22:34:39.371;599617021529529462;9506.475;257
2024-05-23T22:34:39.379;599617021537220834;9514.166;257
2024-05-23T22:34:39.386;599617021544912206;9521.857;250
2024-05-23T22:34:39.394;599617021552603578;9529.549;250
2024-05-23T22:34:39.402;599617021560294950;9537.24;253
2024-05-23T22:34:39.409;599617021567986330;9544.932;253
2024-05-23T22:34:39.417;599617021575677702;9552.624;267
2024-05-23T22:34:39.425;599617021583369074;9560.314;297
2024-05-23T22:34:39.433;599617021591060446;9568.006;302
2024-05-23T22:34:39.440;599617021598751818;9575.697;243
2024-05-23T22:34:39.448;599617021606443190;9583.389;190
2024-05-23T22:34:39.456;599617021614134562;9591.08;202
2024-05-23T22:34:39.463;599617021621825934;9598.771;227
2024-05-23T22:34:39.471;599617021629517306;9606.463;218
2024-05-23T22:34:39.479;599617021637208678;9614.153;190
2024-05-23T22:34:39.486;599617021644900050;9621.845;127
2024-05-23T22:34:39.494;599617021652591422;9629.537;58
2024-05-23T22:34:39.502;599617021660282794;9637.229;39
2024-05-23T22:34:39.509;599617021667974166;9644.92;41
2024-05-23T22:34:39.517;599617021675665538;9652.611;118
2024-05-23T22:34:39.525;599617021683356910;9660.303;422
2024-05-23T22:34:39.532;599617021691048282;9667.993;873
2024-05-23T22:34:39.540;599617021698739654;9675.685;1082
2024-05-23T22:34:39.548;599617021706431026;9683.376;738
2024-05-23T22:34:39.556;599617021714122398;9691.067;144
2024-05-23T22:34:39.563;599617021721813770;9698.76;-90
2024-05-23T22:34:39.571;599617021729505142;9706.451;-6
2024-05-23T22:34:39.579;599617021737196514;9714.143;-16
2024-05-23T22:34:39.586;599617021744887886;9721.833;-85
2024-05-23T22:34:39.594;599617021752579258;9729.524;-58
2024-05-23T22:34:39.602;599617021760270630;9737.216;-20
2024-05-23T22:34:39.609;599617021767962002;9744.907;-11
2024-05-23T22:34:39.617;599617021775653374;9752.599;-6
2024-05-23T22:34:39.625;599617021783344746;9760.29;-39
2024-05-23T22:34:39.632;599617021791036118;9767.981;-74
2024-05-23T22:34:39.640;599617021798727490;9775.674;-69
2024-05-23T22:34:39.648;599617021806418862;9783.364;-83
2024-05-23T22:34:39.656;599617021814110234;9791.056;-116
2024-05-23T22:34:39.663;599617021821801606;9798.747;-104
2024-05-23T22:34:39.671;599617021829492978;9806.438;-85
2024-05-23T22:34:39.679;599617021837184350;9814.13;-92
2024-05-23T22:34:39.686;599617021844875722;9821.821;-85
2024-05-23T22:34:39.694;599617021852567094;9829.512;-53
2024-05-23T22:34:39.702;599617021860258466;9837.203;-25
2024-05-23T22:34:39.709;599617021867949838;9844.8955;-20
2024-05-23T22:34:39.717;599617021875641210;9852.587;-18
2024-05-23T22:34:39.725;599617021883332582;9860.278;9
2024-05-23T22:34:39.732;599617021891023954;9867.97;51
2024-05-23T22:34:39.740;599617021898715326;9875.661;72
2024-05-23T22:34:39.748;599617021906406698;9883.353;78
2024-05-23T22:34:39.756;599617021914098070;9891.043;99
2024-05-23T22:34:39.763;599617021921789442;9898.734;109
2024-05-23T22:34:39.771;599617021929480814;9906.426;97
2024-05-23T22:34:39.779;599617021937172186;9914.117;97
2024-05-23T22:34:39.786;599617021944863558;9921.81;116
2024-05-23T22:34:39.794;599617021952554930;9929.501;120
2024-05-23T22:34:39.802;599617021960246302;9937.192;85
2024-05-23T22:34:39.809;599617021967937674;9944.883;11
2024-05-23T22:34:39.817;599617021975629046;9952.574;-37
2024-05-23T22:34:39.825;599617021983320418;9960.266;-27
2024-05-23T22:34:39.832;599617021991011790;9967.957;-11
2024-05-23T22:34:39.840;599617021998703162;9975.648;2
2024-05-23T22:34:39.848;599617022006394534;9983.34;34
2024-05-23T22:34:39.856;599617022014085906;9991.032;41
2024-05-23T22:34:39.863;599617022021777278;9998.723;34
2024-05-23T22:34:39.871;599617022029468650;10006.414;62
2024-05-23T22:34:39.879;599617022037160022;10014.105;97
2024-05-23T22:34:39.886;599617022044851394;10021.797;97
2024-05-23T22:34:39.894;599617022052542766;10029.488;92
2024-05-23T22:34:39.902;599617022060234138;10037.18;104
2024-05-23T22:34:39.909;599617022067925510;10044.871;123
2024-05-23T22:34:39.917;599617022075616882;10052.562;132
2024-05-23T22:34:39.925;599617022083308254;10060.253;134
2024-05-23T22:34:39.932;599617022090999626;10067.945;155
2024-05-23T22:34:39.940;599617022098690998;10075.637;181
2024-05-23T22:34:39.948;599617022106382370;10083.328;171
2024-05-23T22:34:39.956;599617022114073742;10091.02;162
2024-05-23T22:34:39.963;599617022121765114;10098.711;188
2024-05-23T22:34:39.971;599617022129456494;10106.401;218
2024-05-23T22:34:39.979;599617022137147866;10114.093;223
2024-05-23T22:34:39.986;599617022144839238;10121.784;167
2024-05-23T22:34:39.994;599617022152530610;10129.476;88
2024-05-23T22:34:40.002;599617022160221982;10137.168;74
2024-05-23T22:34:40.009;599617022167913354;10144.859;65
2024-05-23T22:34:40.017;599617022175604726;10152.551;23
2024-05-23T22:34:40.025;599617022183296098;10160.241;41
2024-05-23T22:34:40.032;599617022190987470;10167.933;81
2024-05-23T22:34:40.040;599617022198678842;10175.624;62
2024-05-23T22:34:40.048;599617022206370214;10183.315;46
2024-05-23T22:34:40.056;599617022214061586;10191.007;58
2024-05-23T22:34:40.063;599617022221752958;10198.698;37
2024-05-23T22:34:40.071;599617022229444330;10206.39;25
2024-05-23T22:34:40.079;599617022237135702;10214.081;48
2024-05-23T22:34:40.086;599617022244827074;10221.772;62
2024-05-23T22:34:40.094;599617022252518446;10229.464;74
2024-05-23T22:34:40.102;599617022260209818;10237.155;90
2024-05-23T22:34:40.109;599617022267901190;10244.847;113
2024-05-23T22:34:40.117;599617022275592562;10252.538;144
2024-05-23T22:34:40.125;599617022283283934;10260.2295;153
2024-05-23T22:34:40.132;599617022290975306;10267.92;141
2024-05-23T22:34:40.140;599617022298666678;10275.611;160
2024-05-23T22:34:40.148;599617022306358050;10283.304;211
2024-05-23T22:34:40.155;599617022314049422;10290.995;243
2024-05-23T22:34:40.163;599617022321740794;10298.687;250
2024-05-23T22:34:40.171;599617022329432166;10306.378;250
2024-05-23T22:34:40.179;599617022337123538;10314.069;246
2024-05-23T22:34:40.186;599617022344814910;10321.761;243
2024-05-23T22:34:40.194;599617022352506282;10329.451;250
2024-05-23T22:34:40.202;599617022360197654;10337.143;243
2024-05-23T22:34:40.209;599617022367889026;10344.834;218
2024-05-23T22:34:40.217;599617022375580398;10352.525;176
2024-05-23T22:34:40.225;599617022383271770;10360.218;118
2024-05-23T22:34:40.232;599617022390963142;10367.909;130
2024-05-23T22:34:40.240;599617022398654514;10375.601;360
2024-05-23T22:34:40.248;599617022406345886;10383.291;794
2024-05-23T22:34:40.255;599617022414037258;10390.982;1126
2024-05-23T22:34:40.263;599617022421728630;10398.674;961
2024-05-23T22:34:40.271;599617022429420002;10406.365;381
2024-05-23T22:34:40.279;599617022437111374;10414.057;-2
2024-05-23T22:34:40.286;599617022444802746;10421.748;32
2024-05-23T22:34:40.294;599617022452494118;10429.44;62
2024-05-23T22:34:40.302;599617022460185490;10437.131;-81
2024-05-23T22:34:40.309;599617022467876862;10444.822;-174
2024-05-23T22:34:40.317;599617022475568234;10452.514;-171
2024-05-23T22:34:40.325;599617022483259606;10460.205;-162
2024-05-23T22:34:40.332;599617022490950978;10467.896;-151
2024-05-23T22:34:40.340;599617022498642350;10475.588;-137
2024-05-23T22:34:40.348;599617022506333722;10483.279;-120
2024-05-23T22:34:40.355;599617022514025094;10490.97;-99
2024-05-23T22:34:40.363;599617022521716466;10498.662;-92
2024-05-23T22:34:40.371;599617022529407838;10506.354;-92
2024-05-23T22:34:40.379;599617022537099210;10514.045;-72
2024-05-23T22:34:40.386;599617022544790582;10521.736;-27
2024-05-23T22:34:40.394;599617022552481954;10529.428;2
2024-05-23T22:34:40.402;599617022560173326;10537.119;6
2024-05-23T22:34:40.409;599617022567864698;10544.81;9
2024-05-23T22:34:40.417;599617022575556070;10552.501;39
2024-05-23T22:34:40.425;599617022583247442;10560.192;78
2024-05-23T22:34:40.432;599617022590938814;10567.884;97
2024-05-23T22:34:40.440;599617022598630186;10575.576;118
2024-05-23T22:34:40.448;599617022606321558;10583.268;153
2024-05-23T22:34:40.455;599617022614012930;10590.959;162
2024-05-23T22:34:40.463;599617022621704302;10598.649;155
2024-05-23T22:34:40.471;599617022629395674;10606.341;181
2024-05-23T22:34:40.479;599617022637087046;10614.032;211
2024-05-23T22:34:40.486;599617022644778418;10621.724;178
2024-05-23T22:34:40.494;599617022652469790;10629.415;99
2024-05-23T22:34:40.502;599617022660161162;10637.106;65
2024-05-23T22:34:40.509;599617022667852534;10644.799;85
2024-05-23T22:34:40.517;599617022675543906;10652.489;90
2024-05-23T22:34:40.525;599617022683235278;10660.181;76
2024-05-23T22:34:40.532;599617022690926658;10667.872;90
2024-05-23T22:34:40.540;599617022698618030;10675.563;104
2024-05-23T22:34:40.548;599617022706309402;10683.255;55
2024-05-23T22:34:40.555;599617022714000774;10690.946;9
2024-05-23T22:34:40.563;599617022721692146;10698.638;41
2024-05-23T22:34:40.571;599617022729383518;10706.328;88
2024-05-23T22:34:40.579;599617022737074890;10714.02;95
2024-05-23T22:34:40.586;599617022744766262;10721.712;95
2024-05-23T22:34:40.594;599617022752457634;10729.403;106
2024-05-23T22:34:40.602;599617022760149006;10737.095;111
2024-05-23T22:34:40.609;599617022767840378;10744.786;81
2024-05-23T22:34:40.617;599617022775531750;10752.478;39
2024-05-23T22:34:40.625;599617022783223122;10760.168;60
2024-05-23T22:34:40.632;599617022790914494;10767.859;90
2024-05-23T22:34:40.640;599617022798605866;10775.551;72
2024-05-23T22:34:40.648;599617022806297238;10783.242;69
2024-05-23T22:34:40.655;599617022813988610;10790.935;113
2024-05-23T22:34:40.663;599617022821679982;10798.626;139
2024-05-23T22:34:40.671;599617022829371354;10806.317;141
2024-05-23T22:34:40.679;599617022837062726;10814.009;153
2024-05-23T22:34:40.686;599617022844754098;10821.699;167
2024-05-23T22:34:40.694;599617022852445470;10829.391;171
2024-05-23T22:34:40.702;599617022860136842;10837.082;178
2024-05-23T22:34:40.709;599617022867828214;10844.773;199
2024-05-23T22:34:40.717;599617022875519586;10852.465;227
2024-05-23T22:34:40.725;599617022883210958;10860.156;232
2024-05-23T22:34:40.732;599617022890902330;10867.849;213
2024-05-23T22:34:40.740;599617022898593702;10875.539;216
2024-05-23T22:34:40.748;599617022906285074;10883.23;248
2024-05-23T22:34:40.755;599617022913976446;10890.922;262
2024-05-23T22:34:40.763;599617022921667818;10898.613;260
2024-05-23T22:34:40.771;599617022929359190;10906.305;269
2024-05-23T22:34:40.778;599617022937050562;10913.996;278
2024-05-23T22:34:40.786;599617022944741934;10921.6875;278
2024-05-23T22:34:40.794;599617022952433306;10929.378;267
2024-05-23T22:34:40.802;599617022960124678;10937.07;241
2024-05-23T22:34:40.809;599617022967816050;10944.762;239
2024-05-23T22:34:40.817;599617022975507422;10952.453;250
2024-05-23T22:34:40.825;599617022983198794;10960.145;232
2024-05-23T22:34:40.832;599617022990890166;10967.836;232
2024-05-23T22:34:40.840;599617022998581538;10975.527;267
2024-05-23T22:34:40.848;599617023006272910;10983.218;269
2024-05-23T22:34:40.855;599617023013964282;10990.909;255
2024-05-23T22:34:40.863;599617023021655654;10998.601;260
2024-05-23T22:34:40.871;599617023029347026;11006.292;267
2024-05-23T22:34:40.878;599617023037038398;11013.984;260
2024-05-23T22:34:40.886;599617023044729770;11021.676;267
2024-05-23T22:34:40.894;599617023052421142;11029.367;302
2024-05-23T22:34:40.902;599617023060112514;11037.058;327
2024-05-23T22:34:40.909;599617023067803886;11044.749;302
2024-05-23T22:34:40.917;599617023075495258;11052.44;241
2024-05-23T22:34:40.925;599617023083186630;11060.132;204
2024-05-23T22:34:40.932;599617023090878002;11067.823;199
2024-05-23T22:34:40.940;599617023098569374;11075.515;190
2024-05-23T22:34:40.948;599617023106260746;11083.207;174
2024-05-23T22:34:40.955;599617023113952118;11090.897;162
2024-05-23T22:34:40.963;599617023121643490;11098.589;120
2024-05-23T22:34:40.971;599617023129334862;11106.28;116
2024-05-23T22:34:40.978;599617023137026234;11113.972;329
2024-05-23T22:34:40.986;599617023144717606;11121.663;778
2024-05-23T22:34:40.994;599617023152408978;11129.3545;1080
2024-05-23T22:34:41.002;599617023160100350;11137.046;776
2024-05-23T22:34:41.009;599617023167791722;11144.736;92
2024-05-23T22:34:41.017;599617023175483094;11152.428;-248
2024-05-23T22:34:41.025;599617023183174466;11160.12;-167
2024-05-23T22:34:41.032;599617023190865838;11167.812;-157
2024-05-23T22:34:41.040;599617023198557210;11175.503;-278
2024-05-23T22:34:41.048;599617023206248582;11183.194;-311
2024-05-23T22:34:41.055;599617023213939954;11190.886;-297
2024-05-23T22:34:41.063;599617023221631326;11198.576;-306
2024-05-23T22:34:41.071;599617023229322698;11206.268;-281
2024-05-23T22:34:41.078;599617023237014070;11213.959;-234
2024-05-23T22:34:41.086;599617023244705442;11221.65;-216
2024-05-23T22:34:41.094;599617023252396822;11229.343;-218
2024-05-23T22:34:41.102;599617023260088194;11237.034;-204
2024-05-23T22:34:41.109;599617023267779566;11244.726;-171
2024-05-23T22:34:41.117;599617023275470938;11252.417;-146
2024-05-23T22:34:41.125;599617023283162310;11260.107;-127
2024-05-23T22:34:41.132;599617023290853682;11267.799;-90
2024-05-23T22:34:41.140;599617023298545054;11275.49;-67
2024-05-23T22:34:41.148;599617023306236426;11283.182;-113
2024-05-23T22:34:41.155;599617023313927798;11290.873;-162
2024-05-23T22:34:41.163;599617023321619170;11298.564;-120
2024-05-23T22:34:41.171;599617023329310542;11306.257;-58
2024-05-23T22:34:41.178;599617023337001914;11313.947;-46
2024-05-23T22:34:41.186;599617023344693286;11321.639;-34
2024-05-23T22:34:41.194;599617023352384658;11329.33;2
2024-05-23T22:34:41.202;599617023360076030;11337.021;30
2024-05-23T22:34:41.209;599617023367767402;11344.713;44
2024-05-23T22:34:41.217;599617023375458774;11352.404;60
2024-05-23T22:34:41.225;599617023383150146;11360.096;92
2024-05-23T22:34:41.232;599617023390841518;11367.786;106
2024-05-23T22:34:41.240;599617023398532890;11375.479;85
2024-05-23T22:34:41.248;599617023406224262;11383.17;69
2024-05-23T22:34:41.255;599617023413915634;11390.861;90
2024-05-23T22:34:41.263;599617023421607006;11398.553;106
2024-05-23T22:34:41.271;599617023429298378;11406.244;92
2024-05-23T22:34:41.278;599617023436989750;11413.936;72
2024-05-23T22:34:41.286;599617023444681122;11421.626;39
2024-05-23T22:34:41.294;599617023452372494;11429.317;-6
2024-05-23T22:34:41.302;599617023460063866;11437.009;-13
2024-05-23T22:34:41.309;599617023467755238;11444.7;25
2024-05-23T22:34:41.317;599617023475446610;11452.393;55
2024-05-23T22:34:41.325;599617023483137982;11460.084;65
2024-05-23T22:34:41.332;599617023490829354;11467.775;65
2024-05-23T22:34:41.340;599617023498520726;11475.466;78
2024-05-23T22:34:41.348;599617023506212098;11483.157;118
2024-05-23T22:34:41.355;599617023513903470;11490.849;139
2024-05-23T22:34:41.363;599617023521594842;11498.54;137
2024-05-23T22:34:41.371;599617023529286214;11506.231;146
2024-05-23T22:34:41.378;599617023536977586;11513.923;160
2024-05-23T22:34:41.386;599617023544668958;11521.615;157
2024-05-23T22:34:41.394;599617023552360330;11529.306;155
2024-05-23T22:34:41.401;599617023560051702;11536.997;176
2024-05-23T22:34:41.409;599617023567743074;11544.688;206
2024-05-23T22:34:41.417;599617023575434446;11552.38;211
2024-05-23T22:34:41.425;599617023583125818;11560.071;188
2024-05-23T22:34:41.432;599617023590817190;11567.763;192
2024-05-23T22:34:41.440;599617023598508562;11575.454;223
2024-05-23T22:34:41.448;599617023606199934;11583.145;230
2024-05-23T22:34:41.455;599617023613891306;11590.836;225
2024-05-23T22:34:41.463;599617023621582678;11598.528;239
2024-05-23T22:34:41.471;599617023629274050;11606.22;241
2024-05-23T22:34:41.478;599617023636965422;11613.911;227
2024-05-23T22:34:41.486;599617023644656794;11621.603;230
2024-05-23T22:34:41.494;599617023652348166;11629.294;248
2024-05-23T22:34:41.501;599617023660039538;11636.984;223
2024-05-23T22:34:41.509;599617023667730910;11644.676;130
2024-05-23T22:34:41.517;599617023675422282;11652.367;69
2024-05-23T22:34:41.525;599617023683113654;11660.059;97
2024-05-23T22:34:41.532;599617023690805026;11667.751;97
2024-05-23T22:34:41.540;599617023698496398;11675.442;44
2024-05-23T22:34:41.548;599617023706187770;11683.134;41
2024-05-23T22:34:41.555;599617023713879142;11690.824;83
2024-05-23T22:34:41.563;599617023721570514;11698.516;83
2024-05-23T22:34:41.571;599617023729261886;11706.207;69
2024-05-23T22:34:41.578;599617023736953258;11713.898;95
2024-05-23T22:34:41.586;599617023744644630;11721.59;132
2024-05-23T22:34:41.594;599617023752336002;11729.281;151
2024-05-23T22:34:41.601;599617023760027374;11736.973;144
2024-05-23T22:34:41.609;599617023767718746;11744.665;132
2024-05-23T22:34:41.617;599617023775410118;11752.355;146
2024-05-23T22:34:41.625;599617023783101490;11760.047;167
2024-05-23T22:34:41.632;599617023790792862;11767.738;171
2024-05-23T22:34:41.640;599617023798484234;11775.43;192
2024-05-23T22:34:41.648;599617023806175606;11783.121;223
2024-05-23T22:34:41.655;599617023813866986;11790.8125;225
2024-05-23T22:34:41.663;599617023821558358;11798.504;223
2024-05-23T22:34:41.671;599617023829249730;11806.194;234
2024-05-23T22:34:41.678;599617023836941102;11813.887;250
2024-05-23T22:34:41.686;599617023844632474;11821.578;253
2024-05-23T22:34:41.694;599617023852323846;11829.27;239
2024-05-23T22:34:41.701;599617023860015218;11836.961;202
2024-05-23T22:34:41.709;599617023867706590;11844.652;164
2024-05-23T22:34:41.717;599617023875397962;11852.344;104
2024-05-23T22:34:41.725;599617023883089334;11860.034;2
2024-05-23T22:34:41.732;599617023890780706;11867.726;-16
2024-05-23T22:34:41.740;599617023898472078;11875.417;181
2024-05-23T22:34:41.748;599617023906163450;11883.109;571
2024-05-23T22:34:41.755;599617023913854822;11890.801;908
2024-05-23T22:34:41.763;599617023921546194;11898.492;810
2024-05-23T22:34:41.771;599617023929237566;11906.184;281
2024-05-23T22:34:41.778;599617023936928938;11913.874;-125
2024-05-23T22:34:41.786;599617023944620310;11921.565;-134
2024-05-23T22:34:41.794;599617023952311682;11929.257;-97
2024-05-23T22:34:41.801;599617023960003054;11936.948;-199
2024-05-23T22:34:41.809;599617023967694426;11944.64;-250
2024-05-23T22:34:41.817;599617023975385798;11952.331;-209
2024-05-23T22:34:41.825;599617023983077170;11960.023;-188
2024-05-23T22:34:41.832;599617023990768542;11967.714;-197
2024-05-23T22:34:41.840;599617023998459914;11975.405;-199
2024-05-23T22:34:41.848;599617024006151286;11983.097;-183
2024-05-23T22:34:41.855;599617024013842658;11990.788;-155
2024-05-23T22:34:41.863;599617024021534030;11998.4795;-134
2024-05-23T22:34:41.871;599617024029225402;12006.171;-123
2024-05-23T22:34:41.878;599617024036916774;12013.862;-113
2024-05-23T22:34:41.886;599617024044608146;12021.553;-109
2024-05-23T22:34:41.894;599617024052299518;12029.245;-97
2024-05-23T22:34:41.901;599617024059990890;12036.937;-81
2024-05-23T22:34:41.909;599617024067682262;12044.628;-53
2024-05-23T22:34:41.917;599617024075373634;12052.319;-9
2024-05-23T22:34:41.925;599617024083065006;12060.011;18
2024-05-23T22:34:41.932;599617024090756378;12067.702;9
2024-05-23T22:34:41.940;599617024098447750;12075.393;20
2024-05-23T22:34:41.948;599617024106139122;12083.084;78
2024-05-23T22:34:41.955;599617024113830494;12090.775;116
2024-05-23T22:34:41.963;599617024121521866;12098.467;120
2024-05-23T22:34:41.971;599617024129213238;12106.159;137
2024-05-23T22:34:41.978;599617024136904610;12113.851;153
2024-05-23T22:34:41.986;599617024144595982;12121.542;148
2024-05-23T22:34:41.994;599617024152287354;12129.232;148
2024-05-23T22:34:42.001;599617024159978726;12136.924;125
2024-05-23T22:34:42.009;599617024167670098;12144.615;51
2024-05-23T22:34:42.017;599617024175361470;12152.307;-13
2024-05-23T22:34:42.024;599617024183052842;12159.998;-41
2024-05-23T22:34:42.032;599617024190744214;12167.689;-85
2024-05-23T22:34:42.040;599617024198435586;12175.382;-106
2024-05-23T22:34:42.048;599617024206126958;12183.073;-88
2024-05-23T22:34:42.055;599617024213818330;12190.764;-78
2024-05-23T22:34:42.063;599617024221509702;12198.455;-60
2024-05-23T22:34:42.071;599617024229201074;12206.146;-37
2024-05-23T22:34:42.078;599617024236892446;12213.838;-25
2024-05-23T22:34:42.086;599617024244583818;12221.529;-11
2024-05-23T22:34:42.094;599617024252275190;12229.221;23
2024-05-23T22:34:42.101;599617024259966562;12236.911;60
2024-05-23T22:34:42.109;599617024267657934;12244.603;62
2024-05-23T22:34:42.117;599617024275349306;12252.295;51
2024-05-23T22:34:42.124;599617024283040678;12259.986;72
2024-05-23T22:34:42.132;599617024290732050;12267.678;106
2024-05-23T22:34:42.140;599617024298423422;12275.369;113
2024-05-23T22:34:42.148;599617024306114794;12283.061;118
2024-05-23T22:34:42.155;599617024313806166;12290.752;137
2024-05-23T22:34:42.163;599617024321497538;12298.442;141
2024-05-23T22:34:42.171;599617024329188910;12306.134;137
2024-05-23T22:34:42.178;599617024336880282;12313.825;146
2024-05-23T22:34:42.186;599617024344571654;12321.518;171
2024-05-23T22:34:42.194;599617024352263026;12329.209;195
2024-05-23T22:34:42.201;599617024359954398;12336.9;190
2024-05-23T22:34:42.209;599617024367645770;12344.592;178
2024-05-23T22:34:42.217;599617024375337150;12352.282;195
2024-05-23T22:34:42.224;599617024383028522;12359.974;216
2024-05-23T22:34:42.232;599617024390719894;12367.665;213
2024-05-23T22:34:42.240;599617024398411266;12375.356;223
2024-05-23T22:34:42.248;599617024406102638;12383.048;241
2024-05-23T22:34:42.255;599617024413794010;12390.739;204
2024-05-23T22:34:42.263;599617024421485382;12398.432;125
2024-05-23T22:34:42.271;599617024429176754;12406.122;78
2024-05-23T22:34:42.278;599617024436868126;12413.813;69
2024-05-23T22:34:42.286;599617024444559498;12421.505;62
2024-05-23T22:34:42.294;599617024452250870;12429.196;62
2024-05-23T22:34:42.301;599617024459942242;12436.888;74
2024-05-23T22:34:42.309;599617024467633614;12444.579;95
2024-05-23T22:34:42.317;599617024475324986;12452.2705;109
2024-05-23T22:34:42.324;599617024483016358;12459.961;113
2024-05-23T22:34:42.332;599617024490707730;12467.653;137
2024-05-23T22:34:42.340;599617024498399102;12475.345;167
2024-05-23T22:34:42.348;599617024506090474;12483.036;151
2024-05-23T22:34:42.355;599617024513781846;12490.728;123
2024-05-23T22:34:42.363;599617024521473218;12498.419;153
2024-05-23T22:34:42.371;599617024529164590;12506.11;204
2024-05-23T22:34:42.378;599617024536855962;12513.801;218
2024-05-23T22:34:42.386;599617024544547334;12521.492;220
2024-05-23T22:34:42.394;599617024552238706;12529.184;225
2024-05-23T22:34:42.401;599617024559930078;12536.875;220
2024-05-23T22:34:42.409;599617024567621450;12544.567;216
2024-05-23T22:34:42.417;599617024575312822;12552.259;225
2024-05-23T22:34:42.424;599617024583004194;12559.95;243
2024-05-23T22:34:42.432;599617024590695566;12567.641;255
2024-05-23T22:34:42.440;599617024598386938;12575.332;236
2024-05-23T22:34:42.448;599617024606078310;12583.023;202
2024-05-23T22:34:42.455;599617024613769682;12590.715;178
2024-05-23T22:34:42.463;599617024621461054;12598.406;223
2024-05-23T22:34:42.471;599617024629152426;12606.098;450
2024-05-23T22:34:42.478;599617024636843798;12613.79;880
2024-05-23T22:34:42.486;599617024644535170;12621.481;1147
2024-05-23T22:34:42.494;599617024652226542;12629.172;822
2024-05-23T22:34:42.501;599617024659917914;12636.863;181
2024-05-23T22:34:42.509;599617024667609286;12644.555;-116
2024-05-23T22:34:42.517;599617024675300658;12652.246;-81
2024-05-23T22:34:42.524;599617024682992030;12659.9375;-116
2024-05-23T22:34:42.532;599617024690683402;12667.629;-216
2024-05-23T22:34:42.540;599617024698374774;12675.319;-223
2024-05-23T22:34:42.548;599617024706066146;12683.011;-209
2024-05-23T22:34:42.555;599617024713757518;12690.703;-234
2024-05-23T22:34:42.563;599617024721448890;12698.395;-257
2024-05-23T22:34:42.571;599617024729140262;12706.086;-271
2024-05-23T22:34:42.578;599617024736831634;12713.777;-269
2024-05-23T22:34:42.586;599617024744523006;12721.469;-262
2024-05-23T22:34:42.594;599617024752214378;12729.16;-250
2024-05-23T22:34:42.601;599617024759905750;12736.851;-216
2024-05-23T22:34:42.609;599617024767597122;12744.542;-176
2024-05-23T22:34:42.617;599617024775288494;12752.233;-164
2024-05-23T22:34:42.624;599617024782979866;12759.926;-171
2024-05-23T22:34:42.632;599617024790671238;12767.617;-146
2024-05-23T22:34:42.640;599617024798362610;12775.309;-97
2024-05-23T22:34:42.647;599617024806053982;12783.0;-72
2024-05-23T22:34:42.655;599617024813745354;12790.69;-58
2024-05-23T22:34:42.663;599617024821436726;12798.382;-23
2024-05-23T22:34:42.671;599617024829128098;12806.073;6
2024-05-23T22:34:42.678;599617024836819470;12813.765;20
2024-05-23T22:34:42.686;599617024844510842;12821.456;41
2024-05-23T22:34:42.694;599617024852202214;12829.147;78
2024-05-23T22:34:42.701;599617024859893586;12836.84;104
2024-05-23T22:34:42.709;599617024867584958;12844.53;104
2024-05-23T22:34:42.717;599617024875276330;12852.222;97
2024-05-23T22:34:42.724;599617024882967702;12859.913;104
2024-05-23T22:34:42.732;599617024890659074;12867.6045;120
2024-05-23T22:34:42.740;599617024898350446;12875.296;113
2024-05-23T22:34:42.747;599617024906041818;12882.987;97
2024-05-23T22:34:42.755;599617024913733190;12890.679;95
2024-05-23T22:34:42.763;599617024921424562;12898.369;62
2024-05-23T22:34:42.771;599617024929115934;12906.062;6
2024-05-23T22:34:42.778;599617024936807314;12913.753;2
2024-05-23T22:34:42.786;599617024944498686;12921.444;48
2024-05-23T22:34:42.794;599617024952190058;12929.136;76
2024-05-23T22:34:42.801;599617024959881430;12936.827;67
2024-05-23T22:34:42.809;599617024967572802;12944.519;58
2024-05-23T22:34:42.817;599617024975264174;12952.209;85
2024-05-23T22:34:42.824;599617024982955546;12959.9;97
2024-05-23T22:34:42.832;599617024990646918;12967.592;48
2024-05-23T22:34:42.840;599617024998338290;12975.284;25
2024-05-23T22:34:42.847;599617025006029662;12982.976;62
2024-05-23T22:34:42.855;599617025013721034;12990.667;65
2024-05-23T22:34:42.863;599617025021412406;12998.358;41
2024-05-23T22:34:42.871;599617025029103778;13006.049;72
2024-05-23T22:34:42.878;599617025036795150;13013.74;116
2024-05-23T22:34:42.886;599617025044486522;13021.432;109
2024-05-23T22:34:42.894;599617025052177894;13029.123;92
2024-05-23T22:34:42.901;599617025059869266;13036.814;102
2024-05-23T22:34:42.909;599617025067560638;13044.506;123
2024-05-23T22:34:42.917;599617025075252010;13052.198;132
2024-05-23T22:34:42.924;599617025082943382;13059.889;130
2024-05-23T22:34:42.932;599617025090634754;13067.58;148
2024-05-23T22:34:42.940;599617025098326126;13075.271;178
2024-05-23T22:34:42.947;599617025106017498;13082.963;171
2024-05-23T22:34:42.955;599617025113708870;13090.654;155
2024-05-23T22:34:42.963;599617025121400242;13098.346;181
2024-05-23T22:34:42.971;599617025129091614;13106.037;213
2024-05-23T22:34:42.978;599617025136782986;13113.728;213
2024-05-23T22:34:42.986;599617025144474358;13121.42;204
2024-05-23T22:34:42.994;599617025152165730;13129.111;213
2024-05-23T22:34:43.001;599617025159857102;13136.803;227
2024-05-23T22:34:43.009;599617025167548474;13144.494;209
2024-05-23T22:34:43.017;599617025175239846;13152.186;148
2024-05-23T22:34:43.024;599617025182931218;13159.877;120
2024-05-23T22:34:43.032;599617025190622590;13167.568;146
2024-05-23T22:34:43.040;599617025198313962;13175.259;137
2024-05-23T22:34:43.047;599617025206005334;13182.95;118
2024-05-23T22:34:43.055;599617025213696706;13190.642;155
2024-05-23T22:34:43.063;599617025221388078;13198.334;188
2024-05-23T22:34:43.071;599617025229079450;13206.025;178
2024-05-23T22:34:43.078;599617025236770822;13213.717;176
2024-05-23T22:34:43.086;599617025244462194;13221.408;188
2024-05-23T22:34:43.094;599617025252153566;13229.099;188
2024-05-23T22:34:43.101;599617025259844938;13236.79;185
2024-05-23T22:34:43.109;599617025267536310;13244.481;204
2024-05-23T22:34:43.117;599617025275227682;13252.173;243
2024-05-23T22:34:43.124;599617025282919054;13259.864;271
2024-05-23T22:34:43.132;599617025290610426;13267.557;264
2024-05-23T22:34:43.140;599617025298301798;13275.248;239
2024-05-23T22:34:43.147;599617025305993170;13282.938;246
2024-05-23T22:34:43.155;599617025313684542;13290.63;267
2024-05-23T22:34:43.163;599617025321375914;13298.321;264
2024-05-23T22:34:43.171;599617025329067286;13306.013;260
2024-05-23T22:34:43.178;599617025336758658;13313.704;260
2024-05-23T22:34:43.186;599617025344450030;13321.3955;223
2024-05-23T22:34:43.194;599617025352141402;13329.087;148
2024-05-23T22:34:43.201;599617025359832774;13336.777;169
2024-05-23T22:34:43.209;599617025367524146;13344.47;446
2024-05-23T22:34:43.217;599617025375215518;13352.161;896
2024-05-23T22:34:43.224;599617025382906890;13359.853;1133
2024-05-23T22:34:43.232;599617025390598262;13367.544;829
2024-05-23T22:34:43.240;599617025398289634;13375.235;260
2024-05-23T22:34:43.247;599617025405981006;13382.927;37
2024-05-23T22:34:43.255;599617025413672378;13390.617;127
2024-05-23T22:34:43.263;599617025421363750;13398.309;60
2024-05-23T22:34:43.271;599617025429055122;13406.0;-92
2024-05-23T22:34:43.278;599617025436746494;13413.692;-99
2024-05-23T22:34:43.286;599617025444437866;13421.384;-104
2024-05-23T22:34:43.294;599617025452129238;13429.075;-157
2024-05-23T22:34:43.301;599617025459820610;13436.767;-148
2024-05-23T22:34:43.309;599617025467511982;13444.457;-134
2024-05-23T22:34:43.317;599617025475203354;13452.148;-167
2024-05-23T22:34:43.324;599617025482894726;13459.84;-162
2024-05-23T22:34:43.332;599617025490586098;13467.531;-125
2024-05-23T22:34:43.340;599617025498277478;13475.223;-120
2024-05-23T22:34:43.347;599617025505968850;13482.914;-116
2024-05-23T22:34:43.355;599617025513660222;13490.606;-88
2024-05-23T22:34:43.363;599617025521351594;13498.297;-97
2024-05-23T22:34:43.370;599617025529042966;13505.988;-153
2024-05-23T22:34:43.378;599617025536734338;13513.68;-174
2024-05-23T22:34:43.386;599617025544425710;13521.371;-125
2024-05-23T22:34:43.394;599617025552117082;13529.0625;-81
2024-05-23T22:34:43.401;599617025559808454;13536.754;-81
2024-05-23T22:34:43.409;599617025567499826;13544.445;-74
2024-05-23T22:34:43.417;599617025575191198;13552.136;-34
2024-05-23T22:34:43.424;599617025582882570;13559.828;4
2024-05-23T22:34:43.432;599617025590573942;13567.52;25
2024-05-23T22:34:43.440;599617025598265314;13575.211;46
2024-05-23T22:34:43.447;599617025605956686;13582.902;65
2024-05-23T22:34:43.455;599617025613648058;13590.594;62
2024-05-23T22:34:43.463;599617025621339430;13598.285;51
2024-05-23T22:34:43.470;599617025629030802;13605.976;62
2024-05-23T22:34:43.478;599617025636722174;13613.667;81
2024-05-23T22:34:43.486;599617025644413546;13621.358;81
2024-05-23T22:34:43.494;599617025652104918;13629.05;53
2024-05-23T22:34:43.501;599617025659796290;13636.742;6
2024-05-23T22:34:43.509;599617025667487662;13644.434;-62
2024-05-23T22:34:43.517;599617025675179034;13652.125;-151
2024-05-23T22:34:43.524;599617025682870406;13659.816;-199
2024-05-23T22:34:43.532;599617025690561778;13667.507;-162
2024-05-23T22:34:43.540;599617025698253150;13675.198;-116
2024-05-23T22:34:43.547;599617025705944522;13682.89;-125
2024-05-23T22:34:43.555;599617025713635894;13690.581;-120
2024-05-23T22:34:43.563;599617025721327266;13698.272;-69
2024-05-23T22:34:43.570;599617025729018638;13705.965;-27
2024-05-23T22:34:43.578;599617025736710010;13713.656;-13
2024-05-23T22:34:43.586;599617025744401382;13721.347;-9
2024-05-23T22:34:43.594;599617025752092754;13729.038;6
2024-05-23T22:34:43.601;599617025759784126;13736.7295;30
2024-05-23T22:34:43.609;599617025767475498;13744.421;44
2024-05-23T22:34:43.617;599617025775166870;13752.112;55
2024-05-23T22:34:43.624;599617025782858242;13759.804;85
2024-05-23T22:34:43.632;599617025790549614;13767.495;104
2024-05-23T22:34:43.640;599617025798240986;13775.186;90
2024-05-23T22:34:43.647;599617025805932358;13782.878;85
2024-05-23T22:34:43.655;599617025813623730;13790.569;125
2024-05-23T22:34:43.663;599617025821315102;13798.261;153
2024-05-23T22:34:43.670;599617025829006474;13805.952;151
2024-05-23T22:34:43.678;599617025836697846;13813.644;151
2024-05-23T22:34:43.686;599617025844389218;13821.335;160
2024-05-23T22:34:43.694;599617025852080590;13829.025;167
2024-05-23T22:34:43.701;599617025859771962;13836.717;171
2024-05-23T22:34:43.709;599617025867463334;13844.408;188
2024-05-23T22:34:43.717;599617025875154706;13852.101;213
2024-05-23T22:34:43.724;599617025882846078;13859.792;223
2024-05-23T22:34:43.732;599617025890537450;13867.483;206
2024-05-23T22:34:43.740;599617025898228822;13875.175;199
2024-05-23T22:34:43.747;599617025905920194;13882.865;199
2024-05-23T22:34:43.755;599617025913611566;13890.557;164
2024-05-23T22:34:43.763;599617025921302938;13898.248;137
2024-05-23T22:34:43.770;599617025928994310;13905.939;151
2024-05-23T22:34:43.778;599617025936685682;13913.631;162
2024-05-23T22:34:43.786;599617025944377054;13921.322;157
2024-05-23T22:34:43.794;599617025952068426;13929.015;160
2024-05-23T22:34:43.801;599617025959759798;13936.705;181
2024-05-23T22:34:43.809;599617025967451170;13944.396;209
2024-05-23T22:34:43.817;599617025975142542;13952.088;211
2024-05-23T22:34:43.824;599617025982833914;13959.779;190
2024-05-23T22:34:43.832;599617025990525286;13967.471;192
2024-05-23T22:34:43.840;599617025998216658;13975.162;218
2024-05-23T22:34:43.847;599617026005908030;13982.854;225
2024-05-23T22:34:43.855;599617026013599402;13990.544;218
2024-05-23T22:34:43.863;599617026021290774;13998.236;220
2024-05-23T22:34:43.870;599617026028982146;14005.928;223
2024-05-23T22:34:43.878;599617026036673518;14013.619;220
2024-05-23T22:34:43.886;599617026044364890;14021.311;227
2024-05-23T22:34:43.894;599617026052056262;14029.002;243
2024-05-23T22:34:43.901;599617026059747642;14036.693;267
2024-05-23T22:34:43.909;599617026067439014;14044.384;239
2024-05-23T22:34:43.917;599617026075130386;14052.075;164
2024-05-23T22:34:43.924;599617026082821758;14059.767;144
2024-05-23T22:34:43.932;599617026090513130;14067.458;169
2024-05-23T22:34:43.940;599617026098204502;14075.15;157
2024-05-23T22:34:43.947;599617026105895874;14082.842;141
2024-05-23T22:34:43.955;599617026113587246;14090.533;153
2024-05-23T22:34:43.963;599617026121278618;14098.225;104
2024-05-23T22:34:43.970;599617026128969990;14105.915;-20
2024-05-23T22:34:43.978;599617026136661362;14113.606;-30
2024-05-23T22:34:43.986;599617026144352734;14121.298;255
2024-05-23T22:34:43.993;599617026152044106;14128.989;683
2024-05-23T22:34:44.001;599617026159735478;14136.681;808
2024-05-23T22:34:44.009;599617026167426850;14144.373;367
2024-05-23T22:34:44.017;599617026175118222;14152.064;-230
2024-05-23T22:34:44.024;599617026182809594;14159.755;-453
2024-05-23T22:34:44.032;599617026190500966;14167.446;-408
2024-05-23T22:34:44.040;599617026198192338;14175.138;-413
2024-05-23T22:34:44.047;599617026205883710;14182.829;-441
2024-05-23T22:34:44.055;599617026213575082;14190.5205;-418
2024-05-23T22:34:44.063;599617026221266454;14198.212;-401
2024-05-23T22:34:44.070;599617026228957826;14205.903;-376
2024-05-23T22:34:44.078;599617026236649198;14213.594;-327
2024-05-23T22:34:44.086;599617026244340570;14221.286;-299
2024-05-23T22:34:44.093;599617026252031942;14228.978;-295
2024-05-23T22:34:44.101;599617026259723314;14236.669;-276
2024-05-23T22:34:44.109;599617026267414686;14244.36;-236
2024-05-23T22:34:44.117;599617026275106058;14252.052;-204
2024-05-23T22:34:44.124;599617026282797430;14259.743;-185
2024-05-23T22:34:44.132;599617026290488802;14267.434;-144
2024-05-23T22:34:44.140;599617026298180174;14275.125;-99
2024-05-23T22:34:44.147;599617026305871546;14282.816;-102
2024-05-23T22:34:44.155;599617026313562918;14290.509;-99
2024-05-23T22:34:44.163;599617026321254290;14298.2;-39
2024-05-23T22:34:44.170;599617026328945662;14305.892;18
2024-05-23T22:34:44.178;599617026336637034;14313.583;34
2024-05-23T22:34:44.186;599617026344328406;14321.273;48
2024-05-23T22:34:44.193;599617026352019778;14328.965;78
2024-05-23T22:34:44.201;599617026359711150;14336.656;109
2024-05-23T22:34:44.209;599617026367402522;14344.348;127
2024-05-23T22:34:44.217;599617026375093894;14352.039;139
2024-05-23T22:34:44.224;599617026382785266;14359.73;171
2024-05-23T22:34:44.232;599617026390476638;14367.423;197
2024-05-23T22:34:44.240;599617026398168010;14375.113;169
2024-05-23T22:34:44.247;599617026405859382;14382.805;116
2024-05-23T22:34:44.255;599617026413550754;14390.496;104
2024-05-23T22:34:44.263;599617026421242126;14398.1875;116
2024-05-23T22:34:44.270;599617026428933498;14405.879;106
2024-05-23T22:34:44.278;599617026436624870;14413.57;85
2024-05-23T22:34:44.286;599617026444316242;14421.262;78
2024-05-23T22:34:44.293;599617026452007614;14428.952;74
2024-05-23T22:34:44.301;599617026459698986;14436.645;76
2024-05-23T22:34:44.309;599617026467390358;14444.336;95
2024-05-23T22:34:44.317;599617026475081730;14452.027;130
2024-05-23T22:34:44.324;599617026482773102;14459.719;141
2024-05-23T22:34:44.332;599617026490464474;14467.41;130
2024-05-23T22:34:44.340;599617026498155846;14475.102;144
2024-05-23T22:34:44.347;599617026505847218;14482.792;176
2024-05-23T22:34:44.355;599617026513538590;14490.483;190
2024-05-23T22:34:44.363;599617026521229962;14498.175;192
2024-05-23T22:34:44.370;599617026528921334;14505.867;204
2024-05-23T22:34:44.378;599617026536612706;14513.559;211
2024-05-23T22:34:44.386;599617026544304078;14521.25;206
2024-05-23T22:34:44.393;599617026551995450;14528.941;206
2024-05-23T22:34:44.401;599617026559686822;14536.632;220
2024-05-23T22:34:44.409;599617026567378194;14544.323;239
2024-05-23T22:34:44.417;599617026575069566;14552.015;241
2024-05-23T22:34:44.424;599617026582760938;14559.706;220
2024-05-23T22:34:44.432;599617026590452310;14567.397;220
2024-05-23T22:34:44.440;599617026598143682;14575.089;246
2024-05-23T22:34:44.447;599617026605835054;14582.781;253
2024-05-23T22:34:44.455;599617026613526426;14590.473;248
2024-05-23T22:34:44.463;599617026621217806;14598.163;260
2024-05-23T22:34:44.470;599617026628909178;14605.8545;262
2024-05-23T22:34:44.478;599617026636600550;14613.546;243
2024-05-23T22:34:44.486;599617026644291922;14621.237;218
2024-05-23T22:34:44.493;599617026651983294;14628.929;190
2024-05-23T22:34:44.501;599617026659674666;14636.62;178
2024-05-23T22:34:44.509;599617026667366038;14644.312;183
2024-05-23T22:34:44.517;599617026675057410;14652.003;162
2024-05-23T22:34:44.524;599617026682748782;14659.694;113
2024-05-23T22:34:44.532;599617026690440154;14667.386;46
2024-05-23T22:34:44.540;599617026698131526;14675.077;-32
2024-05-23T22:34:44.547;599617026705822898;14682.769;-65
2024-05-23T22:34:44.555;599617026713514270;14690.46;-37
2024-05-23T22:34:44.563;599617026721205642;14698.151;-20
2024-05-23T22:34:44.570;599617026728897014;14705.842;-25
2024-05-23T22:34:44.578;599617026736588386;14713.533;-4
2024-05-23T22:34:44.586;599617026744279758;14721.225;34
2024-05-23T22:34:44.593;599617026751971130;14728.917;55
2024-05-23T22:34:44.601;599617026759662502;14736.608;53
2024-05-23T22:34:44.609;599617026767353874;14744.3;53
2024-05-23T22:34:44.616;599617026775045246;14751.991;78
2024-05-23T22:34:44.624;599617026782736618;14759.682;104
2024-05-23T22:34:44.632;599617026790427990;14767.373;102
2024-05-23T22:34:44.640;599617026798119362;14775.064;97
2024-05-23T22:34:44.647;599617026805810734;14782.756;92
2024-05-23T22:34:44.655;599617026813502106;14790.447;60
2024-05-23T22:34:44.663;599617026821193478;14798.14;53
2024-05-23T22:34:44.670;599617026828884850;14805.831;83
2024-05-23T22:34:44.678;599617026836576222;14813.521;97
2024-05-23T22:34:44.686;599617026844267594;14821.213;85
2024-05-23T22:34:44.693;599617026851958966;14828.904;78
2024-05-23T22:34:44.701;599617026859650338;14836.596;76
2024-05-23T22:34:44.709;599617026867341710;14844.287;85
2024-05-23T22:34:44.716;599617026875033082;14851.979;83
2024-05-23T22:34:44.724;599617026882724454;14859.67;25
2024-05-23T22:34:44.732;599617026890415826;14867.36;-67
2024-05-23T22:34:44.740;599617026898107198;14875.053;-141
2024-05-23T22:34:44.747;599617026905798570;14882.744;-58
2024-05-23T22:34:44.755;599617026913489942;14890.436;320
2024-05-23T22:34:44.763;599617026921181314;14898.127;745
2024-05-23T22:34:44.770;599617026928872686;14905.818;680
2024-05-23T22:34:44.778;599617026936564058;14913.51;120
2024-05-23T22:34:44.786;599617026944255430;14921.2;-299
2024-05-23T22:34:44.793;599617026951946802;14928.892;-260
2024-05-23T22:34:44.801;599617026959638174;14936.583;-151
2024-05-23T22:34:44.809;599617026967329546;14944.275;-209
2024-05-23T22:34:44.816;599617026975020918;14951.967;-220
2024-05-23T22:34:44.824;599617026982712290;14959.658;-153
2024-05-23T22:34:44.832;599617026990403662;14967.35;-144
2024-05-23T22:34:44.840;599617026998095034;14975.04;-171
2024-05-23T22:34:44.847;599617027005786406;14982.731;-151
2024-05-23T22:34:44.855;599617027013477778;14990.423;-102
2024-05-23T22:34:44.863;599617027021169150;14998.114;-74
2024-05-23T22:34:44.870;599617027028860522;15005.806;-65
2024-05-23T22:34:44.878;599617027036551894;15013.497;-55
2024-05-23T22:34:44.886;599617027044243266;15021.189;-44
2024-05-23T22:34:44.893;599617027051934638;15028.881;-25
2024-05-23T22:34:44.901;599617027059626010;15036.571;-4
2024-05-23T22:34:44.909;599617027067317382;15044.263;18
2024-05-23T22:34:44.916;599617027075008754;15051.954;58
2024-05-23T22:34:44.924;599617027082700126;15059.6455;78
2024-05-23T22:34:44.932;599617027090391498;15067.337;72
2024-05-23T22:34:44.940;599617027098082870;15075.028;88
2024-05-23T22:34:44.947;599617027105774242;15082.719;141
2024-05-23T22:34:44.955;599617027113465614;15090.411;178
2024-05-23T22:34:44.963;599617027121156986;15098.103;188
2024-05-23T22:34:44.970;599617027128848358;15105.794;204
2024-05-23T22:34:44.978;599617027136539730;15113.485;202
2024-05-23T22:34:44.986;599617027144231102;15121.177;155
2024-05-23T22:34:44.993;599617027151922474;15128.868;125
2024-05-23T22:34:45.001;599617027159613846;15136.56;153
2024-05-23T22:34:45.009;599617027167305218;15144.25;176
2024-05-23T22:34:45.016;599617027174996590;15151.941;160
2024-05-23T22:34:45.024;599617027182718066;15159.664;120
2024-05-23T22:34:45.032;599617027190409020;15167.3545;76
2024-05-23T22:34:45.040;599617027198099974;15175.045;0
2024-05-23T22:34:45.047;599617027205790928;15182.736;-58
2024-05-23T22:34:45.055;599617027213481882;15190.428;-51
2024-05-23T22:34:45.063;599617027221172836;15198.118;-30
2024-05-23T22:34:45.070;599617027228863790;15205.81;-39
2024-05-23T22:34:45.078;599617027236554744;15213.5;-76
2024-05-23T22:34:45.086;599617027244245698;15221.19;-109
2024-05-23T22:34:45.093;599617027251936652;15228.882;-83
2024-05-23T22:34:45.101;599617027259627606;15236.573;-30
2024-05-23T22:34:45.109;599617027267318560;15244.265;-20
2024-05-23T22:34:45.116;599617027275009514;15251.955;-27
2024-05-23T22:34:45.124;599617027282700468;15259.6455;2
2024-05-23T22:34:45.132;599617027290391422;15267.337;44
2024-05-23T22:34:45.140;599617027298082376;15275.027;55
2024-05-23T22:34:45.147;599617027305773330;15282.719;62
2024-05-23T22:34:45.155;599617027313464284;15290.41;85
2024-05-23T22:34:45.163;599617027321155238;15298.101;97
2024-05-23T22:34:45.170;599617027328846192;15305.791;92
2024-05-23T22:34:45.178;599617027336537146;15313.482;109
2024-05-23T22:34:45.186;599617027344228100;15321.174;141
2024-05-23T22:34:45.193;599617027351919054;15328.864;160
2024-05-23T22:34:45.201;599617027359610008;15336.556;155
2024-05-23T22:34:45.209;599617027367300962;15344.247;148
2024-05-23T22:34:45.216;599617027374991916;15351.9375;164
2024-05-23T22:34:45.224;599617027382682870;15359.628;174
2024-05-23T22:34:45.232;599617027390373824;15367.319;153
2024-05-23T22:34:45.240;599617027398064778;15375.01;146
2024-05-23T22:34:45.247;599617027405755732;15382.701;176
2024-05-23T22:34:45.255;599617027413446686;15390.393;178
2024-05-23T22:34:45.263;599617027421137640;15398.083;160
2024-05-23T22:34:45.270;599617027428828594;15405.773;181
2024-05-23T22:34:45.278;599617027436519548;15413.465;218
2024-05-23T22:34:45.286;599617027444210502;15421.156;227
2024-05-23T22:34:45.293;599617027451901456;15428.847;216
2024-05-23T22:34:45.301;599617027459592410;15436.538;218
2024-05-23T22:34:45.309;599617027467283364;15444.2295;234
2024-05-23T22:34:45.316;599617027474974318;15451.919;246
2024-05-23T22:34:45.324;599617027482665272;15459.61;246
2024-05-23T22:34:45.332;599617027490356226;15467.302;257
2024-05-23T22:34:45.339;599617027498047180;15474.992;274
2024-05-23T22:34:45.347;599617027505738134;15482.684;262
2024-05-23T22:34:45.355;599617027513429088;15490.375;246
2024-05-23T22:34:45.363;599617027521120042;15498.066;262
2024-05-23T22:34:45.370;599617027528810996;15505.756;290
2024-05-23T22:34:45.378;599617027536501950;15513.447;292
2024-05-23T22:34:45.386;599617027544192904;15521.139;276
2024-05-23T22:34:45.393;599617027551883858;15528.829;269
2024-05-23T22:34:45.401;599617027559574812;15536.5205;264
2024-05-23T22:34:45.409;599617027567265766;15544.212;241
2024-05-23T22:34:45.416;599617027574956720;15551.901;213
2024-05-23T22:34:45.424;599617027582647674;15559.593;223
2024-05-23T22:34:45.432;599617027590338628;15567.284;250
2024-05-23T22:34:45.439;599617027598029582;15574.976;230
2024-05-23T22:34:45.447;599617027605720536;15582.666;192
2024-05-23T22:34:45.455;599617027613411490;15590.357;206
2024-05-23T22:34:45.463;599617027621102444;15598.048;234
2024-05-23T22:34:45.470;599617027628793398;15605.738;220
2024-05-23T22:34:45.478;599617027636484352;15613.43;164
2024-05-23T22:34:45.486;599617027644175306;15621.121;95
2024-05-23T22:34:45.493;599617027651866260;15628.812;39
2024-05-23T22:34:45.501;599617027659557214;15636.503;-27
2024-05-23T22:34:45.509;599617027667248168;15644.193;-46
2024-05-23T22:34:45.516;599617027674939122;15651.885;188
2024-05-23T22:34:45.524;599617027682630076;15659.575;659
2024-05-23T22:34:45.532;599617027690321030;15667.267;943
2024-05-23T22:34:45.539;599617027698011984;15674.958;627
2024-05-23T22:34:45.547;599617027705702938;15682.648;-30
2024-05-23T22:34:45.555;599617027713393892;15690.339;-325
2024-05-23T22:34:45.563;599617027721084846;15698.03;-211
2024-05-23T22:34:45.570;599617027728775800;15705.721;-176
2024-05-23T22:34:45.578;599617027736466754;15713.412;-257
2024-05-23T22:34:45.586;599617027744127616;15721.072;-239
2024-05-23T22:34:45.593;599617027751818988;15728.764;-195
2024-05-23T22:34:45.601;599617027759510360;15736.456;-188
2024-05-23T22:34:45.609;599617027767201732;15744.147;-157
2024-05-23T22:34:45.616;599617027774893104;15751.839;-132
2024-05-23T22:34:45.624;599617027782584476;15759.53;-146
2024-05-23T22:34:45.632;599617027790275848;15767.222;-132
2024-05-23T22:34:45.639;599617027797967220;15774.912;-83
2024-05-23T22:34:45.647;599617027805658592;15782.604;-92
2024-05-23T22:34:45.655;599617027813349964;15790.295;-144
2024-05-23T22:34:45.662;599617027821041336;15797.986;-130
2024-05-23T22:34:45.670;599617027828732708;15805.679;-88
2024-05-23T22:34:45.678;599617027836424080;15813.37;-81
2024-05-23T22:34:45.686;599617027844115452;15821.062;-65
2024-05-23T22:34:45.693;599617027851806824;15828.752;-11
2024-05-23T22:34:45.701;599617027859498196;15836.443;34
2024-05-23T22:34:45.709;599617027867189568;15844.135;46
2024-05-23T22:34:45.716;599617027874880940;15851.826;30
2024-05-23T22:34:45.724;599617027882572312;15859.518;13
2024-05-23T22:34:45.732;599617027890263684;15867.209;32
2024-05-23T22:34:45.739;599617027897955056;15874.9;62
2024-05-23T22:34:45.747;599617027905646428;15882.592;78
2024-05-23T22:34:45.755;599617027913337800;15890.283;97
2024-05-23T22:34:45.762;599617027921029172;15897.975;109
2024-05-23T22:34:45.770;599617027928720544;15905.666;102
2024-05-23T22:34:45.778;599617027936411916;15913.357;106
2024-05-23T22:34:45.786;599617027944103288;15921.049;127
2024-05-23T22:34:45.793;599617027951794660;15928.74;132
2024-05-23T22:34:45.801;599617027959486032;15936.431;113
2024-05-23T22:34:45.809;599617027967177404;15944.122;92
2024-05-23T22:34:45.816;599617027974868776;15951.814;95
2024-05-23T22:34:45.824;599617027982560148;15959.506;106
2024-05-23T22:34:45.832;599617027990251520;15967.197;111
2024-05-23T22:34:45.839;599617027997942892;15974.889;127
