Phone timestamp;sensor timestamp [ns];timestamp [ms];ecg [uV]
2024-05-23T22:32:44.149;599616906250932004;0.0;3104
2024-05-23T22:32:44.156;599616906258623376;7.691372;4335
2024-05-23T22:32:44.164;599616906266314748;15.382744;4937
2024-05-23T22:32:44.172;599616906274006120;23.074116;5785
2024-05-23T22:32:44.179;599616906281697492;30.765488;6582
2024-05-23T22:32:44.187;599616906289388864;38.45686;7121
2024-05-23T22:32:44.195;599616906297080236;46.14823;7732
2024-05-23T22:32:44.202;599616906304771608;53.839603;8466
2024-05-23T22:32:44.210;599616906312462980;61.530975;9072
2024-05-23T22:32:44.218;599616906320154352;69.22235;9391
2024-05-23T22:32:44.225;599616906327845724;76.91372;9714
2024-05-23T22:32:44.233;599616906335537096;84.60509;10199
2024-05-23T22:32:44.241;599616906343228468;92.29646;10576
2024-05-23T22:32:44.248;599616906350919840;99.98784;10882
2024-05-23T22:32:44.256;599616906358611212;107.67921;11321
2024-05-23T22:32:44.264;599616906366302584;115.370575;11723
2024-05-23T22:32:44.272;599616906373993956;123.06195;11974
2024-05-23T22:32:44.279;599616906381685328;130.75333;12321
2024-05-23T22:32:44.287;599616906389376700;138.4447;12722
2024-05-23T22:32:44.295;599616906397068072;146.13606;12987
2024-05-23T22:32:44.302;599616906404759444;153.82744;13241
2024-05-23T22:32:44.310;599616906412450816;161.51881;13459
2024-05-23T22:32:44.318;599616906420142188;169.21017;13603
2024-05-23T22:32:44.325;599616906427833560;176.90155;13780
2024-05-23T22:32:44.333;599616906435524932;184.59293;13947
2024-05-23T22:32:44.341;599616906443216304;192.2843;14110
2024-05-23T22:32:44.348;599616906450907676;199.97568;14344
2024-05-23T22:32:44.356;599616906458599048;207.66704;14607
2024-05-23T22:32:44.364;599616906466290420;215.35841;14721
2024-05-23T22:32:44.372;599616906473981792;223.04979;14690
2024-05-23T22:32:44.379;599616906481673164;230.74115;14781
2024-05-23T22:32:44.387;599616906489364536;238.43253;14948
2024-05-23T22:32:44.395;599616906497055908;246.1239;15041
2024-05-23T22:32:44.402;599616906504747280;253.81528;15153
2024-05-23T22:32:44.410;599616906512438652;261.50665;15243
2024-05-23T22:32:44.418;599616906520130024;269.19803;15255
2024-05-23T22:32:44.425;599616906527821396;276.8894;15304
2024-05-23T22:32:44.433;599616906535512768;284.58078;15445
2024-05-23T22:32:44.441;599616906543204140;292.27213;15576
2024-05-23T22:32:44.448;599616906550895512;299.96353;15569
2024-05-23T22:32:44.456;599616906558586884;307.65488;15499
2024-05-23T22:32:44.464;599616906566278256;315.34625;15555
2024-05-23T22:32:44.472;599616906573969628;323.03763;15638
2024-05-23T22:32:44.479;599616906581661000;330.729;15576
2024-05-23T22:32:44.487;599616906589352372;338.42035;15518
2024-05-23T22:32:44.495;599616906597043744;346.11176;15648
2024-05-23T22:32:44.502;599616906604735116;353.8031;15922
2024-05-23T22:32:44.510;599616906612426488;361.4945;16273
2024-05-23T22:32:44.518;599616906620117860;369.18585;16435
2024-05-23T22:32:44.525;599616906627809232;376.87723;16131
2024-05-23T22:32:44.533;599616906635500604;384.5686;15659
2024-05-23T22:32:44.541;599616906643191976;392.25998;15457
2024-05-23T22:32:44.548;599616906650883348;399.95135;15418
2024-05-23T22:32:44.556;599616906658574720;407.64273;15392
2024-05-23T22:32:44.564;599616906666266092;415.33408;15367
2024-05-23T22:32:44.572;599616906673957464;423.02548;15281
2024-05-23T22:32:44.579;599616906681648836;430.71683;15236
2024-05-23T22:32:44.587;599616906689340208;438.4082;15271
2024-05-23T22:32:44.595;599616906697031580;446.09958;15204
2024-05-23T22:32:44.602;599616906704722952;453.79095;15116
2024-05-23T22:32:44.610;599616906712414324;461.4823;15085
2024-05-23T22:32:44.618;599616906720105696;469.1737;14969
2024-05-23T22:32:44.625;599616906727797068;476.86505;14860
2024-05-23T22:32:44.633;599616906735488440;484.55646;14779
2024-05-23T22:32:44.641;599616906743179812;492.2478;14667
2024-05-23T22:32:44.648;599616906750871184;499.93918;14688
2024-05-23T22:32:44.656;599616906758562556;507.63055;14676
2024-05-23T22:32:44.664;599616906766253928;515.3219;14421
2024-05-23T22:32:44.672;599616906773945300;523.0133;14277
2024-05-23T22:32:44.679;599616906781636672;530.70465;14295
2024-05-23T22:32:44.687;599616906789328044;538.39606;14114
2024-05-23T22:32:44.695;599616906797019416;546.0874;13889
2024-05-23T22:32:44.702;599616906804710788;553.7788;13868
2024-05-23T22:32:44.710;599616906812402168;561.47015;13979
2024-05-23T22:32:44.718;599616906820093540;569.16156;14028
2024-05-23T22:32:44.725;599616906827784912;576.8529;13789
2024-05-23T22:32:44.733;599616906835476284;584.54425;13489
2024-05-23T22:32:44.741;599616906843167656;592.23566;13424
2024-05-23T22:32:44.748;599616906850859028;599.92706;13373
2024-05-23T22:32:44.756;599616906858550400;607.61835;13138
2024-05-23T22:32:44.764;599616906866241772;615.30975;13029
2024-05-23T22:32:44.772;599616906873933144;623.00116;13059
2024-05-23T22:32:44.779;599616906881624516;630.6925;12781
2024-05-23T22:32:44.787;599616906889315888;638.38385;12432
2024-05-23T22:32:44.795;599616906897007260;646.07526;12427
2024-05-23T22:32:44.802;599616906904698632;653.76666;12427
2024-05-23T22:32:44.810;599616906912390004;661.458;12244
2024-05-23T22:32:44.818;599616906920081376;669.14935;12100
2024-05-23T22:32:44.825;599616906927772748;676.84076;12016
2024-05-23T22:32:44.833;599616906935464120;684.5321;11919
2024-05-23T22:32:44.841;599616906943155492;692.2235;11802
2024-05-23T22:32:44.848;599616906950846864;699.91486;11763
2024-05-23T22:32:44.856;599616906958538236;707.6062;11770
2024-05-23T22:32:44.864;599616906966229608;715.2976;11579
2024-05-23T22:32:44.871;599616906973920980;722.989;11301
2024-05-23T22:32:44.879;599616906981612352;730.6803;11215
2024-05-23T22:32:44.887;599616906989303724;738.3717;11196
2024-05-23T22:32:44.895;599616906996995096;746.0631;11084
2024-05-23T22:32:44.902;599616907004686468;753.7545;10971
2024-05-23T22:32:44.910;599616907012377840;761.4458;10875
2024-05-23T22:32:44.918;599616907020069212;769.1372;10708
2024-05-23T22:32:44.925;599616907027760584;776.8286;10594
2024-05-23T22:32:44.933;599616907035451956;784.51996;10738
2024-05-23T22:32:44.941;599616907043143328;792.2113;11098
2024-05-23T22:32:44.948;599616907050834700;799.9027;11294
2024-05-23T22:32:44.956;599616907058526072;807.59406;10894
2024-05-23T22:32:44.964;599616907066217444;815.28546;10192
2024-05-23T22:32:44.971;599616907073908816;822.9768;9948
2024-05-23T22:32:44.979;599616907081600188;830.66815;10039
2024-05-23T22:32:44.987;599616907089291560;838.35956;9906
2024-05-23T22:32:44.995;599616907096982932;846.05096;9716
2024-05-23T22:32:45.002;599616907104674304;853.74225;9693
2024-05-23T22:32:45.010;599616907112365676;861.43365;9616
2024-05-23T22:32:45.018;599616907120057048;869.12506;9442
2024-05-23T22:32:45.025;599616907127748420;876.8164;9342
2024-05-23T22:32:45.033;599616907135439792;884.50775;9316
2024-05-23T22:32:45.041;599616907143131164;892.19916;9277
2024-05-23T22:32:45.048;599616907150822536;899.89056;9156
2024-05-23T22:32:45.056;599616907158513908;907.5819;8991
2024-05-23T22:32:45.064;599616907166205280;915.27325;8933
2024-05-23T22:32:45.071;599616907173896652;922.96466;8919
2024-05-23T22:32:45.079;599616907181588024;930.656;8808
2024-05-23T22:32:45.087;599616907189279396;938.3474;8710
2024-05-23T22:32:45.095;599616907196970768;946.03876;8703
2024-05-23T22:32:45.102;599616907204662140;953.7301;8559
2024-05-23T22:32:45.110;599616907212353512;961.4215;8271
2024-05-23T22:32:45.118;599616907220044884;969.1129;8148
2024-05-23T22:32:45.125;599616907227736256;976.8042;8155
2024-05-23T22:32:45.133;599616907235427628;984.4956;8073
2024-05-23T22:32:45.141;599616907243119000;992.187;7946
2024-05-23T22:32:45.148;599616907250810372;999.8784;7855
2024-05-23T22:32:45.156;599616907258501744;1007.5697;7804
2024-05-23T22:32:45.164;599616907266193116;1015.2611;7760
2024-05-23T22:32:45.171;599616907273884488;1022.9525;7674
2024-05-23T22:32:45.179;599616907281575860;1030.6438;7544
2024-05-23T22:32:45.187;599616907289267232;1038.3352;7430
2024-05-23T22:32:45.195;599616907296958604;1046.0266;7309
2024-05-23T22:32:45.202;599616907304649976;1053.7179;7125
2024-05-23T22:32:45.210;599616907312341348;1061.4093;7000
2024-05-23T22:32:45.218;599616907320032720;1069.1007;7007
2024-05-23T22:32:45.225;599616907327724092;1076.7921;6965
2024-05-23T22:32:45.233;599616907335415464;1084.4834;6719
2024-05-23T22:32:45.241;599616907343106836;1092.1748;6500
2024-05-23T22:32:45.248;599616907350798208;1099.8662;6489
2024-05-23T22:32:45.256;599616907358489580;1107.5576;6449
2024-05-23T22:32:45.264;599616907366180952;1115.2489;6321
2024-05-23T22:32:45.271;599616907373872332;1122.9403;6294
2024-05-23T22:32:45.279;599616907381563704;1130.6317;6275
2024-05-23T22:32:45.287;599616907389255076;1138.3231;6154
2024-05-23T22:32:45.295;599616907396946448;1146.0144;6061
2024-05-23T22:32:45.302;599616907404637820;1153.7058;6050
2024-05-23T22:32:45.310;599616907412329192;1161.3972;6008
2024-05-23T22:32:45.318;599616907420020564;1169.0885;5933
2024-05-23T22:32:45.325;599616907427711936;1176.7799;5864
2024-05-23T22:32:45.333;599616907435403308;1184.4713;5792
2024-05-23T22:32:45.341;599616907443094680;1192.1627;5722
2024-05-23T22:32:45.348;599616907450786052;1199.8541;5606
2024-05-23T22:32:45.356;599616907458477424;1207.5455;5499
2024-05-23T22:32:45.364;599616907466168796;1215.2367;5713
2024-05-23T22:32:45.371;599616907473860168;1222.9281;6138
2024-05-23T22:32:45.379;599616907481551540;1230.6195;6159
2024-05-23T22:32:45.387;599616907489242912;1238.3109;5664
2024-05-23T22:32:45.395;599616907496934284;1246.0023;5199
2024-05-23T22:32:45.402;599616907504625656;1253.6937;5097
2024-05-23T22:32:45.410;599616907512317028;1261.385;5118
2024-05-23T22:32:45.418;599616907520008400;1269.0763;5025
2024-05-23T22:32:45.425;599616907527699772;1276.7677;4932
2024-05-23T22:32:45.433;599616907535391144;1284.4591;4909
2024-05-23T22:32:45.441;599616907543082516;1292.1505;4865
2024-05-23T22:32:45.448;599616907550773888;1299.8419;4823
2024-05-23T22:32:45.456;599616907558465260;1307.5333;4823
2024-05-23T22:32:45.464;599616907566156632;1315.2246;4776
2024-05-23T22:32:45.471;599616907573848004;1322.916;4679
2024-05-23T22:32:45.479;599616907581539376;1330.6073;4656
2024-05-23T22:32:45.487;599616907589230748;1338.2987;4665
2024-05-23T22:32:45.494;599616907596922120;1345.9901;4614
2024-05-23T22:32:45.502;599616907604613492;1353.6815;4567
2024-05-23T22:32:45.510;599616907612304864;1361.3728;4539
2024-05-23T22:32:45.518;599616907619996236;1369.0642;4470
2024-05-23T22:32:45.525;599616907627687608;1376.7556;4402
2024-05-23T22:32:45.533;599616907635378980;1384.447;4384
2024-05-23T22:32:45.541;599616907643070352;1392.1384;4351
2024-05-23T22:32:45.548;599616907650761724;1399.8297;4261
2024-05-23T22:32:45.556;599616907658453096;1407.5211;4168
2024-05-23T22:32:45.564;599616907666144468;1415.2124;4112
2024-05-23T22:32:45.571;599616907673835840;1422.9038;4089
2024-05-23T22:32:45.579;599616907681527212;1430.5952;4086
2024-05-23T22:32:45.587;599616907689218584;1438.2866;4063
2024-05-23T22:32:45.594;599616907696909956;1445.978;3973
2024-05-23T22:32:45.602;599616907704601328;1453.6694;3847
2024-05-23T22:32:45.610;599616907712292700;1461.3606;3784
2024-05-23T22:32:45.618;599616907719984072;1469.052;3731
2024-05-23T22:32:45.625;599616907727675444;1476.7434;3624
2024-05-23T22:32:45.633;599616907735366816;1484.4348;3557
2024-05-23T22:32:45.641;599616907743058188;1492.1262;3501
2024-05-23T22:32:45.648;599616907750749560;1499.8176;3378
2024-05-23T22:32:45.656;599616907758440932;1507.509;3280
2024-05-23T22:32:45.664;599616907766132304;1515.2002;3282
2024-05-23T22:32:45.671;599616907773823676;1522.8916;3266
2024-05-23T22:32:45.679;599616907781515048;1530.583;3201
2024-05-23T22:32:45.687;599616907789206420;1538.2744;3173
2024-05-23T22:32:45.694;599616907796897792;1545.9658;3159
2024-05-23T22:32:45.702;599616907804589164;1553.6572;3099
2024-05-23T22:32:45.710;599616907812280536;1561.3485;3050
2024-05-23T22:32:45.718;599616907819971908;1569.0399;3045
2024-05-23T22:32:45.725;599616907827663280;1576.7313;3059
2024-05-23T22:32:45.733;599616907835354652;1584.4226;3025
2024-05-23T22:32:45.741;599616907843046024;1592.114;2890
2024-05-23T22:32:45.748;599616907850737396;1599.8054;2792
2024-05-23T22:32:45.756;599616907858428768;1607.4967;2822
2024-05-23T22:32:45.764;599616907866120140;1615.1881;2808
2024-05-23T22:32:45.771;599616907873811512;1622.8795;2706
2024-05-23T22:32:45.779;599616907881502884;1630.5709;2676
2024-05-23T22:32:45.787;599616907889194256;1638.2623;2799
2024-05-23T22:32:45.794;599616907896885628;1645.9536;3127
2024-05-23T22:32:45.802;599616907904577000;1653.645;3526
2024-05-23T22:32:45.810;599616907912268372;1661.3363;3543
2024-05-23T22:32:45.818;599616907919959744;1669.0277;3022
2024-05-23T22:32:45.825;599616907927651116;1676.7191;2548
2024-05-23T22:32:45.833;599616907935317440;1684.3854;2520
2024-05-23T22:32:45.841;599616907943009160;1692.0771;2553
2024-05-23T22:32:45.848;599616907950700880;1699.7688;2416
2024-05-23T22:32:45.856;599616907958392600;1707.4606;2365
2024-05-23T22:32:45.864;599616907966084320;1715.1522;2409
2024-05-23T22:32:45.871;599616907973776040;1722.844;2402
2024-05-23T22:32:45.879;599616907981467760;1730.5358;2355
2024-05-23T22:32:45.887;599616907989159480;1738.2274;2274
2024-05-23T22:32:45.894;599616907996851200;1745.9192;2218
2024-05-23T22:32:45.902;599616908004542920;1753.6108;2242
2024-05-23T22:32:45.910;599616908012234640;1761.3026;2256
2024-05-23T22:32:45.917;599616908019926360;1768.9943;2221
2024-05-23T22:32:45.925;599616908027618080;1776.686;2190
2024-05-23T22:32:45.933;599616908035309800;1784.3778;2195
2024-05-23T22:32:45.941;599616908043001520;1792.0695;2200
2024-05-23T22:32:45.948;599616908050693240;1799.7612;2170
2024-05-23T22:32:45.956;599616908058384960;1807.4529;2139
2024-05-23T22:32:45.964;599616908066076680;1815.1447;2135
2024-05-23T22:32:45.971;599616908073768400;1822.8363;2114
2024-05-23T22:32:45.979;599616908081460120;1830.5281;2074
2024-05-23T22:32:45.987;599616908089151840;1838.2197;2056
2024-05-23T22:32:45.994;599616908096843560;1845.9115;2051
2024-05-23T22:32:46.002;599616908104535280;1853.6033;2044
2024-05-23T22:32:46.010;599616908112227000;1861.2949;2032
2024-05-23T22:32:46.017;599616908119918720;1868.9867;2012
2024-05-23T22:32:46.025;599616908127610440;1876.6783;1995
2024-05-23T22:32:46.033;599616908135302160;1884.3701;1986
2024-05-23T22:32:46.041;599616908142993880;1892.0618;1970
2024-05-23T22:32:46.048;599616908150685600;1899.7535;1953
2024-05-23T22:32:46.056;599616908158377320;1907.4454;1953
2024-05-23T22:32:46.064;599616908166069040;1915.1371;1914
2024-05-23T22:32:46.071;599616908173760760;1922.8289;1830
2024-05-23T22:32:46.079;599616908181452480;1930.5205;1777
2024-05-23T22:32:46.087;599616908189144200;1938.2123;1719
2024-05-23T22:32:46.094;599616908196835920;1945.9039;1612
2024-05-23T22:32:46.102;599616908204527640;1953.5957;1549
2024-05-23T22:32:46.110;599616908212219360;1961.2874;1540
2024-05-23T22:32:46.117;599616908219911080;1968.9791;1524
2024-05-23T22:32:46.125;599616908227602800;1976.6709;1512
2024-05-23T22:32:46.133;599616908235294520;1984.3625;1517
2024-05-23T22:32:46.141;599616908242986240;1992.0543;1535
2024-05-23T22:32:46.148;599616908250677960;1999.746;1549
2024-05-23T22:32:46.156;599616908258369680;2007.4377;1519
2024-05-23T22:32:46.164;599616908266061400;2015.1294;1486
2024-05-23T22:32:46.171;599616908273753120;2022.8212;1500
2024-05-23T22:32:46.179;599616908281444840;2030.513;1517
2024-05-23T22:32:46.187;599616908289136560;2038.2046;1496
2024-05-23T22:32:46.194;599616908296828280;2045.8964;1475
2024-05-23T22:32:46.202;599616908304520000;2053.588;1435
2024-05-23T22:32:46.210;599616908312211720;2061.2798;1405
2024-05-23T22:32:46.217;599616908319903440;2068.9714;1598
2024-05-23T22:32:46.225;599616908327595160;2076.663;2077
2024-05-23T22:32:46.233;599616908335286880;2084.3547;2455
2024-05-23T22:32:46.241;599616908342978600;2092.0466;2195
2024-05-23T22:32:46.248;599616908350670320;2099.7383;1454
2024-05-23T22:32:46.256;599616908358362040;2107.43;1089
2024-05-23T22:32:46.264;599616908366053760;2115.1218;1256
2024-05-23T22:32:46.271;599616908373745480;2122.8135;1305
2024-05-23T22:32:46.279;599616908381437200;2130.5051;1187
2024-05-23T22:32:46.287;599616908389128920;2138.1968;1215
2024-05-23T22:32:46.294;599616908396820640;2145.8887;1268
2024-05-23T22:32:46.302;599616908404512360;2153.5803;1231
2024-05-23T22:32:46.310;599616908412204080;2161.272;1222
2024-05-23T22:32:46.317;599616908419895800;2168.9639;1268
2024-05-23T22:32:46.325;599616908427587520;2176.6555;1287
2024-05-23T22:32:46.333;599616908435279240;2184.3472;1256
2024-05-23T22:32:46.341;599616908442970960;2192.0388;1215
2024-05-23T22:32:46.348;599616908450662680;2199.7307;1217
2024-05-23T22:32:46.356;599616908458354400;2207.4224;1252
2024-05-23T22:32:46.364;599616908466046120;2215.1143;1259
2024-05-23T22:32:46.371;599616908473737840;2222.8057;1247
2024-05-23T22:32:46.379;599616908481429560;2230.4976;1247
2024-05-23T22:32:46.387;599616908489121280;2238.1892;1226
2024-05-23T22:32:46.394;599616908496833122;2245.9011;1201
2024-05-23T22:32:46.402;599616908504524563;2253.5925;1208
2024-05-23T22:32:46.410;599616908512216004;2261.2842;1226
2024-05-23T22:32:46.417;599616908519907445;2268.9753;1245
2024-05-23T22:32:46.425;599616908527598886;2276.667;1243
2024-05-23T22:32:46.433;599616908535290327;2284.3584;1198
2024-05-23T22:32:46.441;599616908542981768;2292.0496;1175
2024-05-23T22:32:46.448;599616908550673209;2299.7412;1187
2024-05-23T22:32:46.456;599616908558364650;2307.4326;1138
2024-05-23T22:32:46.464;599616908566056091;2315.124;1078
2024-05-23T22:32:46.471;599616908573747532;2322.8154;1089
2024-05-23T22:32:46.479;599616908581438973;2330.507;1087
2024-05-23T22:32:46.487;599616908589130414;2338.1985;1050
2024-05-23T22:32:46.494;599616908596821855;2345.89;1047
2024-05-23T22:32:46.502;599616908604513296;2353.5813;1045
2024-05-23T22:32:46.510;599616908612204737;2361.273;999
2024-05-23T22:32:46.517;599616908619896178;2368.964;959
2024-05-23T22:32:46.525;599616908627587619;2376.6555;915
2024-05-23T22:32:46.533;599616908635279060;2384.3472;857
2024-05-23T22:32:46.541;599616908642970501;2392.0383;838
2024-05-23T22:32:46.548;599616908650661942;2399.73;845
2024-05-23T22:32:46.556;599616908658353383;2407.4214;852
2024-05-23T22:32:46.564;599616908666044824;2415.1128;864
2024-05-23T22:32:46.571;599616908673736265;2422.8042;857
2024-05-23T22:32:46.579;599616908681427706;2430.4958;827
2024-05-23T22:32:46.587;599616908689119147;2438.1873;808
2024-05-23T22:32:46.594;599616908696810588;2445.8784;813
2024-05-23T22:32:46.602;599616908704502029;2453.57;817
2024-05-23T22:32:46.610;599616908712193470;2461.2615;815
2024-05-23T22:32:46.617;599616908719884911;2468.953;815
2024-05-23T22:32:46.625;599616908727576352;2476.6443;801
2024-05-23T22:32:46.633;599616908735267793;2484.336;745
2024-05-23T22:32:46.641;599616908742959234;2492.027;727
2024-05-23T22:32:46.648;599616908750650675;2499.7188;985
2024-05-23T22:32:46.656;599616908758342116;2507.4102;1498
2024-05-23T22:32:46.664;599616908766033557;2515.1013;1807
2024-05-23T22:32:46.671;599616908773724998;2522.793;1535
2024-05-23T22:32:46.679;599616908781416439;2530.4844;989
2024-05-23T22:32:46.687;599616908789107880;2538.176;776
2024-05-23T22:32:46.694;599616908796799321;2545.8672;864
2024-05-23T22:32:46.702;599616908804490762;2553.5588;850
2024-05-23T22:32:46.710;599616908812182203;2561.2502;782
2024-05-23T22:32:46.717;599616908819873644;2568.9417;810
2024-05-23T22:32:46.725;599616908827565085;2576.633;829
2024-05-23T22:32:46.733;599616908835256526;2584.3247;817
2024-05-23T22:32:46.741;599616908842947967;2592.0159;817
2024-05-23T22:32:46.748;599616908850639408;2599.7073;750
2024-05-23T22:32:46.756;599616908858330849;2607.399;664
2024-05-23T22:32:46.764;599616908866022290;2615.09;699
2024-05-23T22:32:46.771;599616908873713731;2622.7817;762
2024-05-23T22:32:46.779;599616908881405172;2630.4731;748
2024-05-23T22:32:46.787;599616908889096613;2638.1648;750
2024-05-23T22:32:46.794;599616908896788054;2645.856;787
2024-05-23T22:32:46.802;599616908904479495;2653.5476;782
2024-05-23T22:32:46.810;599616908912170936;2661.239;757
2024-05-23T22:32:46.817;599616908919862377;2668.9304;745
2024-05-23T22:32:46.825;599616908927553818;2676.6218;701
2024-05-23T22:32:46.833;599616908935245259;2684.3132;655
2024-05-23T22:32:46.841;599616908942936700;2692.0046;671
2024-05-23T22:32:46.848;599616908950628141;2699.696;690
2024-05-23T22:32:46.856;599616908958319582;2707.3877;685
2024-05-23T22:32:46.864;599616908966011023;2715.0789;706
2024-05-23T22:32:46.871;599616908973702464;2722.7705;710
2024-05-23T22:32:46.879;599616908981393905;2730.462;683
2024-05-23T22:32:46.887;599616908989085346;2738.1533;687
2024-05-23T22:32:46.894;599616908996776787;2745.8447;697
2024-05-23T22:32:46.902;599616909004468228;2753.5364;683
2024-05-23T22:32:46.910;599616909012159669;2761.2278;690
2024-05-23T22:32:46.917;599616909019851110;2768.919;717
2024-05-23T22:32:46.925;599616909027542551;2776.6106;722
2024-05-23T22:32:46.933;599616909035233992;2784.302;692
2024-05-23T22:32:46.940;599616909042925433;2791.9934;636
2024-05-23T22:32:46.948;599616909050616874;2799.6848;576
2024-05-23T22:32:46.956;599616909058283246;2807.3513;550
2024-05-23T22:32:46.964;599616909065975036;2815.043;525
2024-05-23T22:32:46.971;599616909073666826;2822.7349;485
2024-05-23T22:32:46.979;599616909081358616;2830.4265;494
2024-05-23T22:32:46.987;599616909089050406;2838.1184;485
2024-05-23T22:32:46.994;599616909096742196;2845.81;406
2024-05-23T22:32:47.002;599616909104433986;2853.502;371
2024-05-23T22:32:47.010;599616909112125776;2861.1938;399
2024-05-23T22:32:47.017;599616909119817566;2868.8855;397
2024-05-23T22:32:47.025;599616909127509356;2876.5774;381
2024-05-23T22:32:47.033;599616909135201146;2884.269;397
2024-05-23T22:32:47.040;599616909142892936;2891.961;408
2024-05-23T22:32:47.048;599616909150584726;2899.6526;418
2024-05-23T22:32:47.056;599616909158276516;2907.3445;425
2024-05-23T22:32:47.064;599616909165968306;2915.0364;378
2024-05-23T22:32:47.071;599616909173660096;2922.7283;341
2024-05-23T22:32:47.079;599616909181351886;2930.42;543
2024-05-23T22:32:47.087;599616909189043676;2938.1118;1003
2024-05-23T22:32:47.094;599616909196735466;2945.8035;1298
2024-05-23T22:32:47.102;599616909204427256;2953.4954;1045
2024-05-23T22:32:47.110;599616909212119046;2961.187;532
2024-05-23T22:32:47.117;599616909219810836;2968.879;339
2024-05-23T22:32:47.125;599616909227502626;2976.5706;429
2024-05-23T22:32:47.133;599616909235194416;2984.2625;439
2024-05-23T22:32:47.140;599616909242886206;2991.954;401
2024-05-23T22:32:47.148;599616909250577996;2999.646;427
2024-05-23T22:32:47.156;599616909258269786;3007.3376;460
2024-05-23T22:32:47.164;599616909265961576;3015.0295;471
2024-05-23T22:32:47.171;599616909273653366;3022.7212;478
2024-05-23T22:32:47.179;599616909281345156;3030.413;483
2024-05-23T22:32:47.187;599616909289036946;3038.1047;515
2024-05-23T22:32:47.194;599616909296728736;3045.7966;559
2024-05-23T22:32:47.202;599616909304420526;3053.4885;578
2024-05-23T22:32:47.210;599616909312112316;3061.1804;566
2024-05-23T22:32:47.217;599616909319804106;3068.872;559
2024-05-23T22:32:47.225;599616909327495896;3076.564;569
2024-05-23T22:32:47.233;599616909335187686;3084.2559;580
2024-05-23T22:32:47.240;599616909342879476;3091.9475;587
2024-05-23T22:32:47.248;599616909350571266;3099.6394;552
2024-05-23T22:32:47.256;599616909358263056;3107.331;457
2024-05-23T22:32:47.264;599616909365954846;3115.023;401
2024-05-23T22:32:47.271;599616909373646636;3122.7146;429
2024-05-23T22:32:47.279;599616909381338426;3130.4065;473
2024-05-23T22:32:47.287;599616909389030216;3138.0981;504
2024-05-23T22:32:47.294;599616909396722006;3145.79;532
2024-05-23T22:32:47.302;599616909404413796;3153.4817;527
2024-05-23T22:32:47.310;599616909412105586;3161.1736;485
2024-05-23T22:32:47.317;599616909419797376;3168.8652;429
2024-05-23T22:32:47.325;599616909427489166;3176.5571;378
2024-05-23T22:32:47.333;599616909435180956;3184.2488;381
2024-05-23T22:32:47.340;599616909442872746;3191.941;418
2024-05-23T22:32:47.348;599616909450564536;3199.6326;427
2024-05-23T22:32:47.356;599616909458256326;3207.3245;406
2024-05-23T22:32:47.364;599616909465948116;3215.016;394
2024-05-23T22:32:47.371;599616909473639906;3222.708;408
2024-05-23T22:32:47.379;599616909481331696;3230.3997;388
2024-05-23T22:32:47.387;599616909489023486;3238.0916;339
2024-05-23T22:32:47.394;599616909496715276;3245.7832;311
2024-05-23T22:32:47.402;599616909504407066;3253.475;269
2024-05-23T22:32:47.410;599616909512098856;3261.1667;239
2024-05-23T22:32:47.417;599616909519790646;3268.8586;246
2024-05-23T22:32:47.425;599616909527482436;3276.5503;269
2024-05-23T22:32:47.433;599616909535174226;3284.2422;304
2024-05-23T22:32:47.440;599616909542866016;3291.9338;299
2024-05-23T22:32:47.448;599616909550557806;3299.6257;250
2024-05-23T22:32:47.456;599616909558249596;3307.3174;246
2024-05-23T22:32:47.464;599616909565941386;3315.0093;285
2024-05-23T22:32:47.471;599616909573633176;3322.7012;304
2024-05-23T22:32:47.479;599616909581324966;3330.393;292
2024-05-23T22:32:47.487;599616909589016756;3338.085;264
2024-05-23T22:32:47.494;599616909596708546;3345.7766;211
2024-05-23T22:32:47.502;599616909604400336;3353.4685;236
2024-05-23T22:32:47.510;599616909612092126;3361.1602;543
2024-05-23T22:32:47.517;599616909619834112;3368.902;1029
2024-05-23T22:32:47.525;599616909627525205;3376.5933;1196
2024-05-23T22:32:47.533;599616909635216298;3384.2844;806
2024-05-23T22:32:47.540;599616909642907391;3391.9753;320
2024-05-23T22:32:47.548;599616909650598484;3399.6665;253
2024-05-23T22:32:47.556;599616909658289577;3407.3577;371
2024-05-23T22:32:47.564;599616909665980670;3415.0486;302
2024-05-23T22:32:47.571;599616909673671763;3422.7397;218
2024-05-23T22:32:47.579;599616909681362856;3430.431;267
2024-05-23T22:32:47.587;599616909689053949;3438.122;276
2024-05-23T22:32:47.594;599616909696745042;3445.813;209
2024-05-23T22:32:47.602;599616909704436135;3453.5042;188
2024-05-23T22:32:47.610;599616909712127228;3461.1953;230
2024-05-23T22:32:47.617;599616909719818321;3468.8862;262
2024-05-23T22:32:47.625;599616909727509414;3476.5776;267
2024-05-23T22:32:47.633;599616909735200507;3484.2686;269
2024-05-23T22:32:47.640;599616909742891600;3491.9595;288
2024-05-23T22:32:47.648;599616909750582693;3499.651;320
2024-05-23T22:32:47.656;599616909758273786;3507.3418;348
2024-05-23T22:32:47.664;599616909765964879;3515.0327;367
2024-05-23T22:32:47.671;599616909773655972;3522.7239;378
2024-05-23T22:32:47.679;599616909781347065;3530.415;383
2024-05-23T22:32:47.687;599616909789038158;3538.1062;364
2024-05-23T22:32:47.694;599616909796729251;3545.797;357
2024-05-23T22:32:47.702;599616909804420344;3553.4883;399
2024-05-23T22:32:47.710;599616909812111437;3561.1794;450
2024-05-23T22:32:47.717;599616909819802530;3568.8704;462
2024-05-23T22:32:47.725;599616909827493623;3576.5618;453
2024-05-23T22:32:47.733;599616909835184716;3584.2527;443
2024-05-23T22:32:47.740;599616909842875809;3591.9436;420
2024-05-23T22:32:47.748;599616909850566902;3599.635;376
2024-05-23T22:32:47.756;599616909858257995;3607.326;311
2024-05-23T22:32:47.764;599616909865949088;3615.0168;234
2024-05-23T22:32:47.771;599616909873640181;3622.7083;185
2024-05-23T22:32:47.779;599616909881331274;3630.3992;206
2024-05-23T22:32:47.787;599616909889022367;3638.0903;257
2024-05-23T22:32:47.794;599616909896713460;3645.7815;278
2024-05-23T22:32:47.802;599616909904404553;3653.4724;264
2024-05-23T22:32:47.810;599616909912095646;3661.1636;218
2024-05-23T22:32:47.817;599616909919786739;3668.8547;144
2024-05-23T22:32:47.825;599616909927477832;3676.546;113
2024-05-23T22:32:47.833;599616909935168925;3684.2368;99
2024-05-23T22:32:47.840;599616909942860018;3691.928;72
2024-05-23T22:32:47.848;599616909950551111;3699.6191;81
2024-05-23T22:32:47.856;599616909958242204;3707.31;111
2024-05-23T22:32:47.864;599616909965933297;3715.0015;111
2024-05-23T22:32:47.871;599616909973624390;3722.6924;106
2024-05-23T22:32:47.879;599616909981315483;3730.3833;120
2024-05-23T22:32:47.887;599616909989006576;3738.0747;148
2024-05-23T22:32:47.894;599616909996697669;3745.7656;174
2024-05-23T22:32:47.902;599616910004388762;3753.4565;178
2024-05-23T22:32:47.910;599616910012079855;3761.148;144
2024-05-23T22:32:47.917;599616910019770948;3768.8389;97
2024-05-23T22:32:47.925;599616910027462041;3776.53;78
2024-05-23T22:32:47.933;599616910035153134;3784.2212;213
2024-05-23T22:32:47.940;599616910042844227;3791.912;641
2024-05-23T22:32:47.948;599616910050535320;3799.6033;1071
2024-05-23T22:32:47.956;599616910058226413;3807.2944;945
2024-05-23T22:32:47.963;599616910065917506;3814.9854;378
2024-05-23T22:32:47.971;599616910073608599;3822.6765;104
2024-05-23T22:32:47.979;599616910081299692;3830.3677;243
2024-05-23T22:32:47.987;599616910088990785;3838.0588;264
2024-05-23T22:32:47.994;599616910096681878;3845.7498;146
2024-05-23T22:32:48.002;599616910104372971;3853.441;181
2024-05-23T22:32:48.010;599616910112064064;3861.132;253
2024-05-23T22:32:48.017;599616910119755157;3868.823;239
2024-05-23T22:32:48.025;599616910127446250;3876.5144;250
2024-05-23T22:32:48.033;599616910135137343;3884.2053;292
2024-05-23T22:32:48.040;599616910142828436;3891.8962;313
2024-05-23T22:32:48.048;599616910150519529;3899.5876;302
2024-05-23T22:32:48.056;599616910158210622;3907.2786;262
2024-05-23T22:32:48.063;599616910165901715;3914.9695;225
2024-05-23T22:32:48.071;599616910173592808;3922.661;246
2024-05-23T22:32:48.079;599616910181258874;3930.327;295
2024-05-23T22:32:48.087;599616910188950315;3938.0183;320
2024-05-23T22:32:48.094;599616910196641756;3945.7097;318
2024-05-23T22:32:48.102;599616910204333197;3953.4011;309
2024-05-23T22:32:48.110;599616910212024638;3961.0925;309
2024-05-23T22:32:48.117;599616910219716079;3968.7842;327
2024-05-23T22:32:48.125;599616910227407520;3976.4753;364
2024-05-23T22:32:48.133;599616910235098961;3984.167;397
2024-05-23T22:32:48.140;599616910242790402;3991.8584;399
2024-05-23T22:32:48.148;599616910250481843;3999.55;399
2024-05-23T22:32:48.156;599616910258173284;4007.2412;411
2024-05-23T22:32:48.163;599616910265864725;4014.9326;360
2024-05-23T22:32:48.171;599616910273556166;4022.6243;276
2024-05-23T22:32:48.179;599616910281247607;4030.3154;260
2024-05-23T22:32:48.187;599616910288939048;4038.007;264
2024-05-23T22:32:48.194;599616910296630489;4045.6985;239
2024-05-23T22:32:48.202;599616910304321930;4053.39;255
2024-05-23T22:32:48.210;599616910312013371;4061.0813;299
2024-05-23T22:32:48.217;599616910319704812;4068.773;285
2024-05-23T22:32:48.225;599616910327396253;4076.464;248
2024-05-23T22:32:48.233;599616910335087694;4084.1558;257
2024-05-23T22:32:48.240;599616910342779135;4091.8472;264
2024-05-23T22:32:48.248;599616910350470576;4099.5386;230
2024-05-23T22:32:48.256;599616910358162017;4107.23;190
2024-05-23T22:32:48.263;599616910365853458;4114.9214;116
2024-05-23T22:32:48.271;599616910373544899;4122.613;25
2024-05-23T22:32:48.279;599616910381236340;4130.304;6
2024-05-23T22:32:48.286;599616910388927781;4137.9956;27
2024-05-23T22:32:48.294;599616910396619222;4145.6875;27
2024-05-23T22:32:48.302;599616910404310663;4153.3784;16
2024-05-23T22:32:48.310;599616910412002104;4161.0703;-9
2024-05-23T22:32:48.317;599616910419693545;4168.7617;-34
2024-05-23T22:32:48.325;599616910427384986;4176.4526;-23
2024-05-23T22:32:48.333;599616910435076427;4184.1445;4
2024-05-23T22:32:48.340;599616910442767868;4191.836;-2
2024-05-23T22:32:48.348;599616910450459309;4199.5273;-58
2024-05-23T22:32:48.356;599616910458150750;4207.2188;23
2024-05-23T22:32:48.363;599616910465842191;4214.91;404
2024-05-23T22:32:48.371;599616910473533632;4222.6016;857
2024-05-23T22:32:48.379;599616910481225073;4230.293;945
2024-05-23T22:32:48.386;599616910488916514;4237.9844;532
2024-05-23T22:32:48.394;599616910496607955;4245.6763;88
2024-05-23T22:32:48.402;599616910504299396;4253.367;53
2024-05-23T22:32:48.410;599616910511990837;4261.0586;167
2024-05-23T22:32:48.417;599616910519682278;4268.7505;141
2024-05-23T22:32:48.425;599616910527373719;4276.4414;120
2024-05-23T22:32:48.433;599616910535065160;4284.1333;155
2024-05-23T22:32:48.440;599616910542756601;4291.8247;157
2024-05-23T22:32:48.448;599616910550448042;4299.516;188
2024-05-23T22:32:48.456;599616910558139483;4307.2075;239
2024-05-23T22:32:48.463;599616910565830924;4314.899;234
2024-05-23T22:32:48.471;599616910573522365;4322.5903;220
2024-05-23T22:32:48.479;599616910581213806;4330.282;262
2024-05-23T22:32:48.486;599616910588905247;4337.973;315
2024-05-23T22:32:48.494;599616910596596688;4345.6646;334
2024-05-23T22:32:48.502;599616910604288129;4353.3564;325
2024-05-23T22:32:48.510;599616910611979570;4361.0474;311
2024-05-23T22:32:48.517;599616910619671011;4368.739;315
2024-05-23T22:32:48.525;599616910627362452;4376.4307;336
2024-05-23T22:32:48.533;599616910635053893;4384.122;350
2024-05-23T22:32:48.540;599616910642745334;4391.813;350
2024-05-23T22:32:48.548;599616910650436775;4399.505;315
2024-05-23T22:32:48.556;599616910658128216;4407.1963;264
2024-05-23T22:32:48.563;599616910665819657;4414.887;269
2024-05-23T22:32:48.571;599616910673511098;4422.579;325
2024-05-23T22:32:48.579;599616910681202539;4430.2705;360
2024-05-23T22:32:48.586;599616910688893980;4437.962;362
2024-05-23T22:32:48.594;599616910696585421;4445.6533;350
2024-05-23T22:32:48.602;599616910704276862;4453.3447;320
2024-05-23T22:32:48.610;599616910711968303;4461.0366;297
2024-05-23T22:32:48.617;599616910719659744;4468.728;292
2024-05-23T22:32:48.625;599616910727351185;4476.419;299
2024-05-23T22:32:48.633;599616910735042626;4484.111;315
2024-05-23T22:32:48.640;599616910742724044;4491.792;311
2024-05-23T22:32:48.648;599616910750415625;4499.484;274
2024-05-23T22:32:48.656;599616910758107206;4507.1753;271
2024-05-23T22:32:48.663;599616910765798787;4514.8667;306
2024-05-23T22:32:48.671;599616910773490368;4522.5586;285
2024-05-23T22:32:48.679;599616910781181949;4530.2495;234
2024-05-23T22:32:48.686;599616910788873530;4537.9414;232
2024-05-23T22:32:48.694;599616910796565111;4545.6333;181
2024-05-23T22:32:48.702;599616910804256692;4553.3247;53
2024-05-23T22:32:48.710;599616910811948273;4561.016;11
2024-05-23T22:32:48.717;599616910819639854;4568.708;65
2024-05-23T22:32:48.725;599616910827331435;4576.3994;72
2024-05-23T22:32:48.733;599616910835023016;4584.0913;34
2024-05-23T22:32:48.740;599616910842714597;4591.782;30
2024-05-23T22:32:48.748;599616910850406178;4599.474;74
2024-05-23T22:32:48.756;599616910858097759;4607.166;95
2024-05-23T22:32:48.763;599616910865789340;4614.8574;13
2024-05-23T22:32:48.771;599616910873480921;4622.549;-102
2024-05-23T22:32:48.779;599616910881172502;4630.24;-99
2024-05-23T22:32:48.786;599616910888864083;4637.932;132
2024-05-23T22:32:48.794;599616910896555664;4645.624;566
2024-05-23T22:32:48.802;599616910904247245;4653.315;887
2024-05-23T22:32:48.810;599616910911938826;4661.007;708
2024-05-23T22:32:48.817;599616910919630407;4668.6987;190
2024-05-23T22:32:48.825;599616910927321988;4676.3896;-78
2024-05-23T22:32:48.833;599616910935013569;4684.0815;6
2024-05-23T22:32:48.840;599616910942705150;4691.773;60
2024-05-23T22:32:48.848;599616910950396731;4699.465;23
2024-05-23T22:32:48.856;599616910958088312;4707.1562;44
2024-05-23T22:32:48.863;599616910965779893;4714.8477;95
2024-05-23T22:32:48.871;599616910973471474;4722.5396;120
2024-05-23T22:32:48.879;599616910981163055;4730.2314;116
2024-05-23T22:32:48.886;599616910988854636;4737.9224;120
2024-05-23T22:32:48.894;599616910996546217;4745.6143;169
2024-05-23T22:32:48.902;599616911004237798;4753.3057;232
2024-05-23T22:32:48.909;599616911011929379;4760.9976;248
2024-05-23T22:32:48.917;599616911019620960;4768.689;236
2024-05-23T22:32:48.925;599616911027312541;4776.3804;248
2024-05-23T22:32:48.933;599616911035004122;4784.0723;283
2024-05-23T22:32:48.940;599616911042695703;4791.7637;304
2024-05-23T22:32:48.948;599616911050387284;4799.455;309
2024-05-23T22:32:48.956;599616911058078865;4807.147;311
2024-05-23T22:32:48.963;599616911065770446;4814.8384;297
2024-05-23T22:32:48.971;599616911073462027;4822.5303;271
2024-05-23T22:32:48.979;599616911081153608;4830.2217;269
2024-05-23T22:32:48.986;599616911088845189;4837.913;311
2024-05-23T22:32:48.994;599616911096536770;4845.605;357
2024-05-23T22:32:49.002;599616911104228351;4853.296;371
2024-05-23T22:32:49.009;599616911111919932;4860.988;381
2024-05-23T22:32:49.017;599616911119611513;4868.6797;401
2024-05-23T22:32:49.025;599616911127303094;4876.371;401
2024-05-23T22:32:49.033;599616911134994675;4884.0625;371
2024-05-23T22:32:49.040;599616911142686256;4891.7544;327
2024-05-23T22:32:49.048;599616911150377837;4899.446;292
2024-05-23T22:32:49.056;599616911158069418;4907.1377;295
2024-05-23T22:32:49.063;599616911165760999;4914.8286;295
2024-05-23T22:32:49.071;599616911173452580;4922.5205;276
2024-05-23T22:32:49.079;599616911181144161;4930.2124;292
2024-05-23T22:32:49.086;599616911188835742;4937.904;313
2024-05-23T22:32:49.094;599616911196527323;4945.595;302
2024-05-23T22:32:49.102;599616911204218904;4953.2866;260
2024-05-23T22:32:49.109;599616911211910485;4960.9785;213
2024-05-23T22:32:49.117;599616911219602066;4968.6704;197
2024-05-23T22:32:49.125;599616911227293647;4976.3613;176
2024-05-23T22:32:49.133;599616911234985228;4984.053;160
2024-05-23T22:32:49.140;599616911242676809;4991.745;178
2024-05-23T22:32:49.148;599616911250368390;4999.4365;188
2024-05-23T22:32:49.156;599616911258059971;5007.128;157
2024-05-23T22:32:49.163;599616911265751552;5014.8193;134
2024-05-23T22:32:49.171;599616911273443133;5022.511;162
2024-05-23T22:32:49.179;599616911281134714;5030.2026;190
2024-05-23T22:32:49.186;599616911288826295;5037.894;171
2024-05-23T22:32:49.194;599616911296517876;5045.586;123
2024-05-23T22:32:49.202;599616911304224516;5053.2925;83
2024-05-23T22:32:49.209;599616911311915888;5060.984;178
2024-05-23T22:32:49.217;599616911319607260;5068.6753;552
2024-05-23T22:32:49.225;599616911327298632;5076.3667;999
2024-05-23T22:32:49.233;599616911334990004;5084.058;1036
2024-05-23T22:32:49.240;599616911342681376;5091.7495;578
2024-05-23T22:32:49.248;599616911350372748;5099.4404;167
2024-05-23T22:32:49.256;599616911358064120;5107.132;162
2024-05-23T22:32:49.263;599616911365755492;5114.8237;204
2024-05-23T22:32:49.271;599616911373446864;5122.515;23
2024-05-23T22:32:49.279;599616911381138236;5130.206;-97
2024-05-23T22:32:49.286;599616911388829608;5137.8975;-72
2024-05-23T22:32:49.294;599616911396520980;5145.589;-102
2024-05-23T22:32:49.302;599616911404212352;5153.2803;-125
2024-05-23T22:32:49.309;599616911411903724;5160.9717;-62
2024-05-23T22:32:49.317;599616911419595096;5168.663;-16
2024-05-23T22:32:49.325;599616911427286468;5176.3545;13
2024-05-23T22:32:49.333;599616911434977840;5184.046;58
2024-05-23T22:32:49.340;599616911442669212;5191.7373;65
2024-05-23T22:32:49.348;599616911450360584;5199.4287;83
2024-05-23T22:32:49.356;599616911458051956;5207.1196;130
2024-05-23T22:32:49.363;599616911465743328;5214.811;141
2024-05-23T22:32:49.371;599616911473434700;5222.503;155
2024-05-23T22:32:49.379;599616911481126072;5230.1943;197
2024-05-23T22:32:49.386;599616911488817444;5237.8853;197
2024-05-23T22:32:49.394;599616911496508816;5245.5767;167
2024-05-23T22:32:49.402;599616911504200188;5253.268;174
2024-05-23T22:32:49.409;599616911511891560;5260.96;220
2024-05-23T22:32:49.417;599616911519582932;5268.651;264
2024-05-23T22:32:49.425;599616911527274304;5276.3423;278
2024-05-23T22:32:49.433;599616911534965676;5284.0337;271
2024-05-23T22:32:49.440;599616911542657048;5291.7246;302
2024-05-23T22:32:49.448;599616911550348420;5299.4165;336
2024-05-23T22:32:49.456;599616911558039792;5307.108;299
2024-05-23T22:32:49.463;599616911565731164;5314.7993;241
2024-05-23T22:32:49.471;599616911573422536;5322.49;257
2024-05-23T22:32:49.479;599616911581113908;5330.182;285
2024-05-23T22:32:49.486;599616911588805280;5337.8735;246
2024-05-23T22:32:49.494;599616911596496652;5345.5645;223
2024-05-23T22:32:49.502;599616911604188024;5353.256;262
2024-05-23T22:32:49.509;599616911611879396;5360.9473;285
2024-05-23T22:32:49.517;599616911619570768;5368.639;253
2024-05-23T22:32:49.525;599616911627262140;5376.33;204
2024-05-23T22:32:49.533;599616911634953512;5384.0215;148
2024-05-23T22:32:49.540;599616911642644884;5391.713;95
2024-05-23T22:32:49.548;599616911650336256;5399.404;69
2024-05-23T22:32:49.556;599616911658027628;5407.0957;55
2024-05-23T22:32:49.563;599616911665719000;5414.787;39
2024-05-23T22:32:49.571;599616911673410372;5422.4785;20
2024-05-23T22:32:49.579;599616911681101744;5430.1694;4
2024-05-23T22:32:49.586;599616911688793116;5437.861;30
2024-05-23T22:32:49.594;599616911696484488;5445.5527;72
2024-05-23T22:32:49.602;599616911704175860;5453.244;51
2024-05-23T22:32:49.609;599616911711867232;5460.935;25
2024-05-23T22:32:49.617;599616911719558604;5468.6265;37
2024-05-23T22:32:49.625;599616911727249976;5476.3184;-4
2024-05-23T22:32:49.633;599616911734941348;5484.0093;-11
2024-05-23T22:32:49.640;599616911742632720;5491.7007;271
2024-05-23T22:32:49.648;599616911750324092;5499.392;771
2024-05-23T22:32:49.656;599616911758015464;5507.0835;971
2024-05-23T22:32:49.663;599616911765706836;5514.775;601
2024-05-23T22:32:49.671;599616911773398208;5522.4663;134
2024-05-23T22:32:49.679;599616911781089580;5530.1577;88
2024-05-23T22:32:49.686;599616911788780952;5537.8486;192
2024-05-23T22:32:49.694;599616911796472324;5545.54;132
2024-05-23T22:32:49.702;599616911804163696;5553.232;102
2024-05-23T22:32:49.709;599616911811855068;5560.9233;153
2024-05-23T22:32:49.717;599616911819546440;5568.6143;144
2024-05-23T22:32:49.725;599616911827237812;5576.3057;125
2024-05-23T22:32:49.732;599616911834929184;5583.997;199
2024-05-23T22:32:49.740;599616911842620556;5591.6885;269
2024-05-23T22:32:49.748;599616911850311928;5599.38;236
2024-05-23T22:32:49.756;599616911858003300;5607.0713;199
2024-05-23T22:32:49.763;599616911865664584;5614.733;209
2024-05-23T22:32:49.771;599616911873356374;5622.425;157
2024-05-23T22:32:49.779;599616911881048164;5630.116;55
2024-05-23T22:32:49.786;599616911888739954;5637.808;51
2024-05-23T22:32:49.794;599616911896431744;5645.5;113
2024-05-23T22:32:49.802;599616911904123534;5653.192;95
2024-05-23T22:32:49.809;599616911911815324;5660.8833;27
2024-05-23T22:32:49.817;599616911919507114;5668.575;-2
2024-05-23T22:32:49.825;599616911927198904;5676.267;27
2024-05-23T22:32:49.832;599616911934890694;5683.959;81
2024-05-23T22:32:49.840;599616911942582484;5691.6504;69
2024-05-23T22:32:49.848;599616911950274274;5699.3423;44
2024-05-23T22:32:49.856;599616911957966064;5707.034;118
2024-05-23T22:32:49.863;599616911965657854;5714.726;188
2024-05-23T22:32:49.871;599616911973349644;5722.4175;176
2024-05-23T22:32:49.879;599616911981041434;5730.1094;178
2024-05-23T22:32:49.886;599616911988733224;5737.8013;178
2024-05-23T22:32:49.894;599616911996425014;5745.493;132
2024-05-23T22:32:49.902;599616912004116804;5753.1846;111
2024-05-23T22:32:49.909;599616912011808594;5760.8765;130
2024-05-23T22:32:49.917;599616912019500384;5768.5684;155
2024-05-23T22:32:49.925;599616912027192174;5776.2603;183
2024-05-23T22:32:49.932;599616912034883964;5783.9517;174
2024-05-23T22:32:49.940;599616912042575754;5791.6436;134
2024-05-23T22:32:49.948;599616912050267544;5799.3354;130
2024-05-23T22:32:49.956;599616912057959334;5807.0273;148
2024-05-23T22:32:49.963;599616912065651124;5814.7188;125
2024-05-23T22:32:49.971;599616912073342914;5822.4106;74
2024-05-23T22:32:49.979;599616912081034704;5830.1025;53
2024-05-23T22:32:49.986;599616912088726494;5837.7944;60
2024-05-23T22:32:49.994;599616912096418284;5845.486;27
2024-05-23T22:32:50.002;599616912104110074;5853.1777;-9
2024-05-23T22:32:50.009;599616912111801864;5860.8696;18
2024-05-23T22:32:50.017;599616912119493654;5868.5615;67
2024-05-23T22:32:50.025;599616912127185444;5876.254;34
2024-05-23T22:32:50.032;599616912134877234;5883.9453;-37
2024-05-23T22:32:50.040;599616912142569024;5891.637;-46
2024-05-23T22:32:50.048;599616912150260814;5899.329;-62
2024-05-23T22:32:50.056;599616912157952604;5907.021;-81
2024-05-23T22:32:50.063;599616912165644394;5914.7124;153
2024-05-23T22:32:50.071;599616912173336184;5922.4043;659
2024-05-23T22:32:50.079;599616912181027974;5930.096;966
2024-05-23T22:32:50.086;599616912188719764;5937.788;659
2024-05-23T22:32:50.094;599616912196411554;5945.4795;109
2024-05-23T22:32:50.102;599616912204103344;5953.1714;-25
2024-05-23T22:32:50.109;599616912211795134;5960.8633;130
2024-05-23T22:32:50.117;599616912219486924;5968.555;95
2024-05-23T22:32:50.125;599616912227178714;5976.2466;-6
2024-05-23T22:32:50.132;599616912234870504;5983.9385;65
2024-05-23T22:32:50.140;599616912242562294;5991.6304;127
2024-05-23T22:32:50.148;599616912250254084;5999.3223;90
2024-05-23T22:32:50.156;599616912257945874;6007.0137;127
2024-05-23T22:32:50.163;599616912265637664;6014.7056;190
2024-05-23T22:32:50.171;599616912273329454;6022.3975;144
2024-05-23T22:32:50.179;599616912281021244;6030.0894;144
2024-05-23T22:32:50.186;599616912288713034;6037.781;236
2024-05-23T22:32:50.194;599616912296404824;6045.4727;248
2024-05-23T22:32:50.202;599616912304096614;6053.1646;195
2024-05-23T22:32:50.209;599616912311788404;6060.8564;227
2024-05-23T22:32:50.217;599616912319480194;6068.5483;288
2024-05-23T22:32:50.225;599616912327171984;6076.2397;262
2024-05-23T22:32:50.232;599616912334863774;6083.9316;246
2024-05-23T22:32:50.240;599616912342555564;6091.6235;274
2024-05-23T22:32:50.248;599616912350247354;6099.3154;267
2024-05-23T22:32:50.256;599616912357939144;6107.007;281
2024-05-23T22:32:50.263;599616912365630934;6114.6987;302
2024-05-23T22:32:50.271;599616912373322724;6122.3906;225
2024-05-23T22:32:50.279;599616912381014514;6130.0825;139
2024-05-23T22:32:50.286;599616912388706304;6137.774;164
2024-05-23T22:32:50.294;599616912396398094;6145.466;213
2024-05-23T22:32:50.302;599616912404089884;6153.1577;216
2024-05-23T22:32:50.309;599616912411781674;6160.85;188
2024-05-23T22:32:50.317;599616912419473464;6168.5415;151
2024-05-23T22:32:50.325;599616912427195360;6176.263;134
2024-05-23T22:32:50.332;599616912434886732;6183.955;160
2024-05-23T22:32:50.340;599616912442578104;6191.646;192
2024-05-23T22:32:50.348;599616912450269476;6199.3374;183
2024-05-23T22:32:50.356;599616912457960848;6207.029;148
2024-05-23T22:32:50.363;599616912465652220;6214.72;148
2024-05-23T22:32:50.371;599616912473343592;6222.4116;185
2024-05-23T22:32:50.379;599616912481034964;6230.103;176
2024-05-23T22:32:50.386;599616912488726336;6237.7944;92
2024-05-23T22:32:50.394;599616912496417708;6245.4854;23
2024-05-23T22:32:50.402;599616912504109080;6253.177;23
2024-05-23T22:32:50.409;599616912511800452;6260.8687;2
2024-05-23T22:32:50.417;599616912519491824;6268.56;-62
2024-05-23T22:32:50.425;599616912527183196;6276.251;-58
2024-05-23T22:32:50.432;599616912534874568;6283.9424;9
2024-05-23T22:32:50.440;599616912542565940;6291.6343;25
2024-05-23T22:32:50.448;599616912550257312;6299.3257;-16
2024-05-23T22:32:50.456;599616912557948684;6307.0166;-16
2024-05-23T22:32:50.463;599616912565640056;6314.708;11
2024-05-23T22:32:50.471;599616912573331428;6322.3994;-39
2024-05-23T22:32:50.479;599616912581022800;6330.091;-60
2024-05-23T22:32:50.486;599616912588714172;6337.782;190
2024-05-23T22:32:50.494;599616912596405544;6345.4736;694
2024-05-23T22:32:50.502;599616912604096916;6353.165;996
2024-05-23T22:32:50.509;599616912611788288;6360.856;699
2024-05-23T22:32:50.517;599616912619479660;6368.548;127
2024-05-23T22:32:50.525;599616912627171032;6376.2393;-81
2024-05-23T22:32:50.532;599616912634862404;6383.93;25
2024-05-23T22:32:50.540;599616912642553776;6391.6216;30
2024-05-23T22:32:50.548;599616912650245148;6399.313;-11
2024-05-23T22:32:50.556;599616912657936520;6407.005;27
2024-05-23T22:32:50.563;599616912665627892;6414.696;53
2024-05-23T22:32:50.571;599616912673319264;6422.387;67
2024-05-23T22:32:50.579;599616912681010636;6430.0786;116
2024-05-23T22:32:50.586;599616912688702008;6437.77;134
2024-05-23T22:32:50.594;599616912696393380;6445.4614;134
2024-05-23T22:32:50.602;599616912704084752;6453.153;169
2024-05-23T22:32:50.609;599616912711776124;6460.844;213
2024-05-23T22:32:50.617;599616912719467496;6468.535;239
2024-05-23T22:32:50.625;599616912727158868;6476.227;257
2024-05-23T22:32:50.632;599616912734850240;6483.9185;269
2024-05-23T22:32:50.640;599616912742541612;6491.6094;278
2024-05-23T22:32:50.648;599616912750232984;6499.301;290
2024-05-23T22:32:50.655;599616912757924356;6506.992;290
2024-05-23T22:32:50.663;599616912765615728;6514.684;304
2024-05-23T22:32:50.671;599616912773307100;6522.375;325
2024-05-23T22:32:50.679;599616912780998472;6530.0664;315
2024-05-23T22:32:50.686;599616912788689844;6537.758;311
2024-05-23T22:32:50.694;599616912796381216;6545.4487;353
2024-05-23T22:32:50.702;599616912804072588;6553.1406;408
2024-05-23T22:32:50.709;599616912811763960;6560.832;420
2024-05-23T22:32:50.717;599616912819455332;6568.5234;406
2024-05-23T22:32:50.725;599616912827146704;6576.2144;418
2024-05-23T22:32:50.732;599616912834838076;6583.9062;439
2024-05-23T22:32:50.740;599616912842529448;6591.5977;425
2024-05-23T22:32:50.748;599616912850220820;6599.289;383
2024-05-23T22:32:50.755;599616912857912192;6606.98;367
2024-05-23T22:32:50.763;599616912865603564;6614.6714;336
2024-05-23T22:32:50.771;599616912873294936;6622.3633;211
2024-05-23T22:32:50.779;599616912880986308;6630.054;95
2024-05-23T22:32:50.786;599616912888677680;6637.7456;104
2024-05-23T22:32:50.794;599616912896369052;6645.437;144
2024-05-23T22:32:50.802;599616912904060424;6653.1284;153
2024-05-23T22:32:50.809;599616912911751796;6660.82;169
2024-05-23T22:32:50.817;599616912919443168;6668.511;162
2024-05-23T22:32:50.825;599616912927134540;6676.2026;125
2024-05-23T22:32:50.832;599616912934825912;6683.8936;109
2024-05-23T22:32:50.840;599616912942517284;6691.585;106
2024-05-23T22:32:50.848;599616912950208656;6699.277;83
2024-05-23T22:32:50.855;599616912957900028;6706.9683;62
2024-05-23T22:32:50.863;599616912965591400;6714.659;53
2024-05-23T22:32:50.871;599616912973282772;6722.3506;65
2024-05-23T22:32:50.879;599616912980974144;6730.0425;92
2024-05-23T22:32:50.886;599616912988665526;6737.7334;90
2024-05-23T22:32:50.894;599616912996356898;6745.425;69
2024-05-23T22:32:50.902;599616913004048270;6753.116;39
2024-05-23T22:32:50.909;599616913011739642;6760.8076;118
2024-05-23T22:32:50.917;599616913019431014;6768.499;483
2024-05-23T22:32:50.925;599616913027122386;6776.1904;899
2024-05-23T22:32:50.932;599616913034813758;6783.882;866
2024-05-23T22:32:50.940;599616913042505130;6791.5728;381
2024-05-23T22:32:50.948;599616913050196502;6799.264;-9
2024-05-23T22:32:50.955;599616913057887874;6806.956;-18
2024-05-23T22:32:50.963;599616913065579246;6814.6475;67
2024-05-23T22:32:50.971;599616913073270618;6822.3384;48
2024-05-23T22:32:50.979;599616913080961990;6830.03;41
2024-05-23T22:32:50.986;599616913088653362;6837.7217;72
2024-05-23T22:32:50.994;599616913096344734;6845.413;90
2024-05-23T22:32:51.002;599616913104036106;6853.104;104
2024-05-23T22:32:51.009;599616913111727478;6860.7954;102
2024-05-23T22:32:51.017;599616913119418850;6868.487;95
2024-05-23T22:32:51.025;599616913127110222;6876.178;120
2024-05-23T22:32:51.032;599616913134801594;6883.8696;174
2024-05-23T22:32:51.040;599616913142492966;6891.561;206
2024-05-23T22:32:51.048;599616913150184338;6899.2524;197
2024-05-23T22:32:51.055;599616913157875710;6906.9434;192
2024-05-23T22:32:51.063;599616913165567082;6914.6353;248
2024-05-23T22:32:51.071;599616913173258454;6922.3267;292
2024-05-23T22:32:51.079;599616913180949826;6930.0176;274
2024-05-23T22:32:51.086;599616913188641198;6937.709;269
2024-05-23T22:32:51.094;599616913196332570;6945.4004;290
2024-05-23T22:32:51.102;599616913204023942;6953.0923;278
2024-05-23T22:32:51.109;599616913211715314;6960.783;283
2024-05-23T22:32:51.117;599616913219406686;6968.4746;334
2024-05-23T22:32:51.125;599616913227098058;6976.166;374
2024-05-23T22:32:51.132;599616913234789430;6983.8574;383
2024-05-23T22:32:51.140;599616913242480802;6991.549;374
2024-05-23T22:32:51.148;599616913250172174;6999.24;378
2024-05-23T22:32:51.155;599616913257863546;7006.9316;411
2024-05-23T22:32:51.163;599616913265554918;7014.6226;432
2024-05-23T22:32:51.171;599616913273246290;7022.3145;427
2024-05-23T22:32:51.179;599616913280937662;7030.006;404
2024-05-23T22:32:51.186;599616913288629034;7037.6973;360
2024-05-23T22:32:51.194;599616913296320406;7045.388;332
2024-05-23T22:32:51.202;599616913304011778;7053.0796;343
2024-05-23T22:32:51.209;599616913311703150;7060.7715;362
2024-05-23T22:32:51.217;599616913319394522;7068.4624;355
2024-05-23T22:32:51.225;599616913327085894;7076.154;334
2024-05-23T22:32:51.232;599616913334777266;7083.845;313
2024-05-23T22:32:51.240;599616913342468638;7091.5366;318
2024-05-23T22:32:51.248;599616913350160010;7099.228;327
2024-05-23T22:32:51.255;599616913357851382;7106.9194;283
2024-05-23T22:32:51.263;599616913365542754;7114.611;211
2024-05-23T22:32:51.271;599616913373234126;7122.302;113
2024-05-23T22:32:51.278;599616913380925498;7129.9937;-20
2024-05-23T22:32:51.286;599616913388616870;7137.685;-69
2024-05-23T22:32:51.294;599616913396308242;7145.3765;-16
2024-05-23T22:32:51.302;599616913403999614;7153.0674;6
2024-05-23T22:32:51.309;599616913411690986;7160.759;-6
2024-05-23T22:32:51.317;599616913419382358;7168.4507;-6
2024-05-23T22:32:51.325;599616913427073730;7176.1416;-46
2024-05-23T22:32:51.332;599616913434765102;7183.833;-74
2024-05-23T22:32:51.340;599616913442456474;7191.5244;104
2024-05-23T22:32:51.348;599616913450147846;7199.216;534
2024-05-23T22:32:51.355;599616913457839218;7206.907;894
2024-05-23T22:32:51.363;599616913465530590;7214.5986;780
2024-05-23T22:32:51.371;599616913473221962;7222.29;285
2024-05-23T22:32:51.378;599616913480913334;7229.981;-4
2024-05-23T22:32:51.386;599616913488604706;7237.6724;88
2024-05-23T22:32:51.394;599616913496296078;7245.3643;144
2024-05-23T22:32:51.402;599616913503987450;7253.0557;65
2024-05-23T22:32:51.409;599616913511678822;7260.7466;65
2024-05-23T22:32:51.417;599616913519370194;7268.438;118
2024-05-23T22:32:51.425;599616913527061566;7276.13;134
2024-05-23T22:32:51.432;599616913534752938;7283.8213;146
2024-05-23T22:32:51.440;599616913542444310;7291.512;167
2024-05-23T22:32:51.448;599616913550120642;7299.189;188
2024-05-23T22:32:51.455;599616913557812223;7306.88;199
2024-05-23T22:32:51.463;599616913565503804;7314.572;202
2024-05-23T22:32:51.471;599616913573195385;7322.2637;225
2024-05-23T22:32:51.478;599616913580886966;7329.9546;255
2024-05-23T22:32:51.486;599616913588578547;7337.6465;271
2024-05-23T22:32:51.494;599616913596270128;7345.3384;271
2024-05-23T22:32:51.502;599616913603961709;7353.03;239
2024-05-23T22:32:51.509;599616913611653290;7360.721;174
2024-05-23T22:32:51.517;599616913619344871;7368.4126;123
2024-05-23T22:32:51.525;599616913627036452;7376.1045;74
2024-05-23T22:32:51.532;599616913634728033;7383.7964;48
2024-05-23T22:32:51.540;599616913642419614;7391.4873;88
2024-05-23T22:32:51.548;599616913650111195;7399.179;125
2024-05-23T22:32:51.555;599616913657802776;7406.8706;116
2024-05-23T22:32:51.563;599616913665494357;7414.5625;125
2024-05-23T22:32:51.571;599616913673185938;7422.254;171
2024-05-23T22:32:51.578;599616913680877519;7429.9453;209
2024-05-23T22:32:51.586;599616913688569100;7437.637;216
2024-05-23T22:32:51.594;599616913696260681;7445.329;195
2024-05-23T22:32:51.602;599616913703952262;7453.02;171
2024-05-23T22:32:51.609;599616913711643843;7460.712;167
2024-05-23T22:32:51.617;599616913719335424;7468.4033;167
2024-05-23T22:32:51.625;599616913727027005;7476.095;167
2024-05-23T22:32:51.632;599616913734718586;7483.7866;162
2024-05-23T22:32:51.640;599616913742410167;7491.478;144
2024-05-23T22:32:51.648;599616913750101748;7499.17;125
2024-05-23T22:32:51.655;599616913757793329;7506.8613;148
2024-05-23T22:32:51.663;599616913765484910;7514.5527;183
2024-05-23T22:32:51.671;599616913773176491;7522.2446;176
2024-05-23T22:32:51.678;599616913780868072;7529.936;132
2024-05-23T22:32:51.686;599616913788559653;7537.6274;95
2024-05-23T22:32:51.694;599616913796251234;7545.3193;74
2024-05-23T22:32:51.702;599616913803942815;7553.0107;48
2024-05-23T22:32:51.709;599616913811634396;7560.7026;34
2024-05-23T22:32:51.717;599616913819325977;7568.3936;44
2024-05-23T22:32:51.725;599616913827017558;7576.0854;44
2024-05-23T22:32:51.732;599616913834709139;7583.7773;27
2024-05-23T22:32:51.740;599616913842400720;7591.4688;4
2024-05-23T22:32:51.748;599616913850092301;7599.16;-32
2024-05-23T22:32:51.755;599616913857783882;7606.852;-104
2024-05-23T22:32:51.763;599616913865475463;7614.5435;-137
2024-05-23T22:32:51.771;599616913873167044;7622.2354;20
2024-05-23T22:32:51.778;599616913880858625;7629.9263;367
2024-05-23T22:32:51.786;599616913888550206;7637.618;659
2024-05-23T22:32:51.794;599616913896241787;7645.31;529
2024-05-23T22:32:51.802;599616913903933368;7653.001;53
2024-05-23T22:32:51.809;599616913911624949;7660.693;-188
2024-05-23T22:32:51.817;599616913919316530;7668.385;-85
2024-05-23T22:32:51.825;599616913927008111;7676.076;-72
2024-05-23T22:32:51.832;599616913934699692;7683.7676;-151
2024-05-23T22:32:51.840;599616913942391273;7691.459;-99
2024-05-23T22:32:51.848;599616913950082854;7699.151;-41
2024-05-23T22:32:51.855;599616913957774435;7706.843;-51
2024-05-23T22:32:51.863;599616913965466016;7714.5337;-18
2024-05-23T22:32:51.871;599616913973157597;7722.2256;39
2024-05-23T22:32:51.878;599616913980849178;7729.917;39
2024-05-23T22:32:51.886;599616913988540759;7737.609;37
2024-05-23T22:32:51.894;599616913996232340;7745.3003;83
2024-05-23T22:32:51.901;599616914003923921;7752.9917;127
2024-05-23T22:32:51.909;599616914011615502;7760.6836;144
2024-05-23T22:32:51.917;599616914019307083;7768.3755;155
2024-05-23T22:32:51.925;599616914026998664;7776.0664;164
2024-05-23T22:32:51.932;599616914034690245;7783.7583;181
2024-05-23T22:32:51.940;599616914042381826;7791.4497;178
2024-05-23T22:32:51.948;599616914050073407;7799.1416;164
2024-05-23T22:32:51.955;599616914057764988;7806.833;183
2024-05-23T22:32:51.963;599616914065456569;7814.5244;218
2024-05-23T22:32:51.971;599616914073148150;7822.2163;213
2024-05-23T22:32:51.978;599616914080839731;7829.908;197
2024-05-23T22:32:51.986;599616914088531312;7837.599;234
2024-05-23T22:32:51.994;599616914096222893;7845.291;260
2024-05-23T22:32:52.001;599616914103914474;7852.9824;211
2024-05-23T22:32:52.009;599616914111616144;7860.684;183
2024-05-23T22:32:52.017;599616914119307585;7868.3755;206
2024-05-23T22:32:52.025;599616914126999026;7876.067;197
2024-05-23T22:32:52.032;599616914134690467;7883.759;160
2024-05-23T22:32:52.040;599616914142381908;7891.4497;157
2024-05-23T22:32:52.048;599616914150073349;7899.141;185
2024-05-23T22:32:52.055;599616914157764790;7906.833;176
2024-05-23T22:32:52.063;599616914165456231;7914.524;104
2024-05-23T22:32:52.071;599616914173147672;7922.2153;48
2024-05-23T22:32:52.078;599616914180839113;7929.907;72
2024-05-23T22:32:52.086;599616914188530554;7937.5986;97
2024-05-23T22:32:52.094;599616914196221995;7945.29;81
2024-05-23T22:32:52.101;599616914203913436;7952.9814;60
2024-05-23T22:32:52.109;599616914211604877;7960.673;37
2024-05-23T22:32:52.117;599616914219296318;7968.3647;6
2024-05-23T22:32:52.125;599616914226987759;7976.0557;-16
2024-05-23T22:32:52.132;599616914234679200;7983.747;-9
2024-05-23T22:32:52.140;599616914242370641;7991.439;18
2024-05-23T22:32:52.148;599616914250062082;7999.13;13
2024-05-23T22:32:52.155;599616914257753523;8006.8213;-13
2024-05-23T22:32:52.163;599616914265444964;8014.513;-6
2024-05-23T22:32:52.171;599616914273136405;8022.2046;32
2024-05-23T22:32:52.178;599616914280827846;8029.8955;30
2024-05-23T22:32:52.186;599616914288519287;8037.5874;-18
2024-05-23T22:32:52.194;599616914296210728;8045.279;-11
2024-05-23T22:32:52.201;599616914303902169;8052.97;197
2024-05-23T22:32:52.209;599616914311593610;8060.6616;634
2024-05-23T22:32:52.217;599616914319285051;8068.353;966
2024-05-23T22:32:52.225;599616914326976492;8076.0444;769
2024-05-23T22:32:52.232;599616914334667933;8083.736;220
2024-05-23T22:32:52.240;599616914342359374;8091.4272;-60
2024-05-23T22:32:52.248;599616914350050815;8099.1187;-2
2024-05-23T22:32:52.255;599616914357742256;8106.8105;32
2024-05-23T22:32:52.263;599616914365433697;8114.5015;4
2024-05-23T22:32:52.271;599616914373125138;8122.193;30
2024-05-23T22:32:52.278;599616914380816579;8129.885;51
2024-05-23T22:32:52.286;599616914388508020;8137.576;-2
2024-05-23T22:32:52.294;599616914396199461;8145.2676;-76
2024-05-23T22:32:52.301;599616914403890902;8152.959;-85
2024-05-23T22:32:52.309;599616914411582343;8160.6504;-37
2024-05-23T22:32:52.317;599616914419273784;8168.342;13
2024-05-23T22:32:52.325;599616914426965225;8176.033;44
2024-05-23T22:32:52.332;599616914434656666;8183.7246;60
2024-05-23T22:32:52.340;599616914442348107;8191.4165;69
2024-05-23T22:32:52.348;599616914450039548;8199.107;90
2024-05-23T22:32:52.355;599616914457730989;8206.799;120
2024-05-23T22:32:52.363;599616914465422430;8214.49;139
2024-05-23T22:32:52.371;599616914473113871;8222.182;153
2024-05-23T22:32:52.378;599616914480805312;8229.873;167
2024-05-23T22:32:52.386;599616914488496753;8237.564;162
2024-05-23T22:32:52.394;599616914496188194;8245.256;162
2024-05-23T22:32:52.401;599616914503879635;8252.947;197
2024-05-23T22:32:52.409;599616914511571076;8260.64;260
2024-05-23T22:32:52.417;599616914519262517;8268.33;302
2024-05-23T22:32:52.425;599616914526953958;8276.021;306
2024-05-23T22:32:52.432;599616914534645399;8283.714;306
2024-05-23T22:32:52.440;599616914542336840;8291.405;327
2024-05-23T22:32:52.448;599616914550028281;8299.096;341
2024-05-23T22:32:52.455;599616914557719722;8306.788;304
2024-05-23T22:32:52.463;599616914565411163;8314.4795;278
2024-05-23T22:32:52.471;599616914573102604;8322.17;302
2024-05-23T22:32:52.478;599616914580794045;8329.862;302
2024-05-23T22:32:52.486;599616914588485486;8337.554;264
2024-05-23T22:32:52.494;599616914596176927;8345.245;241
2024-05-23T22:32:52.501;599616914603868368;8352.937;243
2024-05-23T22:32:52.509;599616914611559809;8360.628;253
2024-05-23T22:32:52.517;599616914619251250;8368.319;239
2024-05-23T22:32:52.525;599616914626942691;8376.011;206
2024-05-23T22:32:52.532;599616914634634132;8383.702;185
2024-05-23T22:32:52.540;599616914642325573;8391.394;171
2024-05-23T22:32:52.548;599616914650017014;8399.085;137
2024-05-23T22:32:52.555;599616914657708455;8406.776;111
2024-05-23T22:32:52.563;599616914665399896;8414.468;116
2024-05-23T22:32:52.571;599616914673116450;8422.185;99
2024-05-23T22:32:52.578;599616914680807543;8429.876;74
2024-05-23T22:32:52.586;599616914688498636;8437.566;92
2024-05-23T22:32:52.594;599616914696189729;8445.258;120
2024-05-23T22:32:52.601;599616914703880822;8452.949;120
2024-05-23T22:32:52.609;599616914711571915;8460.64;99
2024-05-23T22:32:52.617;599616914719263008;8468.331;48
2024-05-23T22:32:52.625;599616914726954101;8476.022;4
2024-05-23T22:32:52.632;599616914734645194;8483.713;116
2024-05-23T22:32:52.640;599616914742336287;8491.404;508
2024-05-23T22:32:52.648;599616914750027380;8499.096;945
2024-05-23T22:32:52.655;599616914757718473;8506.786;875
2024-05-23T22:32:52.663;599616914765409566;8514.478;288
2024-05-23T22:32:52.671;599616914773100659;8522.169;-74
2024-05-23T22:32:52.678;599616914780791752;8529.859;44
2024-05-23T22:32:52.686;599616914788482845;8537.551;113
2024-05-23T22:32:52.694;599616914796173938;8545.242;16
2024-05-23T22:32:52.701;599616914803865031;8552.933;37
2024-05-23T22:32:52.709;599616914811556124;8560.624;106
2024-05-23T22:32:52.717;599616914819247217;8568.315;99
2024-05-23T22:32:52.725;599616914826938310;8576.006;95
2024-05-23T22:32:52.732;599616914834629403;8583.697;104
2024-05-23T22:32:52.740;599616914842320496;8591.389;99
2024-05-23T22:32:52.748;599616914850011589;8599.08;102
2024-05-23T22:32:52.755;599616914857702682;8606.7705;109
2024-05-23T22:32:52.763;599616914865393775;8614.462;123
2024-05-23T22:32:52.771;599616914873084868;8622.152;169
2024-05-23T22:32:52.778;599616914880775961;8629.844;206
2024-05-23T22:32:52.786;599616914888467054;8637.535;197
2024-05-23T22:32:52.794;599616914896158147;8645.227;146
2024-05-23T22:32:52.801;599616914903849240;8652.917;78
2024-05-23T22:32:52.809;599616914911540333;8660.608;55
2024-05-23T22:32:52.817;599616914919231426;8668.299;72
2024-05-23T22:32:52.824;599616914926922519;8675.99;97
2024-05-23T22:32:52.832;599616914934613612;8683.682;132
2024-05-23T22:32:52.840;599616914942304705;8691.373;155
2024-05-23T22:32:52.848;599616914949995798;8699.063;160
2024-05-23T22:32:52.855;599616914957686891;8706.755;188
2024-05-23T22:32:52.863;599616914965377984;8714.446;227
2024-05-23T22:32:52.871;599616914973069077;8722.137;241
2024-05-23T22:32:52.878;599616914980760170;8729.828;223
2024-05-23T22:32:52.886;599616914988451263;8737.52;192
2024-05-23T22:32:52.894;599616914996142356;8745.21;183
2024-05-23T22:32:52.901;599616915003833449;8752.901;188
2024-05-23T22:32:52.909;599616915011524542;8760.593;190
2024-05-23T22:32:52.917;599616915019215635;8768.283;206
2024-05-23T22:32:52.924;599616915026906728;8775.975;227
2024-05-23T22:32:52.932;599616915034597821;8783.666;216
2024-05-23T22:32:52.940;599616915042288914;8791.356;183
2024-05-23T22:32:52.948;599616915049980007;8799.048;171
2024-05-23T22:32:52.955;599616915057671100;8806.739;155
2024-05-23T22:32:52.963;599616915065362193;8814.431;113
2024-05-23T22:32:52.971;599616915073053286;8822.121;81
2024-05-23T22:32:52.978;599616915080744379;8829.8125;30
2024-05-23T22:32:52.986;599616915088435472;8837.503;-41
2024-05-23T22:32:52.994;599616915096126565;8845.194;-65
2024-05-23T22:32:53.001;599616915103817658;8852.886;-41
2024-05-23T22:32:53.009;599616915111508751;8860.577;-25
2024-05-23T22:32:53.017;599616915119199844;8868.268;-16
2024-05-23T22:32:53.024;599616915126890937;8875.959;-13
2024-05-23T22:32:53.032;599616915134582030;8883.649;-18
2024-05-23T22:32:53.040;599616915142273123;8891.341;-9
2024-05-23T22:32:53.048;599616915149964216;8899.032;-18
2024-05-23T22:32:53.055;599616915157655309;8906.724;-67
2024-05-23T22:32:53.063;599616915165346402;8914.415;13
2024-05-23T22:32:53.071;599616915173037495;8922.105;411
2024-05-23T22:32:53.078;599616915180728588;8929.796;906
2024-05-23T22:32:53.086;599616915188419681;8937.487;992
2024-05-23T22:32:53.094;599616915196110774;8945.179;539
2024-05-23T22:32:53.101;599616915203801867;8952.87;83
2024-05-23T22:32:53.109;599616915211492960;8960.562;46
2024-05-23T22:32:53.117;599616915219184053;8968.252;125
2024-05-23T22:32:53.124;599616915226875146;8975.942;60
2024-05-23T22:32:53.132;599616915234516086;8983.584;46
2024-05-23T22:32:53.140;599616915242207876;8991.276;111
2024-05-23T22:32:53.147;599616915249899666;8998.968;113
2024-05-23T22:32:53.155;599616915257591456;9006.659;116
2024-05-23T22:32:53.163;599616915265283246;9014.351;153
2024-05-23T22:32:53.171;599616915272975036;9022.043;118
2024-05-23T22:32:53.178;599616915280666826;9029.734;53
2024-05-23T22:32:53.186;599616915288358616;9037.427;83
2024-05-23T22:32:53.194;599616915296050406;9045.118;148
2024-05-23T22:32:53.201;599616915303742196;9052.811;157
2024-05-23T22:32:53.209;599616915311433986;9060.502;160
2024-05-23T22:32:53.217;599616915319125776;9068.193;178
2024-05-23T22:32:53.224;599616915326817566;9075.885;164
2024-05-23T22:32:53.232;599616915334509356;9083.577;113
2024-05-23T22:32:53.240;599616915342201146;9091.27;102
2024-05-23T22:32:53.247;599616915349892936;9098.961;137
2024-05-23T22:32:53.255;599616915357584726;9106.653;151
2024-05-23T22:32:53.263;599616915365276516;9114.345;125
2024-05-23T22:32:53.271;599616915372968306;9122.037;134
2024-05-23T22:32:53.278;599616915380660096;9129.728;190
2024-05-23T22:32:53.286;599616915388351886;9137.42;225
2024-05-23T22:32:53.294;599616915396043676;9145.111;227
2024-05-23T22:32:53.301;599616915403735466;9152.804;181
2024-05-23T22:32:53.309;599616915411427256;9160.495;88
2024-05-23T22:32:53.317;599616915419119046;9168.1875;46
2024-05-23T22:32:53.324;599616915426810836;9175.879;81
2024-05-23T22:32:53.332;599616915434502626;9183.571;104
2024-05-23T22:32:53.340;599616915442194416;9191.263;120
2024-05-23T22:32:53.347;599616915449886206;9198.954;137
2024-05-23T22:32:53.355;599616915457577996;9206.6455;123
2024-05-23T22:32:53.363;599616915465269786;9214.338;120
2024-05-23T22:32:53.371;599616915472961576;9222.029;155
2024-05-23T22:32:53.378;599616915480653366;9229.722;148
2024-05-23T22:32:53.386;599616915488345156;9237.413;92
2024-05-23T22:32:53.394;599616915496036946;9245.105;65
2024-05-23T22:32:53.401;599616915503728736;9252.797;51
2024-05-23T22:32:53.409;599616915511420526;9260.488;13
2024-05-23T22:32:53.417;599616915519112316;9268.18;4
2024-05-23T22:32:53.424;599616915526804106;9275.872;41
2024-05-23T22:32:53.432;599616915534495896;9283.563;67
2024-05-23T22:32:53.440;599616915542187686;9291.256;51
2024-05-23T22:32:53.447;599616915549879476;9298.947;23
2024-05-23T22:32:53.455;599616915557571266;9306.64;34
2024-05-23T22:32:53.463;599616915565263056;9314.331;67
2024-05-23T22:32:53.471;599616915572954846;9322.022;62
2024-05-23T22:32:53.478;599616915580646636;9329.714;20
2024-05-23T22:32:53.486;599616915588338426;9337.406;-27
2024-05-23T22:32:53.494;599616915596030216;9345.098;-48
2024-05-23T22:32:53.501;599616915603722006;9352.79;111
2024-05-23T22:32:53.509;599616915611413796;9360.482;559
2024-05-23T22:32:53.517;599616915619105586;9368.174;1006
2024-05-23T22:32:53.524;599616915626797376;9375.866;938
2024-05-23T22:32:53.532;599616915634489166;9383.557;388
2024-05-23T22:32:53.540;599616915642180956;9391.249;11
2024-05-23T22:32:53.547;599616915649872746;9398.94;69
2024-05-23T22:32:53.555;599616915657564536;9406.633;139
2024-05-23T22:32:53.563;599616915665256326;9414.324;67
2024-05-23T22:32:53.571;599616915672948116;9422.017;74
2024-05-23T22:32:53.578;599616915680639906;9429.708;137
2024-05-23T22:32:53.586;599616915688331696;9437.4;123
2024-05-23T22:32:53.594;599616915696023486;9445.092;106
2024-05-23T22:32:53.601;599616915703715276;9452.783;148
2024-05-23T22:32:53.609;599616915711407066;9460.475;199
2024-05-23T22:32:53.617;599616915719098856;9468.167;227
2024-05-23T22:32:53.624;599616915726790646;9475.858;234
2024-05-23T22:32:53.632;599616915734482436;9483.551;232
2024-05-23T22:32:53.640;599616915742174226;9491.242;255
2024-05-23T22:32:53.647;599616915749866016;9498.935;290
2024-05-23T22:32:53.655;599616915757557806;9506.626;295
2024-05-23T22:32:53.663;599616915765249596;9514.317;295
2024-05-23T22:32:53.671;599616915772941386;9522.009;309
2024-05-23T22:32:53.678;599616915780633176;9529.701;295
2024-05-23T22:32:53.686;599616915788324966;9537.393;267
2024-05-23T22:32:53.694;599616915796046864;9545.114;278
2024-05-23T22:32:53.701;599616915803738236;9552.806;309
2024-05-23T22:32:53.709;599616915811429608;9560.497;332
2024-05-23T22:32:53.717;599616915819120980;9568.189;329
2024-05-23T22:32:53.724;599616915826812352;9575.881;269
2024-05-23T22:32:53.732;599616915834503724;9583.572;204
2024-05-23T22:32:53.740;599616915842195096;9591.264;169
2024-05-23T22:32:53.747;599616915849886468;9598.954;118
2024-05-23T22:32:53.755;599616915857577840;9606.6455;104
2024-05-23T22:32:53.763;599616915865269212;9614.337;139
2024-05-23T22:32:53.771;599616915872960584;9622.028;123
2024-05-23T22:32:53.778;599616915880651956;9629.72;95
2024-05-23T22:32:53.786;599616915888343328;9637.411;123
2024-05-23T22:32:53.794;599616915896034700;9645.104;157
2024-05-23T22:32:53.801;599616915903726072;9652.794;118
2024-05-23T22:32:53.809;599616915911417444;9660.485;0
2024-05-23T22:32:53.817;599616915919108816;9668.177;-95
2024-05-23T22:32:53.824;599616915926800188;9675.868;-116
2024-05-23T22:32:53.832;599616915934491560;9683.56;-134
2024-05-23T22:32:53.840;599616915942182932;9691.251;-151
2024-05-23T22:32:53.847;599616915949874304;9698.942;-116
2024-05-23T22:32:53.855;599616915957565676;9706.633;-88
2024-05-23T22:32:53.863;599616915965257048;9714.325;-97
2024-05-23T22:32:53.871;599616915972948420;9722.017;-85
2024-05-23T22:32:53.878;599616915980639792;9729.708;-51
2024-05-23T22:32:53.886;599616915988331164;9737.399;-34
2024-05-23T22:32:53.894;599616915996022536;9745.091;-34
2024-05-23T22:32:53.901;599616916003713908;9752.782;-27
2024-05-23T22:32:53.909;599616916011405280;9760.473;-9
2024-05-23T22:32:53.917;599616916019096652;9768.164;2
2024-05-23T22:32:53.924;599616916026788024;9775.855;-20
2024-05-23T22:32:53.932;599616916034479396;9783.548;-65
2024-05-23T22:32:53.940;599616916042170768;9791.239;6
2024-05-23T22:32:53.947;599616916049862140;9798.931;348
2024-05-23T22:32:53.955;599616916057553512;9806.622;813
2024-05-23T22:32:53.963;599616916065244884;9814.3125;945
2024-05-23T22:32:53.971;599616916072936256;9822.004;518
2024-05-23T22:32:53.978;599616916080627628;9829.695;2
2024-05-23T22:32:53.986;599616916088319000;9837.387;-78
2024-05-23T22:32:53.994;599616916096010372;9845.078;23
2024-05-23T22:32:54.001;599616916103701744;9852.77;-16
2024-05-23T22:32:54.009;599616916111393116;9860.462;-48
2024-05-23T22:32:54.017;599616916119084488;9868.152;-2
2024-05-23T22:32:54.024;599616916126775860;9875.844;30
2024-05-23T22:32:54.032;599616916134467232;9883.535;58
2024-05-23T22:32:54.040;599616916142158604;9891.227;78
2024-05-23T22:32:54.047;599616916149849976;9898.918;76
2024-05-23T22:32:54.055;599616916157541348;9906.609;102
2024-05-23T22:32:54.063;599616916165232720;9914.301;157
2024-05-23T22:32:54.070;599616916172924092;9921.991;185
2024-05-23T22:32:54.078;599616916180615464;9929.684;195
2024-05-23T22:32:54.086;599616916188306836;9937.375;220
2024-05-23T22:32:54.094;599616916195998208;9945.066;236
2024-05-23T22:32:54.101;599616916203689580;9952.758;230
2024-05-23T22:32:54.109;599616916211380952;9960.449;230
2024-05-23T22:32:54.117;599616916219072324;9968.141;246
2024-05-23T22:32:54.124;599616916226763696;9975.832;260
2024-05-23T22:32:54.132;599616916234455068;9983.522;248
2024-05-23T22:32:54.140;599616916242146440;9991.214;227
2024-05-23T22:32:54.147;599616916249837812;9998.905;227
2024-05-23T22:32:54.155;599616916257529184;10006.598;225
2024-05-23T22:32:54.163;599616916265220556;10014.289;209
2024-05-23T22:32:54.170;599616916272911928;10021.98;216
2024-05-23T22:32:54.178;599616916280603300;10029.672;239
2024-05-23T22:32:54.186;599616916288294672;10037.362;234
2024-05-23T22:32:54.194;599616916295986044;10045.054;218
2024-05-23T22:32:54.201;599616916303677416;10052.745;232
2024-05-23T22:32:54.209;599616916311368788;10060.437;234
2024-05-23T22:32:54.217;599616916319060160;10068.128;183
2024-05-23T22:32:54.224;599616916326751532;10075.82;113
2024-05-23T22:32:54.232;599616916334442904;10083.512;67
2024-05-23T22:32:54.240;599616916342134276;10091.202;51
2024-05-23T22:32:54.247;599616916349825648;10098.894;23
2024-05-23T22:32:54.255;599616916357517028;10106.585;-13
2024-05-23T22:32:54.263;599616916365208400;10114.276;-18
2024-05-23T22:32:54.270;599616916372899772;10121.968;-13
2024-05-23T22:32:54.278;599616916380591144;10129.659;-62
2024-05-23T22:32:54.286;599616916388282516;10137.351;-134
2024-05-23T22:32:54.294;599616916395973888;10145.041;-137
2024-05-23T22:32:54.301;599616916403665260;10152.733;-123
2024-05-23T22:32:54.309;599616916411356632;10160.425;-192
2024-05-23T22:32:54.317;599616916419048004;10168.116;-255
2024-05-23T22:32:54.324;599616916426739376;10175.808;-227
2024-05-23T22:32:54.332;599616916434430748;10183.499;-195
2024-05-23T22:32:54.340;599616916442122120;10191.19;-183
2024-05-23T22:32:54.347;599616916449813492;10198.881;-153
2024-05-23T22:32:54.355;599616916457504864;10206.572;-106
2024-05-23T22:32:54.363;599616916465196236;10214.264;-88
2024-05-23T22:32:54.370;599616916472887608;10221.956;-123
2024-05-23T22:32:54.378;599616916480578980;10229.647;-167
2024-05-23T22:32:54.386;599616916488270352;10237.339;-72
2024-05-23T22:32:54.394;599616916495961724;10245.03;297
2024-05-23T22:32:54.401;599616916503653096;10252.721;782
2024-05-23T22:32:54.409;599616916511344468;10260.412;913
2024-05-23T22:32:54.417;599616916519035840;10268.104;497
2024-05-23T22:32:54.424;599616916526727212;10275.795;32
2024-05-23T22:32:54.432;599616916534418584;10283.486;-18
2024-05-23T22:32:54.440;599616916542109956;10291.178;83
2024-05-23T22:32:54.447;599616916549801328;10298.87;53
2024-05-23T22:32:54.455;599616916557492700;10306.561;9
2024-05-23T22:32:54.463;599616916565184072;10314.252;-6
2024-05-23T22:32:54.470;599616916572875444;10321.943;-25
2024-05-23T22:32:54.478;599616916580566816;10329.635;6
2024-05-23T22:32:54.486;599616916588258188;10337.326;60
2024-05-23T22:32:54.494;599616916595949560;10345.018;76
2024-05-23T22:32:54.501;599616916603640932;10352.709;85
2024-05-23T22:32:54.509;599616916611332304;10360.399;116
2024-05-23T22:32:54.517;599616916619023676;10368.092;146
2024-05-23T22:32:54.524;599616916626715048;10375.783;160
2024-05-23T22:32:54.532;599616916634406420;10383.475;176
2024-05-23T22:32:54.540;599616916642097792;10391.166;211
2024-05-23T22:32:54.547;599616916649789164;10398.857;236
2024-05-23T22:32:54.555;599616916657480536;10406.549;225
2024-05-23T22:32:54.563;599616916665171908;10414.239;206
2024-05-23T22:32:54.570;599616916672863280;10421.931;216
2024-05-23T22:32:54.578;599616916680554652;10429.622;206
2024-05-23T22:32:54.586;599616916688246024;10437.313;167
2024-05-23T22:32:54.594;599616916695937396;10445.006;160
2024-05-23T22:32:54.601;599616916703628768;10452.697;178
2024-05-23T22:32:54.609;599616916711320140;10460.389;190
2024-05-23T22:32:54.617;599616916719011512;10468.08;197
2024-05-23T22:32:54.624;599616916726702884;10475.7705;209
2024-05-23T22:32:54.632;599616916734394256;10483.462;227
2024-05-23T22:32:54.640;599616916742085628;10491.153;230
2024-05-23T22:32:54.647;599616916749777000;10498.845;197
2024-05-23T22:32:54.655;599616916757468372;10506.536;155
2024-05-23T22:32:54.663;599616916765159744;10514.229;144
2024-05-23T22:32:54.670;599616916772851116;10521.92;125
2024-05-23T22:32:54.678;599616916780542488;10529.61;76
2024-05-23T22:32:54.686;599616916788233860;10537.302;46
2024-05-23T22:32:54.693;599616916795925232;10544.993;48
2024-05-23T22:32:54.701;599616916803616604;10552.685;20
2024-05-23T22:32:54.709;599616916811307976;10560.376;-23
2024-05-23T22:32:54.717;599616916818999348;10568.067;-32
2024-05-23T22:32:54.724;599616916826690720;10575.759;-9
2024-05-23T22:32:54.732;599616916834382092;10583.449;-2
2024-05-23T22:32:54.740;599616916842073464;10591.142;-11
2024-05-23T22:32:54.747;599616916849764836;10598.833;-2
2024-05-23T22:32:54.755;599616916857456208;10606.524;32
2024-05-23T22:32:54.763;599616916865147580;10614.216;58
2024-05-23T22:32:54.770;599616916872838952;10621.907;65
2024-05-23T22:32:54.778;599616916880530324;10629.599;76
2024-05-23T22:32:54.786;599616916888221696;10637.289;74
2024-05-23T22:32:54.793;599616916895913068;10644.98;69
2024-05-23T22:32:54.801;599616916903604440;10652.672;81
2024-05-23T22:32:54.809;599616916911295812;10660.364;41
2024-05-23T22:32:54.817;599616916918987192;10668.056;-58
2024-05-23T22:32:54.824;599616916926678564;10675.747;-120
2024-05-23T22:32:54.832;599616916934369936;10683.438;-51
2024-05-23T22:32:54.840;599616916942061308;10691.129;278
2024-05-23T22:32:54.847;599616916949752680;10698.82;792
2024-05-23T22:32:54.855;599616916957444052;10706.512;961
2024-05-23T22:32:54.863;599616916965135424;10714.203;522
2024-05-23T22:32:54.870;599616916972826796;10721.895;32
2024-05-23T22:32:54.878;599616916980518168;10729.586;-44
2024-05-23T22:32:54.886;599616916988209540;10737.278;-11
2024-05-23T22:32:54.893;599616916995900912;10744.969;-81
2024-05-23T22:32:54.901;599616917003592284;10752.66;-65
2024-05-23T22:32:54.909;599616917011283656;10760.352;0
2024-05-23T22:32:54.917;599616917018975028;10768.043;-18
2024-05-23T22:32:54.924;599616917026666400;10775.734;-25
2024-05-23T22:32:54.932;599616917034357772;10783.426;27
2024-05-23T22:32:54.940;599616917042049144;10791.117;65
2024-05-23T22:32:54.947;599616917049740516;10798.808;65
2024-05-23T22:32:54.955;599616917057431888;10806.5;55
2024-05-23T22:32:54.963;599616917065123260;10814.191;62
2024-05-23T22:32:54.970;599616917072814632;10821.883;74
2024-05-23T22:32:54.978;599616917080506004;10829.574;72
2024-05-23T22:32:54.986;599616917088197376;10837.266;95
2024-05-23T22:32:54.993;599616917095888748;10844.957;137
2024-05-23T22:32:55.001;599616917103580120;10852.647;132
2024-05-23T22:32:55.009;599616917111271492;10860.339;83
2024-05-23T22:32:55.017;599616917118962864;10868.03;44
2024-05-23T22:32:55.024;599616917126654236;10875.722;48
2024-05-23T22:32:55.032;599616917134345608;10883.414;60
2024-05-23T22:32:55.040;599616917142036980;10891.105;67
2024-05-23T22:32:55.047;599616917149728352;10898.797;102
2024-05-23T22:32:55.055;599616917157419724;10906.488;130
2024-05-23T22:32:55.063;599616917165111096;10914.179;113
2024-05-23T22:32:55.070;599616917172802468;10921.87;106
2024-05-23T22:32:55.078;599616917180493840;10929.562;125
2024-05-23T22:32:55.086;599616917188185212;10937.253;109
2024-05-23T22:32:55.093;599616917195876584;10944.944;58
2024-05-23T22:32:55.101;599616917203567956;10952.637;20
2024-05-23T22:32:55.109;599616917211259328;10960.328;-11
2024-05-23T22:32:55.117;599616917218950700;10968.019;-27
2024-05-23T22:32:55.124;599616917226642072;10975.71;-25
2024-05-23T22:32:55.132;599616917234333444;10983.401;-20
2024-05-23T22:32:55.140;599616917242024816;10991.093;-2
2024-05-23T22:32:55.147;599616917249716188;10998.784;2
2024-05-23T22:32:55.155;599616917257407560;11006.476;-27
2024-05-23T22:32:55.163;599616917265098932;11014.167;-39
2024-05-23T22:32:55.170;599616917272790304;11021.857;-2
2024-05-23T22:32:55.178;599616917280481676;11029.55;25
2024-05-23T22:32:55.186;599616917288173048;11037.241;25
2024-05-23T22:32:55.193;599616917295864420;11044.933;6
2024-05-23T22:32:55.201;599616917303555792;11052.624;-30
2024-05-23T22:32:55.209;599616917311247164;11060.315;-41
2024-05-23T22:32:55.217;599616917318938536;11068.007;-16
2024-05-23T22:32:55.224;599616917326629908;11075.697;9
2024-05-23T22:32:55.232;599616917334321280;11083.389;34
2024-05-23T22:32:55.240;599616917342012652;11091.08;53
2024-05-23T22:32:55.247;599616917349704024;11098.772;51
2024-05-23T22:32:55.255;599616917357395396;11106.464;53
2024-05-23T22:32:55.263;599616917365086768;11114.155;58
2024-05-23T22:32:55.270;599616917372778140;11121.847;30
2024-05-23T22:32:55.278;599616917380469512;11129.537;102
2024-05-23T22:32:55.286;599616917388160884;11137.229;471
2024-05-23T22:32:55.293;599616917395852256;11144.92;982
2024-05-23T22:32:55.301;599616917403543628;11152.611;1105
2024-05-23T22:32:55.309;599616917411235000;11160.303;578
2024-05-23T22:32:55.316;599616917418926372;11167.994;-23
2024-05-23T22:32:55.324;599616917426617744;11175.687;-85
2024-05-23T22:32:55.332;599616917434309116;11183.377;44
2024-05-23T22:32:55.340;599616917442000488;11191.068;-30
2024-05-23T22:32:55.347;599616917449691860;11198.76;-60
2024-05-23T22:32:55.355;599616917457383232;11206.451;32
2024-05-23T22:32:55.363;599616917465074604;11214.143;51
2024-05-23T22:32:55.370;599616917472765976;11221.834;44
2024-05-23T22:32:55.378;599616917480457356;11229.525;92
2024-05-23T22:32:55.386;599616917488148728;11237.216;118
2024-05-23T22:32:55.393;599616917495840100;11244.908;109
2024-05-23T22:32:55.401;599616917503531472;11252.6;132
2024-05-23T22:32:55.409;599616917511222844;11260.291;181
2024-05-23T22:32:55.416;599616917518914216;11267.982;211
2024-05-23T22:32:55.424;599616917526605588;11275.674;211
2024-05-23T22:32:55.432;599616917534296960;11283.365;190
2024-05-23T22:32:55.440;599616917541988332;11291.056;139
2024-05-23T22:32:55.447;599616917549679704;11298.747;48
2024-05-23T22:32:55.455;599616917557371076;11306.438;-44
2024-05-23T22:32:55.463;599616917565062448;11314.131;-72
2024-05-23T22:32:55.470;599616917572753820;11321.822;-46
2024-05-23T22:32:55.478;599616917580445192;11329.514;-48
2024-05-23T22:32:55.486;599616917588136564;11337.205;-55
2024-05-23T22:32:55.493;599616917595827936;11344.896;-9
2024-05-23T22:32:55.501;599616917603519308;11352.587;41
2024-05-23T22:32:55.509;599616917611210680;11360.278;41
2024-05-23T22:32:55.516;599616917618902052;11367.97;6
2024-05-23T22:32:55.524;599616917626593424;11375.661;-20
2024-05-23T22:32:55.532;599616917634284796;11383.353;-30
2024-05-23T22:32:55.540;599616917641976168;11391.045;-55
2024-05-23T22:32:55.547;599616917649667540;11398.736;-74
2024-05-23T22:32:55.555;599616917657358912;11406.427;-48
2024-05-23T22:32:55.563;599616917665050284;11414.118;-30
2024-05-23T22:32:55.570;599616917672741656;11421.81;-55
2024-05-23T22:32:55.578;599616917680433028;11429.501;-69
2024-05-23T22:32:55.586;599616917688124400;11437.192;-37
2024-05-23T22:32:55.593;599616917695815772;11444.884;-6
2024-05-23T22:32:55.601;599616917703507144;11452.575;-4
2024-05-23T22:32:55.609;599616917711198516;11460.267;-2
2024-05-23T22:32:55.616;599616917718889888;11467.958;6
2024-05-23T22:32:55.624;599616917726581260;11475.649;16
2024-05-23T22:32:55.632;599616917734272632;11483.341;34
2024-05-23T22:32:55.640;599616917741964004;11491.032;60
2024-05-23T22:32:55.647;599616917749655376;11498.724;92
2024-05-23T22:32:55.655;599616917757346748;11506.415;118
2024-05-23T22:32:55.663;599616917765038120;11514.105;111
2024-05-23T22:32:55.670;599616917772729492;11521.797;106
2024-05-23T22:32:55.678;599616917780420864;11529.488;139
2024-05-23T22:32:55.686;599616917788112236;11537.181;155
2024-05-23T22:32:55.693;599616917795803608;11544.872;130
2024-05-23T22:32:55.701;599616917803494980;11552.563;116
2024-05-23T22:32:55.709;599616917811186352;11560.255;118
2024-05-23T22:32:55.716;599616917818877724;11567.945;83
2024-05-23T22:32:55.724;599616917826569096;11575.637;102
2024-05-23T22:32:55.732;599616917834260468;11583.328;385
2024-05-23T22:32:55.740;599616917841951840;11591.02;913
2024-05-23T22:32:55.747;599616917849643212;11598.711;1212
2024-05-23T22:32:55.755;599616917857334584;11606.403;873
2024-05-23T22:32:55.763;599616917865025956;11614.095;276
2024-05-23T22:32:55.770;599616917872717328;11621.785;120
2024-05-23T22:32:55.778;599616917880408700;11629.477;255
2024-05-23T22:32:55.786;599616917888100072;11637.168;220
2024-05-23T22:32:55.793;599616917895791444;11644.859;155
2024-05-23T22:32:55.801;599616917903482816;11652.551;211
2024-05-23T22:32:55.809;599616917911174188;11660.242;227
2024-05-23T22:32:55.816;599616917918865560;11667.934;162
2024-05-23T22:32:55.824;599616917926556932;11675.624;116
2024-05-23T22:32:55.832;599616917934248304;11683.316;144
2024-05-23T22:32:55.840;599616917941939676;11691.008;176
2024-05-23T22:32:55.847;599616917949631048;11698.699;167
2024-05-23T22:32:55.855;599616917957322420;11706.391;178
2024-05-23T22:32:55.863;599616917965013792;11714.082;211
2024-05-23T22:32:55.870;599616917972705164;11721.773;202
2024-05-23T22:32:55.878;599616917980396536;11729.464;171
2024-05-23T22:32:55.886;599616917988087908;11737.155;176
2024-05-23T22:32:55.893;599616917995779280;11744.847;178
2024-05-23T22:32:55.901;599616918003470652;11752.539;160
2024-05-23T22:32:55.909;599616918011162024;11760.23;153
2024-05-23T22:32:55.916;599616918018853396;11767.922;169
2024-05-23T22:32:55.924;599616918026544768;11775.613;183
2024-05-23T22:32:55.932;599616918034236140;11783.304;176
2024-05-23T22:32:55.939;599616918041902464;11790.971;123
2024-05-23T22:32:55.947;599616918049594184;11798.662;67
2024-05-23T22:32:55.955;599616918057285904;11806.354;65
2024-05-23T22:32:55.963;599616918064977624;11814.046;48
2024-05-23T22:32:55.970;599616918072669344;11821.737;4
2024-05-23T22:32:55.978;599616918080361064;11829.43;0
2024-05-23T22:32:55.986;599616918088052784;11837.12;-13
2024-05-23T22:32:55.993;599616918095744504;11844.8125;-97
2024-05-23T22:32:56.001;599616918103436224;11852.504;-146
2024-05-23T22:32:56.009;599616918111127944;11860.196;-99
2024-05-23T22:32:56.016;599616918118819664;11867.888;-65
2024-05-23T22:32:56.024;599616918126511384;11875.579;-95
2024-05-23T22:32:56.032;599616918134203104;11883.271;-106
2024-05-23T22:32:56.039;599616918141894824;11890.963;-69
2024-05-23T22:32:56.047;599616918149586544;11898.654;-44
2024-05-23T22:32:56.055;599616918157278264;11906.346;-41
2024-05-23T22:32:56.063;599616918164969984;11914.038;-23
2024-05-23T22:32:56.070;599616918172661704;11921.7295;6
2024-05-23T22:32:56.078;599616918180353424;11929.422;9
2024-05-23T22:32:56.086;599616918188045144;11937.113;9
2024-05-23T22:32:56.093;599616918195736864;11944.805;32
2024-05-23T22:32:56.101;599616918203428584;11952.497;83
2024-05-23T22:32:56.109;599616918211120304;11960.1875;125
2024-05-23T22:32:56.116;599616918218812024;11967.88;130
2024-05-23T22:32:56.124;599616918226503744;11975.571;125
2024-05-23T22:32:56.132;599616918234195464;11983.264;155
2024-05-23T22:32:56.139;599616918241887184;11990.955;178
2024-05-23T22:32:56.147;599616918249578904;11998.647;176
2024-05-23T22:32:56.155;599616918257270624;12006.339;199
2024-05-23T22:32:56.163;599616918264962344;12014.031;199
2024-05-23T22:32:56.170;599616918272654064;12021.722;130
2024-05-23T22:32:56.178;599616918280345784;12029.413;176
2024-05-23T22:32:56.186;599616918288037504;12037.105;532
2024-05-23T22:32:56.193;599616918295729224;12044.797;1015
2024-05-23T22:32:56.201;599616918303420944;12052.489;1129
2024-05-23T22:32:56.209;599616918311112664;12060.181;650
2024-05-23T22:32:56.216;599616918318804384;12067.873;130
2024-05-23T22:32:56.224;599616918326496104;12075.564;99
2024-05-23T22:32:56.232;599616918334187824;12083.256;216
2024-05-23T22:32:56.239;599616918341879544;12090.947;148
2024-05-23T22:32:56.247;599616918349571264;12098.639;120
2024-05-23T22:32:56.255;599616918357262984;12106.331;188
2024-05-23T22:32:56.263;599616918364954704;12114.022;190
2024-05-23T22:32:56.270;599616918372646424;12121.715;171
2024-05-23T22:32:56.278;599616918380338144;12129.406;213
2024-05-23T22:32:56.286;599616918388029864;12137.099;250
2024-05-23T22:32:56.293;599616918395721584;12144.789;248
2024-05-23T22:32:56.301;599616918403413304;12152.481;220
2024-05-23T22:32:56.309;599616918411105024;12160.173;190
2024-05-23T22:32:56.316;599616918418796744;12167.864;160
2024-05-23T22:32:56.324;599616918426488464;12175.557;102
2024-05-23T22:32:56.332;599616918434180184;12183.248;74
2024-05-23T22:32:56.339;599616918441871904;12190.94;118
2024-05-23T22:32:56.347;599616918449563624;12198.632;127
2024-05-23T22:32:56.355;599616918457255344;12206.323;81
2024-05-23T22:32:56.363;599616918464947064;12214.015;74
2024-05-23T22:32:56.370;599616918472638784;12221.707;111
2024-05-23T22:32:56.378;599616918480330504;12229.398;81
2024-05-23T22:32:56.386;599616918488022224;12237.09;16
2024-05-23T22:32:56.393;599616918495713944;12244.782;4
2024-05-23T22:32:56.401;599616918503405664;12252.474;2
2024-05-23T22:32:56.409;599616918511097384;12260.166;-20
2024-05-23T22:32:56.416;599616918518789104;12267.856;-25
2024-05-23T22:32:56.424;599616918526480824;12275.549;-25
2024-05-23T22:32:56.432;599616918534172544;12283.24;-51
2024-05-23T22:32:56.439;599616918541864264;12290.933;-81
2024-05-23T22:32:56.447;599616918549555984;12298.624;-95
2024-05-23T22:32:56.455;599616918557247704;12306.315;-83
2024-05-23T22:32:56.463;599616918564939424;12314.008;-51
2024-05-23T22:32:56.470;599616918572631144;12321.699;-25
2024-05-23T22:32:56.478;599616918580322864;12329.391;-16
2024-05-23T22:32:56.486;599616918588014584;12337.082;-11
2024-05-23T22:32:56.493;599616918595706304;12344.774;-9
2024-05-23T22:32:56.501;599616918603418146;12352.486;-9
2024-05-23T22:32:56.509;599616918611109587;12360.178;4
2024-05-23T22:32:56.516;599616918618801028;12367.869;37
2024-05-23T22:32:56.524;599616918626492469;12375.561;55
2024-05-23T22:32:56.532;599616918634183910;12383.251;51
2024-05-23T22:32:56.539;599616918641875351;12390.943;60
2024-05-23T22:32:56.547;599616918649566792;12398.635;92
2024-05-23T22:32:56.555;599616918657258233;12406.326;104
2024-05-23T22:32:56.563;599616918664949674;12414.018;72
2024-05-23T22:32:56.570;599616918672641115;12421.709;37
2024-05-23T22:32:56.578;599616918680332556;12429.4;67
2024-05-23T22:32:56.586;599616918688023997;12437.093;92
2024-05-23T22:32:56.593;599616918695715438;12444.783;76
2024-05-23T22:32:56.601;599616918703406879;12452.475;99
2024-05-23T22:32:56.609;599616918711098320;12460.166;144
2024-05-23T22:32:56.616;599616918718789761;12467.857;134
2024-05-23T22:32:56.624;599616918726481202;12475.55;83
2024-05-23T22:32:56.632;599616918734172643;12483.241;162
2024-05-23T22:32:56.639;599616918741864084;12490.933;548
2024-05-23T22:32:56.647;599616918749555525;12498.623;1038
2024-05-23T22:32:56.655;599616918757246966;12506.314;1131
2024-05-23T22:32:56.663;599616918764938407;12514.006;678
2024-05-23T22:32:56.670;599616918772629848;12521.698;190
2024-05-23T22:32:56.678;599616918780321289;12529.39;88
2024-05-23T22:32:56.686;599616918788012730;12537.081;118
2024-05-23T22:32:56.693;599616918795704171;12544.772;74
2024-05-23T22:32:56.701;599616918803395612;12552.463;95
2024-05-23T22:32:56.709;599616918811087053;12560.154;155
2024-05-23T22:32:56.716;599616918818778494;12567.847;151
2024-05-23T22:32:56.724;599616918826469935;12575.538;132
2024-05-23T22:32:56.732;599616918834161376;12583.2295;130
2024-05-23T22:32:56.739;599616918841852817;12590.921;118
2024-05-23T22:32:56.747;599616918849544258;12598.612;120
2024-05-23T22:32:56.755;599616918857235699;12606.304;151
2024-05-23T22:32:56.762;599616918864927140;12613.995;169
2024-05-23T22:32:56.770;599616918872618581;12621.687;167
2024-05-23T22:32:56.778;599616918880310022;12629.378;169
2024-05-23T22:32:56.786;599616918888001463;12637.069;185
2024-05-23T22:32:56.793;599616918895692904;12644.761;211
2024-05-23T22:32:56.801;599616918903384345;12652.452;202
2024-05-23T22:32:56.809;599616918911075786;12660.145;146
2024-05-23T22:32:56.816;599616918918767227;12667.835;69
2024-05-23T22:32:56.824;599616918926458668;12675.526;-34
2024-05-23T22:32:56.832;599616918934150109;12683.218;-146
2024-05-23T22:32:56.839;599616918941841550;12690.909;-162
2024-05-23T22:32:56.847;599616918949532991;12698.602;-102
2024-05-23T22:32:56.855;599616918957224432;12706.293;-69
2024-05-23T22:32:56.862;599616918964915873;12713.984;-85
2024-05-23T22:32:56.870;599616918972607314;12721.675;-88
2024-05-23T22:32:56.878;599616918980298755;12729.366;-46
2024-05-23T22:32:56.886;599616918987990196;12737.058;0
2024-05-23T22:32:56.893;599616918995681637;12744.75;4
2024-05-23T22:32:56.901;599616919003373078;12752.441;-4
2024-05-23T22:32:56.909;599616919011064519;12760.133;18
2024-05-23T22:32:56.916;599616919018755960;12767.824;30
2024-05-23T22:32:56.924;599616919026447401;12775.515;-6
2024-05-23T22:32:56.932;599616919034138842;12783.206;-16
2024-05-23T22:32:56.939;599616919041830283;12790.898;32
2024-05-23T22:32:56.947;599616919049521724;12798.59;48
2024-05-23T22:32:56.955;599616919057213165;12806.281;25
2024-05-23T22:32:56.962;599616919064904606;12813.973;27
2024-05-23T22:32:56.970;599616919072596047;12821.664;60
2024-05-23T22:32:56.978;599616919080287488;12829.355;85
2024-05-23T22:32:56.986;599616919087978929;12837.047;92
2024-05-23T22:32:56.993;599616919095670370;12844.738;104
2024-05-23T22:32:57.001;599616919103361811;12852.43;125
2024-05-23T22:32:57.009;599616919111053252;12860.121;132
2024-05-23T22:32:57.016;599616919118744693;12867.8125;146
2024-05-23T22:32:57.024;599616919126436134;12875.505;188
2024-05-23T22:32:57.032;599616919134127575;12883.196;230
2024-05-23T22:32:57.039;599616919141819016;12890.887;225
2024-05-23T22:32:57.047;599616919149510457;12898.578;197
2024-05-23T22:32:57.055;599616919157201898;12906.27;216
2024-05-23T22:32:57.062;599616919164898366;12913.966;262
2024-05-23T22:32:57.070;599616919172589738;12921.657;269
2024-05-23T22:32:57.078;599616919180281110;12929.349;239
2024-05-23T22:32:57.086;599616919187972482;12937.041;216
2024-05-23T22:32:57.093;599616919195663854;12944.732;295
2024-05-23T22:32:57.101;599616919203355226;12952.424;576
2024-05-23T22:32:57.109;599616919211046598;12960.114;940
2024-05-23T22:32:57.116;599616919218737970;12967.806;1017
2024-05-23T22:32:57.124;599616919226429342;12975.497;622
2024-05-23T22:32:57.132;599616919234120714;12983.188;167
2024-05-23T22:32:57.139;599616919241812086;12990.88;97
2024-05-23T22:32:57.147;599616919249503458;12998.571;197
2024-05-23T22:32:57.155;599616919257194830;13006.264;183
2024-05-23T22:32:57.162;599616919264886202;13013.954;153
2024-05-23T22:32:57.170;599616919272577574;13021.6455;130
2024-05-23T22:32:57.178;599616919280268946;13029.337;74
2024-05-23T22:32:57.186;599616919287960318;13037.028;55
2024-05-23T22:32:57.193;599616919295651690;13044.72;67
2024-05-23T22:32:57.201;599616919303343062;13052.411;78
2024-05-23T22:32:57.209;599616919311034434;13060.103;113
2024-05-23T22:32:57.216;599616919318725806;13067.793;144
2024-05-23T22:32:57.224;599616919326417178;13075.484;137
2024-05-23T22:32:57.232;599616919334108550;13083.177;125
2024-05-23T22:32:57.239;599616919341799922;13090.868;141
2024-05-23T22:32:57.247;599616919349491294;13098.56;132
2024-05-23T22:32:57.255;599616919357182666;13106.251;83
2024-05-23T22:32:57.262;599616919364874038;13113.942;48
2024-05-23T22:32:57.270;599616919372565410;13121.633;13
2024-05-23T22:32:57.278;599616919380256782;13129.324;-41
2024-05-23T22:32:57.286;599616919387948154;13137.016;-67
2024-05-23T22:32:57.293;599616919395639526;13144.707;-51
2024-05-23T22:32:57.301;599616919403330898;13152.399;-16
2024-05-23T22:32:57.309;599616919411022270;13160.091;6
2024-05-23T22:32:57.316;599616919418713642;13167.782;-13
2024-05-23T22:32:57.324;599616919426405014;13175.474;-85
2024-05-23T22:32:57.332;599616919434096386;13183.164;-148
2024-05-23T22:32:57.339;599616919441787758;13190.855;-139
2024-05-23T22:32:57.347;599616919449479130;13198.547;-106
2024-05-23T22:32:57.355;599616919457170502;13206.238;-95
2024-05-23T22:32:57.362;599616919464861874;13213.93;-81
2024-05-23T22:32:57.370;599616919472553246;13221.621;-65
2024-05-23T22:32:57.378;599616919480244618;13229.313;-65
2024-05-23T22:32:57.386;599616919487935990;13237.004;-44
2024-05-23T22:32:57.393;599616919495627362;13244.695;-2
2024-05-23T22:32:57.401;599616919503318734;13252.387;18
2024-05-23T22:32:57.409;599616919511010106;13260.078;-4
2024-05-23T22:32:57.416;599616919518701478;13267.77;-48
2024-05-23T22:32:57.424;599616919526392850;13275.461;-58
2024-05-23T22:32:57.432;599616919534084222;13283.152;-27
2024-05-23T22:32:57.439;599616919541775594;13290.843;0
2024-05-23T22:32:57.447;599616919549466966;13298.535;23
2024-05-23T22:32:57.455;599616919557158338;13306.227;51
2024-05-23T22:32:57.462;599616919564849710;13313.918;48
2024-05-23T22:32:57.470;599616919572541082;13321.609;51
2024-05-23T22:32:57.478;599616919580232454;13329.301;102
2024-05-23T22:32:57.485;599616919587923826;13336.992;155
2024-05-23T22:32:57.493;599616919595615198;13344.683;162
2024-05-23T22:32:57.501;599616919603306570;13352.374;162
2024-05-23T22:32:57.509;599616919610997942;13360.065;183
2024-05-23T22:32:57.516;599616919618689314;13367.757;202
2024-05-23T22:32:57.524;599616919626380686;13375.449;209
2024-05-23T22:32:57.532;599616919634072058;13383.141;220
2024-05-23T22:32:57.539;599616919641763430;13390.832;230
2024-05-23T22:32:57.547;599616919649454802;13398.522;199
2024-05-23T22:32:57.555;599616919657146174;13406.214;192
2024-05-23T22:32:57.562;599616919664837546;13413.905;418
2024-05-23T22:32:57.570;599616919672528918;13421.597;882
2024-05-23T22:32:57.578;599616919680220290;13429.288;1170
2024-05-23T22:32:57.585;599616919687911662;13436.9795;885
2024-05-23T22:32:57.593;599616919695603034;13444.672;346
2024-05-23T22:32:57.601;599616919703294406;13452.362;181
2024-05-23T22:32:57.609;599616919710985778;13460.054;271
2024-05-23T22:32:57.616;599616919718677150;13467.745;211
2024-05-23T22:32:57.624;599616919726368530;13475.437;132
2024-05-23T22:32:57.632;599616919734059902;13483.128;185
2024-05-23T22:32:57.639;599616919741751274;13490.819;195
2024-05-23T22:32:57.647;599616919749442646;13498.511;137
2024-05-23T22:32:57.655;599616919757134018;13506.201;134
2024-05-23T22:32:57.662;599616919764825390;13513.894;137
2024-05-23T22:32:57.670;599616919772516762;13521.585;60
2024-05-23T22:32:57.678;599616919780208134;13529.276;-9
2024-05-23T22:32:57.685;599616919787899506;13536.968;-23
2024-05-23T22:32:57.693;599616919795590878;13544.659;-41
2024-05-23T22:32:57.701;599616919803282250;13552.351;-72
2024-05-23T22:32:57.709;599616919810973622;13560.041;-97
2024-05-23T22:32:57.716;599616919818664994;13567.732;-97
2024-05-23T22:32:57.724;599616919826356366;13575.424;-81
2024-05-23T22:32:57.732;599616919834047738;13583.115;-97
2024-05-23T22:32:57.739;599616919841739110;13590.808;-127
2024-05-23T22:32:57.747;599616919849430482;13598.499;-113
2024-05-23T22:32:57.755;599616919857121854;13606.19;-76
2024-05-23T22:32:57.762;599616919864813226;13613.881;-67
2024-05-23T22:32:57.770;599616919872504598;13621.572;-58
2024-05-23T22:32:57.778;599616919880195970;13629.264;-23
2024-05-23T22:32:57.785;599616919887887342;13636.955;-2
2024-05-23T22:32:57.793;599616919895578714;13644.646;-2
2024-05-23T22:32:57.801;599616919903270086;13652.338;9
2024-05-23T22:32:57.809;599616919910961458;13660.03;30
2024-05-23T22:32:57.816;599616919918652830;13667.722;51
2024-05-23T22:32:57.824;599616919926344202;13675.412;30
2024-05-23T22:32:57.832;599616919934035574;13683.104;-41
2024-05-23T22:32:57.839;599616919941726946;13690.795;-67
2024-05-23T22:32:57.847;599616919949418318;13698.486;-27
2024-05-23T22:32:57.855;599616919957109690;13706.178;-11
2024-05-23T22:32:57.862;599616919964801062;13713.869;2
2024-05-23T22:32:57.870;599616919972492434;13721.561;48
2024-05-23T22:32:57.878;599616919980183806;13729.251;67
2024-05-23T22:32:57.885;599616919987875178;13736.943;48
2024-05-23T22:32:57.893;599616919995566550;13744.635;55
2024-05-23T22:32:57.901;599616920003257922;13752.326;81
2024-05-23T22:32:57.909;599616920010949294;13760.018;60
2024-05-23T22:32:57.916;599616920018640666;13767.709;23
2024-05-23T22:32:57.924;599616920026332038;13775.4;34
2024-05-23T22:32:57.932;599616920034023410;13783.091;67
2024-05-23T22:32:57.939;599616920041714782;13790.782;85
2024-05-23T22:32:57.947;599616920049406154;13798.474;102
2024-05-23T22:32:57.955;599616920057097526;13806.166;134
2024-05-23T22:32:57.962;599616920064788898;13813.857;160
2024-05-23T22:32:57.970;599616920072480270;13821.549;155
2024-05-23T22:32:57.978;599616920080171642;13829.24;146
2024-05-23T22:32:57.985;599616920087863014;13836.931;176
2024-05-23T22:32:57.993;599616920095554386;13844.622;216
2024-05-23T22:32:58.001;599616920103245758;13852.313;202
2024-05-23T22:32:58.009;599616920110937130;13860.005;144
2024-05-23T22:32:58.016;599616920118628502;13867.696;195
2024-05-23T22:32:58.024;599616920126319874;13875.388;515
2024-05-23T22:32:58.032;599616920134011246;13883.08;980
2024-05-23T22:32:58.039;599616920141702618;13890.7705;1143
2024-05-23T22:32:58.047;599616920149393990;13898.462;750
2024-05-23T22:32:58.055;599616920157085362;13906.153;227
2024-05-23T22:32:58.062;599616920164776734;13913.845;99
2024-05-23T22:32:58.070;599616920172468106;13921.536;190
2024-05-23T22:32:58.078;599616920180159478;13929.228;169
2024-05-23T22:32:58.085;599616920187850850;13936.919;137
2024-05-23T22:32:58.093;599616920195542222;13944.609;164
2024-05-23T22:32:58.101;599616920203233594;13952.302;162
2024-05-23T22:32:58.108;599616920210924966;13959.993;155
2024-05-23T22:32:58.116;599616920218616338;13967.685;183
2024-05-23T22:32:58.124;599616920226307710;13975.376;178
2024-05-23T22:32:58.132;599616920233999082;13983.067;144
2024-05-23T22:32:58.139;599616920241690454;13990.759;127
2024-05-23T22:32:58.147;599616920249381826;13998.449;104
2024-05-23T22:32:58.155;599616920257073198;14006.141;39
2024-05-23T22:32:58.162;599616920264764570;14013.832;-2
2024-05-23T22:32:58.170;599616920272455942;14021.523;25
2024-05-23T22:32:58.178;599616920280147314;14029.216;39
2024-05-23T22:32:58.185;599616920287838694;14036.907;18
2024-05-23T22:32:58.193;599616920295530066;14044.599;18
2024-05-23T22:32:58.201;599616920303221438;14052.289;23
2024-05-23T22:32:58.208;599616920310912810;14059.98;20
2024-05-23T22:32:58.216;599616920318604182;14067.672;25
2024-05-23T22:32:58.224;599616920326295554;14075.363;46
2024-05-23T22:32:58.232;599616920333986926;14083.055;81
2024-05-23T22:32:58.239;599616920341678298;14090.746;95
2024-05-23T22:32:58.247;599616920349369670;14098.438;78
2024-05-23T22:32:58.255;599616920357061042;14106.13;85
2024-05-23T22:32:58.262;599616920364752414;14113.82;116
2024-05-23T22:32:58.270;599616920372443786;14121.512;90
2024-05-23T22:32:58.278;599616920380135158;14129.203;32
2024-05-23T22:32:58.285;599616920387826530;14136.895;34
2024-05-23T22:32:58.293;599616920395517902;14144.586;60
2024-05-23T22:32:58.301;599616920403209274;14152.277;48
2024-05-23T22:32:58.308;599616920410900646;14159.968;51
2024-05-23T22:32:58.316;599616920418592018;14167.659;90
2024-05-23T22:32:58.324;599616920426283390;14175.352;81
2024-05-23T22:32:58.332;599616920433974762;14183.043;-16
2024-05-23T22:32:58.339;599616920441666134;14190.734;-76
2024-05-23T22:32:58.347;599616920449357506;14198.426;-32
2024-05-23T22:32:58.355;599616920457048878;14206.117;11
2024-05-23T22:32:58.362;599616920464740250;14213.809;20
2024-05-23T22:32:58.370;599616920472431622;14221.499;41
2024-05-23T22:32:58.378;599616920480122994;14229.19;76
2024-05-23T22:32:58.385;599616920487814366;14236.882;95
2024-05-23T22:32:58.393;599616920495505738;14244.574;99
2024-05-23T22:32:58.401;599616920503197110;14252.266;95
2024-05-23T22:32:58.408;599616920510888482;14259.957;95
2024-05-23T22:32:58.416;599616920518579854;14267.648;123
2024-05-23T22:32:58.424;599616920526271226;14275.339;144
2024-05-23T22:32:58.432;599616920533962598;14283.03;137
2024-05-23T22:32:58.439;599616920541653970;14290.722;155
2024-05-23T22:32:58.447;599616920549345342;14298.413;192
2024-05-23T22:32:58.455;599616920557036714;14306.1045;192
2024-05-23T22:32:58.462;599616920564728086;14313.796;164
2024-05-23T22:32:58.470;599616920572419458;14321.488;151
2024-05-23T22:32:58.478;599616920580110830;14329.179;269
2024-05-23T22:32:58.485;599616920587802202;14336.87;666
2024-05-23T22:32:58.493;599616920595493574;14344.562;1131
2024-05-23T22:32:58.501;599616920603184946;14352.253;1126
2024-05-23T22:32:58.508;599616920610876318;14359.944;546
2024-05-23T22:32:58.516;599616920618567690;14367.636;69
2024-05-23T22:32:58.524;599616920626259062;14375.327;95
2024-05-23T22:32:58.532;599616920633950434;14383.018;188
2024-05-23T22:32:58.539;599616920641641806;14390.71;111
2024-05-23T22:32:58.547;599616920649333178;14398.401;102
2024-05-23T22:32:58.555;599616920657024550;14406.093;160
2024-05-23T22:32:58.562;599616920664715922;14413.784;162
2024-05-23T22:32:58.570;599616920672407294;14421.476;132
2024-05-23T22:32:58.578;599616920680098666;14429.167;109
2024-05-23T22:32:58.585;599616920687790038;14436.857;95
2024-05-23T22:32:58.593;599616920695481410;14444.549;90
2024-05-23T22:32:58.601;599616920703172782;14452.24;58
2024-05-23T22:32:58.608;599616920710864154;14459.932;6
2024-05-23T22:32:58.616;599616920718555526;14467.624;2
2024-05-23T22:32:58.624;599616920726246898;14475.315;25
2024-05-23T22:32:58.632;599616920733938270;14483.007;30
2024-05-23T22:32:58.639;599616920741629642;14490.697;9
2024-05-23T22:32:58.647;599616920749321014;14498.389;-32
2024-05-23T22:32:58.655;599616920757012386;14506.08;-74
2024-05-23T22:32:58.662;599616920764703758;14513.771;-95
2024-05-23T22:32:58.670;599616920772395130;14521.463;-99
2024-05-23T22:32:58.678;599616920780086502;14529.154;-69
2024-05-23T22:32:58.685;599616920787777874;14536.847;-18
2024-05-23T22:32:58.693;599616920795469246;14544.538;9
2024-05-23T22:32:58.701;599616920803160618;14552.229;18
2024-05-23T22:32:58.708;599616920810851990;14559.92;37
2024-05-23T22:32:58.716;599616920818543362;14567.611;51
2024-05-23T22:32:58.724;599616920826234734;14575.303;58
2024-05-23T22:32:58.731;599616920833926106;14582.994;76
2024-05-23T22:32:58.739;599616920841617478;14590.686;120
2024-05-23T22:32:58.747;599616920849278762;14598.347;153
2024-05-23T22:32:58.755;599616920856970552;14606.039;134
2024-05-23T22:32:58.762;599616920864662342;14613.73;120
2024-05-23T22:32:58.770;599616920872354132;14621.423;160
2024-05-23T22:32:58.778;599616920880045922;14629.114;199
2024-05-23T22:32:58.785;599616920887737712;14636.806;199
2024-05-23T22:32:58.793;599616920895429502;14644.497;192
2024-05-23T22:32:58.801;599616920903121292;14652.189;190
2024-05-23T22:32:58.808;599616920910813082;14659.881;160
2024-05-23T22:32:58.816;599616920918504872;14667.573;109
2024-05-23T22:32:58.824;599616920926196662;14675.265;58
2024-05-23T22:32:58.831;599616920933888452;14682.957;18
2024-05-23T22:32:58.839;599616920941580242;14690.648;-9
2024-05-23T22:32:58.847;599616920949272032;14698.341;-18
2024-05-23T22:32:58.855;599616920956963822;14706.031;0
2024-05-23T22:32:58.862;599616920964655612;14713.724;53
2024-05-23T22:32:58.870;599616920972347402;14721.415;92
2024-05-23T22:32:58.878;599616920980039192;14729.107;97
2024-05-23T22:32:58.885;599616920987730982;14736.799;102
2024-05-23T22:32:58.893;599616920995422772;14744.491;85
2024-05-23T22:32:58.901;599616921003114562;14752.183;60
2024-05-23T22:32:58.908;599616921010806352;14759.875;74
2024-05-23T22:32:58.916;599616921018498142;14767.565;97
2024-05-23T22:32:58.924;599616921026189932;14775.258;76
2024-05-23T22:32:58.931;599616921033881722;14782.949;55
2024-05-23T22:32:58.939;599616921041573512;14790.642;213
2024-05-23T22:32:58.947;599616921049265302;14798.333;645
2024-05-23T22:32:58.955;599616921056957092;14806.025;1045
2024-05-23T22:32:58.962;599616921064648882;14813.717;929
2024-05-23T22:32:58.970;599616921072340672;14821.409;346
2024-05-23T22:32:58.978;599616921080032462;14829.1;-30
2024-05-23T22:32:58.985;599616921087724252;14836.792;41
2024-05-23T22:32:58.993;599616921095416042;14844.483;88
2024-05-23T22:32:59.001;599616921103107832;14852.176;0
2024-05-23T22:32:59.008;599616921110799622;14859.867;32
2024-05-23T22:32:59.016;599616921118491412;14867.56;95
2024-05-23T22:32:59.024;599616921126183202;14875.251;46
2024-05-23T22:32:59.031;599616921133874992;14882.943;-11
2024-05-23T22:32:59.039;599616921141566782;14890.636;-6
2024-05-23T22:32:59.047;599616921149258572;14898.326;-27
2024-05-23T22:32:59.055;599616921156950362;14906.019;-74
2024-05-23T22:32:59.062;599616921164642152;14913.71;-55
2024-05-23T22:32:59.070;599616921172333942;14921.402;-23
2024-05-23T22:32:59.078;599616921180025732;14929.094;-34
2024-05-23T22:32:59.085;599616921187717522;14936.786;-32
2024-05-23T22:32:59.093;599616921195409312;14944.478;-4
2024-05-23T22:32:59.101;599616921203101102;14952.17;9
2024-05-23T22:32:59.108;599616921210792892;14959.86;11
2024-05-23T22:32:59.116;599616921218484682;14967.553;6
2024-05-23T22:32:59.124;599616921226176472;14975.244;-4
2024-05-23T22:32:59.131;599616921233868262;14982.937;-6
2024-05-23T22:32:59.139;599616921241560052;14990.628;-41
2024-05-23T22:32:59.147;599616921249251842;14998.32;-72
2024-05-23T22:32:59.155;599616921256943632;15006.012;-23
2024-05-23T22:32:59.162;599616921264635422;15013.704;32
2024-05-23T22:32:59.170;599616921272327212;15021.395;30
2024-05-23T22:32:59.178;599616921280019002;15029.087;30
2024-05-23T22:32:59.185;599616921287710792;15036.778;74
2024-05-23T22:32:59.193;599616921295402582;15044.471;120
2024-05-23T22:32:59.201;599616921303094372;15052.162;134
2024-05-23T22:32:59.208;599616921310786162;15059.8545;132
2024-05-23T22:32:59.216;599616921318477952;15067.546;144
2024-05-23T22:32:59.224;599616921326169742;15075.238;174
2024-05-23T22:32:59.231;599616921333861532;15082.929;192
2024-05-23T22:32:59.239;599616921341553322;15090.621;199
2024-05-23T22:32:59.247;599616921349245112;15098.3125;220
2024-05-23T22:32:59.255;599616921356936902;15106.005;241
2024-05-23T22:32:59.262;599616921364628692;15113.696;225
2024-05-23T22:32:59.270;599616921372320482;15121.389;216
2024-05-23T22:32:59.278;599616921380012272;15129.08;246
2024-05-23T22:32:59.285;599616921387704062;15136.772;276
2024-05-23T22:32:59.293;599616921395395852;15144.463;271
2024-05-23T22:32:59.301;599616921403087642;15152.155;269
2024-05-23T22:32:59.308;599616921410809540;15159.878;292
2024-05-23T22:32:59.316;599616921418500912;15167.569;322
2024-05-23T22:32:59.324;599616921426192284;15175.26;320
2024-05-23T22:32:59.331;599616921433883656;15182.951;269
2024-05-23T22:32:59.339;599616921441575028;15190.643;225
2024-05-23T22:32:59.347;599616921449266400;15198.334;220
2024-05-23T22:32:59.355;599616921456957772;15206.026;183
2024-05-23T22:32:59.362;599616921464649144;15213.718;125
2024-05-23T22:32:59.370;599616921472340516;15221.409;151
2024-05-23T22:32:59.378;599616921480031888;15229.1;192
2024-05-23T22:32:59.385;599616921487723260;15236.791;144
2024-05-23T22:32:59.393;599616921495414632;15244.482;55
2024-05-23T22:32:59.401;599616921503106004;15252.174;106
2024-05-23T22:32:59.408;599616921510797376;15259.865;429
2024-05-23T22:32:59.416;599616921518488748;15267.557;885
2024-05-23T22:32:59.424;599616921526180120;15275.248;1033
2024-05-23T22:32:59.431;599616921533871492;15282.939;613
2024-05-23T22:32:59.439;599616921541562864;15290.631;90
2024-05-23T22:32:59.447;599616921549254236;15298.322;9
2024-05-23T22:32:59.455;599616921556945608;15306.014;125
2024-05-23T22:32:59.462;599616921564636980;15313.705;90
2024-05-23T22:32:59.470;599616921572328352;15321.396;39
2024-05-23T22:32:59.478;599616921580019724;15329.088;48
2024-05-23T22:32:59.485;599616921587711096;15336.778;25
2024-05-23T22:32:59.493;599616921595402468;15344.47;-18
2024-05-23T22:32:59.501;599616921603093840;15352.162;-39
2024-05-23T22:32:59.508;599616921610785212;15359.854;-39
2024-05-23T22:32:59.516;599616921618476584;15367.545;-23
2024-05-23T22:32:59.524;599616921626167956;15375.236;6
2024-05-23T22:32:59.531;599616921633859328;15382.928;13
2024-05-23T22:32:59.539;599616921641550700;15390.618;4
2024-05-23T22:32:59.547;599616921649242072;15398.31;20
2024-05-23T22:32:59.555;599616921656933444;15406.001;58
2024-05-23T22:32:59.562;599616921664624816;15413.692;65
2024-05-23T22:32:59.570;599616921672316188;15421.384;60
2024-05-23T22:32:59.578;599616921680007560;15429.076;72
2024-05-23T22:32:59.585;599616921687698932;15436.768;69
2024-05-23T22:32:59.593;599616921695390304;15444.458;48
2024-05-23T22:32:59.601;599616921703081676;15452.149;51
2024-05-23T22:32:59.608;599616921710773048;15459.841;83
2024-05-23T22:32:59.616;599616921718464420;15467.532;120
2024-05-23T22:32:59.624;599616921726155792;15475.224;139
2024-05-23T22:32:59.631;599616921733847164;15482.915;113
2024-05-23T22:32:59.639;599616921741538536;15490.606;85
2024-05-23T22:32:59.647;599616921749229908;15498.299;109
2024-05-23T22:32:59.654;599616921756921280;15505.989;137
2024-05-23T22:32:59.662;599616921764612652;15513.681;151
2024-05-23T22:32:59.670;599616921772304024;15521.372;169
2024-05-23T22:32:59.678;599616921779995396;15529.063;167
2024-05-23T22:32:59.685;599616921787686768;15536.755;162
2024-05-23T22:32:59.693;599616921795378140;15544.446;188
2024-05-23T22:32:59.701;599616921803069512;15552.138;218
2024-05-23T22:32:59.708;599616921810760884;15559.828;225
2024-05-23T22:32:59.716;599616921818452256;15567.52;213
2024-05-23T22:32:59.724;599616921826143628;15575.212;204
2024-05-23T22:32:59.731;599616921833835000;15582.903;223
2024-05-23T22:32:59.739;599616921841526372;15590.595;241
2024-05-23T22:32:59.747;599616921849217744;15598.286;236
2024-05-23T22:32:59.754;599616921856909116;15605.978;239
2024-05-23T22:32:59.762;599616921864600488;15613.668;262
2024-05-23T22:32:59.770;599616921872291860;15621.359;264
2024-05-23T22:32:59.778;599616921879983232;15629.051;264
2024-05-23T22:32:59.785;599616921887674604;15636.742;283
2024-05-23T22:32:59.793;599616921895365976;15644.435;309
2024-05-23T22:32:59.801;599616921903057348;15652.126;334
2024-05-23T22:32:59.808;599616921910748720;15659.817;336
2024-05-23T22:32:59.816;599616921918440092;15667.508;322
2024-05-23T22:32:59.824;599616921926131464;15675.199;329
2024-05-23T22:32:59.831;599616921933822836;15682.891;299
2024-05-23T22:32:59.839;599616921941514208;15690.582;230
2024-05-23T22:32:59.847;599616921949205580;15698.273;206
2024-05-23T22:32:59.854;599616921956896952;15705.965;174
2024-05-23T22:32:59.862;599616921964588324;15713.657;74
2024-05-23T22:32:59.870;599616921972279704;15721.348;72
2024-05-23T22:32:59.878;599616921979971076;15729.039;327
2024-05-23T22:32:59.885;599616921987662448;15736.73;750
2024-05-23T22:32:59.893;599616921995353820;15744.422;982
2024-05-23T22:32:59.901;599616922003045192;15752.113;664
2024-05-23T22:32:59.908;599616922010736564;15759.805;102
2024-05-23T22:32:59.916;599616922018427936;15767.496;-78
2024-05-23T22:32:59.924;599616922026119308;15775.187;-16
2024-05-23T22:32:59.931;599616922033810680;15782.878;-99
2024-05-23T22:32:59.939;599616922041502052;15790.57;-174
2024-05-23T22:32:59.947;599616922049193424;15798.262;-176
2024-05-23T22:32:59.954;599616922056884796;15805.953;-236
2024-05-23T22:32:59.962;599616922064576168;15813.645;-255
2024-05-23T22:32:59.970;599616922072267540;15821.336;-190
2024-05-23T22:32:59.978;599616922079958912;15829.026;-162
2024-05-23T22:32:59.985;599616922087650284;15836.718;-176
2024-05-23T22:32:59.993;599616922095341656;15844.409;-160
2024-05-23T22:33:00.001;599616922103033028;15852.101;-125
2024-05-23T22:33:00.008;599616922110724400;15859.793;-109
2024-05-23T22:33:00.016;599616922118415772;15867.484;-97
2024-05-23T22:33:00.024;599616922126107144;15875.176;-62
2024-05-23T22:33:00.031;599616922133798516;15882.866;-30
2024-05-23T22:33:00.039;599616922141489888;15890.558;-34
2024-05-23T22:33:00.047;599616922149181260;15898.249;-48
2024-05-23T22:33:00.054;599616922156872632;15905.94;-30
2024-05-23T22:33:00.062;599616922164564004;15913.632;2
2024-05-23T22:33:00.070;599616922172255376;15921.323;13
2024-05-23T22:33:00.078;599616922179946748;15929.015;27
2024-05-23T22:33:00.085;599616922187638120;15936.707;58
2024-05-23T22:33:00.093;599616922195329492;15944.397;74
2024-05-23T22:33:00.101;599616922203020864;15952.089;76
2024-05-23T22:33:00.108;599616922210712236;15959.78;88
2024-05-23T22:33:00.116;599616922218403608;15967.472;102
2024-05-23T22:33:00.124;599616922226094980;15975.163;90
2024-05-23T22:33:00.131;599616922233786352;15982.8545;55
2024-05-23T22:33:00.139;599616922241477724;15990.545;44
2024-05-23T22:33:00.147;599616922249169096;15998.236;74
