Phone timestamp;sensor timestamp [ns];timestamp [ms];ecg [uV]
2024-05-24T23:21:08.740;599616311172912902;0.0;-11
2024-05-24T23:21:08.747;599616311180605110;7.692208;520
2024-05-24T23:21:08.755;599616311188297318;15.384416;2271
2024-05-24T23:21:08.763;599616311195989526;23.076624;4236
2024-05-24T23:21:08.770;599616311203681734;30.768831;5048
2024-05-24T23:21:08.778;599616311211373942;38.46104;5529
2024-05-24T23:21:08.786;599616311219066150;46.153248;6394
2024-05-24T23:21:08.793;599616311226758358;53.845455;7154
2024-05-24T23:21:08.801;599616311234450566;61.537663;7997
2024-05-24T23:21:08.809;599616311242142774;69.22987;9126
2024-05-24T23:21:08.816;599616311249834982;76.92208;9872
2024-05-24T23:21:08.824;599616311257527190;84.61429;9771
2024-05-24T23:21:08.832;599616311265219398;92.306496;9508
2024-05-24T23:21:08.839;599616311272911606;99.9987;9922
2024-05-24T23:21:08.847;599616311280603814;107.69091;10545
2024-05-24T23:21:08.855;599616311288296022;115.38312;10779
2024-05-24T23:21:08.863;599616311295988230;123.075325;11035
2024-05-24T23:21:08.870;599616311303680438;130.76753;11495
2024-05-24T23:21:08.878;599616311311372646;138.45975;11828
2024-05-24T23:21:08.886;599616311319064854;146.15195;12061
2024-05-24T23:21:08.893;599616311326757062;153.84416;12437
2024-05-24T23:21:08.901;599616311334449270;161.53636;12809
2024-05-24T23:21:08.909;599616311342141478;169.22858;12987
2024-05-24T23:21:08.916;599616311349833686;176.92079;13164
2024-05-24T23:21:08.924;599616311357525894;184.61299;13474
2024-05-24T23:21:08.932;599616311365218102;192.3052;13759
2024-05-24T23:21:08.939;599616311372910310;199.9974;13953
2024-05-24T23:21:08.947;599616311380602518;207.68962;14121
2024-05-24T23:21:08.955;599616311388294726;215.38182;14301
2024-05-24T23:21:08.963;599616311395986934;223.07404;14509
2024-05-24T23:21:08.970;599616311403679142;230.76624;14654
2024-05-24T23:21:08.978;599616311411371350;238.45845;14758
2024-05-24T23:21:08.986;599616311419063558;246.15065;14992
2024-05-24T23:21:08.993;599616311426755766;253.84286;15198
2024-05-24T23:21:09.001;599616311434447974;261.53506;15191
2024-05-24T23:21:09.009;599616311442140182;269.22726;15295
2024-05-24T23:21:09.016;599616311449832390;276.9195;15606
2024-05-24T23:21:09.024;599616311457524598;284.61172;15660
2024-05-24T23:21:09.032;599616311465216806;292.3039;15523
2024-05-24T23:21:09.039;599616311472909014;299.9961;15594
2024-05-24T23:21:09.047;599616311480601222;307.68832;15731
2024-05-24T23:21:09.055;599616311488293430;315.38055;15743
2024-05-24T23:21:09.063;599616311495985638;323.07272;15717
2024-05-24T23:21:09.070;599616311503677846;330.76492;15748
2024-05-24T23:21:09.078;599616311511370054;338.45715;15859
2024-05-24T23:21:09.086;599616311519062262;346.14938;15880
2024-05-24T23:21:09.093;599616311526754470;353.84158;15724
2024-05-24T23:21:09.101;599616311534446678;361.53375;15667
2024-05-24T23:21:09.109;599616311542138886;369.22598;15774
2024-05-24T23:21:09.116;599616311549831094;376.9182;15783
2024-05-24T23:21:09.124;599616311557523302;384.6104;15712
2024-05-24T23:21:09.132;599616311565215510;392.30258;15719
2024-05-24T23:21:09.139;599616311572907718;399.9948;15724
2024-05-24T23:21:09.147;599616311580599926;407.68704;15655
2024-05-24T23:21:09.155;599616311588292134;415.37924;15568
2024-05-24T23:21:09.163;599616311595984342;423.0714;15568
2024-05-24T23:21:09.170;599616311603676550;430.76364;15648
2024-05-24T23:21:09.178;599616311611368758;438.45587;15594
2024-05-24T23:21:09.186;599616311619060966;446.14807;15393
2024-05-24T23:21:09.193;599616311626753174;453.84027;15343
2024-05-24T23:21:09.201;599616311634445382;461.53247;15404
2024-05-24T23:21:09.209;599616311642137590;469.2247;15312
2024-05-24T23:21:09.216;599616311649829798;476.9169;15203
2024-05-24T23:21:09.224;599616311657522006;484.6091;15203
2024-05-24T23:21:09.232;599616311665214214;492.3013;15134
2024-05-24T23:21:09.239;599616311672906422;499.99353;14973
2024-05-24T23:21:09.247;599616311680598630;507.68573;14872
2024-05-24T23:21:09.255;599616311688290838;515.3779;14895
2024-05-24T23:21:09.263;599616311695983046;523.0701;14947
2024-05-24T23:21:09.270;599616311703675254;530.7624;14777
2024-05-24T23:21:09.278;599616311711367462;538.4545;14474
2024-05-24T23:21:09.286;599616311719059670;546.1467;14412
2024-05-24T23:21:09.293;599616311726751878;553.839;14433
2024-05-24T23:21:09.301;599616311734474198;561.5613;14270
2024-05-24T23:21:09.309;599616311742165988;569.25305;14154
2024-05-24T23:21:09.316;599616311749857778;576.9449;14225
2024-05-24T23:21:09.324;599616311757549568;584.63666;14213
2024-05-24T23:21:09.332;599616311765241358;592.3284;13896
2024-05-24T23:21:09.340;599616311772933148;600.0202;13576
2024-05-24T23:21:09.347;599616311780624938;607.71204;13579
2024-05-24T23:21:09.355;599616311788316728;615.4039;13607
2024-05-24T23:21:09.363;599616311796008518;623.09564;13401
2024-05-24T23:21:09.370;599616311803700308;630.7874;13214
2024-05-24T23:21:09.378;599616311811392098;638.4792;13275
2024-05-24T23:21:09.386;599616311819083888;646.171;13249
2024-05-24T23:21:09.393;599616311826775678;653.8628;12894
2024-05-24T23:21:09.401;599616311834467468;661.55457;12709
2024-05-24T23:21:09.409;599616311842159258;669.24634;12773
2024-05-24T23:21:09.416;599616311849851048;676.9382;12624
2024-05-24T23:21:09.424;599616311857542838;684.62994;12428
2024-05-24T23:21:09.432;599616311865234628;692.3217;12406
2024-05-24T23:21:09.440;599616311872926418;700.0135;12309
2024-05-24T23:21:09.447;599616311880618208;707.70526;12127
2024-05-24T23:21:09.455;599616311888309998;715.3971;12008
2024-05-24T23:21:09.463;599616311896001788;723.08887;11892
2024-05-24T23:21:09.470;599616311903693578;730.7807;11786
2024-05-24T23:21:09.478;599616311911385368;738.4725;11665
2024-05-24T23:21:09.486;599616311919077158;746.16425;11511
2024-05-24T23:21:09.493;599616311926768948;753.8561;11438
2024-05-24T23:21:09.501;599616311934460738;761.54785;11426
2024-05-24T23:21:09.509;599616311942152528;769.2396;11334
2024-05-24T23:21:09.516;599616311949844318;776.9314;11165
2024-05-24T23:21:09.524;599616311957536108;784.6232;10978
2024-05-24T23:21:09.532;599616311965227898;792.315;10858
2024-05-24T23:21:09.540;599616311972919688;800.0068;10900
2024-05-24T23:21:09.547;599616311980611478;807.69855;11092
2024-05-24T23:21:09.555;599616311988303268;815.3903;11329
2024-05-24T23:21:09.563;599616311995995058;823.08215;11267
2024-05-24T23:21:09.570;599616312003686848;830.7739;10592
2024-05-24T23:21:09.578;599616312011378638;838.4657;9915
2024-05-24T23:21:09.586;599616312019070428;846.15753;9884
2024-05-24T23:21:09.593;599616312026762218;853.84937;9943
2024-05-24T23:21:09.601;599616312034454008;861.54114;9638
2024-05-24T23:21:09.609;599616312042145798;869.2329;9430
2024-05-24T23:21:09.616;599616312049837588;876.9247;9453
2024-05-24T23:21:09.624;599616312057529378;884.61646;9387
2024-05-24T23:21:09.632;599616312065221168;892.3083;9242
2024-05-24T23:21:09.640;599616312072912958;900.00006;9150
2024-05-24T23:21:09.647;599616312080604748;907.69183;9074
2024-05-24T23:21:09.655;599616312088296538;915.3836;8975
2024-05-24T23:21:09.663;599616312095988328;923.07544;8859
2024-05-24T23:21:09.670;599616312103680118;930.7672;8776
2024-05-24T23:21:09.678;599616312111371908;938.459;8755
2024-05-24T23:21:09.686;599616312119063698;946.15076;8676
2024-05-24T23:21:09.693;599616312126755488;953.8426;8515
2024-05-24T23:21:09.701;599616312134447278;961.5344;8435
2024-05-24T23:21:09.709;599616312142139068;969.2262;8425
2024-05-24T23:21:09.716;599616312149830858;976.91797;8338
2024-05-24T23:21:09.724;599616312157522648;984.60974;8231
2024-05-24T23:21:09.732;599616312165214438;992.3016;8179
2024-05-24T23:21:09.739;599616312172906228;999.99335;8113
2024-05-24T23:21:09.747;599616312180598018;1007.6851;8042
2024-05-24T23:21:09.755;599616312188289808;1015.3769;7975
2024-05-24T23:21:09.763;599616312195981598;1023.06866;7852
2024-05-24T23:21:09.770;599616312203673388;1030.7605;7741
2024-05-24T23:21:09.778;599616312211365178;1038.4523;7658
2024-05-24T23:21:09.786;599616312219056968;1046.144;7535
2024-05-24T23:21:09.793;599616312226748758;1053.8358;7464
2024-05-24T23:21:09.801;599616312234440548;1061.5276;7450
2024-05-24T23:21:09.809;599616312242132338;1069.2195;7355
2024-05-24T23:21:09.816;599616312249824128;1076.9113;7258
2024-05-24T23:21:09.824;599616312257515918;1084.603;7246
2024-05-24T23:21:09.832;599616312265207708;1092.2948;7111
2024-05-24T23:21:09.839;599616312272899498;1099.9866;6789
2024-05-24T23:21:09.847;599616312280591288;1107.6783;6616
2024-05-24T23:21:09.855;599616312288283078;1115.3702;6642
2024-05-24T23:21:09.863;599616312295954864;1123.0419;6602
2024-05-24T23:21:09.870;599616312303646932;1130.7341;6467
2024-05-24T23:21:09.878;599616312311339000;1138.4261;6365
2024-05-24T23:21:09.886;599616312319031068;1146.1182;6341
2024-05-24T23:21:09.893;599616312326723136;1153.8102;6315
2024-05-24T23:21:09.901;599616312334415204;1161.5023;6230
2024-05-24T23:21:09.909;599616312342107272;1169.1943;6178
2024-05-24T23:21:09.916;599616312349799340;1176.8864;6176
2024-05-24T23:21:09.924;599616312357491408;1184.5786;6088
2024-05-24T23:21:09.932;599616312365183476;1192.2706;5889
2024-05-24T23:21:09.939;599616312372875544;1199.9626;5778
2024-05-24T23:21:09.947;599616312380567612;1207.6547;5794
2024-05-24T23:21:09.955;599616312388259680;1215.3468;5764
2024-05-24T23:21:09.963;599616312395951748;1223.0388;5648
2024-05-24T23:21:09.970;599616312403643816;1230.7308;5567
2024-05-24T23:21:09.978;599616312411335884;1238.4231;5553
2024-05-24T23:21:09.986;599616312419027952;1246.1151;5503
2024-05-24T23:21:09.993;599616312426720020;1253.8071;5434
2024-05-24T23:21:10.001;599616312434412088;1261.4991;5413
2024-05-24T23:21:10.009;599616312442104156;1269.1913;5321
2024-05-24T23:21:10.016;599616312449796224;1276.8833;5150
2024-05-24T23:21:10.024;599616312457488292;1284.5753;5070
2024-05-24T23:21:10.032;599616312465180360;1292.2676;5070
2024-05-24T23:21:10.039;599616312472872428;1299.9596;5044
2024-05-24T23:21:10.047;599616312480564496;1307.6516;4992
2024-05-24T23:21:10.055;599616312488256564;1315.3436;4918
2024-05-24T23:21:10.063;599616312495948632;1323.0358;4852
2024-05-24T23:21:10.070;599616312503640700;1330.7278;4823
2024-05-24T23:21:10.078;599616312511332768;1338.4198;4783
2024-05-24T23:21:10.086;599616312519024836;1346.1118;4719
2024-05-24T23:21:10.093;599616312526716904;1353.8041;4696
2024-05-24T23:21:10.101;599616312534408972;1361.4961;4667
2024-05-24T23:21:10.109;599616312542101040;1369.1881;4572
2024-05-24T23:21:10.116;599616312549793108;1376.8802;4504
2024-05-24T23:21:10.124;599616312557485176;1384.5723;4501
2024-05-24T23:21:10.132;599616312565177244;1392.2643;4480
2024-05-24T23:21:10.139;599616312572869312;1399.9563;4402
2024-05-24T23:21:10.147;599616312580561380;1407.6486;4331
2024-05-24T23:21:10.155;599616312588253448;1415.3406;4295
2024-05-24T23:21:10.163;599616312595945516;1423.0326;4253
2024-05-24T23:21:10.170;599616312603637584;1430.7247;4186
2024-05-24T23:21:10.178;599616312611329652;1438.4167;4139
2024-05-24T23:21:10.186;599616312619021720;1446.1088;4137
2024-05-24T23:21:10.193;599616312626713788;1453.8008;4087
2024-05-24T23:21:10.201;599616312634405856;1461.493;3957
2024-05-24T23:21:10.209;599616312642097924;1469.185;3888
2024-05-24T23:21:10.216;599616312649789992;1476.8771;3890
2024-05-24T23:21:10.224;599616312657482060;1484.5692;3831
2024-05-24T23:21:10.232;599616312665174128;1492.2612;3739
2024-05-24T23:21:10.239;599616312672866196;1499.9532;3703
2024-05-24T23:21:10.247;599616312680558264;1507.6453;3651
2024-05-24T23:21:10.255;599616312688250332;1515.3375;3528
2024-05-24T23:21:10.263;599616312695942400;1523.0295;3431
2024-05-24T23:21:10.270;599616312703634468;1530.7216;3410
2024-05-24T23:21:10.278;599616312711326536;1538.4137;3379
2024-05-24T23:21:10.286;599616312719018604;1546.1057;3329
2024-05-24T23:21:10.293;599616312726710672;1553.7977;3448
2024-05-24T23:21:10.301;599616312734402740;1561.4897;3881
2024-05-24T23:21:10.309;599616312742094808;1569.182;4208
2024-05-24T23:21:10.316;599616312749786876;1576.874;3850
2024-05-24T23:21:10.324;599616312757478944;1584.566;3107
2024-05-24T23:21:10.332;599616312765171012;1592.258;2768
2024-05-24T23:21:10.339;599616312772863080;1599.9502;2789
2024-05-24T23:21:10.347;599616312780555148;1607.6422;2635
2024-05-24T23:21:10.355;599616312788247216;1615.3342;2465
2024-05-24T23:21:10.363;599616312795939284;1623.0265;2507
2024-05-24T23:21:10.370;599616312803631352;1630.7185;2526
2024-05-24T23:21:10.378;599616312811323420;1638.4105;2436
2024-05-24T23:21:10.386;599616312819015488;1646.1025;2398
2024-05-24T23:21:10.393;599616312826707556;1653.7947;2422
2024-05-24T23:21:10.401;599616312834399624;1661.4867;2429
2024-05-24T23:21:10.409;599616312842091692;1669.1787;2401
2024-05-24T23:21:10.416;599616312849783760;1676.871;2387
2024-05-24T23:21:10.424;599616312857485898;1684.573;2384
2024-05-24T23:21:10.432;599616312865177827;1692.265;2361
2024-05-24T23:21:10.439;599616312872869756;1699.9569;2335
2024-05-24T23:21:10.447;599616312880561685;1707.6488;2337
2024-05-24T23:21:10.455;599616312888253614;1715.3407;2353
2024-05-24T23:21:10.463;599616312895945543;1723.0327;2349
2024-05-24T23:21:10.470;599616312903637472;1730.7246;2304
2024-05-24T23:21:10.478;599616312911329401;1738.4165;2271
2024-05-24T23:21:10.486;599616312919021330;1746.1084;2297
2024-05-24T23:21:10.493;599616312926713259;1753.8003;2306
2024-05-24T23:21:10.501;599616312934405188;1761.4922;2252
2024-05-24T23:21:10.509;599616312942097117;1769.1842;2223
2024-05-24T23:21:10.516;599616312949789046;1776.8762;2237
2024-05-24T23:21:10.524;599616312957480975;1784.5681;2185
2024-05-24T23:21:10.532;599616312965172904;1792.26;2088
2024-05-24T23:21:10.539;599616312972864833;1799.9519;2079
2024-05-24T23:21:10.547;599616312980556762;1807.6439;2114
2024-05-24T23:21:10.555;599616312988248691;1815.3358;2093
2024-05-24T23:21:10.563;599616312995940620;1823.0277;2036
2024-05-24T23:21:10.570;599616313003632549;1830.7196;2010
2024-05-24T23:21:10.578;599616313011324478;1838.4115;1998
2024-05-24T23:21:10.586;599616313019016407;1846.1035;1963
2024-05-24T23:21:10.593;599616313026708336;1853.7954;1915
2024-05-24T23:21:10.601;599616313034400265;1861.4873;1899
2024-05-24T23:21:10.609;599616313042092194;1869.1793;1873
2024-05-24T23:21:10.616;599616313049784123;1876.8712;1828
2024-05-24T23:21:10.624;599616313057476052;1884.5632;1816
2024-05-24T23:21:10.632;599616313065167981;1892.2551;1828
2024-05-24T23:21:10.639;599616313072859910;1899.947;1835
2024-05-24T23:21:10.647;599616313080551839;1907.6389;1816
2024-05-24T23:21:10.655;599616313088243768;1915.3308;1778
2024-05-24T23:21:10.663;599616313095935697;1923.0228;1761
2024-05-24T23:21:10.670;599616313103627626;1930.7147;1778
2024-05-24T23:21:10.678;599616313111319555;1938.4066;1776
2024-05-24T23:21:10.686;599616313119011484;1946.0985;1766
2024-05-24T23:21:10.693;599616313126703413;1953.7904;1778
2024-05-24T23:21:10.701;599616313134395342;1961.4825;1761
2024-05-24T23:21:10.709;599616313142087271;1969.1744;1712
2024-05-24T23:21:10.716;599616313149779200;1976.8663;1712
2024-05-24T23:21:10.724;599616313157471129;1984.5582;1740
2024-05-24T23:21:10.732;599616313165163058;1992.2501;1740
2024-05-24T23:21:10.739;599616313172854987;1999.9421;1702
2024-05-24T23:21:10.747;599616313180546916;2007.634;1636
2024-05-24T23:21:10.755;599616313188238845;2015.3259;1593
2024-05-24T23:21:10.763;599616313195930774;2023.0178;1596
2024-05-24T23:21:10.770;599616313203622703;2030.7097;1586
2024-05-24T23:21:10.778;599616313211314632;2038.4017;1577
2024-05-24T23:21:10.786;599616313219006561;2046.0938;1581
2024-05-24T23:21:10.793;599616313226698490;2053.7856;1553
2024-05-24T23:21:10.801;599616313234390419;2061.4775;1515
2024-05-24T23:21:10.809;599616313242082348;2069.1694;1529
2024-05-24T23:21:10.816;599616313249774277;2076.8613;1544
2024-05-24T23:21:10.824;599616313257466206;2084.5532;1517
2024-05-24T23:21:10.832;599616313265158135;2092.2454;1487
2024-05-24T23:21:10.839;599616313272850064;2099.9373;1428
2024-05-24T23:21:10.847;599616313280541993;2107.6292;1321
2024-05-24T23:21:10.855;599616313288233922;2115.321;1266
2024-05-24T23:21:10.863;599616313295925851;2123.013;1283
2024-05-24T23:21:10.870;599616313303617780;2130.7048;1297
2024-05-24T23:21:10.878;599616313311309709;2138.3967;1300
2024-05-24T23:21:10.886;599616313319001638;2146.0886;1283
2024-05-24T23:21:10.893;599616313326693567;2153.7808;1262
2024-05-24T23:21:10.901;599616313334385496;2161.4724;1269
2024-05-24T23:21:10.909;599616313342077425;2169.1646;1274
2024-05-24T23:21:10.916;599616313349769354;2176.8567;1226
2024-05-24T23:21:10.924;599616313357461283;2184.5483;1162
2024-05-24T23:21:10.932;599616313365153212;2192.2405;1141
2024-05-24T23:21:10.939;599616313372845141;2199.9321;1136
2024-05-24T23:21:10.947;599616313380537070;2207.6243;1131
2024-05-24T23:21:10.955;599616313388228999;2215.3162;1150
2024-05-24T23:21:10.963;599616313395920928;2223.008;1172
2024-05-24T23:21:10.970;599616313403612857;2230.7;1141
2024-05-24T23:21:10.978;599616313411304786;2238.3918;1084
2024-05-24T23:21:10.986;599616313418976666;2246.064;1041
2024-05-24T23:21:10.993;599616313426668874;2253.7559;1004
2024-05-24T23:21:11.001;599616313434361082;2261.4482;966
2024-05-24T23:21:11.009;599616313442053290;2269.1404;923
2024-05-24T23:21:11.016;599616313449745498;2276.8325;878
2024-05-24T23:21:11.024;599616313457437706;2284.525;812
2024-05-24T23:21:11.032;599616313465129914;2292.217;719
2024-05-24T23:21:11.039;599616313472822122;2299.9092;793
2024-05-24T23:21:11.047;599616313480514330;2307.6013;1226
2024-05-24T23:21:11.055;599616313488206538;2315.2937;1709
2024-05-24T23:21:11.062;599616313495898746;2322.9858;1629
2024-05-24T23:21:11.070;599616313503590954;2330.678;963
2024-05-24T23:21:11.078;599616313511283162;2338.3704;483
2024-05-24T23:21:11.086;599616313518975370;2346.0625;563
2024-05-24T23:21:11.093;599616313526667578;2353.7546;658
2024-05-24T23:21:11.101;599616313534359786;2361.447;539
2024-05-24T23:21:11.109;599616313542051994;2369.1392;532
2024-05-24T23:21:11.116;599616313549744202;2376.8313;584
2024-05-24T23:21:11.124;599616313557436410;2384.5234;551
2024-05-24T23:21:11.132;599616313565128618;2392.2158;549
2024-05-24T23:21:11.139;599616313572820826;2399.908;608
2024-05-24T23:21:11.147;599616313580513034;2407.6;629
2024-05-24T23:21:11.155;599616313588205242;2415.2925;620
2024-05-24T23:21:11.162;599616313595897450;2422.9844;622
2024-05-24T23:21:11.170;599616313603589658;2430.6768;644
2024-05-24T23:21:11.178;599616313611281866;2438.3691;663
2024-05-24T23:21:11.186;599616313618974074;2446.061;670
2024-05-24T23:21:11.193;599616313626666282;2453.7534;682
2024-05-24T23:21:11.201;599616313634358490;2461.4456;715
2024-05-24T23:21:11.209;599616313642050698;2469.138;724
2024-05-24T23:21:11.216;599616313649742906;2476.8298;710
2024-05-24T23:21:11.224;599616313657435114;2484.5222;719
2024-05-24T23:21:11.232;599616313665127322;2492.2146;727
2024-05-24T23:21:11.239;599616313672819530;2499.9065;698
2024-05-24T23:21:11.247;599616313680511738;2507.5989;674
2024-05-24T23:21:11.255;599616313688203946;2515.291;689
2024-05-24T23:21:11.262;599616313695896154;2522.9832;719
2024-05-24T23:21:11.270;599616313703588362;2530.6755;741
2024-05-24T23:21:11.278;599616313711280570;2538.3677;748
2024-05-24T23:21:11.286;599616313718972778;2546.0598;772
2024-05-24T23:21:11.293;599616313726664986;2553.752;800
2024-05-24T23:21:11.301;599616313734357194;2561.4443;790
2024-05-24T23:21:11.309;599616313742049402;2569.1365;767
2024-05-24T23:21:11.316;599616313749741610;2576.8286;776
2024-05-24T23:21:11.324;599616313757433818;2584.521;781
2024-05-24T23:21:11.332;599616313765126026;2592.2131;743
2024-05-24T23:21:11.339;599616313772818234;2599.9053;667
2024-05-24T23:21:11.347;599616313780510442;2607.5977;561
2024-05-24T23:21:11.355;599616313788202650;2615.2898;506
2024-05-24T23:21:11.362;599616313795894858;2622.982;530
2024-05-24T23:21:11.370;599616313803587066;2630.674;539
2024-05-24T23:21:11.378;599616313811279274;2638.3665;544
2024-05-24T23:21:11.386;599616313818971482;2646.0586;577
2024-05-24T23:21:11.393;599616313826663690;2653.7507;573
2024-05-24T23:21:11.401;599616313834355898;2661.443;556
2024-05-24T23:21:11.409;599616313842048106;2669.135;587
2024-05-24T23:21:11.416;599616313849740314;2676.8274;625
2024-05-24T23:21:11.424;599616313857432522;2684.5198;627
2024-05-24T23:21:11.432;599616313865124730;2692.2117;622
2024-05-24T23:21:11.439;599616313872816938;2699.904;632
2024-05-24T23:21:11.447;599616313880509146;2707.5962;641
2024-05-24T23:21:11.455;599616313888201354;2715.2886;637
2024-05-24T23:21:11.462;599616313895893562;2722.9807;646
2024-05-24T23:21:11.470;599616313903585770;2730.6729;670
2024-05-24T23:21:11.478;599616313911277978;2738.3652;651
2024-05-24T23:21:11.486;599616313918970186;2746.0571;573
2024-05-24T23:21:11.493;599616313926662394;2753.7495;537
2024-05-24T23:21:11.501;599616313934354602;2761.442;580
2024-05-24T23:21:11.509;599616313942046810;2769.1338;603
2024-05-24T23:21:11.516;599616313949739018;2776.8262;592
2024-05-24T23:21:11.524;599616313957431226;2784.5183;601
2024-05-24T23:21:11.532;599616313965123434;2792.2104;608
2024-05-24T23:21:11.539;599616313972815642;2799.9028;603
2024-05-24T23:21:11.547;599616313980537960;2807.625;603
2024-05-24T23:21:11.555;599616313988229750;2815.3167;615
2024-05-24T23:21:11.563;599616313995921540;2823.0085;641
2024-05-24T23:21:11.570;599616314003613330;2830.7004;646
2024-05-24T23:21:11.578;599616314011305120;2838.3923;610
2024-05-24T23:21:11.586;599616314018996910;2846.084;601
2024-05-24T23:21:11.593;599616314026688700;2853.776;632
2024-05-24T23:21:11.601;599616314034380490;2861.4675;603
2024-05-24T23:21:11.609;599616314042072280;2869.1594;506
2024-05-24T23:21:11.616;599616314049764070;2876.8513;468
2024-05-24T23:21:11.624;599616314057455860;2884.543;478
2024-05-24T23:21:11.632;599616314065147650;2892.2349;426
2024-05-24T23:21:11.639;599616314072839440;2899.9265;378
2024-05-24T23:21:11.647;599616314080531230;2907.6184;407
2024-05-24T23:21:11.655;599616314088223020;2915.31;435
2024-05-24T23:21:11.663;599616314095914810;2923.002;421
2024-05-24T23:21:11.670;599616314103606600;2930.6936;400
2024-05-24T23:21:11.678;599616314111298390;2938.3855;397
2024-05-24T23:21:11.686;599616314118990180;2946.0771;419
2024-05-24T23:21:11.693;599616314126681970;2953.769;431
2024-05-24T23:21:11.701;599616314134373760;2961.4607;426
2024-05-24T23:21:11.709;599616314142065550;2969.1528;431
2024-05-24T23:21:11.716;599616314149757340;2976.8445;404
2024-05-24T23:21:11.724;599616314157449130;2984.5364;331
2024-05-24T23:21:11.732;599616314165140920;2992.228;272
2024-05-24T23:21:11.739;599616314172832710;2999.92;251
2024-05-24T23:21:11.747;599616314180524500;3007.6116;241
2024-05-24T23:21:11.755;599616314188216290;3015.3035;213
2024-05-24T23:21:11.762;599616314195908080;3022.995;168
2024-05-24T23:21:11.770;599616314203599870;3030.687;168
2024-05-24T23:21:11.778;599616314211291660;3038.3787;196
2024-05-24T23:21:11.786;599616314218983450;3046.0706;201
2024-05-24T23:21:11.793;599616314226675240;3053.7622;196
2024-05-24T23:21:11.801;599616314234367030;3061.454;215
2024-05-24T23:21:11.809;599616314242058820;3069.1458;206
2024-05-24T23:21:11.816;599616314249750610;3076.8376;175
2024-05-24T23:21:11.824;599616314257442400;3084.5293;265
2024-05-24T23:21:11.832;599616314265134190;3092.2212;615
2024-05-24T23:21:11.839;599616314272825980;3099.9128;1124
2024-05-24T23:21:11.847;599616314280517770;3107.605;1285
2024-05-24T23:21:11.855;599616314288209560;3115.2969;767
2024-05-24T23:21:11.862;599616314295901350;3122.9885;134
2024-05-24T23:21:11.870;599616314303593140;3130.6804;42
2024-05-24T23:21:11.878;599616314311284930;3138.372;184
2024-05-24T23:21:11.886;599616314318976720;3146.064;139
2024-05-24T23:21:11.893;599616314326668510;3153.7556;99
2024-05-24T23:21:11.901;599616314334360300;3161.4475;144
2024-05-24T23:21:11.909;599616314342052090;3169.1392;139
2024-05-24T23:21:11.916;599616314349743880;3176.831;149
2024-05-24T23:21:11.924;599616314357435670;3184.5227;206
2024-05-24T23:21:11.932;599616314365127460;3192.2146;227
2024-05-24T23:21:11.939;599616314372819250;3199.9062;224
2024-05-24T23:21:11.947;599616314380511040;3207.5981;239
2024-05-24T23:21:11.955;599616314388202830;3215.2898;262
2024-05-24T23:21:11.962;599616314395894620;3222.9817;296
2024-05-24T23:21:11.970;599616314403586410;3230.6733;305
2024-05-24T23:21:11.978;599616314411278200;3238.3652;279
2024-05-24T23:21:11.986;599616314418969990;3246.057;279
2024-05-24T23:21:11.993;599616314426661780;3253.749;296
2024-05-24T23:21:12.001;599616314434353570;3261.4407;293
2024-05-24T23:21:12.009;599616314442045360;3269.1326;317
2024-05-24T23:21:12.016;599616314449737150;3276.8242;367
2024-05-24T23:21:12.024;599616314457428940;3284.516;390
2024-05-24T23:21:12.032;599616314465120730;3292.2078;390
2024-05-24T23:21:12.039;599616314472812520;3299.8997;397
2024-05-24T23:21:12.047;599616314480504310;3307.5913;421
2024-05-24T23:21:12.055;599616314488196100;3315.2832;445
2024-05-24T23:21:12.062;599616314495887890;3322.975;466
2024-05-24T23:21:12.070;599616314503579680;3330.6667;494
2024-05-24T23:21:12.078;599616314511271470;3338.3586;511
2024-05-24T23:21:12.086;599616314518963260;3346.0503;494
2024-05-24T23:21:12.093;599616314526655050;3353.7422;483
2024-05-24T23:21:12.101;599616314534346840;3361.4338;504
2024-05-24T23:21:12.109;599616314542038644;3369.1257;509
2024-05-24T23:21:12.116;599616314549730434;3376.8174;471
2024-05-24T23:21:12.124;599616314557422224;3384.5095;438
2024-05-24T23:21:12.132;599616314565114014;3392.2012;416
2024-05-24T23:21:12.139;599616314572805804;3399.893;367
2024-05-24T23:21:12.147;599616314580497594;3407.5847;293
2024-05-24T23:21:12.155;599616314588189384;3415.2766;269
2024-05-24T23:21:12.162;599616314595881174;3422.9683;300
2024-05-24T23:21:12.170;599616314603572964;3430.6602;307
2024-05-24T23:21:12.178;599616314611264754;3438.3518;279
2024-05-24T23:21:12.186;599616314618956544;3446.0437;288
2024-05-24T23:21:12.193;599616314626648334;3453.7354;324
2024-05-24T23:21:12.201;599616314634340124;3461.4272;336
2024-05-24T23:21:12.209;599616314642031914;3469.119;331
2024-05-24T23:21:12.216;599616314649723704;3476.8108;312
2024-05-24T23:21:12.224;599616314657415494;3484.5024;267
2024-05-24T23:21:12.232;599616314665107284;3492.1943;239
2024-05-24T23:21:12.239;599616314672799074;3499.886;253
2024-05-24T23:21:12.247;599616314680490864;3507.578;284
2024-05-24T23:21:12.255;599616314688182654;3515.2695;303
2024-05-24T23:21:12.262;599616314695874444;3522.9617;307
2024-05-24T23:21:12.270;599616314703566234;3530.6533;293
2024-05-24T23:21:12.278;599616314711258024;3538.3452;298
2024-05-24T23:21:12.286;599616314718949814;3546.037;326
2024-05-24T23:21:12.293;599616314726641604;3553.7288;336
2024-05-24T23:21:12.301;599616314734333394;3561.4207;331
2024-05-24T23:21:12.309;599616314742025184;3569.1123;348
2024-05-24T23:21:12.316;599616314749716974;3576.8042;352
2024-05-24T23:21:12.324;599616314757408764;3584.4958;341
2024-05-24T23:21:12.332;599616314765100554;3592.1877;345
2024-05-24T23:21:12.339;599616314772792344;3599.8794;362
2024-05-24T23:21:12.347;599616314780484134;3607.5713;322
2024-05-24T23:21:12.355;599616314788175924;3615.263;217
2024-05-24T23:21:12.362;599616314795867714;3622.9548;170
2024-05-24T23:21:12.370;599616314803559504;3630.6465;213
2024-05-24T23:21:12.378;599616314811251294;3638.3384;234
2024-05-24T23:21:12.386;599616314818943084;3646.03;227
2024-05-24T23:21:12.393;599616314826634874;3653.722;246
2024-05-24T23:21:12.401;599616314834326664;3661.4138;277
2024-05-24T23:21:12.409;599616314842018454;3669.1057;272
2024-05-24T23:21:12.416;599616314849710244;3676.7974;253
2024-05-24T23:21:12.424;599616314857402034;3684.4893;272
2024-05-24T23:21:12.432;599616314865093824;3692.181;305
2024-05-24T23:21:12.439;599616314872785614;3699.8728;322
2024-05-24T23:21:12.447;599616314880477404;3707.5645;314
2024-05-24T23:21:12.455;599616314888169194;3715.2563;303
2024-05-24T23:21:12.462;599616314895860984;3722.948;284
2024-05-24T23:21:12.470;599616314903552774;3730.64;251
2024-05-24T23:21:12.478;599616314911244564;3738.3315;229
2024-05-24T23:21:12.486;599616314918936354;3746.0234;255
2024-05-24T23:21:12.493;599616314926628144;3753.715;279
2024-05-24T23:21:12.501;599616314934319934;3761.407;262
2024-05-24T23:21:12.509;599616314942011724;3769.0986;239
2024-05-24T23:21:12.516;599616314949703514;3776.7905;260
2024-05-24T23:21:12.524;599616314957395304;3784.4824;293
2024-05-24T23:21:12.532;599616314965087094;3792.174;296
2024-05-24T23:21:12.539;599616314972778884;3799.866;281
2024-05-24T23:21:12.547;599616314980470674;3807.5579;288
2024-05-24T23:21:12.555;599616314988162464;3815.2498;317
2024-05-24T23:21:12.562;599616314995854254;3822.9414;345
2024-05-24T23:21:12.570;599616315003546044;3830.6333;352
2024-05-24T23:21:12.578;599616315011237834;3838.325;345
2024-05-24T23:21:12.586;599616315018929624;3846.0168;350
2024-05-24T23:21:12.593;599616315026621414;3853.7085;331
2024-05-24T23:21:12.601;599616315034313204;3861.4004;305
2024-05-24T23:21:12.609;599616315042004994;3869.092;322
2024-05-24T23:21:12.616;599616315049696784;3876.784;352
2024-05-24T23:21:12.624;599616315057388574;3884.4756;338
2024-05-24T23:21:12.632;599616315065080364;3892.1675;303
2024-05-24T23:21:12.639;599616315072772154;3899.8591;338
2024-05-24T23:21:12.647;599616315080463944;3907.551;580
2024-05-24T23:21:12.655;599616315088155734;3915.2427;1056
2024-05-24T23:21:12.662;599616315095847524;3922.9346;1420
2024-05-24T23:21:12.670;599616315103524278;3930.6116;1186
2024-05-24T23:21:12.678;599616315111216277;3938.3035;525
2024-05-24T23:21:12.685;599616315118908276;3945.9954;182
2024-05-24T23:21:12.693;599616315126600275;3953.6873;288
2024-05-24T23:21:12.701;599616315134292274;3961.3794;324
2024-05-24T23:21:12.709;599616315141984273;3969.0713;208
2024-05-24T23:21:12.716;599616315149676272;3976.7634;182
2024-05-24T23:21:12.724;599616315157368271;3984.4553;203
2024-05-24T23:21:12.732;599616315165060270;3992.1475;187
2024-05-24T23:21:12.739;599616315172752269;3999.8396;149
2024-05-24T23:21:12.747;599616315180444268;4007.5312;94
2024-05-24T23:21:12.755;599616315188136267;4015.2234;68
2024-05-24T23:21:12.762;599616315195828266;4022.9153;111
2024-05-24T23:21:12.770;599616315203520265;4030.6074;132
2024-05-24T23:21:12.778;599616315211212264;4038.2993;104
2024-05-24T23:21:12.785;599616315218904263;4045.9915;108
2024-05-24T23:21:12.793;599616315226596262;4053.6833;156
2024-05-24T23:21:12.801;599616315234288261;4061.3752;177
2024-05-24T23:21:12.809;599616315241980260;4069.0674;177
2024-05-24T23:21:12.816;599616315249672259;4076.7593;194
2024-05-24T23:21:12.824;599616315257364258;4084.4514;217
2024-05-24T23:21:12.832;599616315265056257;4092.1433;220
2024-05-24T23:21:12.839;599616315272748256;4099.8354;215
2024-05-24T23:21:12.847;599616315280440255;4107.5273;191
2024-05-24T23:21:12.855;599616315288132254;4115.219;134
2024-05-24T23:21:12.862;599616315295824253;4122.911;106
2024-05-24T23:21:12.870;599616315303516252;4130.603;120
2024-05-24T23:21:12.878;599616315311208251;4138.2954;142
2024-05-24T23:21:12.885;599616315318900250;4145.9873;175
2024-05-24T23:21:12.893;599616315326592249;4153.679;196
2024-05-24T23:21:12.901;599616315334284248;4161.3716;206
2024-05-24T23:21:12.909;599616315341976247;4169.0635;227
2024-05-24T23:21:12.916;599616315349668246;4176.7554;232
2024-05-24T23:21:12.924;599616315357360245;4184.4473;201
2024-05-24T23:21:12.932;599616315365052244;4192.139;179
2024-05-24T23:21:12.939;599616315372744243;4199.831;191
2024-05-24T23:21:12.947;599616315380436242;4207.5234;196
2024-05-24T23:21:12.955;599616315388128241;4215.2153;156
2024-05-24T23:21:12.962;599616315395820240;4222.907;92
2024-05-24T23:21:12.970;599616315403512239;4230.5996;80
2024-05-24T23:21:12.978;599616315411204238;4238.2915;108
2024-05-24T23:21:12.985;599616315418896237;4245.9834;111
2024-05-24T23:21:12.993;599616315426588236;4253.6753;116
2024-05-24T23:21:13.001;599616315434280235;4261.367;144
2024-05-24T23:21:13.009;599616315441972234;4269.0596;146
2024-05-24T23:21:13.016;599616315449664233;4276.7515;132
2024-05-24T23:21:13.024;599616315457356232;4284.4434;153
2024-05-24T23:21:13.032;599616315465048231;4292.1353;187
2024-05-24T23:21:13.039;599616315472740230;4299.827;198
2024-05-24T23:21:13.047;599616315480432229;4307.5195;189
2024-05-24T23:21:13.055;599616315488124228;4315.2114;184
2024-05-24T23:21:13.062;599616315495816227;4322.9033;198
2024-05-24T23:21:13.070;599616315503508226;4330.595;208
2024-05-24T23:21:13.078;599616315511200225;4338.287;206
2024-05-24T23:21:13.085;599616315518892224;4345.9795;201
2024-05-24T23:21:13.093;599616315526584223;4353.6714;168
2024-05-24T23:21:13.101;599616315534276222;4361.3633;123
2024-05-24T23:21:13.109;599616315541968221;4369.055;97
2024-05-24T23:21:13.116;599616315549660220;4376.7476;108
2024-05-24T23:21:13.124;599616315557352219;4384.4395;132
2024-05-24T23:21:13.132;599616315565044218;4392.131;130
2024-05-24T23:21:13.139;599616315572736217;4399.823;116
2024-05-24T23:21:13.147;599616315580428216;4407.515;108
2024-05-24T23:21:13.155;599616315588120215;4415.2075;113
2024-05-24T23:21:13.162;599616315595812214;4422.8994;120
2024-05-24T23:21:13.170;599616315603504213;4430.5913;116
2024-05-24T23:21:13.178;599616315611196212;4438.283;106
2024-05-24T23:21:13.185;599616315618888211;4445.9756;68
2024-05-24T23:21:13.193;599616315626580210;4453.6675;0
2024-05-24T23:21:13.201;599616315634272209;4461.359;-78
2024-05-24T23:21:13.209;599616315641964208;4469.0513;-149
2024-05-24T23:21:13.216;599616315649656207;4476.743;-175
2024-05-24T23:21:13.224;599616315657348206;4484.4355;-163
2024-05-24T23:21:13.232;599616315665040218;4492.1274;-170
2024-05-24T23:21:13.239;599616315672732217;4499.8193;-172
2024-05-24T23:21:13.247;599616315680424216;4507.511;-156
2024-05-24T23:21:13.255;599616315688116215;4515.203;-151
2024-05-24T23:21:13.262;599616315695808214;4522.8955;-146
2024-05-24T23:21:13.270;599616315703500213;4530.587;-116
2024-05-24T23:21:13.278;599616315711192212;4538.2793;-120
2024-05-24T23:21:13.285;599616315718884211;4545.971;-194
2024-05-24T23:21:13.293;599616315726576210;4553.6636;-236
2024-05-24T23:21:13.301;599616315734268209;4561.3555;-191
2024-05-24T23:21:13.309;599616315741960208;4569.0474;-156
2024-05-24T23:21:13.316;599616315749652207;4576.7393;-163
2024-05-24T23:21:13.324;599616315757344206;4584.431;-156
2024-05-24T23:21:13.332;599616315765036205;4592.1235;-134
2024-05-24T23:21:13.339;599616315772728204;4599.815;-113
2024-05-24T23:21:13.347;599616315780420203;4607.5073;-118
2024-05-24T23:21:13.355;599616315788112202;4615.199;-161
2024-05-24T23:21:13.362;599616315795804201;4622.8916;-149
2024-05-24T23:21:13.370;599616315803496200;4630.5835;-113
2024-05-24T23:21:13.378;599616315811188199;4638.275;-137
2024-05-24T23:21:13.385;599616315818880198;4645.9673;-132
2024-05-24T23:21:13.393;599616315826572197;4653.659;-73
2024-05-24T23:21:13.401;599616315834264196;4661.3516;-49
2024-05-24T23:21:13.409;599616315841956195;4669.043;-44
2024-05-24T23:21:13.416;599616315849648194;4676.7354;-16
2024-05-24T23:21:13.424;599616315857340193;4684.4272;-9
2024-05-24T23:21:13.432;599616315865032192;4692.119;-26
2024-05-24T23:21:13.439;599616315872724191;4699.8115;56
2024-05-24T23:21:13.447;599616315880416190;4707.503;388
2024-05-24T23:21:13.455;599616315888108189;4715.1953;883
2024-05-24T23:21:13.462;599616315895800188;4722.887;1094
2024-05-24T23:21:13.470;599616315903492187;4730.5796;655
2024-05-24T23:21:13.478;599616315911184186;4738.271;16
2024-05-24T23:21:13.485;599616315918876185;4745.9634;-106
2024-05-24T23:21:13.493;599616315926568184;4753.6553;71
2024-05-24T23:21:13.501;599616315934260183;4761.347;37
2024-05-24T23:21:13.509;599616315941952182;4769.0396;-30
2024-05-24T23:21:13.516;599616315949644181;4776.731;21
2024-05-24T23:21:13.524;599616315957336180;4784.4233;40
2024-05-24T23:21:13.532;599616315965028179;4792.115;30
2024-05-24T23:21:13.539;599616315972720178;4799.8076;80
2024-05-24T23:21:13.547;599616315980412177;4807.499;123
2024-05-24T23:21:13.555;599616315988104176;4815.191;116
2024-05-24T23:21:13.562;599616315995796175;4822.8833;108
2024-05-24T23:21:13.570;599616316003488174;4830.575;137
2024-05-24T23:21:13.578;599616316011180173;4838.2676;172
2024-05-24T23:21:13.585;599616316018872172;4845.959;182
2024-05-24T23:21:13.593;599616316026564171;4853.6514;189
2024-05-24T23:21:13.601;599616316034256170;4861.3433;213
2024-05-24T23:21:13.609;599616316041948169;4869.0356;213
2024-05-24T23:21:13.616;599616316049640168;4876.7275;206
2024-05-24T23:21:13.624;599616316057332167;4884.419;232
2024-05-24T23:21:13.632;599616316065024166;4892.1113;272
2024-05-24T23:21:13.639;599616316072716165;4899.803;291
2024-05-24T23:21:13.647;599616316080408164;4907.4956;291
2024-05-24T23:21:13.655;599616316088100163;4915.187;288
2024-05-24T23:21:13.662;599616316095792162;4922.8794;312
2024-05-24T23:21:13.670;599616316103484161;4930.5713;338
2024-05-24T23:21:13.678;599616316111176160;4938.263;343
2024-05-24T23:21:13.685;599616316118868159;4945.9556;357
2024-05-24T23:21:13.693;599616316126560158;4953.647;357
2024-05-24T23:21:13.701;599616316134252157;4961.3394;296
2024-05-24T23:21:13.709;599616316141944156;4969.0312;248
2024-05-24T23:21:13.716;599616316149636155;4976.7236;267
2024-05-24T23:21:13.724;599616316157328154;4984.415;286
2024-05-24T23:21:13.732;599616316165020153;4992.107;255
2024-05-24T23:21:13.739;599616316172712152;4999.7993;220
2024-05-24T23:21:13.747;599616316180404151;5007.491;201
2024-05-24T23:21:13.755;599616316188096150;5015.1836;194
2024-05-24T23:21:13.762;599616316195788149;5022.875;189
2024-05-24T23:21:13.770;599616316203480148;5030.5674;189
2024-05-24T23:21:13.778;599616316211172147;5038.2593;206
2024-05-24T23:21:13.785;599616316218864146;5045.9517;224
2024-05-24T23:21:13.793;599616316226546152;5053.633;213
2024-05-24T23:21:13.801;599616316234238290;5061.325;201
2024-05-24T23:21:13.809;599616316241930428;5069.0176;232
2024-05-24T23:21:13.816;599616316249622566;5076.71;260
2024-05-24T23:21:13.824;599616316257314704;5084.402;255
2024-05-24T23:21:13.832;599616316265006842;5092.0938;241
2024-05-24T23:21:13.839;599616316272698980;5099.786;206
2024-05-24T23:21:13.847;599616316280391118;5107.478;94
2024-05-24T23:21:13.855;599616316288083256;5115.1704;-61
2024-05-24T23:21:13.862;599616316295775394;5122.863;-132
2024-05-24T23:21:13.870;599616316303467532;5130.5547;-89
2024-05-24T23:21:13.878;599616316311159670;5138.2466;-66
2024-05-24T23:21:13.885;599616316318851808;5145.939;-94
2024-05-24T23:21:13.893;599616316326543946;5153.6313;-89
2024-05-24T23:21:13.901;599616316334236084;5161.323;-42
2024-05-24T23:21:13.909;599616316341928222;5169.015;-23
2024-05-24T23:21:13.916;599616316349620360;5176.7075;-30
2024-05-24T23:21:13.924;599616316357312498;5184.3994;-30
2024-05-24T23:21:13.932;599616316365004636;5192.092;-47
2024-05-24T23:21:13.939;599616316372696774;5199.784;-94
2024-05-24T23:21:13.947;599616316380388912;5207.476;-156
2024-05-24T23:21:13.955;599616316388081050;5215.168;-203
2024-05-24T23:21:13.962;599616316395773188;5222.8604;-189
2024-05-24T23:21:13.970;599616316403465326;5230.5527;-175
2024-05-24T23:21:13.978;599616316411157464;5238.244;-206
2024-05-24T23:21:13.985;599616316418849602;5245.9365;-203
2024-05-24T23:21:13.993;599616316426541740;5253.629;-165
2024-05-24T23:21:14.001;599616316434233878;5261.3213;-153
2024-05-24T23:21:14.009;599616316441926016;5269.013;-153
2024-05-24T23:21:14.016;599616316449618154;5276.705;-125
2024-05-24T23:21:14.024;599616316457310292;5284.3975;-108
2024-05-24T23:21:14.032;599616316465002430;5292.0894;-118
2024-05-24T23:21:14.039;599616316472694568;5299.7817;-106
2024-05-24T23:21:14.047;599616316480386706;5307.474;-66
2024-05-24T23:21:14.055;599616316488078844;5315.1655;-35
2024-05-24T23:21:14.062;599616316495770982;5322.858;-35
2024-05-24T23:21:14.070;599616316503463120;5330.5503;-42
2024-05-24T23:21:14.078;599616316511155258;5338.2427;-21
2024-05-24T23:21:14.085;599616316518847396;5345.9346;11
2024-05-24T23:21:14.093;599616316526539534;5353.6265;21
2024-05-24T23:21:14.101;599616316534231672;5361.319;33
2024-05-24T23:21:14.109;599616316541923810;5369.0107;56
2024-05-24T23:21:14.116;599616316549615948;5376.703;56
2024-05-24T23:21:14.124;599616316557308086;5384.3955;47
2024-05-24T23:21:14.132;599616316565000224;5392.0874;73
2024-05-24T23:21:14.139;599616316572692362;5399.7793;123
2024-05-24T23:21:14.147;599616316580384500;5407.4717;163
2024-05-24T23:21:14.155;599616316588076638;5415.164;170
2024-05-24T23:21:14.162;599616316595768776;5422.8555;149
2024-05-24T23:21:14.170;599616316603460914;5430.548;146
2024-05-24T23:21:14.178;599616316611153052;5438.24;182
2024-05-24T23:21:14.185;599616316618845190;5445.932;191
2024-05-24T23:21:14.193;599616316626537328;5453.6245;158
2024-05-24T23:21:14.201;599616316634229466;5461.3164;149
2024-05-24T23:21:14.209;599616316641921604;5469.009;156
2024-05-24T23:21:14.216;599616316649613742;5476.7007;127
2024-05-24T23:21:14.224;599616316657305880;5484.393;146
2024-05-24T23:21:14.232;599616316664998018;5492.0854;352
2024-05-24T23:21:14.239;599616316672690156;5499.777;819
2024-05-24T23:21:14.247;599616316680382294;5507.469;1283
2024-05-24T23:21:14.255;599616316688074432;5515.1616;1217
2024-05-24T23:21:14.262;599616316695766570;5522.854;589
2024-05-24T23:21:14.270;599616316703458708;5530.546;116
2024-05-24T23:21:14.278;599616316711150846;5538.238;175
2024-05-24T23:21:14.285;599616316718842984;5545.93;279
2024-05-24T23:21:14.293;599616316726535122;5553.622;175
2024-05-24T23:21:14.301;599616316734227260;5561.3145;137
2024-05-24T23:21:14.309;599616316741919398;5569.007;182
2024-05-24T23:21:14.316;599616316749611536;5576.6987;187
2024-05-24T23:21:14.324;599616316757303674;5584.3906;201
2024-05-24T23:21:14.332;599616316764995812;5592.083;227
2024-05-24T23:21:14.339;599616316772687950;5599.7754;215
2024-05-24T23:21:14.347;599616316780380088;5607.467;170
2024-05-24T23:21:14.355;599616316788092352;5615.179;99
2024-05-24T23:21:14.362;599616316795784211;5622.8716;63
2024-05-24T23:21:14.370;599616316803476070;5630.5635;87
2024-05-24T23:21:14.378;599616316811167929;5638.255;123
2024-05-24T23:21:14.385;599616316818859788;5645.947;132
2024-05-24T23:21:14.393;599616316826551647;5653.6387;80
2024-05-24T23:21:14.401;599616316834243506;5661.3306;23
2024-05-24T23:21:14.409;599616316841935365;5669.022;54
2024-05-24T23:21:14.416;599616316849627224;5676.7144;116
2024-05-24T23:21:14.424;599616316857319083;5684.4062;125
2024-05-24T23:21:14.432;599616316865010942;5692.098;104
2024-05-24T23:21:14.439;599616316872702801;5699.79;73
2024-05-24T23:21:14.447;599616316880394660;5707.4814;73
2024-05-24T23:21:14.455;599616316888086519;5715.1733;104
2024-05-24T23:21:14.462;599616316895778378;5722.8657;134
2024-05-24T23:21:14.470;599616316903470237;5730.5576;170
2024-05-24T23:21:14.478;599616316911162096;5738.249;196
2024-05-24T23:21:14.485;599616316918853955;5745.941;189
2024-05-24T23:21:14.493;599616316926545814;5753.633;187
2024-05-24T23:21:14.501;599616316934237673;5761.3247;227
2024-05-24T23:21:14.509;599616316941929532;5769.0166;246
2024-05-24T23:21:14.516;599616316949621391;5776.7085;220
2024-05-24T23:21:14.524;599616316957313250;5784.4004;198
2024-05-24T23:21:14.532;599616316965005109;5792.0923;187
2024-05-24T23:21:14.539;599616316972696968;5799.784;168
2024-05-24T23:21:14.547;599616316980388827;5807.4756;161
2024-05-24T23:21:14.555;599616316988080686;5815.168;175
2024-05-24T23:21:14.562;599616316995772545;5822.86;198
2024-05-24T23:21:14.570;599616317003464404;5830.552;203
2024-05-24T23:21:14.578;599616317011156263;5838.243;179
2024-05-24T23:21:14.585;599616317018848122;5845.935;153
2024-05-24T23:21:14.593;599616317026539981;5853.627;137
2024-05-24T23:21:14.601;599616317034231840;5861.3193;120
2024-05-24T23:21:14.609;599616317041923699;5869.0107;108
2024-05-24T23:21:14.616;599616317049615558;5876.7026;111
2024-05-24T23:21:14.624;599616317057307417;5884.3945;116
2024-05-24T23:21:14.632;599616317064999276;5892.0864;106
2024-05-24T23:21:14.639;599616317072691135;5899.778;106
2024-05-24T23:21:14.647;599616317080382994;5907.47;132
2024-05-24T23:21:14.655;599616317088074853;5915.162;151
2024-05-24T23:21:14.662;599616317095766712;5922.854;139
2024-05-24T23:21:14.670;599616317103458571;5930.546;108
2024-05-24T23:21:14.678;599616317111150430;5938.2373;61
2024-05-24T23:21:14.685;599616317118842289;5945.929;-4
2024-05-24T23:21:14.693;599616317126534148;5953.621;-66
2024-05-24T23:21:14.701;599616317134226007;5961.3135;-104
2024-05-24T23:21:14.709;599616317141917866;5969.005;-120
2024-05-24T23:21:14.716;599616317149609725;5976.697;-127
2024-05-24T23:21:14.724;599616317157301584;5984.3887;-134
2024-05-24T23:21:14.732;599616317164993443;5992.0806;-132
2024-05-24T23:21:14.739;599616317172685302;5999.772;-106
2024-05-24T23:21:14.747;599616317180377161;6007.4644;-82
2024-05-24T23:21:14.755;599616317188069020;6015.1562;-87
2024-05-24T23:21:14.762;599616317195760879;6022.848;-99
2024-05-24T23:21:14.770;599616317203452738;6030.5396;-80
2024-05-24T23:21:14.778;599616317211144597;6038.2314;-52
2024-05-24T23:21:14.785;599616317218836456;6045.9233;-42
2024-05-24T23:21:14.793;599616317226528315;6053.6157;-28
2024-05-24T23:21:14.801;599616317234220174;6061.3076;-2
2024-05-24T23:21:14.808;599616317241912033;6068.999;-2
2024-05-24T23:21:14.816;599616317249603892;6076.691;-14
2024-05-24T23:21:14.824;599616317257295751;6084.383;11
2024-05-24T23:21:14.832;599616317264987610;6092.0747;52
2024-05-24T23:21:14.839;599616317272679469;6099.7666;68
2024-05-24T23:21:14.847;599616317280371328;6107.4585;66
2024-05-24T23:21:14.855;599616317288063187;6115.1504;35
2024-05-24T23:21:14.862;599616317295755046;6122.8423;-33
2024-05-24T23:21:14.870;599616317303446905;6130.5337;-87
2024-05-24T23:21:14.878;599616317311138764;6138.2256;-71
2024-05-24T23:21:14.885;599616317318830623;6145.918;-30
2024-05-24T23:21:14.893;599616317326522482;6153.61;-14
2024-05-24T23:21:14.901;599616317334214341;6161.3013;-14
2024-05-24T23:21:14.908;599616317341906200;6168.993;-11
2024-05-24T23:21:14.916;599616317349603090;6176.69;21
2024-05-24T23:21:14.924;599616317357294880;6184.382;47
2024-05-24T23:21:14.932;599616317364986670;6192.0737;23
2024-05-24T23:21:14.939;599616317372678460;6199.7656;9
2024-05-24T23:21:14.947;599616317380370250;6207.4575;18
2024-05-24T23:21:14.955;599616317388062040;6215.149;16
2024-05-24T23:21:14.962;599616317395753830;6222.841;-14
2024-05-24T23:21:14.970;599616317403445620;6230.5327;-52
2024-05-24T23:21:14.978;599616317411137410;6238.2246;-30
2024-05-24T23:21:14.985;599616317418829200;6245.916;18
2024-05-24T23:21:14.993;599616317426520990;6253.608;4
2024-05-24T23:21:15.001;599616317434212780;6261.3;-21
2024-05-24T23:21:15.008;599616317441904570;6268.9917;28
2024-05-24T23:21:15.016;599616317449596360;6276.683;220
2024-05-24T23:21:15.024;599616317457288150;6284.375;651
2024-05-24T23:21:15.032;599616317464979940;6292.067;1131
2024-05-24T23:21:15.039;599616317472671730;6299.759;1136
2024-05-24T23:21:15.047;599616317480363520;6307.45;535
2024-05-24T23:21:15.055;599616317488055310;6315.1426;33
2024-05-24T23:21:15.062;599616317495747100;6322.8345;89
2024-05-24T23:21:15.070;599616317503438890;6330.5264;215
2024-05-24T23:21:15.078;599616317511130680;6338.218;116
2024-05-24T23:21:15.085;599616317518822470;6345.9097;75
2024-05-24T23:21:15.093;599616317526514260;6353.6016;130
2024-05-24T23:21:15.101;599616317534206050;6361.2935;146
2024-05-24T23:21:15.108;599616317541897840;6368.985;161
2024-05-24T23:21:15.116;599616317549589630;6376.677;184
2024-05-24T23:21:15.124;599616317557281420;6384.3687;191
2024-05-24T23:21:15.132;599616317564973210;6392.0605;198
2024-05-24T23:21:15.139;599616317572665000;6399.752;213
2024-05-24T23:21:15.147;599616317580356790;6407.444;222
2024-05-24T23:21:15.155;599616317588048580;6415.1357;234
2024-05-24T23:21:15.162;599616317595740370;6422.8276;267
2024-05-24T23:21:15.170;599616317603432160;6430.5195;274
2024-05-24T23:21:15.178;599616317611123950;6438.211;232
2024-05-24T23:21:15.185;599616317618815740;6445.903;215
2024-05-24T23:21:15.193;599616317626507530;6453.5947;253
2024-05-24T23:21:15.201;599616317634199320;6461.2866;281
2024-05-24T23:21:15.208;599616317641891110;6468.978;288
2024-05-24T23:21:15.216;599616317649582900;6476.67;303
2024-05-24T23:21:15.224;599616317657274690;6484.362;317
2024-05-24T23:21:15.232;599616317664966480;6492.0537;319
2024-05-24T23:21:15.239;599616317672658270;6499.745;331
2024-05-24T23:21:15.247;599616317680350060;6507.437;362
2024-05-24T23:21:15.255;599616317688041850;6515.129;390
2024-05-24T23:21:15.262;599616317695733640;6522.821;390
2024-05-24T23:21:15.270;599616317703425430;6530.512;367
2024-05-24T23:21:15.278;599616317711117220;6538.204;369
2024-05-24T23:21:15.285;599616317718809010;6545.896;397
2024-05-24T23:21:15.293;599616317726500800;6553.588;388
2024-05-24T23:21:15.301;599616317734192590;6561.2793;357
2024-05-24T23:21:15.308;599616317741884380;6568.971;341
2024-05-24T23:21:15.316;599616317749576170;6576.663;312
2024-05-24T23:21:15.324;599616317757267960;6584.355;272
2024-05-24T23:21:15.332;599616317764959750;6592.047;265
2024-05-24T23:21:15.339;599616317772651540;6599.739;284
2024-05-24T23:21:15.347;599616317780343330;6607.4307;288
2024-05-24T23:21:15.355;599616317788035120;6615.1226;260
2024-05-24T23:21:15.362;599616317795726910;6622.814;196
2024-05-24T23:21:15.370;599616317803418700;6630.506;97
2024-05-24T23:21:15.378;599616317811110490;6638.1978;28
2024-05-24T23:21:15.385;599616317818802280;6645.8896;16
2024-05-24T23:21:15.393;599616317826494070;6653.5815;26
2024-05-24T23:21:15.401;599616317834185860;6661.273;44
2024-05-24T23:21:15.408;599616317841877650;6668.965;47
2024-05-24T23:21:15.416;599616317849569440;6676.6567;30
2024-05-24T23:21:15.424;599616317857261230;6684.3486;4
2024-05-24T23:21:15.432;599616317864953020;6692.04;0
2024-05-24T23:21:15.439;599616317872644810;6699.732;21
2024-05-24T23:21:15.447;599616317880336600;6707.424;21
2024-05-24T23:21:15.455;599616317888028390;6715.1157;2
2024-05-24T23:21:15.462;599616317895720180;6722.807;-2
2024-05-24T23:21:15.470;599616317903411970;6730.499;-26
2024-05-24T23:21:15.478;599616317911073676;6738.1606;-61
2024-05-24T23:21:15.485;599616317918765884;6745.853;-87
2024-05-24T23:21:15.493;599616317926458092;6753.5454;-120
2024-05-24T23:21:15.501;599616317934150300;6761.2373;-189
2024-05-24T23:21:15.508;599616317941842508;6768.9297;-258
2024-05-24T23:21:15.516;599616317949534716;6776.6216;-255
2024-05-24T23:21:15.524;599616317957226924;6784.314;-213
2024-05-24T23:21:15.532;599616317964919132;6792.0063;-206
2024-05-24T23:21:15.539;599616317972611340;6799.698;-217
2024-05-24T23:21:15.547;599616317980303548;6807.3906;-208
2024-05-24T23:21:15.555;599616317987995756;6815.083;-189
2024-05-24T23:21:15.562;599616317995687964;6822.7754;-170
2024-05-24T23:21:15.570;599616318003380172;6830.4673;-149
2024-05-24T23:21:15.578;599616318011072380;6838.159;-116
2024-05-24T23:21:15.585;599616318018764588;6845.8516;-94
2024-05-24T23:21:15.593;599616318026456796;6853.544;-111
2024-05-24T23:21:15.601;599616318034149004;6861.2363;-118
2024-05-24T23:21:15.608;599616318041841212;6868.9287;-78
2024-05-24T23:21:15.616;599616318049533420;6876.62;-40
2024-05-24T23:21:15.624;599616318057225628;6884.3125;-33
2024-05-24T23:21:15.632;599616318064917836;6892.005;-28
2024-05-24T23:21:15.639;599616318072610044;6899.6973;-9
2024-05-24T23:21:15.647;599616318080302252;6907.3896;7
2024-05-24T23:21:15.655;599616318087994460;6915.0815;4
2024-05-24T23:21:15.662;599616318095686668;6922.774;-11
2024-05-24T23:21:15.670;599616318103378876;6930.466;-35
2024-05-24T23:21:15.678;599616318111071084;6938.158;-40
2024-05-24T23:21:15.685;599616318118763292;6945.8506;-28
2024-05-24T23:21:15.693;599616318126455500;6953.5425;-14
2024-05-24T23:21:15.701;599616318134147708;6961.235;37
2024-05-24T23:21:15.708;599616318141839916;6968.9272;89
2024-05-24T23:21:15.716;599616318149532124;6976.619;85
2024-05-24T23:21:15.724;599616318157224332;6984.3115;75
2024-05-24T23:21:15.732;599616318164916540;6992.0034;99
2024-05-24T23:21:15.739;599616318172608748;6999.696;116
2024-05-24T23:21:15.747;599616318180300956;7007.388;120
2024-05-24T23:21:15.755;599616318187993164;7015.0806;142
2024-05-24T23:21:15.762;599616318195685372;7022.7725;170
2024-05-24T23:21:15.770;599616318203377580;7030.4644;158
2024-05-24T23:21:15.778;599616318211069788;7038.1567;153
2024-05-24T23:21:15.785;599616318218761996;7045.849;355
2024-05-24T23:21:15.793;599616318226454204;7053.5415;852
2024-05-24T23:21:15.801;599616318234146412;7061.234;1297
2024-05-24T23:21:15.808;599616318241838620;7068.926;1158
2024-05-24T23:21:15.816;599616318249530828;7076.6177;509
2024-05-24T23:21:15.824;599616318257223036;7084.31;106
2024-05-24T23:21:15.832;599616318264915244;7092.0024;191
2024-05-24T23:21:15.839;599616318272607452;7099.695;243
2024-05-24T23:21:15.847;599616318280299660;7107.3867;144
2024-05-24T23:21:15.855;599616318287991868;7115.079;168
2024-05-24T23:21:15.862;599616318295684076;7122.771;177
2024-05-24T23:21:15.870;599616318303376284;7130.4634;61
2024-05-24T23:21:15.878;599616318311068492;7138.156;30
2024-05-24T23:21:15.885;599616318318760700;7145.8477;101
2024-05-24T23:21:15.893;599616318326452908;7153.54;113
2024-05-24T23:21:15.901;599616318334145116;7161.2324;108
2024-05-24T23:21:15.908;599616318341837324;7168.925;125
2024-05-24T23:21:15.916;599616318349529532;7176.616;89
2024-05-24T23:21:15.924;599616318357221740;7184.3086;47
2024-05-24T23:21:15.932;599616318364913948;7192.001;75
2024-05-24T23:21:15.939;599616318372606156;7199.6934;120
2024-05-24T23:21:15.947;599616318380298364;7207.3857;142
2024-05-24T23:21:15.955;599616318387990572;7215.078;149
2024-05-24T23:21:15.962;599616318395682780;7222.7695;156
2024-05-24T23:21:15.970;599616318403374988;7230.462;179
2024-05-24T23:21:15.978;599616318411067196;7238.1543;215
2024-05-24T23:21:15.985;599616318418759404;7245.8467;232
2024-05-24T23:21:15.993;599616318426451612;7253.5386;251
2024-05-24T23:21:16.001;599616318434143820;7261.231;281
2024-05-24T23:21:16.008;599616318441836028;7268.923;288
2024-05-24T23:21:16.016;599616318449528236;7276.615;279
2024-05-24T23:21:16.024;599616318457220444;7284.3076;303
2024-05-24T23:21:16.031;599616318464912652;7291.9995;343
2024-05-24T23:21:16.039;599616318472634972;7299.722;355
2024-05-24T23:21:16.047;599616318480326762;7307.414;338
2024-05-24T23:21:16.055;599616318488018552;7315.106;319
2024-05-24T23:21:16.062;599616318495710342;7322.7974;317
2024-05-24T23:21:16.070;599616318503402132;7330.4893;312
2024-05-24T23:21:16.078;599616318511093922;7338.181;286
2024-05-24T23:21:16.085;599616318518785712;7345.873;272
2024-05-24T23:21:16.093;599616318526477502;7353.5645;265
2024-05-24T23:21:16.101;599616318534169292;7361.2563;201
2024-05-24T23:21:16.108;599616318541861082;7368.948;106
2024-05-24T23:21:16.116;599616318549552872;7376.64;101
2024-05-24T23:21:16.124;599616318557244662;7384.3315;153
2024-05-24T23:21:16.132;599616318564936452;7392.0234;153
2024-05-24T23:21:16.139;599616318572628242;7399.7153;127
2024-05-24T23:21:16.147;599616318580320032;7407.407;137
2024-05-24T23:21:16.155;599616318588011822;7415.099;144
2024-05-24T23:21:16.162;599616318595703612;7422.7905;101
2024-05-24T23:21:16.170;599616318603395402;7430.4824;63
2024-05-24T23:21:16.178;599616318611087192;7438.1743;94
2024-05-24T23:21:16.185;599616318618778982;7445.866;123
2024-05-24T23:21:16.193;599616318626470772;7453.5576;73
2024-05-24T23:21:16.201;599616318634162562;7461.2495;23
2024-05-24T23:21:16.208;599616318641854352;7468.9414;49
2024-05-24T23:21:16.216;599616318649546142;7476.6333;80
2024-05-24T23:21:16.224;599616318657237932;7484.3247;71
2024-05-24T23:21:16.232;599616318664929722;7492.0166;59
2024-05-24T23:21:16.239;599616318672621512;7499.7085;66
2024-05-24T23:21:16.247;599616318680313302;7507.4004;75
2024-05-24T23:21:16.255;599616318688005092;7515.092;75
2024-05-24T23:21:16.262;599616318695696882;7522.7837;82
2024-05-24T23:21:16.270;599616318703388672;7530.4756;106
2024-05-24T23:21:16.278;599616318711080462;7538.168;106
2024-05-24T23:21:16.285;599616318718772252;7545.8594;59
2024-05-24T23:21:16.293;599616318726464042;7553.5513;21
2024-05-24T23:21:16.301;599616318734155832;7561.243;18
2024-05-24T23:21:16.308;599616318741847622;7568.935;-14
2024-05-24T23:21:16.316;599616318749539412;7576.6265;-52
2024-05-24T23:21:16.324;599616318757231202;7584.3184;-54
2024-05-24T23:21:16.332;599616318764922992;7592.0103;-54
2024-05-24T23:21:16.339;599616318772614782;7599.702;-61
2024-05-24T23:21:16.347;599616318780306572;7607.3936;-61
2024-05-24T23:21:16.355;599616318787998362;7615.0854;-59
2024-05-24T23:21:16.362;599616318795690152;7622.7773;-92
2024-05-24T23:21:16.370;599616318803381942;7630.469;-184
2024-05-24T23:21:16.378;599616318811073732;7638.161;-234
2024-05-24T23:21:16.385;599616318818765522;7645.8525;-194
2024-05-24T23:21:16.393;599616318826457312;7653.5444;-156
2024-05-24T23:21:16.401;599616318834149102;7661.2363;-163
2024-05-24T23:21:16.408;599616318841840892;7668.928;-184
2024-05-24T23:21:16.416;599616318849532682;7676.6196;-189
2024-05-24T23:21:16.424;599616318857224472;7684.3115;-175
2024-05-24T23:21:16.432;599616318864916262;7692.0034;-153
2024-05-24T23:21:16.439;599616318872608052;7699.6953;-130
2024-05-24T23:21:16.447;599616318880299842;7707.3867;-82
2024-05-24T23:21:16.455;599616318887991632;7715.0786;-26
2024-05-24T23:21:16.462;599616318895683422;7722.7705;-23
2024-05-24T23:21:16.470;599616318903375212;7730.4624;-56
2024-05-24T23:21:16.478;599616318911067002;7738.154;-35
2024-05-24T23:21:16.485;599616318918758792;7745.8457;18
2024-05-24T23:21:16.493;599616318926450582;7753.5376;33
2024-05-24T23:21:16.501;599616318934142372;7761.2295;35
2024-05-24T23:21:16.508;599616318941834162;7768.921;54
2024-05-24T23:21:16.516;599616318949525952;7776.613;47
2024-05-24T23:21:16.524;599616318957217742;7784.3047;35
2024-05-24T23:21:16.531;599616318964909532;7791.9966;165
2024-05-24T23:21:16.539;599616318972601322;7799.688;592
2024-05-24T23:21:16.547;599616318980293112;7807.38;1120
2024-05-24T23:21:16.555;599616318987984902;7815.072;1203
2024-05-24T23:21:16.562;599616318995676692;7822.764;627
2024-05-24T23:21:16.570;599616319003368482;7830.4556;59
2024-05-24T23:21:16.578;599616319011060272;7838.1475;61
2024-05-24T23:21:16.585;599616319018752062;7845.8394;203
2024-05-24T23:21:16.593;599616319026443852;7853.5312;116
2024-05-24T23:21:16.601;599616319034105558;7861.193;71
2024-05-24T23:21:16.608;599616319041797766;7868.885;118
2024-05-24T23:21:16.616;599616319049489974;7876.577;99
2024-05-24T23:21:16.624;599616319057182182;7884.269;101
2024-05-24T23:21:16.631;599616319064874390;7891.9614;158
2024-05-24T23:21:16.639;599616319072566598;7899.654;179
2024-05-24T23:21:16.647;599616319080258806;7907.3457;165
2024-05-24T23:21:16.655;599616319087951014;7915.038;137
2024-05-24T23:21:16.662;599616319095643222;7922.7305;118
2024-05-24T23:21:16.670;599616319103335430;7930.4224;108
2024-05-24T23:21:16.678;599616319111027638;7938.1147;61
2024-05-24T23:21:16.685;599616319118719846;7945.8066;47
2024-05-24T23:21:16.693;599616319126412054;7953.499;92
2024-05-24T23:21:16.701;599616319134104262;7961.1914;101
2024-05-24T23:21:16.708;599616319141796470;7968.884;85
2024-05-24T23:21:16.716;599616319149488678;7976.576;123
2024-05-24T23:21:16.724;599616319157180886;7984.2676;175
2024-05-24T23:21:16.731;599616319164873094;7991.96;187
2024-05-24T23:21:16.739;599616319172565302;7999.6523;194
2024-05-24T23:21:16.747;599616319180257510;8007.3447;217
2024-05-24T23:21:16.755;599616319187949718;8015.037;243
2024-05-24T23:21:16.762;599616319195641926;8022.729;260
2024-05-24T23:21:16.770;599616319203334134;8030.421;272
2024-05-24T23:21:16.778;599616319211026342;8038.1133;296
2024-05-24T23:21:16.785;599616319218718550;8045.8057;317
2024-05-24T23:21:16.793;599616319226410758;8053.498;303
2024-05-24T23:21:16.801;599616319234102966;8061.19;288
2024-05-24T23:21:16.808;599616319241795174;8068.8823;300
2024-05-24T23:21:16.816;599616319249487382;8076.5747;300
2024-05-24T23:21:16.824;599616319257179590;8084.2666;267
2024-05-24T23:21:16.831;599616319264871798;8091.959;227
2024-05-24T23:21:16.839;599616319272564006;8099.651;213
2024-05-24T23:21:16.847;599616319280256214;8107.3433;208
2024-05-24T23:21:16.855;599616319287948422;8115.0356;198
2024-05-24T23:21:16.862;599616319295640630;8122.728;170
2024-05-24T23:21:16.870;599616319303332838;8130.42;106
2024-05-24T23:21:16.878;599616319311025046;8138.112;52
2024-05-24T23:21:16.885;599616319318717254;8145.804;40
2024-05-24T23:21:16.893;599616319326409462;8153.4966;30
2024-05-24T23:21:16.901;599616319334101670;8161.189;7
2024-05-24T23:21:16.908;599616319341793878;8168.8813;2
2024-05-24T23:21:16.916;599616319349486086;8176.573;23
2024-05-24T23:21:16.924;599616319357178294;8184.265;42
2024-05-24T23:21:16.931;599616319364870502;8191.9575;52
2024-05-24T23:21:16.939;599616319372562710;8199.649;66
2024-05-24T23:21:16.947;599616319380254918;8207.342;78
2024-05-24T23:21:16.955;599616319387947126;8215.034;99
2024-05-24T23:21:16.962;599616319395639334;8222.727;134
2024-05-24T23:21:16.970;599616319403331542;8230.418;144
2024-05-24T23:21:16.978;599616319411023750;8238.11;123
2024-05-24T23:21:16.985;599616319418715958;8245.803;113
2024-05-24T23:21:16.993;599616319426408166;8253.495;106
2024-05-24T23:21:17.001;599616319434100374;8261.1875;82
2024-05-24T23:21:17.008;599616319441792582;8268.88;75
2024-05-24T23:21:17.016;599616319449484790;8276.571;82
2024-05-24T23:21:17.024;599616319457176998;8284.264;80
2024-05-24T23:21:17.031;599616319464869206;8291.956;73
2024-05-24T23:21:17.039;599616319472561414;8299.648;75
2024-05-24T23:21:17.047;599616319480253622;8307.341;94
2024-05-24T23:21:17.055;599616319487945830;8315.033;118
2024-05-24T23:21:17.062;599616319495638038;8322.726;118
2024-05-24T23:21:17.070;599616319503330246;8330.417;97
2024-05-24T23:21:17.078;599616319511022454;8338.109;80
2024-05-24T23:21:17.085;599616319518714662;8345.802;63
2024-05-24T23:21:17.093;599616319526406870;8353.494;30
2024-05-24T23:21:17.101;599616319534099078;8361.187;-16
2024-05-24T23:21:17.108;599616319541791286;8368.879;-54
2024-05-24T23:21:17.116;599616319549483494;8376.57;-71
2024-05-24T23:21:17.124;599616319557175702;8384.263;-80
2024-05-24T23:21:17.131;599616319564867910;8391.955;-87
2024-05-24T23:21:17.139;599616319572560118;8399.647;-99
2024-05-24T23:21:17.147;599616319580252326;8407.34;-139
2024-05-24T23:21:17.155;599616319587944534;8415.032;-182
2024-05-24T23:21:17.162;599616319595666854;8422.754;-177
2024-05-24T23:21:17.170;599616319603358644;8430.445;-139
2024-05-24T23:21:17.178;599616319611050434;8438.138;-97
2024-05-24T23:21:17.185;599616319618742224;8445.829;-85
2024-05-24T23:21:17.193;599616319626434014;8453.5205;-89
2024-05-24T23:21:17.201;599616319634125804;8461.213;-75
2024-05-24T23:21:17.208;599616319641817594;8468.904;-89
2024-05-24T23:21:17.216;599616319649509384;8476.597;-161
2024-05-24T23:21:17.224;599616319657201174;8484.288;-179
2024-05-24T23:21:17.231;599616319664892964;8491.98;-123
2024-05-24T23:21:17.239;599616319672584754;8499.672;-94
2024-05-24T23:21:17.247;599616319680276544;8507.364;-125
2024-05-24T23:21:17.255;599616319687968334;8515.056;-75
2024-05-24T23:21:17.262;599616319695660124;8522.747;243
2024-05-24T23:21:17.270;599616319703351914;8530.439;795
2024-05-24T23:21:17.278;599616319711043704;8538.131;1110
2024-05-24T23:21:17.285;599616319718735494;8545.822;764
2024-05-24T23:21:17.293;599616319726427284;8553.515;101
2024-05-24T23:21:17.301;599616319734119074;8561.206;-132
2024-05-24T23:21:17.308;599616319741810864;8568.898;18
2024-05-24T23:21:17.316;599616319749502654;8576.59;40
2024-05-24T23:21:17.324;599616319757194444;8584.281;-28
2024-05-24T23:21:17.331;599616319764886234;8591.974;16
2024-05-24T23:21:17.339;599616319772578024;8599.665;47
2024-05-24T23:21:17.347;599616319780269814;8607.356;23
2024-05-24T23:21:17.355;599616319787961604;8615.048;47
2024-05-24T23:21:17.362;599616319795653394;8622.74;85
2024-05-24T23:21:17.370;599616319803345184;8630.433;73
2024-05-24T23:21:17.378;599616319811036974;8638.124;16
2024-05-24T23:21:17.385;599616319818728764;8645.816;-49
2024-05-24T23:21:17.393;599616319826420554;8653.508;-87
2024-05-24T23:21:17.401;599616319834112344;8661.2;-75
2024-05-24T23:21:17.408;599616319841804134;8668.892;-30
2024-05-24T23:21:17.416;599616319849495924;8676.583;9
2024-05-24T23:21:17.424;599616319857187714;8684.274;33
2024-05-24T23:21:17.431;599616319864879504;8691.967;49
2024-05-24T23:21:17.439;599616319872571294;8699.658;75
2024-05-24T23:21:17.447;599616319880263084;8707.351;104
2024-05-24T23:21:17.455;599616319887954874;8715.042;130
2024-05-24T23:21:17.462;599616319895646664;8722.734;158
2024-05-24T23:21:17.470;599616319903338454;8730.426;196
2024-05-24T23:21:17.478;599616319911030244;8738.117;224
2024-05-24T23:21:17.485;599616319918722034;8745.809;227
2024-05-24T23:21:17.493;599616319926413824;8753.501;232
2024-05-24T23:21:17.501;599616319934105614;8761.192;272
2024-05-24T23:21:17.508;599616319941797404;8768.885;303
2024-05-24T23:21:17.516;599616319949489194;8776.576;300
2024-05-24T23:21:17.524;599616319957180984;8784.269;296
2024-05-24T23:21:17.531;599616319964872774;8791.96;296
2024-05-24T23:21:17.539;599616319972564564;8799.651;284
2024-05-24T23:21:17.547;599616319980256354;8807.343;262
2024-05-24T23:21:17.555;599616319987948144;8815.035;253
2024-05-24T23:21:17.562;599616319995639934;8822.727;262
2024-05-24T23:21:17.570;599616320003331724;8830.419;258
2024-05-24T23:21:17.578;599616320011023514;8838.11;227
2024-05-24T23:21:17.585;599616320018715304;8845.803;217
2024-05-24T23:21:17.593;599616320026407094;8853.494;243
2024-05-24T23:21:17.601;599616320034098884;8861.187;248
2024-05-24T23:21:17.608;599616320041790674;8868.877;236
2024-05-24T23:21:17.616;599616320049482464;8876.569;248
2024-05-24T23:21:17.624;599616320057174254;8884.261;260
2024-05-24T23:21:17.631;599616320064866044;8891.953;246
2024-05-24T23:21:17.639;599616320072557834;8899.6455;215
2024-05-24T23:21:17.647;599616320080249624;8907.337;203
2024-05-24T23:21:17.655;599616320087941414;8915.029;227
2024-05-24T23:21:17.662;599616320095633204;8922.721;232
2024-05-24T23:21:17.670;599616320103324994;8930.412;206
2024-05-24T23:21:17.678;599616320111016784;8938.104;213
2024-05-24T23:21:17.685;599616320118708574;8945.796;246
2024-05-24T23:21:17.693;599616320126400364;8953.487;248
2024-05-24T23:21:17.701;599616320134092154;8961.18;243
2024-05-24T23:21:17.708;599616320141783944;8968.871;260
2024-05-24T23:21:17.716;599616320149475734;8976.563;260
2024-05-24T23:21:17.724;599616320157137440;8984.225;246
2024-05-24T23:21:17.731;599616320164829648;8991.917;253
2024-05-24T23:21:17.739;599616320172521856;8999.609;279
2024-05-24T23:21:17.747;599616320180214064;9007.302;288
2024-05-24T23:21:17.754;599616320187906272;9014.993;277
2024-05-24T23:21:17.762;599616320195598480;9022.686;262
2024-05-24T23:21:17.770;599616320203290688;9030.378;267
2024-05-24T23:21:17.778;599616320210982896;9038.069;241
2024-05-24T23:21:17.785;599616320218675104;9045.762;144
2024-05-24T23:21:17.793;599616320226367312;9053.454;73
2024-05-24T23:21:17.801;599616320234059520;9061.146;94
2024-05-24T23:21:17.808;599616320241751728;9068.839;97
2024-05-24T23:21:17.816;599616320249443936;9076.531;56
2024-05-24T23:21:17.824;599616320257136144;9084.224;68
2024-05-24T23:21:17.831;599616320264828352;9091.916;108
2024-05-24T23:21:17.839;599616320272520560;9099.608;120
2024-05-24T23:21:17.847;599616320280212768;9107.301;104
2024-05-24T23:21:17.854;599616320287904976;9114.991;92
2024-05-24T23:21:17.862;599616320295597184;9122.684;97
2024-05-24T23:21:17.870;599616320303289392;9130.376;75
2024-05-24T23:21:17.878;599616320310981600;9138.068;-4
2024-05-24T23:21:17.885;599616320318673808;9145.761;-111
2024-05-24T23:21:17.893;599616320326366016;9153.453;-198
2024-05-24T23:21:17.901;599616320334058224;9161.1455;-229
2024-05-24T23:21:17.908;599616320341750432;9168.838;-213
2024-05-24T23:21:17.916;599616320349442640;9176.53;-177
2024-05-24T23:21:17.924;599616320357134848;9184.223;-161
2024-05-24T23:21:17.931;599616320364827056;9191.914;-170
2024-05-24T23:21:17.939;599616320372519264;9199.606;-175
2024-05-24T23:21:17.947;599616320380211472;9207.299;-163
2024-05-24T23:21:17.954;599616320387903680;9214.99;-144
2024-05-24T23:21:17.962;599616320395595888;9222.683;-130
2024-05-24T23:21:17.970;599616320403288096;9230.375;-123
2024-05-24T23:21:17.978;599616320410980304;9238.067;-111
2024-05-24T23:21:17.985;599616320418672512;9245.76;-92
2024-05-24T23:21:17.993;599616320426364720;9253.452;7
2024-05-24T23:21:18.001;599616320434056928;9261.145;381
2024-05-24T23:21:18.008;599616320441749136;9268.836;935
2024-05-24T23:21:18.016;599616320449441344;9276.528;1084
2024-05-24T23:21:18.024;599616320457133552;9284.221;544
2024-05-24T23:21:18.031;599616320464825760;9291.913;-59
2024-05-24T23:21:18.039;599616320472517968;9299.605;-94
2024-05-24T23:21:18.047;599616320480210176;9307.297;54
2024-05-24T23:21:18.054;599616320487902384;9314.989;-28
2024-05-24T23:21:18.062;599616320495594592;9322.682;-75
2024-05-24T23:21:18.070;599616320503286800;9330.374;11
2024-05-24T23:21:18.078;599616320510979008;9338.066;30
2024-05-24T23:21:18.085;599616320518671216;9345.758;-9
2024-05-24T23:21:18.093;599616320526363424;9353.45;16
2024-05-24T23:21:18.101;599616320534055632;9361.143;68
2024-05-24T23:21:18.108;599616320541747840;9368.835;85
2024-05-24T23:21:18.116;599616320549440048;9376.527;89
2024-05-24T23:21:18.124;599616320557132256;9384.22;97
2024-05-24T23:21:18.131;599616320564824464;9391.912;63
2024-05-24T23:21:18.139;599616320572516672;9399.6045;35
2024-05-24T23:21:18.147;599616320580208880;9407.296;56
2024-05-24T23:21:18.154;599616320587901088;9414.987;92
2024-05-24T23:21:18.162;599616320595593296;9422.68;123
2024-05-24T23:21:18.170;599616320603285504;9430.372;137
2024-05-24T23:21:18.178;599616320610977712;9438.064;130
2024-05-24T23:21:18.185;599616320618669920;9445.757;151
2024-05-24T23:21:18.193;599616320626362128;9453.449;201
2024-05-24T23:21:18.201;599616320634054336;9461.142;227
2024-05-24T23:21:18.208;599616320641746544;9468.834;234
2024-05-24T23:21:18.216;599616320649438752;9476.526;253
2024-05-24T23:21:18.224;599616320657130960;9484.219;272
2024-05-24T23:21:18.231;599616320664823168;9491.911;277
2024-05-24T23:21:18.239;599616320672515376;9499.603;284
2024-05-24T23:21:18.247;599616320680207584;9507.294;310
2024-05-24T23:21:18.254;599616320687899792;9514.986;336
2024-05-24T23:21:18.262;599616320695592000;9522.679;331
2024-05-24T23:21:18.270;599616320703284208;9530.371;298
2024-05-24T23:21:18.278;599616320710976416;9538.063;279
2024-05-24T23:21:18.285;599616320718693768;9545.781;281
2024-05-24T23:21:18.293;599616320726385627;9553.473;267
2024-05-24T23:21:18.301;599616320734077486;9561.165;253
2024-05-24T23:21:18.308;599616320741769345;9568.856;248
2024-05-24T23:21:18.316;599616320749461204;9576.549;220
2024-05-24T23:21:18.324;599616320757153063;9584.24;156
2024-05-24T23:21:18.331;599616320764844922;9591.932;111
2024-05-24T23:21:18.339;599616320772536781;9599.624;132
2024-05-24T23:21:18.347;599616320780228640;9607.315;165
2024-05-24T23:21:18.355;599616320787920499;9615.008;153
2024-05-24T23:21:18.362;599616320795612358;9622.699;139
2024-05-24T23:21:18.370;599616320803304217;9630.392;149
2024-05-24T23:21:18.378;599616320810996076;9638.084;123
2024-05-24T23:21:18.385;599616320818687935;9645.774;56
2024-05-24T23:21:18.393;599616320826379794;9653.467;-2
2024-05-24T23:21:18.401;599616320834071653;9661.158;-44
2024-05-24T23:21:18.408;599616320841763512;9668.851;-56
2024-05-24T23:21:18.416;599616320849455371;9676.543;-44
2024-05-24T23:21:18.424;599616320857147230;9684.234;-21
2024-05-24T23:21:18.431;599616320864839089;9691.927;21
2024-05-24T23:21:18.439;599616320872530948;9699.618;49
2024-05-24T23:21:18.447;599616320880222807;9707.311;44
2024-05-24T23:21:18.455;599616320887914666;9715.001;49
2024-05-24T23:21:18.462;599616320895606525;9722.693;80
2024-05-24T23:21:18.470;599616320903298384;9730.386;101
2024-05-24T23:21:18.478;599616320910990243;9738.077;106
2024-05-24T23:21:18.485;599616320918682102;9745.77;123
2024-05-24T23:21:18.493;599616320926373961;9753.461;151
2024-05-24T23:21:18.501;599616320934065820;9761.153;153
2024-05-24T23:21:18.508;599616320941757679;9768.845;142
2024-05-24T23:21:18.516;599616320949449538;9776.536;165
2024-05-24T23:21:18.524;599616320957141397;9784.229;201
2024-05-24T23:21:18.531;599616320964833256;9791.92;208
2024-05-24T23:21:18.539;599616320972525115;9799.612;198
2024-05-24T23:21:18.547;599616320980216974;9807.304;201
2024-05-24T23:21:18.554;599616320987908833;9814.996;215
2024-05-24T23:21:18.562;599616320995600692;9822.688;210
2024-05-24T23:21:18.570;599616321003292551;9830.38;170
2024-05-24T23:21:18.578;599616321010984410;9838.072;156
2024-05-24T23:21:18.585;599616321018676269;9845.763;175
2024-05-24T23:21:18.593;599616321026368128;9853.455;146
2024-05-24T23:21:18.601;599616321034059987;9861.146;104
2024-05-24T23:21:18.608;599616321041751846;9868.839;120
2024-05-24T23:21:18.616;599616321049443705;9876.531;137
2024-05-24T23:21:18.624;599616321057135564;9884.223;94
2024-05-24T23:21:18.631;599616321064827423;9891.915;54
2024-05-24T23:21:18.639;599616321072519282;9899.606;73
2024-05-24T23:21:18.647;599616321080211141;9907.298;99
2024-05-24T23:21:18.654;599616321087903000;9914.99;78
2024-05-24T23:21:18.662;599616321095594859;9922.682;44
2024-05-24T23:21:18.670;599616321103286718;9930.374;35
2024-05-24T23:21:18.678;599616321110978577;9938.065;-4
2024-05-24T23:21:18.685;599616321118670436;9945.758;-80
2024-05-24T23:21:18.693;599616321126362295;9953.449;-99
2024-05-24T23:21:18.701;599616321134054154;9961.142;-66
2024-05-24T23:21:18.708;599616321141746013;9968.834;-56
2024-05-24T23:21:18.716;599616321149437872;9976.524;-71
2024-05-24T23:21:18.724;599616321157129731;9984.217;-78
2024-05-24T23:21:18.731;599616321164821590;9991.908;-89
2024-05-24T23:21:18.739;599616321172513449;9999.601;-33
2024-05-24T23:21:18.747;599616321180205308;10007.292;267
2024-05-24T23:21:18.754;599616321187897167;10014.984;795
2024-05-24T23:21:18.762;599616321195589026;10022.677;1096
2024-05-24T23:21:18.770;599616321203280885;10030.368;717
2024-05-24T23:21:18.778;599616321210972744;10038.06;33
2024-05-24T23:21:18.785;599616321218664603;10045.751;-158
2024-05-24T23:21:18.793;599616321226356462;10053.443;18
2024-05-24T23:21:18.801;599616321234048321;10061.136;2
2024-05-24T23:21:18.808;599616321241740180;10068.827;-89
2024-05-24T23:21:18.816;599616321249432039;10076.52;-37
2024-05-24T23:21:18.824;599616321257123898;10084.211;-11
2024-05-24T23:21:18.831;599616321264815757;10091.903;-42
2024-05-24T23:21:18.839;599616321272507616;10099.595;-21
2024-05-24T23:21:18.847;599616321280179448;10107.266;26
2024-05-24T23:21:18.854;599616321287871586;10114.958;54
2024-05-24T23:21:18.862;599616321295563724;10122.65;59
2024-05-24T23:21:18.870;599616321303255862;10130.343;23
2024-05-24T23:21:18.878;599616321310948000;10138.035;2
2024-05-24T23:21:18.885;599616321318640138;10145.728;28
2024-05-24T23:21:18.893;599616321326332276;10153.42;11
2024-05-24T23:21:18.901;599616321334024414;10161.111;-52
2024-05-24T23:21:18.908;599616321341716552;10168.804;-42
2024-05-24T23:21:18.916;599616321349408690;10176.496;-14
2024-05-24T23:21:18.924;599616321357100828;10184.1875;-61
2024-05-24T23:21:18.931;599616321364792966;10191.88;-97
2024-05-24T23:21:18.939;599616321372485104;10199.572;-40
2024-05-24T23:21:18.947;599616321380177242;10207.265;16
2024-05-24T23:21:18.954;599616321387869380;10214.956;16
2024-05-24T23:21:18.962;599616321395561518;10222.648;16
2024-05-24T23:21:18.970;599616321403253656;10230.341;56
2024-05-24T23:21:18.978;599616321410945794;10238.033;104
2024-05-24T23:21:18.985;599616321418637932;10245.726;120
2024-05-24T23:21:18.993;599616321426330070;10253.417;137
2024-05-24T23:21:19.001;599616321434022208;10261.109;168
2024-05-24T23:21:19.008;599616321441714346;10268.801;172
2024-05-24T23:21:19.016;599616321449406484;10276.493;153
2024-05-24T23:21:19.024;599616321457098622;10284.186;156
2024-05-24T23:21:19.031;599616321464790760;10291.878;170
2024-05-24T23:21:19.039;599616321472482898;10299.57;170
2024-05-24T23:21:19.047;599616321480175036;10307.263;149
2024-05-24T23:21:19.054;599616321487867174;10314.955;127
2024-05-24T23:21:19.062;599616321495559312;10322.646;132
2024-05-24T23:21:19.070;599616321503251450;10330.338;146
2024-05-24T23:21:19.078;599616321510943588;10338.03;151
2024-05-24T23:21:19.085;599616321518635726;10345.723;175
2024-05-24T23:21:19.093;599616321526327864;10353.415;201
2024-05-24T23:21:19.101;599616321534020002;10361.107;191
2024-05-24T23:21:19.108;599616321541712140;10368.8;165
2024-05-24T23:21:19.116;599616321549404278;10376.491;142
2024-05-24T23:21:19.124;599616321557096416;10384.184;132
2024-05-24T23:21:19.131;599616321564788554;10391.876;144
2024-05-24T23:21:19.139;599616321572480692;10399.568;151
2024-05-24T23:21:19.147;599616321580172830;10407.26;151
2024-05-24T23:21:19.154;599616321587864968;10414.952;163
2024-05-24T23:21:19.162;599616321595557106;10422.644;182
2024-05-24T23:21:19.170;599616321603249244;10430.336;187
2024-05-24T23:21:19.178;599616321610941382;10438.028;208
2024-05-24T23:21:19.185;599616321618633520;10445.721;234
2024-05-24T23:21:19.193;599616321626325658;10453.413;217
2024-05-24T23:21:19.201;599616321634017796;10461.105;201
2024-05-24T23:21:19.208;599616321641709934;10468.798;227
2024-05-24T23:21:19.216;599616321649402072;10476.488;255
2024-05-24T23:21:19.224;599616321657094210;10484.181;255
2024-05-24T23:21:19.231;599616321664786348;10491.873;243
2024-05-24T23:21:19.239;599616321672478486;10499.565;246
2024-05-24T23:21:19.247;599616321680170624;10507.258;267
2024-05-24T23:21:19.254;599616321687862762;10514.95;269
2024-05-24T23:21:19.262;599616321695554900;10522.643;267
2024-05-24T23:21:19.270;599616321703247038;10530.334;291
2024-05-24T23:21:19.278;599616321710939176;10538.026;303
2024-05-24T23:21:19.285;599616321718631314;10545.719;274
2024-05-24T23:21:19.293;599616321726323452;10553.41;262
2024-05-24T23:21:19.301;599616321734015590;10561.103;296
2024-05-24T23:21:19.308;599616321741707728;10568.795;317
2024-05-24T23:21:19.316;599616321749399866;10576.487;305
2024-05-24T23:21:19.324;599616321757092004;10584.179;298
2024-05-24T23:21:19.331;599616321764784142;10591.871;277
2024-05-24T23:21:19.339;599616321772476280;10599.563;217
2024-05-24T23:21:19.347;599616321780168418;10607.256;182
2024-05-24T23:21:19.354;599616321787860556;10614.948;184
2024-05-24T23:21:19.362;599616321795552694;10622.64;158
2024-05-24T23:21:19.370;599616321803244832;10630.332;94
2024-05-24T23:21:19.378;599616321810936970;10638.023;59
2024-05-24T23:21:19.385;599616321818629108;10645.716;59
2024-05-24T23:21:19.393;599616321826321246;10653.408;18
2024-05-24T23:21:19.401;599616321834013384;10661.101;-66
2024-05-24T23:21:19.408;599616321841700522;10668.788;-94
2024-05-24T23:21:19.416;599616321849392730;10676.48;-66
2024-05-24T23:21:19.424;599616321857084938;10684.172;-82
2024-05-24T23:21:19.431;599616321864777146;10691.864;-123
2024-05-24T23:21:19.439;599616321872469354;10699.557;-123
2024-05-24T23:21:19.447;599616321880161562;10707.249;-144
2024-05-24T23:21:19.454;599616321887853770;10714.94;-179
2024-05-24T23:21:19.462;599616321895545978;10722.633;-189
2024-05-24T23:21:19.470;599616321903238186;10730.325;-206
2024-05-24T23:21:19.478;599616321910930394;10738.018;-210
2024-05-24T23:21:19.485;599616321918622602;10745.71;-184
2024-05-24T23:21:19.493;599616321926314810;10753.402;-213
2024-05-24T23:21:19.501;599616321934007018;10761.094;-288
2024-05-24T23:21:19.508;599616321941699226;10768.786;-288
2024-05-24T23:21:19.516;599616321949391434;10776.479;-165
2024-05-24T23:21:19.524;599616321957083642;10784.171;172
2024-05-24T23:21:19.531;599616321964775850;10791.863;689
2024-05-24T23:21:19.539;599616321972468058;10799.556;897
2024-05-24T23:21:19.547;599616321980160266;10807.248;431
2024-05-24T23:21:19.554;599616321987852474;10814.939;-182
2024-05-24T23:21:19.562;599616321995544682;10822.632;-267
2024-05-24T23:21:19.570;599616322003236890;10830.323;-97
2024-05-24T23:21:19.578;599616322010929098;10838.016;-134
2024-05-24T23:21:19.585;599616322018621306;10845.708;-194
2024-05-24T23:21:19.593;599616322026313514;10853.4;-132
2024-05-24T23:21:19.601;599616322034005722;10861.093;-120
2024-05-24T23:21:19.608;599616322041697930;10868.785;-189
2024-05-24T23:21:19.616;599616322049390138;10876.478;-217
2024-05-24T23:21:19.624;599616322057082346;10884.17;-170
2024-05-24T23:21:19.631;599616322064774554;10891.862;-116
2024-05-24T23:21:19.639;599616322072466762;10899.555;-94
2024-05-24T23:21:19.647;599616322080158970;10907.245;-87
2024-05-24T23:21:19.654;599616322087851178;10914.9375;-71
2024-05-24T23:21:19.662;599616322095543386;10922.63;-33
2024-05-24T23:21:19.670;599616322103235594;10930.322;2
2024-05-24T23:21:19.678;599616322110927802;10938.015;18
2024-05-24T23:21:19.685;599616322118620010;10945.707;56
2024-05-24T23:21:19.693;599616322126312218;10953.399;99
2024-05-24T23:21:19.701;599616322134004426;10961.092;104
2024-05-24T23:21:19.708;599616322141696634;10968.784;101
2024-05-24T23:21:19.716;599616322149388842;10976.477;142
2024-05-24T23:21:19.724;599616322157081050;10984.168;194
2024-05-24T23:21:19.731;599616322164773258;10991.86;215
2024-05-24T23:21:19.739;599616322172465466;10999.553;224
2024-05-24T23:21:19.747;599616322180157674;11007.244;236
2024-05-24T23:21:19.754;599616322187849882;11014.937;258
2024-05-24T23:21:19.762;599616322195542090;11022.629;279
2024-05-24T23:21:19.770;599616322203234298;11030.321;288
2024-05-24T23:21:19.778;599616322210926506;11038.014;305
2024-05-24T23:21:19.785;599616322218618714;11045.706;324
2024-05-24T23:21:19.793;599616322226310922;11053.398;298
2024-05-24T23:21:19.801;599616322234003130;11061.09;260
2024-05-24T23:21:19.808;599616322241695338;11068.782;262
2024-05-24T23:21:19.816;599616322249387546;11076.475;267
2024-05-24T23:21:19.824;599616322257079754;11084.167;251
2024-05-24T23:21:19.831;599616322264771962;11091.859;234
2024-05-24T23:21:19.839;599616322272464170;11099.552;227
2024-05-24T23:21:19.847;599616322280156378;11107.243;213
2024-05-24T23:21:19.854;599616322287848586;11114.936;187
2024-05-24T23:21:19.862;599616322295540794;11122.628;172
2024-05-24T23:21:19.870;599616322303233002;11130.32;198
2024-05-24T23:21:19.878;599616322310925210;11138.012;227
2024-05-24T23:21:19.885;599616322318617418;11145.704;213
2024-05-24T23:21:19.893;599616322326309626;11153.396;172
2024-05-24T23:21:19.901;599616322334001834;11161.089;118
2024-05-24T23:21:19.908;599616322341694042;11168.781;73
2024-05-24T23:21:19.916;599616322349386250;11176.474;78
2024-05-24T23:21:19.924;599616322357078458;11184.166;104
2024-05-24T23:21:19.931;599616322364770666;11191.858;108
2024-05-24T23:21:19.939;599616322372462874;11199.551;111
2024-05-24T23:21:19.947;599616322380155082;11207.242;123
2024-05-24T23:21:19.954;599616322387847290;11214.934;146
2024-05-24T23:21:19.962;599616322395539498;11222.626;179
2024-05-24T23:21:19.970;599616322403261816;11230.35;189
2024-05-24T23:21:19.978;599616322410953606;11238.041;168
2024-05-24T23:21:19.985;599616322418645396;11245.732;170
2024-05-24T23:21:19.993;599616322426337186;11253.424;206
2024-05-24T23:21:20.001;599616322434028976;11261.116;229
2024-05-24T23:21:20.008;599616322441720766;11268.808;232
2024-05-24T23:21:20.016;599616322449412556;11276.5;229
2024-05-24T23:21:20.024;599616322457104346;11284.191;224
2024-05-24T23:21:20.031;599616322464796136;11291.884;187
2024-05-24T23:21:20.039;599616322472487926;11299.575;132
2024-05-24T23:21:20.047;599616322480179716;11307.267;132
2024-05-24T23:21:20.054;599616322487871506;11314.958;168
2024-05-24T23:21:20.062;599616322495563296;11322.65;161
2024-05-24T23:21:20.070;599616322503255086;11330.342;132
2024-05-24T23:21:20.078;599616322510946876;11338.034;134
2024-05-24T23:21:20.085;599616322518638666;11345.726;127
2024-05-24T23:21:20.093;599616322526330456;11353.418;101
2024-05-24T23:21:20.101;599616322534022246;11361.109;78
2024-05-24T23:21:20.108;599616322541714036;11368.802;47
2024-05-24T23:21:20.116;599616322549405826;11376.492;28
2024-05-24T23:21:20.124;599616322557097616;11384.185;35
2024-05-24T23:21:20.131;599616322564789406;11391.876;47
2024-05-24T23:21:20.139;599616322572481196;11399.568;68
2024-05-24T23:21:20.147;599616322580172986;11407.26;94
2024-05-24T23:21:20.154;599616322587864776;11414.952;89
2024-05-24T23:21:20.162;599616322595556566;11422.644;63
2024-05-24T23:21:20.170;599616322603248356;11430.336;49
2024-05-24T23:21:20.178;599616322610940146;11438.026;30
2024-05-24T23:21:20.185;599616322618631936;11445.719;-11
2024-05-24T23:21:20.193;599616322626323726;11453.411;-49
2024-05-24T23:21:20.201;599616322634015516;11461.103;-68
2024-05-24T23:21:20.208;599616322641707306;11468.795;-80
2024-05-24T23:21:20.216;599616322649399096;11476.486;-75
2024-05-24T23:21:20.224;599616322657090886;11484.179;-54
2024-05-24T23:21:20.231;599616322664782676;11491.87;-52
2024-05-24T23:21:20.239;599616322672474466;11499.562;-56
2024-05-24T23:21:20.247;599616322680166256;11507.253;-56
2024-05-24T23:21:20.254;599616322687858046;11514.945;-63
2024-05-24T23:21:20.262;599616322695549836;11522.637;-59
2024-05-24T23:21:20.270;599616322703241626;11530.329;-33
2024-05-24T23:21:20.278;599616322710933416;11538.0205;-30
2024-05-24T23:21:20.285;599616322718625206;11545.713;-42
2024-05-24T23:21:20.293;599616322726316996;11553.404;-7
2024-05-24T23:21:20.301;599616322734008786;11561.097;189
2024-05-24T23:21:20.308;599616322741700576;11568.787;653
2024-05-24T23:21:20.316;599616322749392366;11576.4795;1105
2024-05-24T23:21:20.324;599616322757084156;11584.171;978
2024-05-24T23:21:20.331;599616322764775946;11591.863;310
2024-05-24T23:21:20.339;599616322772467736;11599.555;-120
2024-05-24T23:21:20.347;599616322780159526;11607.247;-56
2024-05-24T23:21:20.354;599616322787851316;11614.938;-18
2024-05-24T23:21:20.362;599616322795543106;11622.631;-123
2024-05-24T23:21:20.370;599616322803234896;11630.321;-108
2024-05-24T23:21:20.378;599616322810926686;11638.014;-40
2024-05-24T23:21:20.385;599616322818618476;11645.705;-33
2024-05-24T23:21:20.393;599616322826310266;11653.397;-44
2024-05-24T23:21:20.401;599616322834002056;11661.089;-80
2024-05-24T23:21:20.408;599616322841693846;11668.781;-146
2024-05-24T23:21:20.416;599616322849385636;11676.473;-153
2024-05-24T23:21:20.424;599616322857077426;11684.165;-104
2024-05-24T23:21:20.431;599616322864769216;11691.855;-87
2024-05-24T23:21:20.439;599616322872461006;11699.548;-82
2024-05-24T23:21:20.447;599616322880152796;11707.239;-40
2024-05-24T23:21:20.454;599616322887844586;11714.932;-2
2024-05-24T23:21:20.462;599616322895536376;11722.623;16
2024-05-24T23:21:20.470;599616322903228166;11730.315;52
2024-05-24T23:21:20.478;599616322910919956;11738.008;87
2024-05-24T23:21:20.485;599616322918611746;11745.699;92
2024-05-24T23:21:20.493;599616322926303536;11753.391;99
2024-05-24T23:21:20.501;599616322933995326;11761.082;146
2024-05-24T23:21:20.508;599616322941687116;11768.774;189
2024-05-24T23:21:20.516;599616322949378906;11776.466;198
2024-05-24T23:21:20.524;599616322957070696;11784.158;210
2024-05-24T23:21:20.531;599616322964762500;11791.85;232
2024-05-24T23:21:20.539;599616322972454290;11799.542;248
2024-05-24T23:21:20.547;599616322980146080;11807.233;260
2024-05-24T23:21:20.554;599616322987837870;11814.926;274
2024-05-24T23:21:20.562;599616322995529660;11822.616;298
2024-05-24T23:21:20.570;599616323003221450;11830.309;303
2024-05-24T23:21:20.578;599616323010913240;11838.0;258
2024-05-24T23:21:20.585;599616323018605030;11845.692;213
2024-05-24T23:21:20.593;599616323026296820;11853.384;175
2024-05-24T23:21:20.601;599616323033988610;11861.076;82
2024-05-24T23:21:20.608;599616323041680400;11868.768;-26
2024-05-24T23:21:20.616;599616323049372190;11876.46;-47
2024-05-24T23:21:20.624;599616323057063980;11884.15;-21
2024-05-24T23:21:20.631;599616323064755770;11891.843;-28
2024-05-24T23:21:20.639;599616323072447560;11899.534;-26
2024-05-24T23:21:20.647;599616323080139350;11907.227;16
2024-05-24T23:21:20.654;599616323087831140;11914.918;56
2024-05-24T23:21:20.662;599616323095522930;11922.61;63
2024-05-24T23:21:20.670;599616323103214720;11930.302;54
2024-05-24T23:21:20.677;599616323110906510;11937.994;75
2024-05-24T23:21:20.685;599616323118598300;11945.685;120
2024-05-24T23:21:20.693;599616323126290090;11953.377;132
2024-05-24T23:21:20.701;599616323133981880;11961.068;134
2024-05-24T23:21:20.708;599616323141673670;11968.761;161
2024-05-24T23:21:20.716;599616323149365460;11976.452;172
2024-05-24T23:21:20.724;599616323157057250;11984.145;163
2024-05-24T23:21:20.731;599616323164749040;11991.836;170
2024-05-24T23:21:20.739;599616323172440830;11999.528;201
2024-05-24T23:21:20.747;599616323180132620;12007.221;227
2024-05-24T23:21:20.754;599616323187824410;12014.911;222
2024-05-24T23:21:20.762;599616323195516200;12022.604;203
2024-05-24T23:21:20.770;599616323203207990;12030.295;215
2024-05-24T23:21:20.777;599616323210899780;12037.987;243
2024-05-24T23:21:20.785;599616323218591570;12045.679;248
2024-05-24T23:21:20.793;599616323226283360;12053.371;248
2024-05-24T23:21:20.801;599616323233975150;12061.0625;255
2024-05-24T23:21:20.808;599616323241666940;12068.755;220
2024-05-24T23:21:20.816;599616323249358730;12076.445;158
2024-05-24T23:21:20.824;599616323257050520;12084.138;149
2024-05-24T23:21:20.831;599616323264742310;12091.829;168
2024-05-24T23:21:20.839;599616323272434100;12099.521;125
2024-05-24T23:21:20.847;599616323280125890;12107.213;54
2024-05-24T23:21:20.854;599616323287817680;12114.905;37
2024-05-24T23:21:20.862;599616323295509470;12122.597;68
2024-05-24T23:21:20.870;599616323303201260;12130.289;80
2024-05-24T23:21:20.877;599616323310893050;12137.9795;75
2024-05-24T23:21:20.885;599616323318584840;12145.672;87
2024-05-24T23:21:20.893;599616323326276630;12153.363;104
2024-05-24T23:21:20.901;599616323333968420;12161.056;73
2024-05-24T23:21:20.908;599616323341660210;12168.747;-4
2024-05-24T23:21:20.916;599616323349352000;12176.439;-106
2024-05-24T23:21:20.924;599616323357043790;12184.131;-179
2024-05-24T23:21:20.931;599616323364735580;12191.823;-189
2024-05-24T23:21:20.939;599616323372427370;12199.514;-184
2024-05-24T23:21:20.947;599616323380119160;12207.206;-191
2024-05-24T23:21:20.954;599616323387810950;12214.897;-179
2024-05-24T23:21:20.962;599616323395502740;12222.59;-163
2024-05-24T23:21:20.970;599616323403194530;12230.281;-158
2024-05-24T23:21:20.977;599616323410886320;12237.974;-139
2024-05-24T23:21:20.985;599616323418578110;12245.665;-123
2024-05-24T23:21:20.993;599616323426269900;12253.357;-134
2024-05-24T23:21:21.001;599616323433961690;12261.048;-139
2024-05-24T23:21:21.008;599616323441653480;12268.74;-104
2024-05-24T23:21:21.016;599616323449345270;12276.432;-63
2024-05-24T23:21:21.024;599616323457037060;12284.124;-44
2024-05-24T23:21:21.031;599616323464728850;12291.816;-16
2024-05-24T23:21:21.039;599616323472420640;12299.508;2
2024-05-24T23:21:21.047;599616323480112430;12307.2;-4
2024-05-24T23:21:21.054;599616323487804220;12314.892;-9
2024-05-24T23:21:21.062;599616323495496010;12322.584;16
2024-05-24T23:21:21.070;599616323503187800;12330.274;52
2024-05-24T23:21:21.077;599616323510879590;12337.967;63
2024-05-24T23:21:21.085;599616323518571380;12345.658;28
2024-05-24T23:21:21.093;599616323526233086;12353.32;-9
2024-05-24T23:21:21.101;599616323533925294;12361.013;0
2024-05-24T23:21:21.108;599616323541617502;12368.704;68
2024-05-24T23:21:21.116;599616323549309710;12376.396;312
2024-05-24T23:21:21.124;599616323557001918;12384.089;809
2024-05-24T23:21:21.131;599616323564694126;12391.781;1191
2024-05-24T23:21:21.139;599616323572386334;12399.474;923
2024-05-24T23:21:21.147;599616323580078542;12407.166;194
2024-05-24T23:21:21.154;599616323587770750;12414.858;-156
2024-05-24T23:21:21.162;599616323595462958;12422.551;14
2024-05-24T23:21:21.170;599616323603155166;12430.242;49
2024-05-24T23:21:21.177;599616323610847374;12437.934;-89
2024-05-24T23:21:21.185;599616323618539582;12445.626;-56
2024-05-24T23:21:21.193;599616323626231790;12453.318;28
2024-05-24T23:21:21.201;599616323633923998;12461.011;16
2024-05-24T23:21:21.208;599616323641616206;12468.703;18
2024-05-24T23:21:21.216;599616323649308414;12476.3955;66
2024-05-24T23:21:21.224;599616323657000622;12484.088;82
2024-05-24T23:21:21.231;599616323664692830;12491.78;80
2024-05-24T23:21:21.239;599616323672385038;12499.473;94
2024-05-24T23:21:21.247;599616323680077246;12507.165;125
2024-05-24T23:21:21.254;599616323687769454;12514.857;161
2024-05-24T23:21:21.262;599616323695461662;12522.549;179
2024-05-24T23:21:21.270;599616323703153870;12530.24;165
2024-05-24T23:21:21.277;599616323710846078;12537.933;172
2024-05-24T23:21:21.285;599616323718538286;12545.625;220
2024-05-24T23:21:21.293;599616323726230494;12553.317;239
2024-05-24T23:21:21.301;599616323733922702;12561.01;243
2024-05-24T23:21:21.308;599616323741614910;12568.702;267
2024-05-24T23:21:21.316;599616323749307118;12576.395;288
2024-05-24T23:21:21.324;599616323756999326;12584.087;293
2024-05-24T23:21:21.331;599616323764691534;12591.779;284
2024-05-24T23:21:21.339;599616323772383742;12599.471;272
2024-05-24T23:21:21.347;599616323780075950;12607.163;286
2024-05-24T23:21:21.354;599616323787768158;12614.855;298
2024-05-24T23:21:21.362;599616323795460366;12622.548;284
2024-05-24T23:21:21.370;599616323803152574;12630.239;288
2024-05-24T23:21:21.377;599616323810844782;12637.932;312
2024-05-24T23:21:21.385;599616323818536990;12645.624;312
2024-05-24T23:21:21.393;599616323826229198;12653.316;296
2024-05-24T23:21:21.401;599616323833921406;12661.009;281
2024-05-24T23:21:21.408;599616323841613614;12668.7;222
2024-05-24T23:21:21.416;599616323849305822;12676.393;113
2024-05-24T23:21:21.424;599616323856998030;12684.085;66
2024-05-24T23:21:21.431;599616323864690238;12691.777;101
2024-05-24T23:21:21.439;599616323872382446;12699.47;120
2024-05-24T23:21:21.447;599616323880074654;12707.162;101
2024-05-24T23:21:21.454;599616323887766862;12714.8545;97
2024-05-24T23:21:21.462;599616323895459070;12722.546;125
2024-05-24T23:21:21.470;599616323903151278;12730.238;149
2024-05-24T23:21:21.477;599616323910843486;12737.931;149
2024-05-24T23:21:21.485;599616323918535694;12745.622;168
2024-05-24T23:21:21.493;599616323926227902;12753.314;194
2024-05-24T23:21:21.501;599616323933920110;12761.007;187
2024-05-24T23:21:21.508;599616323941612318;12768.699;172
2024-05-24T23:21:21.516;599616323949304526;12776.392;194
2024-05-24T23:21:21.524;599616323956996734;12784.084;227
2024-05-24T23:21:21.531;599616323964688942;12791.776;232
2024-05-24T23:21:21.539;599616323972381150;12799.469;208
2024-05-24T23:21:21.547;599616323980073358;12807.161;170
2024-05-24T23:21:21.554;599616323987765566;12814.854;146
2024-05-24T23:21:21.562;599616323995457774;12822.544;146
2024-05-24T23:21:21.570;599616324003149982;12830.236;127
2024-05-24T23:21:21.577;599616324010842190;12837.929;85
2024-05-24T23:21:21.585;599616324018534398;12845.621;47
2024-05-24T23:21:21.593;599616324026226606;12853.313;18
2024-05-24T23:21:21.601;599616324033918814;12861.006;4
2024-05-24T23:21:21.608;599616324041611022;12868.698;23
2024-05-24T23:21:21.616;599616324049303230;12876.391;54
2024-05-24T23:21:21.624;599616324056995438;12884.083;52
2024-05-24T23:21:21.631;599616324064687646;12891.775;18
2024-05-24T23:21:21.639;599616324072379854;12899.467;-16
2024-05-24T23:21:21.647;599616324080072062;12907.159;-35
2024-05-24T23:21:21.654;599616324087794380;12914.882;-68
2024-05-24T23:21:21.662;599616324095486170;12922.573;-108
2024-05-24T23:21:21.670;599616324103177960;12930.265;-106
2024-05-24T23:21:21.677;599616324110869750;12937.956;-111
2024-05-24T23:21:21.685;599616324118561540;12945.648;-203
2024-05-24T23:21:21.693;599616324126253330;12953.341;-274
2024-05-24T23:21:21.701;599616324133945120;12961.032;-232
2024-05-24T23:21:21.708;599616324141636910;12968.725;-191
2024-05-24T23:21:21.716;599616324149328700;12976.416;-208
2024-05-24T23:21:21.724;599616324157020490;12984.108;-198
2024-05-24T23:21:21.731;599616324164712280;12991.799;-172
2024-05-24T23:21:21.739;599616324172404070;12999.491;-165
2024-05-24T23:21:21.747;599616324180095860;13007.183;-158
2024-05-24T23:21:21.754;599616324187787650;13014.875;-127
2024-05-24T23:21:21.762;599616324195479440;13022.566;-87
2024-05-24T23:21:21.770;599616324203171230;13030.259;-78
2024-05-24T23:21:21.777;599616324210863020;13037.95;-92
2024-05-24T23:21:21.785;599616324218554810;13045.643;-78
2024-05-24T23:21:21.793;599616324226246600;13053.334;-33
2024-05-24T23:21:21.801;599616324233938390;13061.025;-14
2024-05-24T23:21:21.808;599616324241630180;13068.717;-11
2024-05-24T23:21:21.816;599616324249321970;13076.409;-4
2024-05-24T23:21:21.824;599616324257013760;13084.101;-28
2024-05-24T23:21:21.831;599616324264705550;13091.793;-73
2024-05-24T23:21:21.839;599616324272397340;13099.484;-68
2024-05-24T23:21:21.847;599616324280089130;13107.177;-26
2024-05-24T23:21:21.854;599616324287780920;13114.868;0
2024-05-24T23:21:21.862;599616324295472710;13122.56;4
2024-05-24T23:21:21.870;599616324303164500;13130.251;-4
2024-05-24T23:21:21.877;599616324310856290;13137.943;11
2024-05-24T23:21:21.885;599616324318548080;13145.635;61
2024-05-24T23:21:21.893;599616324326239870;13153.327;89
2024-05-24T23:21:21.901;599616324333931660;13161.019;113
2024-05-24T23:21:21.908;599616324341623450;13168.711;142
2024-05-24T23:21:21.916;599616324349315240;13176.402;78
2024-05-24T23:21:21.924;599616324357007030;13184.094;-44
2024-05-24T23:21:21.931;599616324364698820;13191.785;-54
2024-05-24T23:21:21.939;599616324372390610;13199.478;18
2024-05-24T23:21:21.947;599616324380082400;13207.169;44
2024-05-24T23:21:21.954;599616324387774190;13214.861;35
2024-05-24T23:21:21.962;599616324395465980;13222.553;37
2024-05-24T23:21:21.970;599616324403157770;13230.245;49
2024-05-24T23:21:21.977;599616324410849560;13237.9375;73
2024-05-24T23:21:21.985;599616324418541350;13245.628;224
2024-05-24T23:21:21.993;599616324426233140;13253.32;651
2024-05-24T23:21:22.001;599616324433924930;13261.012;1162
2024-05-24T23:21:22.008;599616324441616720;13268.704;1179
2024-05-24T23:21:22.016;599616324449308510;13276.3955;565
2024-05-24T23:21:22.024;599616324457000300;13284.088;56
2024-05-24T23:21:22.031;599616324464692090;13291.779;113
2024-05-24T23:21:22.039;599616324472383880;13299.472;229
2024-05-24T23:21:22.047;599616324480075670;13307.163;111
2024-05-24T23:21:22.054;599616324487767460;13314.8545;82
2024-05-24T23:21:22.062;599616324495459250;13322.546;149
2024-05-24T23:21:22.070;599616324503151040;13330.238;104
2024-05-24T23:21:22.077;599616324510842830;13337.93;37
2024-05-24T23:21:22.085;599616324518534620;13345.622;73
2024-05-24T23:21:22.093;599616324526226410;13353.313;118
2024-05-24T23:21:22.101;599616324533918200;13361.006;104
2024-05-24T23:21:22.108;599616324541609990;13368.697;101
2024-05-24T23:21:22.116;599616324549301780;13376.389;137
2024-05-24T23:21:22.124;599616324556993570;13384.08;172
2024-05-24T23:21:22.131;599616324564685360;13391.772;184
2024-05-24T23:21:22.139;599616324572377150;13399.464;189
2024-05-24T23:21:22.147;599616324580068940;13407.156;198
2024-05-24T23:21:22.154;599616324587760730;13414.848;215
2024-05-24T23:21:22.162;599616324595452520;13422.54;234
2024-05-24T23:21:22.170;599616324603144310;13430.231;246
2024-05-24T23:21:22.177;599616324610836100;13437.923;274
2024-05-24T23:21:22.185;599616324618527890;13445.614;300
2024-05-24T23:21:22.193;599616324626219680;13453.307;291
2024-05-24T23:21:22.200;599616324633911470;13460.998;284
2024-05-24T23:21:22.208;599616324641603260;13468.69;319
2024-05-24T23:21:22.216;599616324649264968;13476.352;357
2024-05-24T23:21:22.224;599616324656957176;13484.044;359
2024-05-24T23:21:22.231;599616324664649384;13491.736;355
2024-05-24T23:21:22.239;599616324672341592;13499.429;355
2024-05-24T23:21:22.247;599616324680033800;13507.121;343
2024-05-24T23:21:22.254;599616324687726008;13514.813;291
2024-05-24T23:21:22.262;599616324695418216;13522.506;232
2024-05-24T23:21:22.270;599616324703110424;13530.198;229
2024-05-24T23:21:22.277;599616324710802632;13537.89;229
2024-05-24T23:21:22.285;599616324718494840;13545.582;161
2024-05-24T23:21:22.293;599616324726187048;13553.273;82
2024-05-24T23:21:22.300;599616324733879256;13560.966;66
2024-05-24T23:21:22.308;599616324741571464;13568.658;66
2024-05-24T23:21:22.316;599616324749263672;13576.351;28
2024-05-24T23:21:22.324;599616324756955880;13584.043;-18
2024-05-24T23:21:22.331;599616324764648088;13591.735;-23
2024-05-24T23:21:22.339;599616324772340296;13599.428;-7
2024-05-24T23:21:22.347;599616324780032504;13607.12;-2
2024-05-24T23:21:22.354;599616324787724712;13614.8125;9
2024-05-24T23:21:22.362;599616324795416920;13622.505;42
2024-05-24T23:21:22.370;599616324803109128;13630.196;52
2024-05-24T23:21:22.377;599616324810801336;13637.888;18
2024-05-24T23:21:22.385;599616324818493544;13645.58;-14
2024-05-24T23:21:22.393;599616324826185752;13653.272;-26
2024-05-24T23:21:22.400;599616324833877960;13660.965;-44
2024-05-24T23:21:22.408;599616324841570168;13668.657;-92
2024-05-24T23:21:22.416;599616324849262376;13676.35;-151
2024-05-24T23:21:22.424;599616324856954584;13684.042;-229
2024-05-24T23:21:22.431;599616324864646792;13691.734;-288
2024-05-24T23:21:22.439;599616324872339000;13699.427;-277
2024-05-24T23:21:22.447;599616324880031208;13707.118;-239
2024-05-24T23:21:22.454;599616324887723416;13714.811;-215
2024-05-24T23:21:22.462;599616324895415624;13722.503;-213
2024-05-24T23:21:22.470;599616324903107832;13730.194;-222
2024-05-24T23:21:22.477;599616324910800040;13737.887;-201
2024-05-24T23:21:22.485;599616324918492248;13745.579;-158
2024-05-24T23:21:22.493;599616324926184456;13753.271;-142
2024-05-24T23:21:22.500;599616324933876664;13760.964;-134
2024-05-24T23:21:22.508;599616324941568872;13768.656;-111
2024-05-24T23:21:22.516;599616324949261080;13776.349;-101
2024-05-24T23:21:22.524;599616324956953288;13784.04;-101
2024-05-24T23:21:22.531;599616324964645496;13791.732;-80
2024-05-24T23:21:22.539;599616324972337704;13799.425;-40
2024-05-24T23:21:22.547;599616324980029912;13807.117;-7
2024-05-24T23:21:22.554;599616324987722120;13814.81;2
2024-05-24T23:21:22.562;599616324995414328;13822.502;-23
2024-05-24T23:21:22.570;599616325003106536;13830.193;-49
2024-05-24T23:21:22.577;599616325010798744;13837.886;-26
2024-05-24T23:21:22.585;599616325018490952;13845.578;-4
2024-05-24T23:21:22.593;599616325026183160;13853.27;2
2024-05-24T23:21:22.600;599616325033875368;13860.962;23
2024-05-24T23:21:22.608;599616325041567576;13868.654;28
2024-05-24T23:21:22.616;599616325049259784;13876.347;18
2024-05-24T23:21:22.624;599616325056951992;13884.039;37
2024-05-24T23:21:22.631;599616325064644200;13891.731;78
2024-05-24T23:21:22.639;599616325072336408;13899.424;99
2024-05-24T23:21:22.647;599616325080028616;13907.116;97
2024-05-24T23:21:22.654;599616325087720824;13914.809;97
2024-05-24T23:21:22.662;599616325095413032;13922.501;120
2024-05-24T23:21:22.670;599616325103105240;13930.191;144
2024-05-24T23:21:22.677;599616325110797448;13937.884;149
2024-05-24T23:21:22.685;599616325118489656;13945.576;165
2024-05-24T23:21:22.693;599616325126181864;13953.269;189
2024-05-24T23:21:22.700;599616325133874072;13960.961;187
2024-05-24T23:21:22.708;599616325141566280;13968.653;177
2024-05-24T23:21:22.716;599616325149258488;13976.346;194
2024-05-24T23:21:22.724;599616325156950696;13984.038;227
2024-05-24T23:21:22.731;599616325164642904;13991.73;236
2024-05-24T23:21:22.739;599616325172335112;13999.423;232
2024-05-24T23:21:22.747;599616325180027320;14007.115;232
2024-05-24T23:21:22.754;599616325187719528;14014.807;241
2024-05-24T23:21:22.762;599616325195411736;14022.499;253
2024-05-24T23:21:22.770;599616325203103944;14030.19;255
2024-05-24T23:21:22.777;599616325210826264;14037.914;267
2024-05-24T23:21:22.785;599616325218518054;14045.6045;284
2024-05-24T23:21:22.793;599616325226209844;14053.297;265
2024-05-24T23:21:22.800;599616325233901634;14060.988;234
2024-05-24T23:21:22.808;599616325241593424;14068.681;220
2024-05-24T23:21:22.816;599616325249285214;14076.372;206
2024-05-24T23:21:22.824;599616325256977004;14084.064;215
2024-05-24T23:21:22.831;599616325264668794;14091.756;232
2024-05-24T23:21:22.839;599616325272360584;14099.448;206
2024-05-24T23:21:22.847;599616325280052374;14107.139;182
2024-05-24T23:21:22.854;599616325287744164;14114.831;153
2024-05-24T23:21:22.862;599616325295435954;14122.522;113
2024-05-24T23:21:22.870;599616325303127744;14130.215;127
2024-05-24T23:21:22.877;599616325310819534;14137.906;158
2024-05-24T23:21:22.885;599616325318511324;14145.599;130
2024-05-24T23:21:22.893;599616325326203114;14153.29;97
2024-05-24T23:21:22.900;599616325333894904;14160.982;168
2024-05-24T23:21:22.908;599616325341586694;14168.674;426
2024-05-24T23:21:22.916;599616325349278484;14176.365;892
2024-05-24T23:21:22.924;599616325356970274;14184.058;1219
2024-05-24T23:21:22.931;599616325364662064;14191.749;907
2024-05-24T23:21:22.939;599616325372353854;14199.441;203
2024-05-24T23:21:22.947;599616325380045644;14207.133;-104
2024-05-24T23:21:22.954;599616325387737434;14214.825;37
2024-05-24T23:21:22.962;599616325395429224;14222.517;82
2024-05-24T23:21:22.970;599616325403121014;14230.209;-9
2024-05-24T23:21:22.977;599616325410812804;14237.899;-7
2024-05-24T23:21:22.985;599616325418504594;14245.592;30
2024-05-24T23:21:22.993;599616325426196384;14253.283;44
2024-05-24T23:21:23.000;599616325433888174;14260.976;68
2024-05-24T23:21:23.008;599616325441579964;14268.667;87
2024-05-24T23:21:23.016;599616325449271754;14276.359;99
2024-05-24T23:21:23.024;599616325456963544;14284.051;116
2024-05-24T23:21:23.031;599616325464655334;14291.743;123
2024-05-24T23:21:23.039;599616325472347124;14299.434;132
2024-05-24T23:21:23.047;599616325480038914;14307.126;153
2024-05-24T23:21:23.054;599616325487730704;14314.817;139
2024-05-24T23:21:23.062;599616325495422494;14322.51;82
2024-05-24T23:21:23.070;599616325503114284;14330.201;26
2024-05-24T23:21:23.077;599616325510806074;14337.894;18
2024-05-24T23:21:23.085;599616325518497864;14345.585;47
2024-05-24T23:21:23.093;599616325526189654;14353.277;63
2024-05-24T23:21:23.100;599616325533881444;14360.968;66
2024-05-24T23:21:23.108;599616325541573234;14368.66;85
2024-05-24T23:21:23.116;599616325549265024;14376.352;104
2024-05-24T23:21:23.124;599616325556956814;14384.044;106
2024-05-24T23:21:23.131;599616325564648604;14391.735;116
2024-05-24T23:21:23.139;599616325572340394;14399.428;151
2024-05-24T23:21:23.147;599616325580032184;14407.119;182
2024-05-24T23:21:23.154;599616325587723974;14414.812;158
2024-05-24T23:21:23.162;599616325595415764;14422.502;106
2024-05-24T23:21:23.170;599616325603107554;14430.194;87
2024-05-24T23:21:23.177;599616325610799344;14437.886;71
2024-05-24T23:21:23.185;599616325618491134;14445.578;2
2024-05-24T23:21:23.193;599616325626182924;14453.2705;-44
2024-05-24T23:21:23.200;599616325633874714;14460.962;-56
2024-05-24T23:21:23.208;599616325641566504;14468.654;-94
2024-05-24T23:21:23.216;599616325649258294;14476.346;-139
2024-05-24T23:21:23.224;599616325656950084;14484.038;-142
2024-05-24T23:21:23.231;599616325664641874;14491.729;-125
2024-05-24T23:21:23.239;599616325672333664;14499.421;-116
2024-05-24T23:21:23.247;599616325680025454;14507.112;-123
2024-05-24T23:21:23.254;599616325687717244;14514.805;-132
2024-05-24T23:21:23.262;599616325695409034;14522.496;-113
2024-05-24T23:21:23.270;599616325703100824;14530.188;-85
2024-05-24T23:21:23.277;599616325710792614;14537.88;-82
2024-05-24T23:21:23.285;599616325718484404;14545.572;-68
2024-05-24T23:21:23.293;599616325726176194;14553.263;-44
2024-05-24T23:21:23.300;599616325733867984;14560.955;-71
2024-05-24T23:21:23.308;599616325741559774;14568.646;-108
2024-05-24T23:21:23.316;599616325749251564;14576.339;-82
2024-05-24T23:21:23.324;599616325756943354;14584.03;-33
2024-05-24T23:21:23.331;599616325764635144;14591.723;-23
2024-05-24T23:21:23.339;599616325772326946;14599.414;-28
2024-05-24T23:21:23.347;599616325780018736;14607.106;-21
2024-05-24T23:21:23.354;599616325787710526;14614.797;-4
2024-05-24T23:21:23.362;599616325795402316;14622.489;16
2024-05-24T23:21:23.370;599616325803094106;14630.181;30
2024-05-24T23:21:23.377;599616325810785896;14637.873;49
2024-05-24T23:21:23.385;599616325818477686;14645.564;63
2024-05-24T23:21:23.393;599616325826169476;14653.257;14
2024-05-24T23:21:23.400;599616325833861266;14660.948;-56
2024-05-24T23:21:23.408;599616325841553056;14668.641;-37
2024-05-24T23:21:23.416;599616325849244846;14676.331;14
2024-05-24T23:21:23.424;599616325856936636;14684.023;-18
2024-05-24T23:21:23.431;599616325864628426;14691.715;-97
2024-05-24T23:21:23.439;599616325872320216;14699.407;-106
2024-05-24T23:21:23.447;599616325880012006;14707.099;-63
2024-05-24T23:21:23.454;599616325887703796;14714.791;-47
2024-05-24T23:21:23.462;599616325895395586;14722.482;-35
2024-05-24T23:21:23.470;599616325903087376;14730.175;4
2024-05-24T23:21:23.477;599616325910779166;14737.867;28
2024-05-24T23:21:23.485;599616325918470956;14745.558;16
2024-05-24T23:21:23.493;599616325926162746;14753.25;28
2024-05-24T23:21:23.500;599616325933854536;14760.941;73
2024-05-24T23:21:23.508;599616325941546326;14768.634;101
2024-05-24T23:21:23.516;599616325949238116;14776.325;106
2024-05-24T23:21:23.524;599616325956929906;14784.018;116
2024-05-24T23:21:23.531;599616325964621696;14791.709;127
2024-05-24T23:21:23.539;599616325972313486;14799.401;144
2024-05-24T23:21:23.547;599616325980005276;14807.092;144
2024-05-24T23:21:23.554;599616325987697066;14814.784;120
2024-05-24T23:21:23.562;599616325995388856;14822.476;127
2024-05-24T23:21:23.570;599616326003080646;14830.168;151
2024-05-24T23:21:23.577;599616326010772436;14837.859;134
2024-05-24T23:21:23.585;599616326018464226;14845.552;134
2024-05-24T23:21:23.593;599616326026156016;14853.243;175
2024-05-24T23:21:23.600;599616326033847806;14860.936;187
2024-05-24T23:21:23.608;599616326041539596;14868.626;175
2024-05-24T23:21:23.616;599616326049231386;14876.318;184
2024-05-24T23:21:23.624;599616326056923176;14884.01;198
2024-05-24T23:21:23.631;599616326064614966;14891.702;194
2024-05-24T23:21:23.639;599616326072306756;14899.394;194
2024-05-24T23:21:23.647;599616326079998546;14907.086;217
2024-05-24T23:21:23.654;599616326087690336;14914.777;241
2024-05-24T23:21:23.662;599616326095382126;14922.47;241
2024-05-24T23:21:23.670;599616326103073916;14930.16;224
2024-05-24T23:21:23.677;599616326110765706;14937.853;234
2024-05-24T23:21:23.685;599616326118457496;14945.544;260
2024-05-24T23:21:23.693;599616326126149286;14953.236;258
2024-05-24T23:21:23.700;599616326133841076;14960.928;251
2024-05-24T23:21:23.708;599616326141532866;14968.62;262
2024-05-24T23:21:23.716;599616326149224656;14976.312;272
2024-05-24T23:21:23.724;599616326156916446;14984.004;272
2024-05-24T23:21:23.731;599616326164608236;14991.695;293
2024-05-24T23:21:23.739;599616326172300026;14999.387;329
2024-05-24T23:21:23.747;599616326179991816;15007.079;331
2024-05-24T23:21:23.754;599616326187683606;15014.7705;300
2024-05-24T23:21:23.762;599616326195375396;15022.463;277
2024-05-24T23:21:23.770;599616326203067186;15030.154;288
2024-05-24T23:21:23.777;599616326210758976;15037.847;310
2024-05-24T23:21:23.785;599616326218450766;15045.538;298
2024-05-24T23:21:23.793;599616326226142556;15053.23;251
2024-05-24T23:21:23.800;599616326233834346;15060.921;196
2024-05-24T23:21:23.808;599616326241526136;15068.613;172
2024-05-24T23:21:23.816;599616326249217926;15076.305;303
2024-05-24T23:21:23.823;599616326256909716;15083.997;724
2024-05-24T23:21:23.831;599616326264601506;15091.688;1229
2024-05-24T23:21:23.839;599616326272293296;15099.381;1257
2024-05-24T23:21:23.847;599616326279985086;15107.072;629
2024-05-24T23:21:23.854;599616326287676876;15114.765;35
2024-05-24T23:21:23.862;599616326295368666;15122.455;35
2024-05-24T23:21:23.870;599616326303060456;15130.147;168
2024-05-24T23:21:23.877;599616326310752246;15137.839;61
2024-05-24T23:21:23.885;599616326318444036;15145.531;14
2024-05-24T23:21:23.893;599616326326135826;15153.223;75
2024-05-24T23:21:23.900;599616326333797532;15160.884;52
2024-05-24T23:21:23.908;599616326341489740;15168.576;14
2024-05-24T23:21:23.916;599616326349181948;15176.269;54
2024-05-24T23:21:23.923;599616326356874156;15183.961;78
2024-05-24T23:21:23.931;599616326364566364;15191.653;11
2024-05-24T23:21:23.939;599616326372258572;15199.346;-97
2024-05-24T23:21:23.947;599616326379950780;15207.038;-151
2024-05-24T23:21:23.954;599616326387642988;15214.73;-163
2024-05-24T23:21:23.962;599616326395335196;15222.423;-236
2024-05-24T23:21:23.970;599616326403027404;15230.115;-326
2024-05-24T23:21:23.977;599616326410719612;15237.807;-310
2024-05-24T23:21:23.985;599616326418411820;15245.499;-265
2024-05-24T23:21:23.993;599616326426104028;15253.19;-288
2024-05-24T23:21:24.000;599616326433796236;15260.883;-293
2024-05-24T23:21:24.008;599616326441488444;15268.575;-241
2024-05-24T23:21:24.016;599616326449180652;15276.268;-198
2024-05-24T23:21:24.023;599616326456872860;15283.96;-184
2024-05-24T23:21:24.031;599616326464565068;15291.652;-177
2024-05-24T23:21:24.039;599616326472257276;15299.345;-191
2024-05-24T23:21:24.047;599616326479949484;15307.037;-215
2024-05-24T23:21:24.054;599616326487641692;15314.729;-198
2024-05-24T23:21:24.062;599616326495333900;15322.421;-161
2024-05-24T23:21:24.070;599616326503026108;15330.113;-123
2024-05-24T23:21:24.077;599616326510718316;15337.806;-99
2024-05-24T23:21:24.085;599616326518410524;15345.498;-104
2024-05-24T23:21:24.093;599616326526102732;15353.189;-104
2024-05-24T23:21:24.100;599616326533794940;15360.882;-75
2024-05-24T23:21:24.108;599616326541487148;15368.574;-68
2024-05-24T23:21:24.116;599616326549179356;15376.267;-94
2024-05-24T23:21:24.123;599616326556871564;15383.959;-104
2024-05-24T23:21:24.131;599616326564563772;15391.65;-104
2024-05-24T23:21:24.139;599616326572255980;15399.343;-99
2024-05-24T23:21:24.147;599616326579948188;15407.035;-85
2024-05-24T23:21:24.154;599616326587640396;15414.728;-63
2024-05-24T23:21:24.162;599616326595332604;15422.42;-30
2024-05-24T23:21:24.170;599616326603024812;15430.112;-9
2024-05-24T23:21:24.177;599616326610717020;15437.805;-21
2024-05-24T23:21:24.185;599616326618409228;15445.497;-9
2024-05-24T23:21:24.193;599616326626101436;15453.188;40
2024-05-24T23:21:24.200;599616326633793644;15460.881;66
2024-05-24T23:21:24.208;599616326641485852;15468.572;68
2024-05-24T23:21:24.216;599616326649178060;15476.265;85
2024-05-24T23:21:24.223;599616326656870268;15483.957;104
2024-05-24T23:21:24.231;599616326664562476;15491.649;106
2024-05-24T23:21:24.239;599616326672254684;15499.342;116
2024-05-24T23:21:24.247;599616326679946892;15507.034;144
2024-05-24T23:21:24.254;599616326687639100;15514.727;168
2024-05-24T23:21:24.262;599616326695331308;15522.419;172
2024-05-24T23:21:24.270;599616326703023516;15530.111;156
2024-05-24T23:21:24.277;599616326710715724;15537.804;158
2024-05-24T23:21:24.285;599616326718407932;15545.494;153
2024-05-24T23:21:24.293;599616326726100140;15553.187;108
2024-05-24T23:21:24.300;599616326733792348;15560.879;89
2024-05-24T23:21:24.308;599616326741484556;15568.571;118
2024-05-24T23:21:24.316;599616326749176764;15576.264;127
2024-05-24T23:21:24.323;599616326756868972;15583.956;113
2024-05-24T23:21:24.331;599616326764561180;15591.648;127
2024-05-24T23:21:24.339;599616326772253388;15599.341;165
2024-05-24T23:21:24.347;599616326779945596;15607.033;191
2024-05-24T23:21:24.354;599616326787637804;15614.726;184
2024-05-24T23:21:24.362;599616326795330012;15622.417;170
2024-05-24T23:21:24.370;599616326803022220;15630.109;187
2024-05-24T23:21:24.377;599616326810714428;15637.802;210
2024-05-24T23:21:24.385;599616326818406636;15645.493;217
2024-05-24T23:21:24.393;599616326826098844;15653.186;227
2024-05-24T23:21:24.400;599616326833791052;15660.878;243
2024-05-24T23:21:24.408;599616326841483260;15668.57;236
2024-05-24T23:21:24.416;599616326849175468;15676.263;220
2024-05-24T23:21:24.423;599616326856867676;15683.955;236
2024-05-24T23:21:24.431;599616326864559884;15691.647;267
2024-05-24T23:21:24.439;599616326872252092;15699.339;246
2024-05-24T23:21:24.447;599616326879944300;15707.031;158
2024-05-24T23:21:24.454;599616326887636508;15714.724;106
2024-05-24T23:21:24.462;599616326895358828;15722.446;137
2024-05-24T23:21:24.470;599616326903050618;15730.138;163
2024-05-24T23:21:24.477;599616326910742408;15737.829;158
2024-05-24T23:21:24.485;599616326918434198;15745.521;177
2024-05-24T23:21:24.493;599616326926125988;15753.213;198
2024-05-24T23:21:24.500;599616326933817778;15760.905;156
2024-05-24T23:21:24.508;599616326941509568;15768.597;82
2024-05-24T23:21:24.516;599616326949201358;15776.289;75
2024-05-24T23:21:24.523;599616326956893148;15783.98;113
2024-05-24T23:21:24.531;599616326964584938;15791.672;104
2024-05-24T23:21:24.539;599616326972276728;15799.363;63
2024-05-24T23:21:24.547;599616326979968518;15807.056;56
2024-05-24T23:21:24.554;599616326987660308;15814.747;78
2024-05-24T23:21:24.562;599616326995352098;15822.439;92
2024-05-24T23:21:24.570;599616327003043888;15830.131;97
2024-05-24T23:21:24.577;599616327010735678;15837.823;118
2024-05-24T23:21:24.585;599616327018427468;15845.515;142
2024-05-24T23:21:24.593;599616327026119258;15853.206;132
2024-05-24T23:21:24.600;599616327033811048;15860.897;132
2024-05-24T23:21:24.608;599616327041502838;15868.59;175
2024-05-24T23:21:24.616;599616327049194628;15876.281;201
2024-05-24T23:21:24.623;599616327056886418;15883.974;182
2024-05-24T23:21:24.631;599616327064578208;15891.665;170
2024-05-24T23:21:24.639;599616327072269998;15899.357;184
2024-05-24T23:21:24.647;599616327079961788;15907.049;194
2024-05-24T23:21:24.654;599616327087653578;15914.741;182
2024-05-24T23:21:24.662;599616327095345368;15922.432;153
2024-05-24T23:21:24.670;599616327103037158;15930.124;116
2024-05-24T23:21:24.677;599616327110728948;15937.815;94
2024-05-24T23:21:24.685;599616327118420738;15945.508;170
2024-05-24T23:21:24.693;599616327126112528;15953.2;520
2024-05-24T23:21:24.700;599616327133804318;15960.892;1058
