Phone timestamp;sensor timestamp [ns];timestamp [ms];ecg [uV]
2024-05-24T23:31:45.523;599616947980289560;0.0;629
2024-05-24T23:31:45.530;599616947987981489;7.691929;2549
2024-05-24T23:31:45.538;599616947995673418;15.383858;4405
2024-05-24T23:31:45.546;599616948003365347;23.075788;5070
2024-05-24T23:31:45.553;599616948011057276;30.767715;5644
2024-05-24T23:31:45.561;599616948018749205;38.459644;6563
2024-05-24T23:31:45.569;599616948026441134;46.151577;7213
2024-05-24T23:31:45.576;599616948034133063;53.843506;7744
2024-05-24T23:31:45.584;599616948041824992;61.53543;8309
2024-05-24T23:31:45.592;599616948049516921;69.22736;8728
2024-05-24T23:31:45.599;599616948057208850;76.91929;9101
2024-05-24T23:31:45.607;599616948064900779;84.61121;9565
2024-05-24T23:31:45.615;599616948072592708;92.303154;10029
2024-05-24T23:31:45.622;599616948080284637;99.99508;10488
2024-05-24T23:31:45.630;599616948087976566;107.68701;10941
2024-05-24T23:31:45.638;599616948095668495;115.37894;11249
2024-05-24T23:31:45.646;599616948103360424;123.07086;11508
2024-05-24T23:31:45.653;599616948111052353;130.76279;11831
2024-05-24T23:31:45.661;599616948118744282;138.45473;12123
2024-05-24T23:31:45.669;599616948126436211;146.14665;12432
2024-05-24T23:31:45.676;599616948134128140;153.83858;12797
2024-05-24T23:31:45.684;599616948141820069;161.53052;13037
2024-05-24T23:31:45.692;599616948149511998;169.22243;13162
2024-05-24T23:31:45.699;599616948157203927;176.91437;13419
2024-05-24T23:31:45.707;599616948164895856;184.60631;13723
2024-05-24T23:31:45.715;599616948172587785;192.29822;13876
2024-05-24T23:31:45.722;599616948180279714;199.99016;14041
2024-05-24T23:31:45.730;599616948187971643;207.68208;14295
2024-05-24T23:31:45.738;599616948195663572;215.37402;14442
2024-05-24T23:31:45.746;599616948203355501;223.06593;14503
2024-05-24T23:31:45.753;599616948211047430;230.75787;14635
2024-05-24T23:31:45.761;599616948218739359;238.4498;14842
2024-05-24T23:31:45.769;599616948226431288;246.14172;15026
2024-05-24T23:31:45.776;599616948234123217;253.83366;15071
2024-05-24T23:31:45.784;599616948241815146;261.52557;15066
2024-05-24T23:31:45.792;599616948249507075;269.2175;15205
2024-05-24T23:31:45.799;599616948257199004;276.90945;15358
2024-05-24T23:31:45.807;599616948264890933;284.60138;15377
2024-05-24T23:31:45.815;599616948272582862;292.2933;15464
2024-05-24T23:31:45.822;599616948280274791;299.98523;15615
2024-05-24T23:31:45.830;599616948287966720;307.67715;15584
2024-05-24T23:31:45.838;599616948295658649;315.36908;15497
2024-05-24T23:31:45.846;599616948303350578;323.06104;15558
2024-05-24T23:31:45.853;599616948311042507;330.75296;15674
2024-05-24T23:31:45.861;599616948318734436;338.44485;15742
2024-05-24T23:31:45.869;599616948326426365;346.1368;15794
2024-05-24T23:31:45.876;599616948334118294;353.82874;15747
2024-05-24T23:31:45.884;599616948341810223;361.52066;15601
2024-05-24T23:31:45.892;599616948349502152;369.21262;15645
2024-05-24T23:31:45.899;599616948357194081;376.9045;16037
2024-05-24T23:31:45.907;599616948364886010;384.59644;16567
2024-05-24T23:31:45.915;599616948372577939;392.2884;16673
2024-05-24T23:31:45.922;599616948380269868;399.98032;16001
2024-05-24T23:31:45.930;599616948387961797;407.6722;15268
2024-05-24T23:31:45.938;599616948395653726;415.36417;15240
2024-05-24T23:31:45.946;599616948403345655;423.0561;15431
2024-05-24T23:31:45.953;599616948411037584;430.74805;15301
2024-05-24T23:31:45.961;599616948418729513;438.43997;15127
2024-05-24T23:31:45.969;599616948426421442;446.13187;15094
2024-05-24T23:31:45.976;599616948434113371;453.82382;15071
2024-05-24T23:31:45.984;599616948441805300;461.51575;14976
2024-05-24T23:31:45.992;599616948449497229;469.20767;14882
2024-05-24T23:31:45.999;599616948457189158;476.8996;14908
2024-05-24T23:31:46.007;599616948464881087;484.59152;14910
2024-05-24T23:31:46.015;599616948472573016;492.28345;14720
2024-05-24T23:31:46.022;599616948480264945;499.9754;14564
2024-05-24T23:31:46.030;599616948487956874;507.66733;14583
2024-05-24T23:31:46.038;599616948495648803;515.35925;14571
2024-05-24T23:31:46.046;599616948503340732;523.05115;14458
2024-05-24T23:31:46.053;599616948511032661;530.7431;14347
2024-05-24T23:31:46.061;599616948518724590;538.435;14277
2024-05-24T23:31:46.069;599616948526416519;546.12695;14286
2024-05-24T23:31:46.076;599616948534108448;553.8189;14314
2024-05-24T23:31:46.084;599616948541790406;561.50085;14109
2024-05-24T23:31:46.092;599616948549482474;569.1929;13824
2024-05-24T23:31:46.099;599616948557174542;576.885;13751
2024-05-24T23:31:46.107;599616948564866610;584.577;13659
2024-05-24T23:31:46.115;599616948572558678;592.2691;13567
2024-05-24T23:31:46.122;599616948580250746;599.96124;13579
2024-05-24T23:31:46.130;599616948587942814;607.65326;13395
2024-05-24T23:31:46.138;599616948595634882;615.34534;13200
2024-05-24T23:31:46.146;599616948603326950;623.03735;13240
2024-05-24T23:31:46.153;599616948611019018;630.7295;13216
2024-05-24T23:31:46.161;599616948618711086;638.4215;12934
2024-05-24T23:31:46.169;599616948626403154;646.1136;12576
2024-05-24T23:31:46.176;599616948634095222;653.8056;12430
2024-05-24T23:31:46.184;599616948641787290;661.49774;12448
2024-05-24T23:31:46.192;599616948649479358;669.1898;12305
2024-05-24T23:31:46.199;599616948657171426;676.88184;12027
2024-05-24T23:31:46.207;599616948664863494;684.574;11923
2024-05-24T23:31:46.215;599616948672555562;692.266;11921
2024-05-24T23:31:46.222;599616948680247630;699.95807;11791
2024-05-24T23:31:46.230;599616948687939698;707.6501;11690
2024-05-24T23:31:46.238;599616948695631766;715.3422;11690
2024-05-24T23:31:46.246;599616948703323834;723.0343;11546
2024-05-24T23:31:46.253;599616948711015902;730.7263;11339
2024-05-24T23:31:46.261;599616948718707970;738.41846;11230
2024-05-24T23:31:46.269;599616948726400038;746.1105;11094
2024-05-24T23:31:46.276;599616948734092106;753.80255;10969
2024-05-24T23:31:46.284;599616948741784174;761.49457;10851
2024-05-24T23:31:46.292;599616948749476242;769.1867;10660
2024-05-24T23:31:46.299;599616948757168310;776.8787;10564
2024-05-24T23:31:46.307;599616948764860378;784.5708;10538
2024-05-24T23:31:46.315;599616948772552446;792.26294;10396
2024-05-24T23:31:46.322;599616948780244514;799.95496;10267
2024-05-24T23:31:46.330;599616948787936582;807.64703;10227
2024-05-24T23:31:46.338;599616948795628650;815.33905;10111
2024-05-24T23:31:46.346;599616948803320718;823.0312;9939
2024-05-24T23:31:46.353;599616948811012786;830.7232;9850
2024-05-24T23:31:46.361;599616948818704854;838.4153;9850
2024-05-24T23:31:46.369;599616948826396922;846.1074;9784
2024-05-24T23:31:46.376;599616948834088990;853.79944;9560
2024-05-24T23:31:46.384;599616948841781058;861.4915;9379
2024-05-24T23:31:46.392;599616948849473126;869.18353;9357
2024-05-24T23:31:46.399;599616948857165194;876.8757;9301
2024-05-24T23:31:46.407;599616948864857262;884.5677;9143
2024-05-24T23:31:46.415;599616948872549330;892.25977;9075
2024-05-24T23:31:46.422;599616948880241398;899.9518;9056
2024-05-24T23:31:46.430;599616948887933466;907.6439;8919
2024-05-24T23:31:46.438;599616948895625534;915.336;8764
2024-05-24T23:31:46.446;599616948903317602;923.028;8719
2024-05-24T23:31:46.453;599616948911009670;930.72015;8693
2024-05-24T23:31:46.461;599616948918701738;938.4122;8613
2024-05-24T23:31:46.469;599616948926393806;946.10425;8479
2024-05-24T23:31:46.476;599616948934085874;953.79626;8363
2024-05-24T23:31:46.484;599616948941777942;961.4884;8314
2024-05-24T23:31:46.492;599616948949470010;969.1805;8245
2024-05-24T23:31:46.499;599616948957162078;976.8725;8128
2024-05-24T23:31:46.507;599616948964854146;984.56464;8076
2024-05-24T23:31:46.515;599616948972546214;992.25665;8038
2024-05-24T23:31:46.522;599616948980238282;999.9487;7894
2024-05-24T23:31:46.530;599616948987930350;1007.64075;7758
2024-05-24T23:31:46.538;599616948995622418;1015.3329;7727
2024-05-24T23:31:46.546;599616949003314486;1023.0249;7696
2024-05-24T23:31:46.553;599616949011006554;1030.717;7597
2024-05-24T23:31:46.561;599616949018698622;1038.409;7473
2024-05-24T23:31:46.569;599616949026390690;1046.1011;7397
2024-05-24T23:31:46.576;599616949034082758;1053.7932;7392
2024-05-24T23:31:46.584;599616949041774826;1061.4852;7277
2024-05-24T23:31:46.592;599616949049466894;1069.1774;7037
2024-05-24T23:31:46.599;599616949057158962;1076.8694;6987
2024-05-24T23:31:46.607;599616949064851030;1084.5614;7027
2024-05-24T23:31:46.615;599616949072543098;1092.2535;6860
2024-05-24T23:31:46.622;599616949080235166;1099.9456;6657
2024-05-24T23:31:46.630;599616949087927234;1107.6376;6624
2024-05-24T23:31:46.638;599616949095619302;1115.3298;6610
2024-05-24T23:31:46.646;599616949103331450;1123.0419;6504
2024-05-24T23:31:46.653;599616949111023240;1130.7336;6412
2024-05-24T23:31:46.661;599616949118715030;1138.4254;6358
2024-05-24T23:31:46.669;599616949126406820;1146.1172;6278
2024-05-24T23:31:46.676;599616949134098610;1153.8091;6224
2024-05-24T23:31:46.684;599616949141790400;1161.5009;6427
2024-05-24T23:31:46.692;599616949149482190;1169.1926;6952
2024-05-24T23:31:46.699;599616949157173980;1176.8845;7225
2024-05-24T23:31:46.707;599616949164865770;1184.5763;6679
2024-05-24T23:31:46.715;599616949172557560;1192.2681;5863
2024-05-24T23:31:46.722;599616949180249350;1199.9598;5604
2024-05-24T23:31:46.730;599616949187941140;1207.6516;5677
2024-05-24T23:31:46.738;599616949195632930;1215.3434;5574
2024-05-24T23:31:46.746;599616949203324720;1223.0352;5421
2024-05-24T23:31:46.753;599616949211016510;1230.7269;5402
2024-05-24T23:31:46.761;599616949218708300;1238.4187;5366
2024-05-24T23:31:46.769;599616949226400090;1246.1106;5272
2024-05-24T23:31:46.776;599616949234091880;1253.8024;5239
2024-05-24T23:31:46.784;599616949241783670;1261.4941;5244
2024-05-24T23:31:46.792;599616949249475460;1269.1859;5171
2024-05-24T23:31:46.799;599616949257167250;1276.8777;5062
2024-05-24T23:31:46.807;599616949264859040;1284.5695;5032
2024-05-24T23:31:46.815;599616949272550830;1292.2612;5018
2024-05-24T23:31:46.822;599616949280242620;1299.953;4959
2024-05-24T23:31:46.830;599616949287934410;1307.6448;4907
2024-05-24T23:31:46.838;599616949295626200;1315.3367;4872
2024-05-24T23:31:46.846;599616949303317990;1323.0284;4815
2024-05-24T23:31:46.853;599616949311009780;1330.7202;4763
2024-05-24T23:31:46.861;599616949318701570;1338.412;4697
2024-05-24T23:31:46.869;599616949326393360;1346.1038;4601
2024-05-24T23:31:46.876;599616949334085150;1353.7955;4558
2024-05-24T23:31:46.884;599616949341776940;1361.4873;4523
2024-05-24T23:31:46.892;599616949349468730;1369.1791;4440
2024-05-24T23:31:46.899;599616949357160520;1376.871;4417
2024-05-24T23:31:46.907;599616949364852310;1384.5627;4424
2024-05-24T23:31:46.915;599616949372544100;1392.2546;4370
2024-05-24T23:31:46.922;599616949380235890;1399.9464;4320
2024-05-24T23:31:46.930;599616949387927680;1407.6382;4301
2024-05-24T23:31:46.938;599616949395619470;1415.33;4243
2024-05-24T23:31:46.946;599616949403311260;1423.0217;4158
2024-05-24T23:31:46.953;599616949411003050;1430.7135;4111
2024-05-24T23:31:46.961;599616949418694840;1438.4053;4078
2024-05-24T23:31:46.969;599616949426386630;1446.097;4005
2024-05-24T23:31:46.976;599616949434078420;1453.7888;3889
2024-05-24T23:31:46.984;599616949441770210;1461.4807;3821
2024-05-24T23:31:46.992;599616949449462000;1469.1725;3793
2024-05-24T23:31:46.999;599616949457153790;1476.8643;3694
2024-05-24T23:31:47.007;599616949464845580;1484.556;3573
2024-05-24T23:31:47.015;599616949472537370;1492.2478;3545
2024-05-24T23:31:47.022;599616949480229160;1499.9396;3522
2024-05-24T23:31:47.030;599616949487920950;1507.6313;3434
2024-05-24T23:31:47.038;599616949495612740;1515.3231;3371
2024-05-24T23:31:47.046;599616949503304530;1523.0149;3366
2024-05-24T23:31:47.053;599616949510996320;1530.7068;3350
2024-05-24T23:31:47.061;599616949518688110;1538.3986;3303
2024-05-24T23:31:47.069;599616949526379900;1546.0903;3246
2024-05-24T23:31:47.076;599616949534071690;1553.7821;3208
2024-05-24T23:31:47.084;599616949541763480;1561.4739;3123
2024-05-24T23:31:47.092;599616949549455270;1569.1656;2947
2024-05-24T23:31:47.099;599616949557147060;1576.8574;2845
2024-05-24T23:31:47.107;599616949564838850;1584.5492;2803
2024-05-24T23:31:47.115;599616949572530640;1592.241;2664
2024-05-24T23:31:47.122;599616949580222430;1599.933;2556
2024-05-24T23:31:47.130;599616949587914220;1607.6248;2553
2024-05-24T23:31:47.138;599616949595606010;1615.3165;2546
2024-05-24T23:31:47.146;599616949603297800;1623.0083;2513
2024-05-24T23:31:47.153;599616949610989590;1630.7001;2485
2024-05-24T23:31:47.161;599616949618681380;1638.3918;2452
2024-05-24T23:31:47.169;599616949626373170;1646.0836;2421
2024-05-24T23:31:47.176;599616949634064960;1653.7754;2405
2024-05-24T23:31:47.184;599616949641756750;1661.4672;2381
2024-05-24T23:31:47.192;599616949649448540;1669.159;2365
2024-05-24T23:31:47.199;599616949657140330;1676.8508;2381
2024-05-24T23:31:47.207;599616949664802036;1684.5125;2360
2024-05-24T23:31:47.215;599616949672494244;1692.2047;2297
2024-05-24T23:31:47.222;599616949680186452;1699.8969;2280
2024-05-24T23:31:47.230;599616949687878660;1707.5891;2304
2024-05-24T23:31:47.238;599616949695570868;1715.2812;2289
2024-05-24T23:31:47.245;599616949703263076;1722.9735;2254
2024-05-24T23:31:47.253;599616949710955284;1730.6658;2228
2024-05-24T23:31:47.261;599616949718647492;1738.3579;2214
2024-05-24T23:31:47.269;599616949726339700;1746.0502;2167
2024-05-24T23:31:47.276;599616949734031908;1753.7423;2082
2024-05-24T23:31:47.284;599616949741724116;1761.4344;2059
2024-05-24T23:31:47.292;599616949749416324;1769.1268;2089
2024-05-24T23:31:47.299;599616949757108532;1776.819;2059
2024-05-24T23:31:47.307;599616949764800740;1784.5112;2002
2024-05-24T23:31:47.315;599616949772492948;1792.2034;2002
2024-05-24T23:31:47.322;599616949780185156;1799.8955;2019
2024-05-24T23:31:47.330;599616949787877364;1807.5879;2009
2024-05-24T23:31:47.338;599616949795569572;1815.28;1997
2024-05-24T23:31:47.345;599616949803261780;1822.9722;1993
2024-05-24T23:31:47.353;599616949810953988;1830.6644;1955
2024-05-24T23:31:47.361;599616949818646196;1838.3566;1891
2024-05-24T23:31:47.369;599616949826338404;1846.049;1863
2024-05-24T23:31:47.376;599616949834030612;1853.7411;1875
2024-05-24T23:31:47.384;599616949841722820;1861.4332;1877
2024-05-24T23:31:47.392;599616949849415028;1869.1255;1842
2024-05-24T23:31:47.399;599616949857107236;1876.8176;1816
2024-05-24T23:31:47.407;599616949864799444;1884.5098;1835
2024-05-24T23:31:47.415;599616949872491652;1892.2021;1842
2024-05-24T23:31:47.422;599616949880183860;1899.8943;1797
2024-05-24T23:31:47.430;599616949887876068;1907.5865;1792
2024-05-24T23:31:47.438;599616949895568276;1915.2787;1979
2024-05-24T23:31:47.445;599616949903260484;1922.9708;2417
2024-05-24T23:31:47.453;599616949910952692;1930.6632;2822
2024-05-24T23:31:47.461;599616949918644900;1938.3553;2702
2024-05-24T23:31:47.469;599616949926337108;1946.0475;2077
2024-05-24T23:31:47.476;599616949934029316;1953.7397;1618
2024-05-24T23:31:47.484;599616949941721524;1961.4319;1639
2024-05-24T23:31:47.492;599616949949413732;1969.1243;1703
2024-05-24T23:31:47.499;599616949957105940;1976.8164;1613
2024-05-24T23:31:47.507;599616949964798148;1984.5085;1592
2024-05-24T23:31:47.515;599616949972490356;1992.2008;1613
2024-05-24T23:31:47.522;599616949980182564;1999.893;1585
2024-05-24T23:31:47.530;599616949987874772;2007.5852;1569
2024-05-24T23:31:47.538;599616949995566980;2015.2775;1573
2024-05-24T23:31:47.545;599616950003259188;2022.9696;1561
2024-05-24T23:31:47.553;599616950010951396;2030.6619;1564
2024-05-24T23:31:47.561;599616950018643604;2038.354;1580
2024-05-24T23:31:47.569;599616950026335812;2046.0463;1566
2024-05-24T23:31:47.576;599616950034028020;2053.7385;1524
2024-05-24T23:31:47.584;599616950041720228;2061.4307;1453
2024-05-24T23:31:47.592;599616950049412436;2069.1228;1359
2024-05-24T23:31:47.599;599616950057104644;2076.8152;1307
2024-05-24T23:31:47.607;599616950064796852;2084.5073;1298
2024-05-24T23:31:47.615;599616950072489060;2092.1995;1307
2024-05-24T23:31:47.622;599616950080181268;2099.8916;1316
2024-05-24T23:31:47.630;599616950087873476;2107.584;1302
2024-05-24T23:31:47.638;599616950095565684;2115.2761;1305
2024-05-24T23:31:47.645;599616950103257892;2122.9683;1345
2024-05-24T23:31:47.653;599616950110950100;2130.6604;1371
2024-05-24T23:31:47.661;599616950118642308;2138.3528;1361
2024-05-24T23:31:47.669;599616950126334516;2146.045;1345
2024-05-24T23:31:47.676;599616950134026724;2153.7373;1352
2024-05-24T23:31:47.684;599616950141718932;2161.4292;1366
2024-05-24T23:31:47.692;599616950149411140;2169.1216;1361
2024-05-24T23:31:47.699;599616950157103348;2176.8137;1345
2024-05-24T23:31:47.707;599616950164795556;2184.506;1342
2024-05-24T23:31:47.715;599616950172487764;2192.1982;1309
2024-05-24T23:31:47.722;599616950180179972;2199.8904;1246
2024-05-24T23:31:47.730;599616950187872180;2207.5828;1220
2024-05-24T23:31:47.738;599616950195564388;2215.2747;1234
2024-05-24T23:31:47.745;599616950203256596;2222.967;1222
2024-05-24T23:31:47.753;599616950210948804;2230.6594;1182
2024-05-24T23:31:47.761;599616950218641012;2238.3513;1163
2024-05-24T23:31:47.769;599616950226333236;2246.0437;1166
2024-05-24T23:31:47.776;599616950234025444;2253.7358;1159
2024-05-24T23:31:47.784;599616950241717652;2261.428;1144
2024-05-24T23:31:47.792;599616950249409860;2269.1204;1152
2024-05-24T23:31:47.799;599616950257102068;2276.8125;1161
2024-05-24T23:31:47.807;599616950264794276;2284.505;1100
2024-05-24T23:31:47.815;599616950272486484;2292.1968;1003
2024-05-24T23:31:47.822;599616950280178692;2299.8892;994
2024-05-24T23:31:47.830;599616950287870900;2307.5815;1034
2024-05-24T23:31:47.838;599616950295563108;2315.2734;996
2024-05-24T23:31:47.845;599616950303255316;2322.9658;895
2024-05-24T23:31:47.853;599616950310947524;2330.658;829
2024-05-24T23:31:47.861;599616950318639732;2338.35;834
2024-05-24T23:31:47.869;599616950326331940;2346.0425;829
2024-05-24T23:31:47.876;599616950334024148;2353.7346;808
2024-05-24T23:31:47.884;599616950341716356;2361.4268;824
2024-05-24T23:31:47.892;599616950349408564;2369.119;841
2024-05-24T23:31:47.899;599616950357100772;2376.8113;810
2024-05-24T23:31:47.907;599616950364792980;2384.5034;789
2024-05-24T23:31:47.915;599616950372485188;2392.1956;815
2024-05-24T23:31:47.922;599616950380177396;2399.888;819
2024-05-24T23:31:47.930;599616950387869604;2407.58;777
2024-05-24T23:31:47.938;599616950395561812;2415.2722;732
2024-05-24T23:31:47.945;599616950403254020;2422.9646;702
2024-05-24T23:31:47.953;599616950410946228;2430.6567;650
2024-05-24T23:31:47.961;599616950418638436;2438.3489;605
2024-05-24T23:31:47.969;599616950426330644;2446.041;610
2024-05-24T23:31:47.976;599616950434022852;2453.7334;633
2024-05-24T23:31:47.984;599616950441715060;2461.4253;624
2024-05-24T23:31:47.992;599616950449407268;2469.1177;586
2024-05-24T23:31:47.999;599616950457099476;2476.81;581
2024-05-24T23:31:48.007;599616950464791684;2484.502;610
2024-05-24T23:31:48.015;599616950472483892;2492.1943;612
2024-05-24T23:31:48.022;599616950480176100;2499.8865;588
2024-05-24T23:31:48.030;599616950487868308;2507.5786;588
2024-05-24T23:31:48.038;599616950495560516;2515.271;596
2024-05-24T23:31:48.045;599616950503252724;2522.9631;588
2024-05-24T23:31:48.053;599616950510944932;2530.6555;588
2024-05-24T23:31:48.061;599616950518637140;2538.3474;610
2024-05-24T23:31:48.069;599616950526329348;2546.0398;650
2024-05-24T23:31:48.076;599616950534021556;2553.7322;669
2024-05-24T23:31:48.084;599616950541713764;2561.424;617
2024-05-24T23:31:48.092;599616950549405972;2569.1165;518
2024-05-24T23:31:48.099;599616950557098180;2576.8086;459
2024-05-24T23:31:48.107;599616950564790388;2584.5007;471
2024-05-24T23:31:48.115;599616950572482596;2592.193;492
2024-05-24T23:31:48.122;599616950580174804;2599.8853;494
2024-05-24T23:31:48.130;599616950587867012;2607.5774;497
2024-05-24T23:31:48.138;599616950595559220;2615.2695;475
2024-05-24T23:31:48.145;599616950603251428;2622.962;482
2024-05-24T23:31:48.153;599616950610943636;2630.654;662
2024-05-24T23:31:48.161;599616950618635844;2638.3462;1116
2024-05-24T23:31:48.169;599616950626328052;2646.0386;1592
2024-05-24T23:31:48.176;599616950634020260;2653.7307;1547
2024-05-24T23:31:48.184;599616950641712468;2661.4229;928
2024-05-24T23:31:48.192;599616950649404676;2669.1152;438
2024-05-24T23:31:48.199;599616950657096884;2676.8074;478
2024-05-24T23:31:48.207;599616950664789092;2684.4995;591
2024-05-24T23:31:48.215;599616950672481300;2692.1917;504
2024-05-24T23:31:48.222;599616950680173508;2699.884;471
2024-05-24T23:31:48.230;599616950687865716;2707.5762;511
2024-05-24T23:31:48.238;599616950695557924;2715.2683;508
2024-05-24T23:31:48.245;599616950703250132;2722.9607;518
2024-05-24T23:31:48.253;599616950710942340;2730.6526;548
2024-05-24T23:31:48.261;599616950718634548;2738.345;548
2024-05-24T23:31:48.269;599616950726326756;2746.0374;534
2024-05-24T23:31:48.276;599616950734018964;2753.7292;548
2024-05-24T23:31:48.284;599616950741711172;2761.4216;570
2024-05-24T23:31:48.292;599616950749403380;2769.1138;570
2024-05-24T23:31:48.299;599616950757095588;2776.8062;588
2024-05-24T23:31:48.307;599616950764787796;2784.4983;614
2024-05-24T23:31:48.315;599616950772480004;2792.1904;607
2024-05-24T23:31:48.322;599616950780172212;2799.8828;596
2024-05-24T23:31:48.330;599616950787894530;2807.605;607
2024-05-24T23:31:48.338;599616950795586320;2815.2969;596
2024-05-24T23:31:48.345;599616950803278110;2822.9885;558
2024-05-24T23:31:48.353;599616950810969900;2830.6804;556
2024-05-24T23:31:48.361;599616950818661690;2838.372;570
2024-05-24T23:31:48.369;599616950826353480;2846.064;577
2024-05-24T23:31:48.376;599616950834045270;2853.7556;560
2024-05-24T23:31:48.384;599616950841737060;2861.4475;513
2024-05-24T23:31:48.392;599616950849428850;2869.1392;513
2024-05-24T23:31:48.399;599616950857120640;2876.831;558
2024-05-24T23:31:48.407;599616950864812430;2884.5227;546
2024-05-24T23:31:48.415;599616950872504220;2892.2148;508
2024-05-24T23:31:48.422;599616950880196010;2899.9065;513
2024-05-24T23:31:48.430;599616950887887800;2907.5984;513
2024-05-24T23:31:48.438;599616950895579590;2915.29;478
2024-05-24T23:31:48.445;599616950903271380;2922.982;447
2024-05-24T23:31:48.453;599616950910963170;2930.6736;433
2024-05-24T23:31:48.461;599616950918654960;2938.3655;426
2024-05-24T23:31:48.469;599616950926346750;2946.0571;414
2024-05-24T23:31:48.476;599616950934038540;2953.749;414
2024-05-24T23:31:48.484;599616950941730330;2961.4407;442
2024-05-24T23:31:48.492;599616950949422120;2969.1326;459
2024-05-24T23:31:48.499;599616950957113910;2976.8242;433
2024-05-24T23:31:48.507;599616950964805700;2984.516;433
2024-05-24T23:31:48.515;599616950972497490;2992.2078;466
2024-05-24T23:31:48.522;599616950980189280;2999.8997;480
2024-05-24T23:31:48.530;599616950987881070;3007.5913;475
2024-05-24T23:31:48.538;599616950995572860;3015.2832;475
2024-05-24T23:31:48.545;599616951003264650;3022.975;482
2024-05-24T23:31:48.553;599616951010956440;3030.6667;487
2024-05-24T23:31:48.561;599616951018648230;3038.359;480
2024-05-24T23:31:48.569;599616951026340020;3046.0505;478
2024-05-24T23:31:48.576;599616951034031810;3053.7424;487
2024-05-24T23:31:48.584;599616951041723600;3061.434;442
2024-05-24T23:31:48.592;599616951049415390;3069.126;339
2024-05-24T23:31:48.599;599616951057107180;3076.8176;259
2024-05-24T23:31:48.607;599616951064798970;3084.5095;259
2024-05-24T23:31:48.615;599616951072490760;3092.2012;285
2024-05-24T23:31:48.622;599616951080182550;3099.893;282
2024-05-24T23:31:48.630;599616951087874340;3107.5847;282
2024-05-24T23:31:48.638;599616951095566130;3115.2766;289
2024-05-24T23:31:48.645;599616951103257920;3122.9683;285
2024-05-24T23:31:48.653;599616951110949710;3130.6602;256
2024-05-24T23:31:48.661;599616951118641500;3138.3518;233
2024-05-24T23:31:48.669;599616951126333290;3146.0437;245
2024-05-24T23:31:48.676;599616951134025080;3153.7354;245
2024-05-24T23:31:48.684;599616951141716870;3161.4272;219
2024-05-24T23:31:48.692;599616951149408660;3169.119;221
2024-05-24T23:31:48.699;599616951157100450;3176.811;249
2024-05-24T23:31:48.707;599616951164792240;3184.5027;252
2024-05-24T23:31:48.715;599616951172484030;3192.1946;245
2024-05-24T23:31:48.722;599616951180175820;3199.8862;259
2024-05-24T23:31:48.730;599616951187867610;3207.5781;263
2024-05-24T23:31:48.738;599616951195559400;3215.2698;245
2024-05-24T23:31:48.745;599616951203251190;3222.9617;216
2024-05-24T23:31:48.753;599616951210942980;3230.6533;207
2024-05-24T23:31:48.761;599616951218634770;3238.3452;212
2024-05-24T23:31:48.769;599616951226326560;3246.037;155
2024-05-24T23:31:48.776;599616951234018350;3253.7288;87
2024-05-24T23:31:48.784;599616951241710140;3261.4207;91
2024-05-24T23:31:48.792;599616951249401930;3269.1123;117
2024-05-24T23:31:48.799;599616951257093720;3276.8042;108
2024-05-24T23:31:48.807;599616951264785510;3284.4958;103
2024-05-24T23:31:48.815;599616951272477300;3292.1877;120
2024-05-24T23:31:48.822;599616951280169090;3299.8794;91
2024-05-24T23:31:48.830;599616951287860880;3307.5713;42
2024-05-24T23:31:48.838;599616951295552670;3315.2632;150
2024-05-24T23:31:48.845;599616951303244460;3322.955;581
2024-05-24T23:31:48.853;599616951310936250;3330.6467;1109
2024-05-24T23:31:48.861;599616951318628040;3338.3386;1161
2024-05-24T23:31:48.869;599616951326319830;3346.0303;567
2024-05-24T23:31:48.876;599616951334011620;3353.7222;-7
2024-05-24T23:31:48.884;599616951341703410;3361.4138;-11
2024-05-24T23:31:48.892;599616951349365118;3369.0754;143
2024-05-24T23:31:48.899;599616951357057326;3376.7678;80
2024-05-24T23:31:48.907;599616951364749534;3384.46;35
2024-05-24T23:31:48.915;599616951372441742;3392.152;51
2024-05-24T23:31:48.922;599616951380133950;3399.8442;-7
2024-05-24T23:31:48.930;599616951387826158;3407.5366;-23
2024-05-24T23:31:48.938;599616951395518366;3415.229;42
2024-05-24T23:31:48.945;599616951403210574;3422.921;65
2024-05-24T23:31:48.953;599616951410902782;3430.6133;56
2024-05-24T23:31:48.961;599616951418594990;3438.3054;77
2024-05-24T23:31:48.968;599616951426287198;3445.9976;120
2024-05-24T23:31:48.976;599616951433979406;3453.69;139
2024-05-24T23:31:48.984;599616951441671614;3461.382;143
2024-05-24T23:31:48.992;599616951449363822;3469.0742;186
2024-05-24T23:31:48.999;599616951457056030;3476.7664;228
2024-05-24T23:31:49.007;599616951464748238;3484.4587;223
2024-05-24T23:31:49.015;599616951472440446;3492.151;223
2024-05-24T23:31:49.022;599616951480132654;3499.843;266
2024-05-24T23:31:49.030;599616951487824862;3507.5354;310
2024-05-24T23:31:49.038;599616951495517070;3515.2273;327
2024-05-24T23:31:49.045;599616951503209278;3522.9197;334
2024-05-24T23:31:49.053;599616951510901486;3530.612;348
2024-05-24T23:31:49.061;599616951518593694;3538.3042;381
2024-05-24T23:31:49.068;599616951526285902;3545.9963;417
2024-05-24T23:31:49.076;599616951533978110;3553.6885;402
2024-05-24T23:31:49.084;599616951541670318;3561.3809;367
2024-05-24T23:31:49.092;599616951549362526;3569.073;336
2024-05-24T23:31:49.099;599616951557054734;3576.7651;247
2024-05-24T23:31:49.107;599616951564746942;3584.4575;179
2024-05-24T23:31:49.115;599616951572439150;3592.1494;197
2024-05-24T23:31:49.122;599616951580131358;3599.8418;209
2024-05-24T23:31:49.130;599616951587823566;3607.5342;186
2024-05-24T23:31:49.138;599616951595515774;3615.226;176
2024-05-24T23:31:49.145;599616951603207982;3622.9185;176
2024-05-24T23:31:49.153;599616951610900190;3630.6106;176
2024-05-24T23:31:49.161;599616951618592398;3638.3027;186
2024-05-24T23:31:49.168;599616951626284606;3645.995;207
2024-05-24T23:31:49.176;599616951633976814;3653.6873;240
2024-05-24T23:31:49.184;599616951641669022;3661.3796;254
2024-05-24T23:31:49.192;599616951649361230;3669.0715;237
2024-05-24T23:31:49.199;599616951657053438;3676.764;240
2024-05-24T23:31:49.207;599616951664745646;3684.4563;285
2024-05-24T23:31:49.215;599616951672437854;3692.1482;308
2024-05-24T23:31:49.222;599616951680130062;3699.8406;299
2024-05-24T23:31:49.230;599616951687822270;3707.5327;315
2024-05-24T23:31:49.238;599616951695514478;3715.2249;334
2024-05-24T23:31:49.245;599616951703206686;3722.9172;327
2024-05-24T23:31:49.253;599616951710898894;3730.6094;325
2024-05-24T23:31:49.261;599616951718591102;3738.3015;343
2024-05-24T23:31:49.268;599616951726283310;3745.9937;367
2024-05-24T23:31:49.276;599616951733975518;3753.686;365
2024-05-24T23:31:49.284;599616951741667726;3761.378;341
2024-05-24T23:31:49.292;599616951749359934;3769.0703;339
2024-05-24T23:31:49.299;599616951757052142;3776.7627;372
2024-05-24T23:31:49.307;599616951764744350;3784.4548;381
2024-05-24T23:31:49.315;599616951772436558;3792.147;358
2024-05-24T23:31:49.322;599616951780128766;3799.839;322
2024-05-24T23:31:49.330;599616951787820974;3807.5315;278
2024-05-24T23:31:49.338;599616951795513182;3815.2236;261
2024-05-24T23:31:49.345;599616951803205390;3822.9158;280
2024-05-24T23:31:49.353;599616951810897598;3830.6082;301
2024-05-24T23:31:49.361;599616951818589806;3838.3;318
2024-05-24T23:31:49.368;599616951826282014;3845.9924;318
2024-05-24T23:31:49.376;599616951833974222;3853.6848;303
2024-05-24T23:31:49.384;599616951841666430;3861.3767;308
2024-05-24T23:31:49.392;599616951849358638;3869.069;329
2024-05-24T23:31:49.399;599616951857050846;3876.7612;336
2024-05-24T23:31:49.407;599616951864743054;3884.4534;336
2024-05-24T23:31:49.415;599616951872435262;3892.1458;346
2024-05-24T23:31:49.422;599616951880127470;3899.838;339
2024-05-24T23:31:49.430;599616951887819678;3907.5303;287
2024-05-24T23:31:49.438;599616951895511886;3915.2222;247
2024-05-24T23:31:49.445;599616951903204094;3922.9146;261
2024-05-24T23:31:49.453;599616951910911366;3930.6216;280
2024-05-24T23:31:49.461;599616951918603365;3938.3137;275
2024-05-24T23:31:49.469;599616951926295364;3946.0059;266
2024-05-24T23:31:49.476;599616951933987363;3953.6978;259
2024-05-24T23:31:49.484;599616951941679362;3961.39;254
2024-05-24T23:31:49.492;599616951949371361;3969.0818;256
2024-05-24T23:31:49.499;599616951957063360;3976.774;266
2024-05-24T23:31:49.507;599616951964755359;3984.4658;268
2024-05-24T23:31:49.515;599616951972447358;3992.1577;216
2024-05-24T23:31:49.522;599616951980139357;3999.8496;115
2024-05-24T23:31:49.530;599616951987831356;4007.5417;32
2024-05-24T23:31:49.538;599616951995523355;4015.234;40
2024-05-24T23:31:49.545;599616952003215354;4022.9258;207
2024-05-24T23:31:49.553;599616952010907353;4030.618;619
2024-05-24T23:31:49.561;599616952018599352;4038.3098;1036
2024-05-24T23:31:49.569;599616952026291351;4046.0017;895
2024-05-24T23:31:49.576;599616952033983350;4053.6936;174
2024-05-24T23:31:49.584;599616952041675349;4061.3857;-310
2024-05-24T23:31:49.592;599616952049367348;4069.078;-223
2024-05-24T23:31:49.599;599616952057059347;4076.7698;-188
2024-05-24T23:31:49.607;599616952064751346;4084.462;-407
2024-05-24T23:31:49.615;599616952072443345;4092.1538;-438
2024-05-24T23:31:49.622;599616952080135344;4099.8457;-313
2024-05-24T23:31:49.630;599616952087827343;4107.5376;-301
2024-05-24T23:31:49.638;599616952095519342;4115.2295;-313
2024-05-24T23:31:49.645;599616952103211341;4122.922;-270
2024-05-24T23:31:49.653;599616952110903340;4130.614;-240
2024-05-24T23:31:49.661;599616952118595339;4138.3057;-223
2024-05-24T23:31:49.668;599616952126287338;4145.998;-183
2024-05-24T23:31:49.676;599616952133979337;4153.69;-146
2024-05-24T23:31:49.684;599616952141671336;4161.382;-106
2024-05-24T23:31:49.692;599616952149363335;4169.0737;-70
2024-05-24T23:31:49.699;599616952157055334;4176.7656;-65
2024-05-24T23:31:49.707;599616952164747333;4184.4575;-54
2024-05-24T23:31:49.715;599616952172439332;4192.15;7
2024-05-24T23:31:49.722;599616952180131331;4199.842;56
2024-05-24T23:31:49.730;599616952187823330;4207.5337;68
2024-05-24T23:31:49.738;599616952195515329;4215.226;91
2024-05-24T23:31:49.745;599616952203207328;4222.918;124
2024-05-24T23:31:49.753;599616952210899327;4230.61;143
2024-05-24T23:31:49.761;599616952218591326;4238.302;164
2024-05-24T23:31:49.768;599616952226283325;4245.9937;202
2024-05-24T23:31:49.776;599616952233975324;4253.6855;242
2024-05-24T23:31:49.784;599616952241667323;4261.378;259
2024-05-24T23:31:49.792;599616952249359322;4269.07;247
2024-05-24T23:31:49.799;599616952257051321;4276.7617;254
2024-05-24T23:31:49.807;599616952264743320;4284.454;275
2024-05-24T23:31:49.815;599616952272435319;4292.1455;235
2024-05-24T23:31:49.822;599616952280127318;4299.838;169
2024-05-24T23:31:49.830;599616952287819317;4307.53;157
2024-05-24T23:31:49.838;599616952295511316;4315.2217;155
2024-05-24T23:31:49.845;599616952303203315;4322.9136;129
2024-05-24T23:31:49.853;599616952310895314;4330.6055;129
2024-05-24T23:31:49.861;599616952318587313;4338.298;162
2024-05-24T23:31:49.868;599616952326279312;4345.9897;188
2024-05-24T23:31:49.876;599616952333971311;4353.682;186
2024-05-24T23:31:49.884;599616952341663310;4361.3735;176
2024-05-24T23:31:49.892;599616952349355309;4369.066;193
2024-05-24T23:31:49.899;599616952357047308;4376.758;233
2024-05-24T23:31:49.907;599616952364739307;4384.4497;247
2024-05-24T23:31:49.915;599616952372431306;4392.1416;247
2024-05-24T23:31:49.922;599616952380123305;4399.8335;268
2024-05-24T23:31:49.930;599616952387815304;4407.526;280
2024-05-24T23:31:49.938;599616952395507303;4415.218;270
2024-05-24T23:31:49.945;599616952403199302;4422.91;280
2024-05-24T23:31:49.953;599616952410891301;4430.6016;306
2024-05-24T23:31:49.961;599616952418583300;4438.2935;320
2024-05-24T23:31:49.968;599616952426275299;4445.986;318
2024-05-24T23:31:49.976;599616952433967298;4453.6777;301
2024-05-24T23:31:49.984;599616952441659297;4461.3696;306
2024-05-24T23:31:49.992;599616952449351296;4469.0615;327
2024-05-24T23:31:49.999;599616952457043295;4476.754;334
2024-05-24T23:31:50.007;599616952464735294;4484.446;334
2024-05-24T23:31:50.015;599616952472427306;4492.138;341
2024-05-24T23:31:50.022;599616952480119305;4499.8296;341
2024-05-24T23:31:50.030;599616952487811304;4507.5215;327
2024-05-24T23:31:50.038;599616952495503303;4515.214;327
2024-05-24T23:31:50.045;599616952503195302;4522.906;351
2024-05-24T23:31:50.053;599616952510887301;4530.5977;367
2024-05-24T23:31:50.061;599616952518579300;4538.2896;336
2024-05-24T23:31:50.068;599616952526271299;4545.982;278
2024-05-24T23:31:50.076;599616952533963298;4553.674;270
2024-05-24T23:31:50.084;599616952541655297;4561.3657;275
2024-05-24T23:31:50.092;599616952549347296;4569.0576;216
2024-05-24T23:31:50.099;599616952557039295;4576.7495;153
2024-05-24T23:31:50.107;599616952564731294;4584.442;101
2024-05-24T23:31:50.115;599616952572423293;4592.134;35
2024-05-24T23:31:50.122;599616952580115292;4599.8257;21
2024-05-24T23:31:50.130;599616952587807291;4607.5176;63
2024-05-24T23:31:50.138;599616952595499290;4615.21;101
2024-05-24T23:31:50.145;599616952603191289;4622.902;115
2024-05-24T23:31:50.153;599616952610883288;4630.5938;113
2024-05-24T23:31:50.161;599616952618575287;4638.2856;115
2024-05-24T23:31:50.168;599616952626267286;4645.9775;141
2024-05-24T23:31:50.176;599616952633959285;4653.67;155
2024-05-24T23:31:50.184;599616952641651284;4661.362;155
2024-05-24T23:31:50.192;599616952649343283;4669.0537;181
2024-05-24T23:31:50.199;599616952657035282;4676.7456;212
2024-05-24T23:31:50.207;599616952664727281;4684.4375;207
2024-05-24T23:31:50.215;599616952672419280;4692.13;200
2024-05-24T23:31:50.222;599616952680111279;4699.822;197
2024-05-24T23:31:50.230;599616952687803278;4707.5137;179
2024-05-24T23:31:50.238;599616952695495277;4715.2056;160
2024-05-24T23:31:50.245;599616952703187276;4722.898;150
2024-05-24T23:31:50.253;599616952710879275;4730.59;146
2024-05-24T23:31:50.261;599616952718571274;4738.2812;155
2024-05-24T23:31:50.268;599616952726263273;4745.9736;162
2024-05-24T23:31:50.276;599616952733955272;4753.6655;155
2024-05-24T23:31:50.284;599616952741647271;4761.358;153
2024-05-24T23:31:50.292;599616952749339270;4769.05;188
2024-05-24T23:31:50.299;599616952757031269;4776.7417;372
2024-05-24T23:31:50.307;599616952764723268;4784.4336;791
2024-05-24T23:31:50.315;599616952772415267;4792.126;1159
2024-05-24T23:31:50.322;599616952780107266;4799.818;991
2024-05-24T23:31:50.330;599616952787799265;4807.5093;299
2024-05-24T23:31:50.338;599616952795491264;4815.2017;-200
2024-05-24T23:31:50.345;599616952803183263;4822.8936;-136
2024-05-24T23:31:50.353;599616952810875262;4830.586;-47
2024-05-24T23:31:50.361;599616952818567261;4838.278;-167
2024-05-24T23:31:50.368;599616952826259260;4845.9697;-174
2024-05-24T23:31:50.376;599616952833951259;4853.6616;-91
2024-05-24T23:31:50.384;599616952841643258;4861.3535;-103
2024-05-24T23:31:50.392;599616952849335257;4869.046;-141
2024-05-24T23:31:50.399;599616952857027256;4876.7373;-113
2024-05-24T23:31:50.407;599616952864719255;4884.4297;-73
2024-05-24T23:31:50.415;599616952872411254;4892.1216;-54
2024-05-24T23:31:50.422;599616952880103253;4899.814;-40
2024-05-24T23:31:50.430;599616952887795252;4907.506;-18
2024-05-24T23:31:50.438;599616952895487251;4915.1973;-11
2024-05-24T23:31:50.445;599616952903179250;4922.8896;-4
2024-05-24T23:31:50.453;599616952910871249;4930.5815;16
2024-05-24T23:31:50.461;599616952918563248;4938.274;54
2024-05-24T23:31:50.468;599616952926255247;4945.9653;91
2024-05-24T23:31:50.476;599616952933947246;4953.6577;103
2024-05-24T23:31:50.484;599616952941639245;4961.3496;91
2024-05-24T23:31:50.492;599616952949331244;4969.042;115
2024-05-24T23:31:50.499;599616952957023243;4976.734;167
2024-05-24T23:31:50.507;599616952964715242;4984.4253;186
2024-05-24T23:31:50.515;599616952972407241;4992.1177;190
2024-05-24T23:31:50.522;599616952980099240;4999.8096;223
2024-05-24T23:31:50.530;599616952987791239;5007.502;245
2024-05-24T23:31:50.538;599616952995483238;5015.1934;235
2024-05-24T23:31:50.545;599616953003175237;5022.8857;233
2024-05-24T23:31:50.553;599616953010867236;5030.5776;221
2024-05-24T23:31:50.561;599616953018559235;5038.2695;186
2024-05-24T23:31:50.568;599616953026251234;5045.962;167
2024-05-24T23:31:50.576;599616953033958296;5053.669;155
2024-05-24T23:31:50.584;599616953041650086;5061.361;134
2024-05-24T23:31:50.592;599616953049341876;5069.0522;127
2024-05-24T23:31:50.599;599616953057033666;5076.744;127
2024-05-24T23:31:50.607;599616953064725456;5084.436;108
2024-05-24T23:31:50.615;599616953072417246;5092.128;44
2024-05-24T23:31:50.622;599616953080109036;5099.8193;-68
2024-05-24T23:31:50.630;599616953087800826;5107.511;-157
2024-05-24T23:31:50.638;599616953095492616;5115.203;-162
2024-05-24T23:31:50.645;599616953103184406;5122.895;-110
2024-05-24T23:31:50.653;599616953110876196;5130.5864;-73
2024-05-24T23:31:50.661;599616953118567986;5138.2783;-63
2024-05-24T23:31:50.668;599616953126259776;5145.97;-47
2024-05-24T23:31:50.676;599616953133951566;5153.662;-16
2024-05-24T23:31:50.684;599616953141643356;5161.3535;9
2024-05-24T23:31:50.692;599616953149335146;5169.0454;30
2024-05-24T23:31:50.699;599616953157026936;5176.7373;58
2024-05-24T23:31:50.707;599616953164718726;5184.429;91
2024-05-24T23:31:50.715;599616953172410516;5192.1206;87
2024-05-24T23:31:50.722;599616953180102306;5199.8125;75
2024-05-24T23:31:50.730;599616953187794096;5207.5044;113
2024-05-24T23:31:50.738;599616953195485886;5215.1963;162
2024-05-24T23:31:50.745;599616953203177676;5222.8877;171
2024-05-24T23:31:50.753;599616953210869466;5230.5796;162
2024-05-24T23:31:50.761;599616953218561256;5238.2715;167
2024-05-24T23:31:50.768;599616953226253046;5245.9634;193
2024-05-24T23:31:50.776;599616953233944836;5253.6553;212
2024-05-24T23:31:50.784;599616953241636626;5261.3467;214
2024-05-24T23:31:50.792;599616953249328416;5269.039;221
2024-05-24T23:31:50.799;599616953257020206;5276.731;197
2024-05-24T23:31:50.807;599616953264711996;5284.423;136
2024-05-24T23:31:50.815;599616953272403786;5292.1143;122
2024-05-24T23:31:50.822;599616953280095576;5299.806;167
2024-05-24T23:31:50.830;599616953287787366;5307.498;193
2024-05-24T23:31:50.838;599616953295479156;5315.19;195
2024-05-24T23:31:50.845;599616953303170946;5322.8813;202
2024-05-24T23:31:50.853;599616953310862736;5330.573;202
2024-05-24T23:31:50.861;599616953318554526;5338.265;212
2024-05-24T23:31:50.868;599616953326246316;5345.957;228
2024-05-24T23:31:50.876;599616953333938106;5353.6484;240
2024-05-24T23:31:50.884;599616953341629896;5361.3403;261
2024-05-24T23:31:50.892;599616953349321686;5369.032;278
2024-05-24T23:31:50.899;599616953357013476;5376.724;259
2024-05-24T23:31:50.907;599616953364705266;5384.4155;254
2024-05-24T23:31:50.915;599616953372397056;5392.1074;289
2024-05-24T23:31:50.922;599616953380088846;5399.7993;310
2024-05-24T23:31:50.930;599616953387780636;5407.491;294
2024-05-24T23:31:50.938;599616953395472426;5415.1826;285
2024-05-24T23:31:50.945;599616953403164216;5422.8745;292
2024-05-24T23:31:50.953;599616953410856006;5430.5664;303
2024-05-24T23:31:50.961;599616953418547796;5438.2583;308
2024-05-24T23:31:50.968;599616953426239586;5445.95;301
2024-05-24T23:31:50.976;599616953433931376;5453.6416;280
2024-05-24T23:31:50.984;599616953441623166;5461.3335;242
2024-05-24T23:31:50.992;599616953449314956;5469.0254;204
2024-05-24T23:31:50.999;599616953457006746;5476.7173;195
2024-05-24T23:31:51.007;599616953464698536;5484.4087;209
2024-05-24T23:31:51.015;599616953472390326;5492.1006;214
2024-05-24T23:31:51.022;599616953480082116;5499.7925;197
2024-05-24T23:31:51.030;599616953487773906;5507.4844;193
2024-05-24T23:31:51.038;599616953495465696;5515.176;195
2024-05-24T23:31:51.045;599616953503157486;5522.8677;174
2024-05-24T23:31:51.053;599616953510849276;5530.5596;160
2024-05-24T23:31:51.061;599616953518541066;5538.2515;176
2024-05-24T23:31:51.068;599616953526232856;5545.943;148
2024-05-24T23:31:51.076;599616953533924646;5553.6353;73
2024-05-24T23:31:51.084;599616953541616436;5561.327;18
2024-05-24T23:31:51.092;599616953549308226;5569.019;-9
2024-05-24T23:31:51.099;599616953557000016;5576.7104;-14
2024-05-24T23:31:51.107;599616953564691806;5584.4023;-18
2024-05-24T23:31:51.115;599616953572383596;5592.094;-51
2024-05-24T23:31:51.122;599616953580075386;5599.786;-131
2024-05-24T23:31:51.130;599616953587767176;5607.4775;-186
2024-05-24T23:31:51.138;599616953595428882;5615.139;-9
2024-05-24T23:31:51.145;599616953603121090;5622.8315;475
2024-05-24T23:31:51.153;599616953610813298;5630.524;904
2024-05-24T23:31:51.161;599616953618505506;5638.2163;760
2024-05-24T23:31:51.168;599616953626197714;5645.908;108
2024-05-24T23:31:51.176;599616953633889922;5653.6;-315
2024-05-24T23:31:51.184;599616953641582130;5661.2925;-202
2024-05-24T23:31:51.191;599616953649274338;5668.985;-101
2024-05-24T23:31:51.199;599616953656966546;5676.6772;-249
2024-05-24T23:31:51.207;599616953664658754;5684.3696;-299
2024-05-24T23:31:51.215;599616953672350962;5692.061;-219
2024-05-24T23:31:51.222;599616953680043170;5699.7534;-212
2024-05-24T23:31:51.230;599616953687735378;5707.446;-221
2024-05-24T23:31:51.238;599616953695427586;5715.138;-171
2024-05-24T23:31:51.245;599616953703119794;5722.8306;-127
2024-05-24T23:31:51.253;599616953710812002;5730.5225;-106
2024-05-24T23:31:51.261;599616953718504210;5738.2144;-89
2024-05-24T23:31:51.268;599616953726196418;5745.9067;-70
2024-05-24T23:31:51.276;599616953733888626;5753.599;-40
2024-05-24T23:31:51.284;599616953741580834;5761.2915;2
2024-05-24T23:31:51.291;599616953749273042;5768.9834;7
2024-05-24T23:31:51.299;599616953756965250;5776.676;-7
2024-05-24T23:31:51.307;599616953764657458;5784.368;11
2024-05-24T23:31:51.315;599616953772349666;5792.06;35
2024-05-24T23:31:51.322;599616953780041874;5799.752;47
2024-05-24T23:31:51.330;599616953787734082;5807.4443;89
2024-05-24T23:31:51.338;599616953795426290;5815.1367;136
2024-05-24T23:31:51.345;599616953803118498;5822.829;157
2024-05-24T23:31:51.353;599616953810810706;5830.5215;167
2024-05-24T23:31:51.361;599616953818502914;5838.213;188
2024-05-24T23:31:51.368;599616953826195122;5845.9053;223
2024-05-24T23:31:51.376;599616953833887330;5853.5977;245
2024-05-24T23:31:51.384;599616953841579538;5861.29;247
2024-05-24T23:31:51.391;599616953849271746;5868.9824;273
2024-05-24T23:31:51.399;599616953856963954;5876.6743;299
2024-05-24T23:31:51.407;599616953864656162;5884.3667;270
2024-05-24T23:31:51.415;599616953872348370;5892.0586;235
2024-05-24T23:31:51.422;599616953880040578;5899.751;249
2024-05-24T23:31:51.430;599616953887732786;5907.4434;263
2024-05-24T23:31:51.438;599616953895424994;5915.1353;249
2024-05-24T23:31:51.445;599616953903117202;5922.8276;230
2024-05-24T23:31:51.453;599616953910809410;5930.52;216
2024-05-24T23:31:51.461;599616953918501618;5938.212;216
2024-05-24T23:31:51.468;599616953926193826;5945.9043;226
2024-05-24T23:31:51.476;599616953933886034;5953.596;233
2024-05-24T23:31:51.484;599616953941578242;5961.2886;249
2024-05-24T23:31:51.491;599616953949270450;5968.981;266
2024-05-24T23:31:51.499;599616953956962658;5976.6733;259
2024-05-24T23:31:51.507;599616953964654866;5984.365;252
2024-05-24T23:31:51.515;599616953972347074;5992.057;278
2024-05-24T23:31:51.522;599616953980039282;5999.7495;306
2024-05-24T23:31:51.530;599616953987731490;6007.442;294
2024-05-24T23:31:51.538;599616953995423698;6015.1343;242
2024-05-24T23:31:51.545;599616954003115906;6022.8267;204
2024-05-24T23:31:51.553;599616954010808114;6030.5186;204
2024-05-24T23:31:51.561;599616954018500322;6038.2104;209
2024-05-24T23:31:51.568;599616954026192530;6045.903;219
2024-05-24T23:31:51.576;599616954033884738;6053.595;249
2024-05-24T23:31:51.584;599616954041576946;6061.2876;254
2024-05-24T23:31:51.591;599616954049269154;6068.9795;214
2024-05-24T23:31:51.599;599616954056961362;6076.672;209
2024-05-24T23:31:51.607;599616954064653570;6084.364;252
2024-05-24T23:31:51.615;599616954072345778;6092.056;268
2024-05-24T23:31:51.622;599616954080037986;6099.7485;228
2024-05-24T23:31:51.630;599616954087730194;6107.4404;155
2024-05-24T23:31:51.638;599616954095422402;6115.133;120
2024-05-24T23:31:51.645;599616954103114610;6122.825;131
2024-05-24T23:31:51.653;599616954110806818;6130.5176;143
2024-05-24T23:31:51.661;599616954118499026;6138.2095;160
2024-05-24T23:31:51.668;599616954126191234;6145.9014;186
2024-05-24T23:31:51.676;599616954133883442;6153.5938;186
2024-05-24T23:31:51.684;599616954141575650;6161.286;157
2024-05-24T23:31:51.691;599616954149267858;6168.9785;139
2024-05-24T23:31:51.699;599616954156960082;6176.671;129
2024-05-24T23:31:51.707;599616954164652290;6184.3623;120
2024-05-24T23:31:51.715;599616954172344498;6192.0547;113
2024-05-24T23:31:51.722;599616954180036706;6199.747;117
2024-05-24T23:31:51.730;599616954187728914;6207.4395;110
2024-05-24T23:31:51.738;599616954195421122;6215.132;56
2024-05-24T23:31:51.745;599616954203113330;6222.8237;4
2024-05-24T23:31:51.753;599616954210805538;6230.516;18
2024-05-24T23:31:51.761;599616954218497746;6238.208;58
2024-05-24T23:31:51.768;599616954226189954;6245.9004;51
2024-05-24T23:31:51.776;599616954233882162;6253.593;7
2024-05-24T23:31:51.784;599616954241574370;6261.2847;-44
2024-05-24T23:31:51.791;599616954249266578;6268.977;-94
2024-05-24T23:31:51.799;599616954256958786;6276.6694;-127
2024-05-24T23:31:51.807;599616954264650994;6284.3613;-150
2024-05-24T23:31:51.815;599616954272343202;6292.0537;-160
2024-05-24T23:31:51.822;599616954280035410;6299.7456;-164
2024-05-24T23:31:51.830;599616954287727618;6307.438;-167
2024-05-24T23:31:51.838;599616954295419826;6315.1304;-146
2024-05-24T23:31:51.845;599616954303112034;6322.8228;-113
2024-05-24T23:31:51.853;599616954310804242;6330.5146;-101
2024-05-24T23:31:51.861;599616954318496450;6338.2065;-110
2024-05-24T23:31:51.868;599616954326188658;6345.899;-113
2024-05-24T23:31:51.876;599616954333880866;6353.5913;-89
2024-05-24T23:31:51.884;599616954341573074;6361.2837;-70
2024-05-24T23:31:51.891;599616954349265282;6368.976;-61
2024-05-24T23:31:51.899;599616954356957490;6376.668;-37
2024-05-24T23:31:51.907;599616954364649698;6384.36;7
2024-05-24T23:31:51.915;599616954372341906;6392.0522;30
2024-05-24T23:31:51.922;599616954380034114;6399.7446;18
2024-05-24T23:31:51.930;599616954387726322;6407.437;21
2024-05-24T23:31:51.938;599616954395418530;6415.129;61
2024-05-24T23:31:51.945;599616954403110738;6422.8213;82
2024-05-24T23:31:51.953;599616954410802946;6430.513;75
2024-05-24T23:31:51.961;599616954418495154;6438.2056;77
2024-05-24T23:31:51.968;599616954426187362;6445.898;91
2024-05-24T23:31:51.976;599616954433879570;6453.59;84
2024-05-24T23:31:51.984;599616954441571778;6461.282;87
2024-05-24T23:31:51.991;599616954449263986;6468.9746;237
2024-05-24T23:31:51.999;599616954456956194;6476.667;659
2024-05-24T23:31:52.007;599616954464648402;6484.359;1144
2024-05-24T23:31:52.015;599616954472340610;6492.051;1187
2024-05-24T23:31:52.022;599616954480032818;6499.743;626
2024-05-24T23:31:52.030;599616954487725026;6507.4355;40
2024-05-24T23:31:52.038;599616954495417234;6515.128;-30
2024-05-24T23:31:52.045;599616954503109442;6522.8203;96
2024-05-24T23:31:52.053;599616954510801650;6530.5117;32
2024-05-24T23:31:52.061;599616954518493858;6538.204;-11
2024-05-24T23:31:52.068;599616954526186066;6545.8965;56
2024-05-24T23:31:52.076;599616954533878274;6553.589;77
2024-05-24T23:31:52.084;599616954541570482;6561.2812;75
2024-05-24T23:31:52.091;599616954549262690;6568.973;108
2024-05-24T23:31:52.099;599616954556954898;6576.665;110
2024-05-24T23:31:52.107;599616954564647106;6584.3574;108
2024-05-24T23:31:52.115;599616954572339314;6592.05;150
2024-05-24T23:31:52.122;599616954580031522;6599.742;162
2024-05-24T23:31:52.130;599616954587723730;6607.434;101
2024-05-24T23:31:52.138;599616954595415938;6615.1265;58
2024-05-24T23:31:52.145;599616954603108146;6622.819;87
2024-05-24T23:31:52.153;599616954610800354;6630.5107;108
2024-05-24T23:31:52.161;599616954618492562;6638.2026;113
2024-05-24T23:31:52.168;599616954626184770;6645.895;148
2024-05-24T23:31:52.176;599616954633876978;6653.5874;195
2024-05-24T23:31:52.184;599616954641569186;6661.28;214
2024-05-24T23:31:52.191;599616954649261394;6668.972;202
2024-05-24T23:31:52.199;599616954656953602;6676.6636;216
2024-05-24T23:31:52.207;599616954664645810;6684.356;266
2024-05-24T23:31:52.215;599616954672338018;6692.0483;292
2024-05-24T23:31:52.222;599616954680030226;6699.7407;296
2024-05-24T23:31:52.230;599616954687722434;6707.433;318
2024-05-24T23:31:52.238;599616954695414642;6715.1255;332
2024-05-24T23:31:52.245;599616954703106850;6722.8174;325
2024-05-24T23:31:52.253;599616954710799058;6730.5093;327
2024-05-24T23:31:52.261;599616954718521378;6738.232;341
2024-05-24T23:31:52.268;599616954726213168;6745.924;336
2024-05-24T23:31:52.276;599616954733904958;6753.615;287
2024-05-24T23:31:52.284;599616954741596748;6761.307;204
2024-05-24T23:31:52.291;599616954749288538;6768.999;176
2024-05-24T23:31:52.299;599616954756980328;6776.691;200
2024-05-24T23:31:52.307;599616954764672118;6784.3823;164
2024-05-24T23:31:52.315;599616954772363908;6792.074;94
2024-05-24T23:31:52.322;599616954780055698;6799.766;98
2024-05-24T23:31:52.330;599616954787747488;6807.458;124
2024-05-24T23:31:52.338;599616954795439278;6815.1494;110
2024-05-24T23:31:52.345;599616954803131068;6822.8413;115
2024-05-24T23:31:52.353;599616954810822858;6830.533;153
2024-05-24T23:31:52.361;599616954818514648;6838.225;176
2024-05-24T23:31:52.368;599616954826206438;6845.9165;164
2024-05-24T23:31:52.376;599616954833898228;6853.6084;129
2024-05-24T23:31:52.384;599616954841590018;6861.3003;103
2024-05-24T23:31:52.391;599616954849281808;6868.992;110
2024-05-24T23:31:52.399;599616954856973598;6876.684;113
2024-05-24T23:31:52.407;599616954864665388;6884.376;110
2024-05-24T23:31:52.415;599616954872357178;6892.068;120
2024-05-24T23:31:52.422;599616954880048968;6899.76;120
2024-05-24T23:31:52.430;599616954887740758;6907.451;108
2024-05-24T23:31:52.438;599616954895432548;6915.143;117
2024-05-24T23:31:52.445;599616954903124338;6922.835;146
2024-05-24T23:31:52.453;599616954910816128;6930.527;157
2024-05-24T23:31:52.461;599616954918507918;6938.2183;139
2024-05-24T23:31:52.468;599616954926199708;6945.91;91
2024-05-24T23:31:52.476;599616954933891498;6953.602;58
2024-05-24T23:31:52.484;599616954941583288;6961.294;47
2024-05-24T23:31:52.491;599616954949275078;6968.986;7
2024-05-24T23:31:52.499;599616954956966868;6976.6772;-23
2024-05-24T23:31:52.507;599616954964658658;6984.369;-2
2024-05-24T23:31:52.515;599616954972350448;6992.061;-7
2024-05-24T23:31:52.522;599616954980042238;6999.753;-54
2024-05-24T23:31:52.530;599616954987734028;7007.4443;-80
2024-05-24T23:31:52.538;599616954995425818;7015.136;-58
2024-05-24T23:31:52.545;599616955003117608;7022.828;-42
2024-05-24T23:31:52.553;599616955010809398;7030.52;-54
2024-05-24T23:31:52.561;599616955018501188;7038.2114;-56
2024-05-24T23:31:52.568;599616955026192978;7045.9033;-32
2024-05-24T23:31:52.576;599616955033884768;7053.595;-18
2024-05-24T23:31:52.584;599616955041576558;7061.287;-18
2024-05-24T23:31:52.591;599616955049268348;7068.9785;0
2024-05-24T23:31:52.599;599616955056960138;7076.6704;23
2024-05-24T23:31:52.607;599616955064651928;7084.3623;11
2024-05-24T23:31:52.615;599616955072343718;7092.054;0
2024-05-24T23:31:52.622;599616955080035508;7099.7456;14
2024-05-24T23:31:52.630;599616955087727298;7107.4375;-32
2024-05-24T23:31:52.638;599616955095419088;7115.1294;-113
2024-05-24T23:31:52.645;599616955103110878;7122.8213;-103
2024-05-24T23:31:52.653;599616955110802668;7130.5127;-61
2024-05-24T23:31:52.661;599616955118494458;7138.2046;-54
2024-05-24T23:31:52.668;599616955126186248;7145.8965;-42
2024-05-24T23:31:52.676;599616955133878038;7153.5884;-9
2024-05-24T23:31:52.684;599616955141569828;7161.2803;28
2024-05-24T23:31:52.691;599616955149261618;7168.972;49
2024-05-24T23:31:52.699;599616955156953408;7176.664;42
2024-05-24T23:31:52.707;599616955164645198;7184.356;42
2024-05-24T23:31:52.715;599616955172336988;7192.048;87
2024-05-24T23:31:52.722;599616955180028778;7199.7393;124
2024-05-24T23:31:52.730;599616955187720568;7207.431;124
2024-05-24T23:31:52.738;599616955195412358;7215.123;124
2024-05-24T23:31:52.745;599616955203104148;7222.815;139
2024-05-24T23:31:52.753;599616955210795938;7230.5063;148
2024-05-24T23:31:52.761;599616955218487728;7238.198;146
2024-05-24T23:31:52.768;599616955226179518;7245.89;131
2024-05-24T23:31:52.776;599616955233871308;7253.582;129
2024-05-24T23:31:52.784;599616955241563098;7261.2734;162
2024-05-24T23:31:52.791;599616955249254888;7268.9653;160
2024-05-24T23:31:52.799;599616955256946678;7276.657;131
2024-05-24T23:31:52.807;599616955264638468;7284.349;164
2024-05-24T23:31:52.815;599616955272330258;7292.0405;204
2024-05-24T23:31:52.822;599616955280007012;7299.718;195
2024-05-24T23:31:52.830;599616955287699011;7307.409;200
2024-05-24T23:31:52.838;599616955295391010;7315.1016;223
2024-05-24T23:31:52.845;599616955303083009;7322.7935;209
2024-05-24T23:31:52.853;599616955310775008;7330.4854;197
2024-05-24T23:31:52.861;599616955318467007;7338.1777;308
2024-05-24T23:31:52.868;599616955326159006;7345.869;654
2024-05-24T23:31:52.876;599616955333851005;7353.5615;1149
2024-05-24T23:31:52.884;599616955341543004;7361.2534;1342
2024-05-24T23:31:52.891;599616955349235003;7368.946;909
2024-05-24T23:31:52.899;599616955356927002;7376.637;285
2024-05-24T23:31:52.907;599616955364619001;7384.329;98
2024-05-24T23:31:52.915;599616955372311000;7392.0215;186
2024-05-24T23:31:52.922;599616955380002999;7399.7134;139
2024-05-24T23:31:52.930;599616955387694998;7407.406;65
2024-05-24T23:31:52.938;599616955395386997;7415.097;96
2024-05-24T23:31:52.945;599616955403078996;7422.7896;117
2024-05-24T23:31:52.953;599616955410770995;7430.4814;122
2024-05-24T23:31:52.961;599616955418462994;7438.1733;162
2024-05-24T23:31:52.968;599616955426154993;7445.865;174
2024-05-24T23:31:52.976;599616955433846992;7453.557;155
2024-05-24T23:31:52.984;599616955441538991;7461.2495;179
2024-05-24T23:31:52.991;599616955449230990;7468.9414;214
2024-05-24T23:31:52.999;599616955456922989;7476.634;212
2024-05-24T23:31:53.007;599616955464614988;7484.325;216
2024-05-24T23:31:53.015;599616955472306987;7492.0176;221
2024-05-24T23:31:53.022;599616955479998986;7499.7095;174
2024-05-24T23:31:53.030;599616955487690985;7507.4014;148
2024-05-24T23:31:53.038;599616955495382984;7515.0933;186
2024-05-24T23:31:53.045;599616955503074983;7522.785;226
2024-05-24T23:31:53.053;599616955510766982;7530.4775;254
2024-05-24T23:31:53.061;599616955518458981;7538.1694;259
2024-05-24T23:31:53.068;599616955526150980;7545.862;249
2024-05-24T23:31:53.076;599616955533842979;7553.553;256
2024-05-24T23:31:53.084;599616955541534978;7561.245;254
2024-05-24T23:31:53.091;599616955549226977;7568.9375;237
2024-05-24T23:31:53.099;599616955556918976;7576.6294;242
2024-05-24T23:31:53.107;599616955564610975;7584.322;256
2024-05-24T23:31:53.115;599616955572302974;7592.013;240
2024-05-24T23:31:53.122;599616955579994973;7599.7056;207
2024-05-24T23:31:53.130;599616955587686972;7607.3975;164
2024-05-24T23:31:53.138;599616955595378971;7615.09;101
2024-05-24T23:31:53.145;599616955603070970;7622.7812;47
2024-05-24T23:31:53.153;599616955610762969;7630.473;11
2024-05-24T23:31:53.161;599616955618454968;7638.1655;-7
2024-05-24T23:31:53.168;599616955626146967;7645.8574;-9
2024-05-24T23:31:53.176;599616955633838966;7653.55;-37
2024-05-24T23:31:53.184;599616955641530965;7661.241;-77
2024-05-24T23:31:53.191;599616955649222964;7668.9336;-101
2024-05-24T23:31:53.199;599616955656914963;7676.6255;-134
2024-05-24T23:31:53.207;599616955664606962;7684.3174;-167
2024-05-24T23:31:53.215;599616955672298961;7692.0093;-174
2024-05-24T23:31:53.222;599616955679990960;7699.701;-153
2024-05-24T23:31:53.230;599616955687682959;7707.3936;-127
2024-05-24T23:31:53.238;599616955695374958;7715.0854;-113
2024-05-24T23:31:53.245;599616955703066957;7722.778;-117
2024-05-24T23:31:53.253;599616955710758956;7730.469;-124
2024-05-24T23:31:53.261;599616955718450955;7738.161;-141
2024-05-24T23:31:53.268;599616955726142954;7745.8535;-183
2024-05-24T23:31:53.276;599616955733834953;7753.5454;-188
2024-05-24T23:31:53.284;599616955741526952;7761.2373;-139
2024-05-24T23:31:53.291;599616955749218951;7768.929;-108
2024-05-24T23:31:53.299;599616955756910950;7776.6216;-122
2024-05-24T23:31:53.307;599616955764602949;7784.3135;-117
2024-05-24T23:31:53.315;599616955772294948;7792.006;-75
2024-05-24T23:31:53.322;599616955779986947;7799.6973;-37
2024-05-24T23:31:53.330;599616955787678946;7807.389;-23
2024-05-24T23:31:53.338;599616955795370945;7815.0815;-18
2024-05-24T23:31:53.345;599616955803062944;7822.7734;-14
2024-05-24T23:31:53.353;599616955810754943;7830.4653;16
2024-05-24T23:31:53.361;599616955818446942;7838.157;35
2024-05-24T23:31:53.368;599616955826138941;7845.8496;32
2024-05-24T23:31:53.376;599616955833830940;7853.5415;80
2024-05-24T23:31:53.384;599616955841522952;7861.233;113
2024-05-24T23:31:53.391;599616955849214951;7868.9253;70
2024-05-24T23:31:53.399;599616955856906950;7876.617;82
2024-05-24T23:31:53.407;599616955864598949;7884.3096;155
2024-05-24T23:31:53.415;599616955872290948;7892.0015;157
2024-05-24T23:31:53.422;599616955879982947;7899.6934;141
2024-05-24T23:31:53.430;599616955887674946;7907.3853;176
2024-05-24T23:31:53.438;599616955895366945;7915.0776;190
2024-05-24T23:31:53.445;599616955903058944;7922.7695;131
2024-05-24T23:31:53.453;599616955910750943;7930.4614;61
2024-05-24T23:31:53.461;599616955918442942;7938.1533;61
2024-05-24T23:31:53.468;599616955926134941;7945.845;127
2024-05-24T23:31:53.476;599616955933826940;7953.5376;155
2024-05-24T23:31:53.484;599616955941518939;7961.2295;106
2024-05-24T23:31:53.491;599616955949210938;7968.9214;113
2024-05-24T23:31:53.499;599616955956902937;7976.6133;176
2024-05-24T23:31:53.507;599616955964594936;7984.305;150
2024-05-24T23:31:53.514;599616955972286935;7991.9976;103
2024-05-24T23:31:53.522;599616955979978934;7999.6895;146
2024-05-24T23:31:53.530;599616955987670933;8007.3813;164
2024-05-24T23:31:53.538;599616955995362932;8015.073;141
2024-05-24T23:31:53.545;599616956003054931;8022.7656;157
2024-05-24T23:31:53.553;599616956010746930;8030.4575;190
2024-05-24T23:31:53.561;599616956018438929;8038.149;214
2024-05-24T23:31:53.568;599616956026130928;8045.8413;226
2024-05-24T23:31:53.576;599616956033822927;8053.533;214
2024-05-24T23:31:53.584;599616956041514926;8061.2256;209
2024-05-24T23:31:53.591;599616956049206925;8068.9175;223
2024-05-24T23:31:53.599;599616956056898924;8076.6094;221
2024-05-24T23:31:53.607;599616956064590923;8084.3013;223
2024-05-24T23:31:53.614;599616956072282922;8091.9937;266
2024-05-24T23:31:53.622;599616956079974921;8099.6855;275
2024-05-24T23:31:53.630;599616956087666920;8107.377;235
2024-05-24T23:31:53.638;599616956095358919;8115.0693;209
2024-05-24T23:31:53.645;599616956103050918;8122.761;204
2024-05-24T23:31:53.653;599616956110742917;8130.4536;190
2024-05-24T23:31:53.661;599616956118434916;8138.1455;179
2024-05-24T23:31:53.668;599616956126126915;8145.8374;181
2024-05-24T23:31:53.676;599616956133818914;8153.5293;197
2024-05-24T23:31:53.684;599616956141510913;8161.221;214
2024-05-24T23:31:53.691;599616956149202912;8168.9136;226
2024-05-24T23:31:53.699;599616956156894911;8176.605;233
2024-05-24T23:31:53.707;599616956164586910;8184.2974;226
2024-05-24T23:31:53.714;599616956172278909;8191.9893;261
2024-05-24T23:31:53.722;599616956179970908;8199.682;504
2024-05-24T23:31:53.730;599616956187662907;8207.373;991
2024-05-24T23:31:53.738;599616956195354906;8215.065;1321
2024-05-24T23:31:53.745;599616956203046905;8222.758;1022
2024-05-24T23:31:53.753;599616956210738904;8230.449;365
2024-05-24T23:31:53.761;599616956218430903;8238.142;75
2024-05-24T23:31:53.768;599616956226122902;8245.833;197
2024-05-24T23:31:53.776;599616956233814901;8253.525;216
2024-05-24T23:31:53.784;599616956241506900;8261.217;127
2024-05-24T23:31:53.791;599616956249198899;8268.909;164
2024-05-24T23:31:53.799;599616956256890898;8276.602;209
2024-05-24T23:31:53.807;599616956264582897;8284.293;167
2024-05-24T23:31:53.814;599616956272274896;8291.985;162
2024-05-24T23:31:53.822;599616956279966895;8299.677;207
2024-05-24T23:31:53.830;599616956287658894;8307.369;223
2024-05-24T23:31:53.838;599616956295350893;8315.062;195
2024-05-24T23:31:53.845;599616956303042892;8322.754;162
2024-05-24T23:31:53.853;599616956310734891;8330.445;153
2024-05-24T23:31:53.861;599616956318426890;8338.137;164
2024-05-24T23:31:53.868;599616956326118889;8345.829;174
2024-05-24T23:31:53.876;599616956333810888;8353.521;179
2024-05-24T23:31:53.884;599616956341502887;8361.214;209
2024-05-24T23:31:53.891;599616956349194886;8368.905;228
2024-05-24T23:31:53.899;599616956356886885;8376.598;202
2024-05-24T23:31:53.907;599616956364578884;8384.289;202
2024-05-24T23:31:53.914;599616956372270883;8391.981;249
2024-05-24T23:31:53.922;599616956379962882;8399.674;261
2024-05-24T23:31:53.930;599616956387654881;8407.365;223
2024-05-24T23:31:53.938;599616956395346880;8415.058;197
2024-05-24T23:31:53.945;599616956403053942;8422.765;186
2024-05-24T23:31:53.953;599616956410745732;8430.456;143
2024-05-24T23:31:53.961;599616956418437522;8438.148;113
2024-05-24T23:31:53.968;599616956426129312;8445.84;124
2024-05-24T23:31:53.976;599616956433821102;8453.531;136
2024-05-24T23:31:53.984;599616956441512892;8461.224;122
2024-05-24T23:31:53.991;599616956449204682;8468.915;77
2024-05-24T23:31:53.999;599616956456896472;8476.607;16
2024-05-24T23:31:54.007;599616956464588262;8484.299;-32
2024-05-24T23:31:54.014;599616956472280052;8491.99;-89
2024-05-24T23:31:54.022;599616956479971842;8499.683;-167
2024-05-24T23:31:54.030;599616956487663632;8507.374;-202
2024-05-24T23:31:54.038;599616956495355422;8515.065;-176
2024-05-24T23:31:54.045;599616956503047212;8522.758;-171
2024-05-24T23:31:54.053;599616956510739002;8530.449;-181
2024-05-24T23:31:54.061;599616956518430792;8538.142;-139
2024-05-24T23:31:54.068;599616956526122582;8545.833;-84
2024-05-24T23:31:54.076;599616956533814372;8553.524;-77
2024-05-24T23:31:54.084;599616956541506162;8561.217;-80
2024-05-24T23:31:54.091;599616956549197952;8568.908;-54
2024-05-24T23:31:54.099;599616956556889742;8576.6;-28
2024-05-24T23:31:54.107;599616956564581532;8584.292;-21
2024-05-24T23:31:54.114;599616956572273322;8591.983;-7
2024-05-24T23:31:54.122;599616956579965112;8599.676;21
2024-05-24T23:31:54.130;599616956587656902;8607.367;44
2024-05-24T23:31:54.138;599616956595348692;8615.06;25
2024-05-24T23:31:54.145;599616956603040482;8622.751;-42
2024-05-24T23:31:54.153;599616956610732272;8630.443;-65
2024-05-24T23:31:54.161;599616956618424062;8638.134;-16
2024-05-24T23:31:54.168;599616956626115852;8645.826;2
2024-05-24T23:31:54.176;599616956633807642;8653.518;-11
2024-05-24T23:31:54.184;599616956641499432;8661.21;7
2024-05-24T23:31:54.191;599616956649191222;8668.901;44
2024-05-24T23:31:54.199;599616956656883012;8676.594;63
2024-05-24T23:31:54.207;599616956664574802;8684.285;91
2024-05-24T23:31:54.214;599616956672266592;8691.978;120
2024-05-24T23:31:54.222;599616956679958382;8699.669;84
2024-05-24T23:31:54.230;599616956687650172;8707.36;56
2024-05-24T23:31:54.238;599616956695341962;8715.052;117
2024-05-24T23:31:54.245;599616956703033752;8722.744;139
2024-05-24T23:31:54.253;599616956710725542;8730.436;77
2024-05-24T23:31:54.261;599616956718417332;8738.128;56
2024-05-24T23:31:54.268;599616956726109122;8745.819;87
2024-05-24T23:31:54.276;599616956733800912;8753.512;103
2024-05-24T23:31:54.284;599616956741492702;8761.203;110
2024-05-24T23:31:54.291;599616956749184492;8768.895;124
2024-05-24T23:31:54.299;599616956756876282;8776.586;150
2024-05-24T23:31:54.307;599616956764568072;8784.278;186
2024-05-24T23:31:54.314;599616956772259862;8791.97;190
2024-05-24T23:31:54.322;599616956779951652;8799.662;176
2024-05-24T23:31:54.330;599616956787643442;8807.3545;197
2024-05-24T23:31:54.338;599616956795335232;8815.046;233
2024-05-24T23:31:54.345;599616956803027022;8822.738;240
2024-05-24T23:31:54.353;599616956810718812;8830.429;228
2024-05-24T23:31:54.361;599616956818410602;8838.121;242
2024-05-24T23:31:54.368;599616956826102392;8845.8125;268
2024-05-24T23:31:54.376;599616956833794182;8853.505;259
2024-05-24T23:31:54.384;599616956841485972;8861.196;252
2024-05-24T23:31:54.391;599616956849177762;8868.889;278
2024-05-24T23:31:54.399;599616956856869552;8876.58;278
2024-05-24T23:31:54.407;599616956864561342;8884.272;275
2024-05-24T23:31:54.414;599616956872253132;8891.964;282
2024-05-24T23:31:54.422;599616956879944922;8899.655;273
2024-05-24T23:31:54.430;599616956887636712;8907.347;292
2024-05-24T23:31:54.438;599616956895328502;8915.039;325
2024-05-24T23:31:54.445;599616956903020292;8922.73;320
2024-05-24T23:31:54.453;599616956910712082;8930.423;318
2024-05-24T23:31:54.461;599616956918403872;8938.114;341
2024-05-24T23:31:54.468;599616956926095662;8945.807;327
2024-05-24T23:31:54.476;599616956933787452;8953.498;292
2024-05-24T23:31:54.484;599616956941479242;8961.189;318
2024-05-24T23:31:54.491;599616956949171032;8968.881;313
2024-05-24T23:31:54.499;599616956956862822;8976.573;219
2024-05-24T23:31:54.507;599616956964524528;8984.235;186
2024-05-24T23:31:54.514;599616956972216736;8991.928;230
2024-05-24T23:31:54.522;599616956979908944;8999.619;268
2024-05-24T23:31:54.530;599616956987601152;9007.312;407
2024-05-24T23:31:54.538;599616956995293360;9015.004;819
2024-05-24T23:31:54.545;599616957002985568;9022.696;1274
2024-05-24T23:31:54.553;599616957010677776;9030.388;1177
2024-05-24T23:31:54.561;599616957018369984;9038.08;490
2024-05-24T23:31:54.568;599616957026062192;9045.772;-23
2024-05-24T23:31:54.576;599616957033754400;9053.465;49
2024-05-24T23:31:54.584;599616957041446608;9061.157;174
2024-05-24T23:31:54.591;599616957049138816;9068.85;51
2024-05-24T23:31:54.599;599616957056831024;9076.541;16
2024-05-24T23:31:54.607;599616957064523232;9084.233;108
2024-05-24T23:31:54.614;599616957072215440;9091.926;106
2024-05-24T23:31:54.622;599616957079907648;9099.618;70
2024-05-24T23:31:54.630;599616957087599856;9107.311;110
2024-05-24T23:31:54.638;599616957095292064;9115.003;122
2024-05-24T23:31:54.645;599616957102984272;9122.695;28
2024-05-24T23:31:54.653;599616957110676480;9130.387;-47
2024-05-24T23:31:54.661;599616957118368688;9138.079;-4
2024-05-24T23:31:54.668;599616957126060896;9145.771;49
2024-05-24T23:31:54.676;599616957133753104;9153.463;9
2024-05-24T23:31:54.684;599616957141445312;9161.155;-44
2024-05-24T23:31:54.691;599616957149137520;9168.848;-23
2024-05-24T23:31:54.699;599616957156829728;9176.54;35
2024-05-24T23:31:54.707;599616957164521936;9184.232;51
2024-05-24T23:31:54.714;599616957172214144;9191.925;42
2024-05-24T23:31:54.722;599616957179906352;9199.617;65
2024-05-24T23:31:54.730;599616957187598560;9207.31;89
2024-05-24T23:31:54.738;599616957195290768;9215.002;68
2024-05-24T23:31:54.745;599616957202982976;9222.694;58
2024-05-24T23:31:54.753;599616957210675184;9230.385;96
2024-05-24T23:31:54.761;599616957218367392;9238.077;122
2024-05-24T23:31:54.768;599616957226059600;9245.77;82
2024-05-24T23:31:54.776;599616957233751808;9253.462;25
2024-05-24T23:31:54.784;599616957241444016;9261.154;16
2024-05-24T23:31:54.791;599616957249136224;9268.847;0
2024-05-24T23:31:54.799;599616957256828432;9276.539;-40
2024-05-24T23:31:54.807;599616957264520640;9284.231;-73
2024-05-24T23:31:54.814;599616957272212848;9291.924;-103
2024-05-24T23:31:54.822;599616957279905056;9299.616;-148
2024-05-24T23:31:54.830;599616957287597264;9307.308;-183
2024-05-24T23:31:54.837;599616957295289472;9315.0;-183
2024-05-24T23:31:54.845;599616957302981680;9322.692;-162
2024-05-24T23:31:54.853;599616957310673888;9330.384;-153
2024-05-24T23:31:54.861;599616957318366096;9338.076;-155
2024-05-24T23:31:54.868;599616957326058304;9345.769;-162
2024-05-24T23:31:54.876;599616957333750512;9353.461;-148
2024-05-24T23:31:54.884;599616957341442720;9361.153;-115
2024-05-24T23:31:54.891;599616957349134928;9368.846;-96
2024-05-24T23:31:54.899;599616957356827136;9376.538;-70
2024-05-24T23:31:54.907;599616957364519344;9384.2295;-37
2024-05-24T23:31:54.914;599616957372211552;9391.922;-49
2024-05-24T23:31:54.922;599616957379903760;9399.614;-56
2024-05-24T23:31:54.930;599616957387595968;9407.307;-14
2024-05-24T23:31:54.937;599616957395288176;9414.999;9
2024-05-24T23:31:54.945;599616957402980384;9422.691;4
2024-05-24T23:31:54.953;599616957410672592;9430.383;18
2024-05-24T23:31:54.961;599616957418364800;9438.075;40
2024-05-24T23:31:54.968;599616957426057008;9445.768;49
2024-05-24T23:31:54.976;599616957433749216;9453.459;77
2024-05-24T23:31:54.984;599616957441441424;9461.151;84
2024-05-24T23:31:54.991;599616957449133632;9468.844;44
2024-05-24T23:31:54.999;599616957456825840;9476.536;37
2024-05-24T23:31:55.007;599616957464518048;9484.229;56
2024-05-24T23:31:55.014;599616957472210256;9491.921;56
2024-05-24T23:31:55.022;599616957479902464;9499.613;73
2024-05-24T23:31:55.030;599616957487594672;9507.306;101
2024-05-24T23:31:55.037;599616957495286880;9514.998;110
2024-05-24T23:31:55.045;599616957502979088;9522.689;115
2024-05-24T23:31:55.053;599616957510671296;9530.381;122
2024-05-24T23:31:55.061;599616957518363504;9538.073;129
2024-05-24T23:31:55.068;599616957526085822;9545.797;146
2024-05-24T23:31:55.076;599616957533777612;9553.488;157
2024-05-24T23:31:55.084;599616957541469402;9561.18;174
2024-05-24T23:31:55.091;599616957549161192;9568.871;179
2024-05-24T23:31:55.099;599616957556852982;9576.563;115
2024-05-24T23:31:55.107;599616957564544772;9584.255;47
2024-05-24T23:31:55.114;599616957572236562;9591.947;82
2024-05-24T23:31:55.122;599616957579928352;9599.639;134
2024-05-24T23:31:55.130;599616957587620142;9607.331;117
2024-05-24T23:31:55.138;599616957595311932;9615.022;106
2024-05-24T23:31:55.145;599616957603003722;9622.715;113
2024-05-24T23:31:55.153;599616957610695512;9630.405;51
2024-05-24T23:31:55.161;599616957618387302;9638.098;-37
2024-05-24T23:31:55.168;599616957626079092;9645.789;-16
2024-05-24T23:31:55.176;599616957633770882;9653.481;51
2024-05-24T23:31:55.184;599616957641462672;9661.173;63
2024-05-24T23:31:55.191;599616957649154462;9668.865;73
2024-05-24T23:31:55.199;599616957656846252;9676.557;103
2024-05-24T23:31:55.207;599616957664538042;9684.249;117
2024-05-24T23:31:55.214;599616957672229832;9691.939;122
2024-05-24T23:31:55.222;599616957679921622;9699.632;129
2024-05-24T23:31:55.230;599616957687613412;9707.323;117
2024-05-24T23:31:55.238;599616957695305202;9715.016;75
2024-05-24T23:31:55.245;599616957702996992;9722.707;58
2024-05-24T23:31:55.253;599616957710688782;9730.399;65
2024-05-24T23:31:55.261;599616957718380572;9738.092;65
2024-05-24T23:31:55.268;599616957726072362;9745.783;155
2024-05-24T23:31:55.276;599616957733764152;9753.475;461
2024-05-24T23:31:55.284;599616957741455942;9761.166;956
2024-05-24T23:31:55.291;599616957749147732;9768.858;1241
2024-05-24T23:31:55.299;599616957756839522;9776.55;888
2024-05-24T23:31:55.307;599616957764531312;9784.242;216
2024-05-24T23:31:55.314;599616957772223102;9791.934;-11
2024-05-24T23:31:55.322;599616957779914892;9799.626;160
2024-05-24T23:31:55.330;599616957787606682;9807.317;179
2024-05-24T23:31:55.338;599616957795298472;9815.01;77
2024-05-24T23:31:55.345;599616957802990262;9822.7;101
2024-05-24T23:31:55.353;599616957810682052;9830.393;148
2024-05-24T23:31:55.361;599616957818373842;9838.084;148
2024-05-24T23:31:55.368;599616957826065632;9845.776;153
2024-05-24T23:31:55.376;599616957833757422;9853.468;157
2024-05-24T23:31:55.384;599616957841449212;9861.16;167
2024-05-24T23:31:55.391;599616957849141002;9868.852;195
2024-05-24T23:31:55.399;599616957856832792;9876.544;204
2024-05-24T23:31:55.407;599616957864524582;9884.234;216
2024-05-24T23:31:55.414;599616957872216372;9891.927;245
2024-05-24T23:31:55.422;599616957879908162;9899.618;249
2024-05-24T23:31:55.430;599616957887599952;9907.311;235
2024-05-24T23:31:55.438;599616957895291742;9915.002;259
2024-05-24T23:31:55.445;599616957902983532;9922.694;294
2024-05-24T23:31:55.453;599616957910675322;9930.386;306
2024-05-24T23:31:55.461;599616957918367112;9938.078;308
2024-05-24T23:31:55.468;599616957926058902;9945.769;308
2024-05-24T23:31:55.476;599616957933750692;9953.461;292
2024-05-24T23:31:55.484;599616957941442482;9961.152;261
2024-05-24T23:31:55.491;599616957949134272;9968.845;259
2024-05-24T23:31:55.499;599616957956826062;9976.536;296
2024-05-24T23:31:55.507;599616957964517852;9984.229;320
2024-05-24T23:31:55.514;599616957972209642;9991.92;303
2024-05-24T23:31:55.522;599616957979901432;9999.612;292
2024-05-24T23:31:55.530;599616957987593222;10007.303;282
2024-05-24T23:31:55.537;599616957995285012;10014.995;237
2024-05-24T23:31:55.545;599616958002976802;10022.6875;200
2024-05-24T23:31:55.553;599616958010668592;10030.379;167
2024-05-24T23:31:55.561;599616958018360382;10038.071;115
2024-05-24T23:31:55.568;599616958026052172;10045.763;94
2024-05-24T23:31:55.576;599616958033743962;10053.455;89
2024-05-24T23:31:55.584;599616958041435752;10061.146;56
2024-05-24T23:31:55.591;599616958049127542;10068.839;54
2024-05-24T23:31:55.599;599616958056819332;10076.529;87
2024-05-24T23:31:55.607;599616958064511122;10084.222;68
2024-05-24T23:31:55.614;599616958072202912;10091.913;28
2024-05-24T23:31:55.622;599616958079894702;10099.605;21
2024-05-24T23:31:55.630;599616958087556410;10107.267;4
2024-05-24T23:31:55.637;599616958095248618;10114.959;-40
2024-05-24T23:31:55.645;599616958102940826;10122.651;-89
2024-05-24T23:31:55.653;599616958110633034;10130.344;-169
2024-05-24T23:31:55.661;599616958118325242;10138.035;-278
2024-05-24T23:31:55.668;599616958126017450;10145.728;-358
2024-05-24T23:31:55.676;599616958133709658;10153.42;-374
2024-05-24T23:31:55.684;599616958141401866;10161.112;-341
2024-05-24T23:31:55.691;599616958149094074;10168.805;-320
2024-05-24T23:31:55.699;599616958156786282;10176.497;-341
2024-05-24T23:31:55.707;599616958164478490;10184.188;-334
2024-05-24T23:31:55.714;599616958172170698;10191.881;-287
2024-05-24T23:31:55.722;599616958179862906;10199.573;-287
2024-05-24T23:31:55.730;599616958187555114;10207.266;-332
2024-05-24T23:31:55.737;599616958195247322;10214.958;-332
2024-05-24T23:31:55.745;599616958202939530;10222.65;-292
2024-05-24T23:31:55.753;599616958210631738;10230.343;-273
2024-05-24T23:31:55.761;599616958218323946;10238.034;-254
2024-05-24T23:31:55.768;599616958226016154;10245.727;-212
2024-05-24T23:31:55.776;599616958233708362;10253.419;-167
2024-05-24T23:31:55.784;599616958241400570;10261.11;-148
2024-05-24T23:31:55.791;599616958249092778;10268.803;-148
2024-05-24T23:31:55.799;599616958256784986;10276.495;-129
2024-05-24T23:31:55.807;599616958264477194;10284.1875;-89
2024-05-24T23:31:55.814;599616958272169402;10291.88;-61
2024-05-24T23:31:55.822;599616958279861610;10299.572;-47
2024-05-24T23:31:55.830;599616958287553818;10307.265;-28
2024-05-24T23:31:55.837;599616958295246026;10314.957;-7
2024-05-24T23:31:55.845;599616958302938234;10322.649;7
2024-05-24T23:31:55.853;599616958310630442;10330.342;16
2024-05-24T23:31:55.861;599616958318322650;10338.032;49
2024-05-24T23:31:55.868;599616958326014858;10345.725;89
2024-05-24T23:31:55.876;599616958333707066;10353.417;94
2024-05-24T23:31:55.884;599616958341399274;10361.109;68
2024-05-24T23:31:55.891;599616958349091482;10368.802;77
2024-05-24T23:31:55.899;599616958356783690;10376.494;120
2024-05-24T23:31:55.907;599616958364475898;10384.187;143
2024-05-24T23:31:55.914;599616958372168106;10391.879;146
2024-05-24T23:31:55.922;599616958379860314;10399.571;174
2024-05-24T23:31:55.930;599616958387552522;10407.264;214
2024-05-24T23:31:55.937;599616958395244730;10414.955;209
2024-05-24T23:31:55.945;599616958402936938;10422.647;190
2024-05-24T23:31:55.953;599616958410629146;10430.34;212
2024-05-24T23:31:55.961;599616958418321354;10438.031;247
2024-05-24T23:31:55.968;599616958426013562;10445.724;233
2024-05-24T23:31:55.976;599616958433705770;10453.416;179
2024-05-24T23:31:55.984;599616958441397978;10461.108;176
2024-05-24T23:31:55.991;599616958449090186;10468.801;207
2024-05-24T23:31:55.999;599616958456782394;10476.493;195
2024-05-24T23:31:56.007;599616958464474602;10484.186;249
2024-05-24T23:31:56.014;599616958472166810;10491.877;565
2024-05-24T23:31:56.022;599616958479859018;10499.569;1086
2024-05-24T23:31:56.030;599616958487551226;10507.262;1340
2024-05-24T23:31:56.037;599616958495243434;10514.954;947
2024-05-24T23:31:56.045;599616958502935642;10522.646;306
2024-05-24T23:31:56.053;599616958510627850;10530.338;115
2024-05-24T23:31:56.061;599616958518320058;10538.03;249
2024-05-24T23:31:56.068;599616958526012266;10545.723;221
2024-05-24T23:31:56.076;599616958533704474;10553.415;141
2024-05-24T23:31:56.084;599616958541396682;10561.107;190
2024-05-24T23:31:56.091;599616958549088890;10568.799;212
2024-05-24T23:31:56.099;599616958556781098;10576.491;193
2024-05-24T23:31:56.107;599616958564473306;10584.184;223
2024-05-24T23:31:56.114;599616958572165514;10591.876;233
2024-05-24T23:31:56.122;599616958579857722;10599.568;204
2024-05-24T23:31:56.130;599616958587549930;10607.261;226
2024-05-24T23:31:56.137;599616958595242138;10614.953;273
2024-05-24T23:31:56.145;599616958602934346;10622.6455;289
2024-05-24T23:31:56.153;599616958610626554;10630.337;266
2024-05-24T23:31:56.161;599616958618318762;10638.028;195
2024-05-24T23:31:56.168;599616958626010970;10645.721;150
2024-05-24T23:31:56.176;599616958633703178;10653.413;179
2024-05-24T23:31:56.184;599616958641395386;10661.105;202
2024-05-24T23:31:56.191;599616958649117706;10668.828;219
2024-05-24T23:31:56.199;599616958656809496;10676.52;256
2024-05-24T23:31:56.207;599616958664501286;10684.212;273
2024-05-24T23:31:56.214;599616958672193076;10691.903;252
2024-05-24T23:31:56.222;599616958679884866;10699.596;237
2024-05-24T23:31:56.230;599616958687576656;10707.287;256
2024-05-24T23:31:56.237;599616958695268446;10714.9795;280
2024-05-24T23:31:56.245;599616958702960236;10722.671;282
2024-05-24T23:31:56.253;599616958710652026;10730.363;287
2024-05-24T23:31:56.261;599616958718343816;10738.054;289
2024-05-24T23:31:56.268;599616958726035606;10745.746;247
2024-05-24T23:31:56.276;599616958733727396;10753.4375;179
2024-05-24T23:31:56.284;599616958741419186;10761.13;169
2024-05-24T23:31:56.291;599616958749110976;10768.821;176
2024-05-24T23:31:56.299;599616958756802766;10776.514;117
2024-05-24T23:31:56.307;599616958764494556;10784.205;73
2024-05-24T23:31:56.314;599616958772186346;10791.897;96
2024-05-24T23:31:56.322;599616958779878136;10799.588;124
2024-05-24T23:31:56.330;599616958787569926;10807.28;115
2024-05-24T23:31:56.337;599616958795261716;10814.972;103
2024-05-24T23:31:56.345;599616958802953506;10822.664;117
2024-05-24T23:31:56.353;599616958810645296;10830.355;134
2024-05-24T23:31:56.361;599616958818337086;10838.048;139
2024-05-24T23:31:56.368;599616958826028876;10845.739;146
2024-05-24T23:31:56.376;599616958833720666;10853.432;174
2024-05-24T23:31:56.384;599616958841412456;10861.123;193
2024-05-24T23:31:56.391;599616958849104246;10868.814;174
2024-05-24T23:31:56.399;599616958856796036;10876.506;150
2024-05-24T23:31:56.407;599616958864487826;10884.198;136
2024-05-24T23:31:56.414;599616958872179616;10891.89;117
2024-05-24T23:31:56.422;599616958879871406;10899.582;106
2024-05-24T23:31:56.430;599616958887563196;10907.273;117
2024-05-24T23:31:56.437;599616958895254986;10914.966;117
2024-05-24T23:31:56.445;599616958902946776;10922.657;103
2024-05-24T23:31:56.453;599616958910638566;10930.349;89
2024-05-24T23:31:56.461;599616958918330356;10938.04;75
2024-05-24T23:31:56.468;599616958926022146;10945.732;47
2024-05-24T23:31:56.476;599616958933713936;10953.424;18
2024-05-24T23:31:56.484;599616958941405726;10961.116;0
2024-05-24T23:31:56.491;599616958949097516;10968.809;-21
2024-05-24T23:31:56.499;599616958956789306;10976.5;-42
2024-05-24T23:31:56.507;599616958964481096;10984.192;-61
2024-05-24T23:31:56.514;599616958972172886;10991.883;-106
2024-05-24T23:31:56.522;599616958979864676;10999.575;-141
2024-05-24T23:31:56.530;599616958987556466;11007.267;-143
2024-05-24T23:31:56.537;599616958995248256;11014.959;-153
2024-05-24T23:31:56.545;599616959002940046;11022.65;-155
2024-05-24T23:31:56.553;599616959010631836;11030.343;-127
2024-05-24T23:31:56.561;599616959018323626;11038.034;-106
2024-05-24T23:31:56.568;599616959026015416;11045.727;-117
2024-05-24T23:31:56.576;599616959033707206;11053.417;-139
2024-05-24T23:31:56.584;599616959041398996;11061.109;-124
2024-05-24T23:31:56.591;599616959049090786;11068.801;-94
2024-05-24T23:31:56.599;599616959056782576;11076.493;-91
2024-05-24T23:31:56.607;599616959064474366;11084.185;-94
2024-05-24T23:31:56.614;599616959072166156;11091.877;-70
2024-05-24T23:31:56.622;599616959079857946;11099.568;-65
2024-05-24T23:31:56.630;599616959087549736;11107.261;-82
2024-05-24T23:31:56.637;599616959095241526;11114.952;-75
2024-05-24T23:31:56.645;599616959102933316;11122.644;-35
2024-05-24T23:31:56.653;599616959110625106;11130.335;-16
2024-05-24T23:31:56.661;599616959118316896;11138.027;-63
2024-05-24T23:31:56.668;599616959126008686;11145.719;-122
2024-05-24T23:31:56.676;599616959133700476;11153.411;-96
2024-05-24T23:31:56.684;599616959141392266;11161.103;-37
2024-05-24T23:31:56.691;599616959149084056;11168.795;-47
2024-05-24T23:31:56.699;599616959156775846;11176.486;-47
2024-05-24T23:31:56.707;599616959164467636;11184.178;-35
2024-05-24T23:31:56.714;599616959172159426;11191.869;-84
2024-05-24T23:31:56.722;599616959179851216;11199.562;-115
2024-05-24T23:31:56.730;599616959187543006;11207.253;-65
2024-05-24T23:31:56.737;599616959195234796;11214.945;-23
2024-05-24T23:31:56.745;599616959202926586;11222.637;-32
2024-05-24T23:31:56.753;599616959210588292;11230.299;-16
2024-05-24T23:31:56.760;599616959218280500;11237.991;186
2024-05-24T23:31:56.768;599616959225972708;11245.683;657
2024-05-24T23:31:56.776;599616959233664916;11253.375;1104
2024-05-24T23:31:56.784;599616959241357124;11261.067;1001
2024-05-24T23:31:56.791;599616959249049332;11268.76;381
2024-05-24T23:31:56.799;599616959256741540;11276.452;-49
2024-05-24T23:31:56.807;599616959264433748;11284.145;-21
2024-05-24T23:31:56.814;599616959272125956;11291.836;-4
2024-05-24T23:31:56.822;599616959279818164;11299.528;-101
2024-05-24T23:31:56.830;599616959287510372;11307.221;-70
2024-05-24T23:31:56.837;599616959295202580;11314.913;-11
2024-05-24T23:31:56.845;599616959302894788;11322.605;-18
2024-05-24T23:31:56.853;599616959310586996;11330.298;-9
2024-05-24T23:31:56.860;599616959318279204;11337.99;23
2024-05-24T23:31:56.868;599616959325971412;11345.682;35
2024-05-24T23:31:56.876;599616959333663620;11353.374;47
2024-05-24T23:31:56.884;599616959341355828;11361.066;89
2024-05-24T23:31:56.891;599616959349048036;11368.758;117
2024-05-24T23:31:56.899;599616959356740244;11376.45;106
2024-05-24T23:31:56.907;599616959364432452;11384.143;110
2024-05-24T23:31:56.914;599616959372124660;11391.835;160
2024-05-24T23:31:56.922;599616959379816868;11399.527;197
2024-05-24T23:31:56.930;599616959387509076;11407.22;197
2024-05-24T23:31:56.937;599616959395201284;11414.912;207
2024-05-24T23:31:56.945;599616959402893492;11422.6045;233
2024-05-24T23:31:56.953;599616959410585700;11430.297;235
2024-05-24T23:31:56.960;599616959418277908;11437.988;212
2024-05-24T23:31:56.968;599616959425970116;11445.68;226
2024-05-24T23:31:56.976;599616959433662324;11453.372;275
2024-05-24T23:31:56.984;599616959441354532;11461.064;303
2024-05-24T23:31:56.991;599616959449046740;11468.757;289
2024-05-24T23:31:56.999;599616959456738948;11476.449;299
2024-05-24T23:31:57.007;599616959464431156;11484.142;339
2024-05-24T23:31:57.014;599616959472123364;11491.834;346
2024-05-24T23:31:57.022;599616959479815572;11499.526;332
2024-05-24T23:31:57.030;599616959487507780;11507.219;332
2024-05-24T23:31:57.037;599616959495199988;11514.911;313
2024-05-24T23:31:57.045;599616959502892196;11522.603;270
2024-05-24T23:31:57.053;599616959510584404;11530.295;247
2024-05-24T23:31:57.060;599616959518276612;11537.986;249
2024-05-24T23:31:57.068;599616959525968820;11545.679;256
2024-05-24T23:31:57.076;599616959533661028;11553.371;240
2024-05-24T23:31:57.084;599616959541353236;11561.063;209
2024-05-24T23:31:57.091;599616959549045444;11568.756;209
2024-05-24T23:31:57.099;599616959556737652;11576.448;237
2024-05-24T23:31:57.107;599616959564429860;11584.141;240
2024-05-24T23:31:57.114;599616959572122068;11591.833;235
2024-05-24T23:31:57.122;599616959579814276;11599.524;254
2024-05-24T23:31:57.130;599616959587506484;11607.217;261
2024-05-24T23:31:57.137;599616959595198692;11614.909;247
2024-05-24T23:31:57.145;599616959602890900;11622.602;249
2024-05-24T23:31:57.153;599616959610583108;11630.294;263
2024-05-24T23:31:57.160;599616959618275316;11637.985;221
2024-05-24T23:31:57.168;599616959625967524;11645.678;124
2024-05-24T23:31:57.176;599616959633659732;11653.37;77
2024-05-24T23:31:57.184;599616959641351940;11661.0625;110
2024-05-24T23:31:57.191;599616959649044148;11668.755;139
2024-05-24T23:31:57.199;599616959656736356;11676.446;127
2024-05-24T23:31:57.207;599616959664428564;11684.139;101
2024-05-24T23:31:57.214;599616959672120772;11691.831;98
2024-05-24T23:31:57.222;599616959679812980;11699.523;106
2024-05-24T23:31:57.230;599616959687505188;11707.216;98
2024-05-24T23:31:57.237;599616959695197396;11714.908;106
2024-05-24T23:31:57.245;599616959702889604;11722.601;141
2024-05-24T23:31:57.253;599616959710581812;11730.293;150
2024-05-24T23:31:57.260;599616959718274020;11737.984;101
2024-05-24T23:31:57.268;599616959725966228;11745.677;61
2024-05-24T23:31:57.276;599616959733658436;11753.368;75
2024-05-24T23:31:57.284;599616959741350644;11761.061;96
2024-05-24T23:31:57.291;599616959749042852;11768.753;87
2024-05-24T23:31:57.299;599616959756735060;11776.445;84
2024-05-24T23:31:57.307;599616959764427268;11784.138;106
2024-05-24T23:31:57.314;599616959772149588;11791.859;101
2024-05-24T23:31:57.322;599616959779841378;11799.552;80
2024-05-24T23:31:57.330;599616959787533168;11807.243;94
2024-05-24T23:31:57.337;599616959795224958;11814.936;122
2024-05-24T23:31:57.345;599616959802916748;11822.627;113
2024-05-24T23:31:57.353;599616959810608538;11830.319;58
2024-05-24T23:31:57.361;599616959818300328;11838.011;16
2024-05-24T23:31:57.368;599616959825992118;11845.703;-14
2024-05-24T23:31:57.376;599616959833683908;11853.394;-84
2024-05-24T23:31:57.384;599616959841375698;11861.086;-160
2024-05-24T23:31:57.391;599616959849067488;11868.777;-162
2024-05-24T23:31:57.399;599616959856759278;11876.47;-148
2024-05-24T23:31:57.407;599616959864451068;11884.161;-174
2024-05-24T23:31:57.414;599616959872142858;11891.854;-186
2024-05-24T23:31:57.422;599616959879834648;11899.546;-153
2024-05-24T23:31:57.430;599616959887526438;11907.237;-127
2024-05-24T23:31:57.437;599616959895218228;11914.929;-129
2024-05-24T23:31:57.445;599616959902910018;11922.62;-162
2024-05-24T23:31:57.453;599616959910601808;11930.3125;-202
2024-05-24T23:31:57.461;599616959918293598;11938.004;-197
2024-05-24T23:31:57.468;599616959925985388;11945.696;-155
2024-05-24T23:31:57.476;599616959933677178;11953.388;-117
2024-05-24T23:31:57.484;599616959941368968;11961.08;-80
2024-05-24T23:31:57.491;599616959949060758;11968.771;-73
2024-05-24T23:31:57.499;599616959956752548;11976.463;-96
2024-05-24T23:31:57.507;599616959964444338;11984.154;-89
2024-05-24T23:31:57.514;599616959972136128;11991.847;-47
2024-05-24T23:31:57.522;599616959979827918;11999.538;-23
2024-05-24T23:31:57.530;599616959987519708;12007.23;-14
2024-05-24T23:31:57.537;599616959995211498;12014.922;-9
2024-05-24T23:31:57.545;599616960002903288;12022.614;-16
2024-05-24T23:31:57.553;599616960010595078;12030.306;28
2024-05-24T23:31:57.560;599616960018286868;12037.998;263
2024-05-24T23:31:57.568;599616960025978658;12045.688;746
2024-05-24T23:31:57.576;599616960033670448;12053.381;1152
2024-05-24T23:31:57.584;599616960041362238;12061.072;958
2024-05-24T23:31:57.591;599616960049054028;12068.765;278
2024-05-24T23:31:57.599;599616960056745818;12076.456;-96
2024-05-24T23:31:57.607;599616960064437608;12084.148;47
2024-05-24T23:31:57.614;599616960072129398;12091.84;115
2024-05-24T23:31:57.622;599616960079821188;12099.532;0
2024-05-24T23:31:57.630;599616960087512978;12107.223;11
2024-05-24T23:31:57.637;599616960095204768;12114.915;70
2024-05-24T23:31:57.645;599616960102896558;12122.606;44
2024-05-24T23:31:57.653;599616960110588348;12130.299;44
2024-05-24T23:31:57.660;599616960118280138;12137.99;80
2024-05-24T23:31:57.668;599616960125971928;12145.683;40
2024-05-24T23:31:57.676;599616960133663718;12153.374;-54
2024-05-24T23:31:57.684;599616960141355508;12161.066;-75
2024-05-24T23:31:57.691;599616960149047298;12168.757;-56
2024-05-24T23:31:57.699;599616960156739088;12176.449;-70
2024-05-24T23:31:57.707;599616960164430878;12184.142;-68
2024-05-24T23:31:57.714;599616960172122668;12191.833;-30
2024-05-24T23:31:57.722;599616960179814458;12199.525;-2
2024-05-24T23:31:57.730;599616960187506248;12207.217;11
2024-05-24T23:31:57.737;599616960195198038;12214.909;30
2024-05-24T23:31:57.745;599616960202889828;12222.601;61
2024-05-24T23:31:57.753;599616960210581618;12230.292;106
2024-05-24T23:31:57.760;599616960218273408;12237.983;148
2024-05-24T23:31:57.768;599616960225965198;12245.676;164
2024-05-24T23:31:57.776;599616960233656988;12253.367;171
2024-05-24T23:31:57.784;599616960241348778;12261.06;197
2024-05-24T23:31:57.791;599616960249040568;12268.751;235
2024-05-24T23:31:57.799;599616960256732358;12276.443;252
2024-05-24T23:31:57.807;599616960264424148;12284.135;261
2024-05-24T23:31:57.814;599616960272115938;12291.827;278
2024-05-24T23:31:57.822;599616960279807728;12299.518;278
2024-05-24T23:31:57.830;599616960287499518;12307.21;254
2024-05-24T23:31:57.837;599616960295191308;12314.901;245
2024-05-24T23:31:57.845;599616960302883098;12322.594;249
2024-05-24T23:31:57.853;599616960310574888;12330.285;235
2024-05-24T23:31:57.860;599616960318266678;12337.978;202
2024-05-24T23:31:57.868;599616960325958468;12345.669;179
2024-05-24T23:31:57.876;599616960333650270;12353.361;183
2024-05-24T23:31:57.884;599616960341342060;12361.052;193
2024-05-24T23:31:57.891;599616960349033850;12368.744;190
2024-05-24T23:31:57.899;599616960356725640;12376.436;195
2024-05-24T23:31:57.907;599616960364417430;12384.128;214
2024-05-24T23:31:57.914;599616960372109220;12391.819;183
2024-05-24T23:31:57.922;599616960379801010;12399.512;110
2024-05-24T23:31:57.930;599616960387492800;12407.203;91
2024-05-24T23:31:57.937;599616960395184590;12414.8955;115
2024-05-24T23:31:57.945;599616960402876380;12422.586;80
2024-05-24T23:31:57.953;599616960410568170;12430.278;25
2024-05-24T23:31:57.960;599616960418259960;12437.97;37
2024-05-24T23:31:57.968;599616960425951750;12445.662;75
2024-05-24T23:31:57.976;599616960433643540;12453.354;84
2024-05-24T23:31:57.984;599616960441335330;12461.046;89
2024-05-24T23:31:57.991;599616960449027120;12468.738;120
2024-05-24T23:31:57.999;599616960456718910;12476.43;143
2024-05-24T23:31:58.007;599616960464410700;12484.122;129
2024-05-24T23:31:58.014;599616960472102490;12491.8125;120
2024-05-24T23:31:58.022;599616960479794280;12499.505;153
2024-05-24T23:31:58.030;599616960487486070;12507.196;181
2024-05-24T23:31:58.037;599616960495177860;12514.889;179
2024-05-24T23:31:58.045;599616960502869650;12522.58;179
2024-05-24T23:31:58.053;599616960510561440;12530.272;183
2024-05-24T23:31:58.060;599616960518253230;12537.964;181
2024-05-24T23:31:58.068;599616960525945020;12545.656;160
2024-05-24T23:31:58.076;599616960533636810;12553.347;129
2024-05-24T23:31:58.084;599616960541328600;12561.039;131
2024-05-24T23:31:58.091;599616960549020390;12568.73;146
2024-05-24T23:31:58.099;599616960556712180;12576.423;115
2024-05-24T23:31:58.107;599616960564403970;12584.114;96
2024-05-24T23:31:58.114;599616960572095760;12591.807;127
2024-05-24T23:31:58.122;599616960579787550;12599.498;146
2024-05-24T23:31:58.130;599616960587479340;12607.19;134
2024-05-24T23:31:58.137;599616960595171130;12614.881;129
2024-05-24T23:31:58.145;599616960602862920;12622.573;141
2024-05-24T23:31:58.153;599616960610554710;12630.265;127
2024-05-24T23:31:58.160;599616960618246500;12637.957;82
2024-05-24T23:31:58.168;599616960625938290;12645.648;49
2024-05-24T23:31:58.176;599616960633630080;12653.341;-7
2024-05-24T23:31:58.184;599616960641321870;12661.032;-139
2024-05-24T23:31:58.191;599616960649013660;12668.725;-237
2024-05-24T23:31:58.199;599616960656705450;12676.415;-223
2024-05-24T23:31:58.207;599616960664397240;12684.107;-188
2024-05-24T23:31:58.214;599616960672089030;12691.799;-193
2024-05-24T23:31:58.222;599616960679780820;12699.491;-186
2024-05-24T23:31:58.230;599616960687472610;12707.183;-162
2024-05-24T23:31:58.237;599616960695164400;12714.875;-157
2024-05-24T23:31:58.245;599616960702856190;12722.566;-162
2024-05-24T23:31:58.253;599616960710547980;12730.259;-153
2024-05-24T23:31:58.260;599616960718239770;12737.951;-122
2024-05-24T23:31:58.268;599616960725931560;12745.642;-96
2024-05-24T23:31:58.276;599616960733623350;12753.334;-98
2024-05-24T23:31:58.284;599616960741315140;12761.025;-101
2024-05-24T23:31:58.291;599616960749006930;12768.718;-68
2024-05-24T23:31:58.299;599616960756698720;12776.409;-14
2024-05-24T23:31:58.307;599616960764390510;12784.102;9
2024-05-24T23:31:58.314;599616960772082300;12791.793;2
2024-05-24T23:31:58.322;599616960779774090;12799.485;14
2024-05-24T23:31:58.330;599616960787465880;12807.176;28
2024-05-24T23:31:58.337;599616960795157670;12814.868;16
2024-05-24T23:31:58.345;599616960802849460;12822.56;25
2024-05-24T23:31:58.353;599616960810541250;12830.252;68
2024-05-24T23:31:58.360;599616960818233040;12837.943;89
2024-05-24T23:31:58.368;599616960825924830;12845.636;61
2024-05-24T23:31:58.376;599616960833616620;12853.327;58
2024-05-24T23:31:58.384;599616960841308410;12861.02;247
2024-05-24T23:31:58.391;599616960849000200;12868.71;711
2024-05-24T23:31:58.399;599616960856691990;12876.402;1163
2024-05-24T23:31:58.407;599616960864383780;12884.094;1088
2024-05-24T23:31:58.414;599616960872075570;12891.786;466
2024-05-24T23:31:58.422;599616960879767360;12899.478;0
2024-05-24T23:31:58.430;599616960887459150;12907.17;44
2024-05-24T23:31:58.437;599616960895145984;12914.855;120
2024-05-24T23:31:58.445;599616960902837843;12922.548;14
2024-05-24T23:31:58.453;599616960910529702;12930.24;4
2024-05-24T23:31:58.460;599616960918221561;12937.932;49
2024-05-24T23:31:58.468;599616960925913420;12945.624;23
2024-05-24T23:31:58.476;599616960933605279;12953.315;28
2024-05-24T23:31:58.484;599616960941297138;12961.008;58
2024-05-24T23:31:58.491;599616960948988997;12968.7;14
2024-05-24T23:31:58.499;599616960956680856;12976.392;-21
2024-05-24T23:31:58.507;599616960964372715;12984.083;25
2024-05-24T23:31:58.514;599616960972064574;12991.774;47
2024-05-24T23:31:58.522;599616960979756433;12999.467;25
2024-05-24T23:31:58.530;599616960987448292;13007.158;56
2024-05-24T23:31:58.537;599616960995140151;13014.851;110
2024-05-24T23:31:58.545;599616961002832010;13022.543;131
2024-05-24T23:31:58.553;599616961010523869;13030.234;136
2024-05-24T23:31:58.560;599616961018215728;13037.927;146
2024-05-24T23:31:58.568;599616961025907587;13045.617;171
2024-05-24T23:31:58.576;599616961033599446;13053.31;193
2024-05-24T23:31:58.584;599616961041291305;13061.002;174
2024-05-24T23:31:58.591;599616961048983164;13068.693;120
2024-05-24T23:31:58.599;599616961056675023;13076.386;58
2024-05-24T23:31:58.607;599616961064366882;13084.077;7
2024-05-24T23:31:58.614;599616961072058741;13091.77;-4
2024-05-24T23:31:58.622;599616961079750600;13099.461;44
2024-05-24T23:31:58.630;599616961087442459;13107.153;91
2024-05-24T23:31:58.637;599616961095134318;13114.845;108
2024-05-24T23:31:58.645;599616961102826177;13122.536;110
2024-05-24T23:31:58.653;599616961110518036;13130.229;110
2024-05-24T23:31:58.660;599616961118209895;13137.92;103
2024-05-24T23:31:58.668;599616961125901754;13145.612;94
2024-05-24T23:31:58.676;599616961133593613;13153.304;44
2024-05-24T23:31:58.683;599616961141285472;13160.996;-40
2024-05-24T23:31:58.691;599616961148977331;13168.688;-98
2024-05-24T23:31:58.699;599616961156669190;13176.379;-106
2024-05-24T23:31:58.707;599616961164361049;13184.071;-94
2024-05-24T23:31:58.714;599616961172052908;13191.763;-61
2024-05-24T23:31:58.722;599616961179744767;13199.455;-18
2024-05-24T23:31:58.730;599616961187436626;13207.147;-7
2024-05-24T23:31:58.737;599616961195128485;13214.839;0
2024-05-24T23:31:58.745;599616961202820344;13222.531;28
2024-05-24T23:31:58.753;599616961210512203;13230.223;49
2024-05-24T23:31:58.760;599616961218204062;13237.915;58
2024-05-24T23:31:58.768;599616961225895921;13245.605;89
2024-05-24T23:31:58.776;599616961233587780;13253.298;127
2024-05-24T23:31:58.783;599616961241279639;13260.99;136
2024-05-24T23:31:58.791;599616961248971498;13268.682;131
2024-05-24T23:31:58.799;599616961256663357;13276.374;134
2024-05-24T23:31:58.807;599616961264355216;13284.065;148
2024-05-24T23:31:58.814;599616961272047075;13291.758;134
2024-05-24T23:31:58.822;599616961279738934;13299.45;101
2024-05-24T23:31:58.830;599616961287430793;13307.142;103
2024-05-24T23:31:58.837;599616961295122652;13314.833;110
2024-05-24T23:31:58.845;599616961302814511;13322.524;98
2024-05-24T23:31:58.853;599616961310506370;13330.217;94
2024-05-24T23:31:58.860;599616961318198229;13337.908;115
2024-05-24T23:31:58.868;599616961325890088;13345.601;141
2024-05-24T23:31:58.876;599616961333581947;13353.293;136
2024-05-24T23:31:58.883;599616961341273806;13360.984;117
2024-05-24T23:31:58.891;599616961348965665;13368.677;120
2024-05-24T23:31:58.899;599616961356657524;13376.367;120
2024-05-24T23:31:58.907;599616961364349383;13384.06;84
2024-05-24T23:31:58.914;599616961372041242;13391.752;44
2024-05-24T23:31:58.922;599616961379733101;13399.443;-4
2024-05-24T23:31:58.930;599616961387424960;13407.136;-98
2024-05-24T23:31:58.937;599616961395116819;13414.827;-148
2024-05-24T23:31:58.945;599616961402808678;13422.52;-117
2024-05-24T23:31:58.953;599616961410500537;13430.211;-103
2024-05-24T23:31:58.960;599616961418192396;13437.903;-103
2024-05-24T23:31:58.968;599616961425884255;13445.595;-98
2024-05-24T23:31:58.976;599616961433576114;13453.286;-110
2024-05-24T23:31:58.983;599616961441267973;13460.979;-101
2024-05-24T23:31:58.991;599616961448959832;13468.67;-65
2024-05-24T23:31:58.999;599616961456631664;13476.342;-58
2024-05-24T23:31:59.007;599616961464323802;13484.034;-56
2024-05-24T23:31:59.014;599616961472015940;13491.727;-35
2024-05-24T23:31:59.022;599616961479708078;13499.419;-44
2024-05-24T23:31:59.030;599616961487400216;13507.111;-103
2024-05-24T23:31:59.037;599616961495092354;13514.803;-134
2024-05-24T23:31:59.045;599616961502784492;13522.494;-91
2024-05-24T23:31:59.053;599616961510476630;13530.187;-58
2024-05-24T23:31:59.060;599616961518168768;13537.879;-68
2024-05-24T23:31:59.068;599616961525860906;13545.571;-70
2024-05-24T23:31:59.076;599616961533553044;13553.264;-42
2024-05-24T23:31:59.083;599616961541245182;13560.956;-11
2024-05-24T23:31:59.091;599616961548937320;13568.648;-2
2024-05-24T23:31:59.099;599616961556629458;13576.34;18
2024-05-24T23:31:59.107;599616961564321596;13584.032;61
2024-05-24T23:31:59.114;599616961572013734;13591.724;82
2024-05-24T23:31:59.122;599616961579705872;13599.416;94
2024-05-24T23:31:59.130;599616961587398010;13607.108;117
2024-05-24T23:31:59.137;599616961595090148;13614.801;129
2024-05-24T23:31:59.145;599616961602782286;13622.493;139
2024-05-24T23:31:59.153;599616961610474424;13630.185;146
2024-05-24T23:31:59.160;599616961618166562;13637.877;143
2024-05-24T23:31:59.168;599616961625858700;13645.569;136
2024-05-24T23:31:59.176;599616961633550838;13653.262;106
2024-05-24T23:31:59.183;599616961641242976;13660.953;30
2024-05-24T23:31:59.191;599616961648935114;13668.6455;-37
2024-05-24T23:31:59.199;599616961656627252;13676.338;54
2024-05-24T23:31:59.207;599616961664319390;13684.029;405
2024-05-24T23:31:59.214;599616961672011528;13691.722;907
2024-05-24T23:31:59.222;599616961679703666;13699.414;1142
2024-05-24T23:31:59.230;599616961687395804;13707.106;735
2024-05-24T23:31:59.237;599616961695087942;13714.799;89
2024-05-24T23:31:59.245;599616961702780080;13722.491;-70
2024-05-24T23:31:59.253;599616961710472218;13730.184;96
2024-05-24T23:31:59.260;599616961718164356;13737.874;80
2024-05-24T23:31:59.268;599616961725856494;13745.566;4
2024-05-24T23:31:59.276;599616961733548632;13753.259;56
2024-05-24T23:31:59.283;599616961741240770;13760.951;103
2024-05-24T23:31:59.291;599616961748932908;13768.644;101
2024-05-24T23:31:59.299;599616961756625046;13776.336;101
2024-05-24T23:31:59.307;599616961764317184;13784.027;113
2024-05-24T23:31:59.314;599616961772009322;13791.72;139
2024-05-24T23:31:59.322;599616961779701460;13799.412;174
2024-05-24T23:31:59.330;599616961787393598;13807.104;190
2024-05-24T23:31:59.337;599616961795085736;13814.796;190
2024-05-24T23:31:59.345;599616961802777874;13822.488;207
2024-05-24T23:31:59.353;599616961810470012;13830.181;226
2024-05-24T23:31:59.360;599616961818162150;13837.872;233
2024-05-24T23:31:59.368;599616961825854288;13845.564;252
2024-05-24T23:31:59.376;599616961833546426;13853.257;289
2024-05-24T23:31:59.383;599616961841238564;13860.949;310
2024-05-24T23:31:59.391;599616961848930702;13868.642;303
2024-05-24T23:31:59.399;599616961856622840;13876.334;313
2024-05-24T23:31:59.407;599616961864314978;13884.025;355
2024-05-24T23:31:59.414;599616961872007116;13891.717;369
2024-05-24T23:31:59.422;599616961879699254;13899.409;346
2024-05-24T23:31:59.430;599616961887391392;13907.102;334
2024-05-24T23:31:59.437;599616961895083530;13914.794;353
2024-05-24T23:31:59.445;599616961902775668;13922.486;362
2024-05-24T23:31:59.453;599616961910467806;13930.179;360
2024-05-24T23:31:59.460;599616961918159944;13937.871;372
2024-05-24T23:31:59.468;599616961925852082;13945.5625;393
2024-05-24T23:31:59.476;599616961933544220;13953.255;372
2024-05-24T23:31:59.483;599616961941236358;13960.946;313
2024-05-24T23:31:59.491;599616961948928496;13968.639;280
2024-05-24T23:31:59.499;599616961956620634;13976.331;282
2024-05-24T23:31:59.507;599616961964312772;13984.023;270
2024-05-24T23:31:59.514;599616961972004910;13991.716;256
2024-05-24T23:31:59.522;599616961979697048;13999.407;263
2024-05-24T23:31:59.530;599616961987389186;14007.1;259
2024-05-24T23:31:59.537;599616961995081324;14014.792;240
2024-05-24T23:31:59.545;599616962002773462;14022.484;228
2024-05-24T23:31:59.553;599616962010465600;14030.176;207
2024-05-24T23:31:59.560;599616962018152738;14037.863;183
2024-05-24T23:31:59.568;599616962025844946;14045.556;171
2024-05-24T23:31:59.576;599616962033537154;14053.248;148
2024-05-24T23:31:59.583;599616962041229362;14060.94;143
2024-05-24T23:31:59.591;599616962048921570;14068.632;160
2024-05-24T23:31:59.599;599616962056613778;14076.324;157
2024-05-24T23:31:59.607;599616962064305986;14084.017;146
2024-05-24T23:31:59.614;599616962071998194;14091.708;153
2024-05-24T23:31:59.622;599616962079690402;14099.4;131
2024-05-24T23:31:59.630;599616962087382610;14107.093;47
2024-05-24T23:31:59.637;599616962095074818;14114.785;-30
2024-05-24T23:31:59.645;599616962102767026;14122.478;-42
2024-05-24T23:31:59.653;599616962110459234;14130.17;-42
2024-05-24T23:31:59.660;599616962118151442;14137.862;-101
2024-05-24T23:31:59.668;599616962125843650;14145.555;-193
2024-05-24T23:31:59.676;599616962133535858;14153.247;-219
2024-05-24T23:31:59.683;599616962141228066;14160.939;-183
2024-05-24T23:31:59.691;599616962148920274;14168.63;-209
2024-05-24T23:31:59.699;599616962156612482;14176.322;-289
2024-05-24T23:31:59.707;599616962164304690;14184.015;-301
2024-05-24T23:31:59.714;599616962171996898;14191.707;-282
2024-05-24T23:31:59.722;599616962179689106;14199.399;-294
2024-05-24T23:31:59.730;599616962187381314;14207.092;-268
2024-05-24T23:31:59.737;599616962195073522;14214.784;-212
2024-05-24T23:31:59.745;599616962202765730;14222.477;-193
2024-05-24T23:31:59.753;599616962210457938;14230.169;-202
2024-05-24T23:31:59.760;599616962218150146;14237.861;-193
2024-05-24T23:31:59.768;599616962225842354;14245.553;-150
2024-05-24T23:31:59.776;599616962233534562;14253.245;-122
2024-05-24T23:31:59.783;599616962241226770;14260.937;-117
2024-05-24T23:31:59.791;599616962248918978;14268.629;-91
2024-05-24T23:31:59.799;599616962256611186;14276.321;-54
2024-05-24T23:31:59.807;599616962264303394;14284.014;-51
2024-05-24T23:31:59.814;599616962271995602;14291.706;-54
2024-05-24T23:31:59.822;599616962279687810;14299.398;-18
2024-05-24T23:31:59.830;599616962287380018;14307.091;18
2024-05-24T23:31:59.837;599616962295072226;14314.783;30
2024-05-24T23:31:59.845;599616962302764434;14322.475;35
2024-05-24T23:31:59.853;599616962310456642;14330.167;51
2024-05-24T23:31:59.860;599616962318148850;14337.859;68
2024-05-24T23:31:59.868;599616962325841058;14345.552;82
2024-05-24T23:31:59.876;599616962333533266;14353.244;98
2024-05-24T23:31:59.883;599616962341225474;14360.936;129
2024-05-24T23:31:59.891;599616962348917682;14368.628;146
2024-05-24T23:31:59.899;599616962356609890;14376.32;131
2024-05-24T23:31:59.907;599616962364302098;14384.013;110
2024-05-24T23:31:59.914;599616962371994306;14391.704;87
2024-05-24T23:31:59.922;599616962379686514;14399.396;70
2024-05-24T23:31:59.930;599616962387378722;14407.089;80
2024-05-24T23:31:59.937;599616962395070930;14414.781;96
2024-05-24T23:31:59.945;599616962402763138;14422.474;115
2024-05-24T23:31:59.953;599616962410455346;14430.166;136
2024-05-24T23:31:59.960;599616962418147554;14437.858;167
2024-05-24T23:31:59.968;599616962425839762;14445.551;200
2024-05-24T23:31:59.976;599616962433531970;14453.243;214
2024-05-24T23:31:59.983;599616962441224178;14460.935;209
2024-05-24T23:31:59.991;599616962448916386;14468.626;195
2024-05-24T23:31:59.999;599616962456608594;14476.318;204
2024-05-24T23:32:00.007;599616962464300802;14484.011;230
2024-05-24T23:32:00.014;599616962471993010;14491.703;245
2024-05-24T23:32:00.022;599616962479685218;14499.3955;245
2024-05-24T23:32:00.030;599616962487377426;14507.088;233
2024-05-24T23:32:00.037;599616962495069634;14514.78;249
2024-05-24T23:32:00.045;599616962502761842;14522.473;440
2024-05-24T23:32:00.053;599616962510454050;14530.165;890
2024-05-24T23:32:00.060;599616962518146258;14537.857;1333
2024-05-24T23:32:00.068;599616962525838466;14545.549;1251
2024-05-24T23:32:00.076;599616962533530674;14553.241;605
2024-05-24T23:32:00.083;599616962541222882;14560.933;124
2024-05-24T23:32:00.091;599616962548915090;14568.625;195
2024-05-24T23:32:00.099;599616962556607298;14576.317;306
2024-05-24T23:32:00.107;599616962564299506;14584.01;200
2024-05-24T23:32:00.114;599616962571991714;14591.702;174
2024-05-24T23:32:00.122;599616962579714034;14599.424;237
2024-05-24T23:32:00.130;599616962587405824;14607.116;228
2024-05-24T23:32:00.137;599616962595097614;14614.808;200
2024-05-24T23:32:00.145;599616962602789404;14622.5;216
2024-05-24T23:32:00.153;599616962610481194;14630.192;226
2024-05-24T23:32:00.160;599616962618172984;14637.884;197
2024-05-24T23:32:00.168;599616962625864774;14645.575;155
2024-05-24T23:32:00.176;599616962633556564;14653.267;139
2024-05-24T23:32:00.183;599616962641248354;14660.959;162
2024-05-24T23:32:00.191;599616962648940144;14668.65;179
2024-05-24T23:32:00.199;599616962656631934;14676.343;127
2024-05-24T23:32:00.207;599616962664323724;14684.034;77
2024-05-24T23:32:00.214;599616962672015514;14691.727;103
2024-05-24T23:32:00.222;599616962679707304;14699.418;122
2024-05-24T23:32:00.230;599616962687399094;14707.11;63
2024-05-24T23:32:00.237;599616962695090884;14714.801;35
2024-05-24T23:32:00.245;599616962702782674;14722.493;96
2024-05-24T23:32:00.253;599616962710474464;14730.185;141
2024-05-24T23:32:00.260;599616962718166254;14737.877;131
2024-05-24T23:32:00.268;599616962725858044;14745.568;141
2024-05-24T23:32:00.276;599616962733549834;14753.261;183
2024-05-24T23:32:00.283;599616962741241624;14760.952;216
2024-05-24T23:32:00.291;599616962748933414;14768.645;221
2024-05-24T23:32:00.299;599616962756625204;14776.335;204
2024-05-24T23:32:00.307;599616962764316994;14784.027;176
2024-05-24T23:32:00.314;599616962772008784;14791.719;141
2024-05-24T23:32:00.322;599616962779700574;14799.411;110
2024-05-24T23:32:00.330;599616962787392364;14807.103;101
2024-05-24T23:32:00.337;599616962795084154;14814.795;103
2024-05-24T23:32:00.345;599616962802775944;14822.486;82
2024-05-24T23:32:00.353;599616962810467734;14830.179;47
2024-05-24T23:32:00.360;599616962818159524;14837.869;32
2024-05-24T23:32:00.368;599616962825851314;14845.562;42
2024-05-24T23:32:00.376;599616962833543104;14853.253;47
2024-05-24T23:32:00.383;599616962841234894;14860.945;40
2024-05-24T23:32:00.391;599616962848926684;14868.637;21
2024-05-24T23:32:00.399;599616962856618474;14876.329;-21
2024-05-24T23:32:00.407;599616962864310264;14884.0205;-113
2024-05-24T23:32:00.414;599616962872002054;14891.713;-197
2024-05-24T23:32:00.422;599616962879693844;14899.403;-186
2024-05-24T23:32:00.430;599616962887385634;14907.096;-143
2024-05-24T23:32:00.437;599616962895077424;14914.788;-153
2024-05-24T23:32:00.445;599616962902769214;14922.4795;-164
2024-05-24T23:32:00.453;599616962910461004;14930.172;-153
2024-05-24T23:32:00.460;599616962918152794;14937.863;-139
2024-05-24T23:32:00.468;599616962925844584;14945.556;-134
2024-05-24T23:32:00.476;599616962933536374;14953.247;-127
2024-05-24T23:32:00.483;599616962941228164;14960.939;-94
2024-05-24T23:32:00.491;599616962948919954;14968.63;-73
2024-05-24T23:32:00.499;599616962956611744;14976.322;-89
2024-05-24T23:32:00.507;599616962964303534;14984.014;-94
2024-05-24T23:32:00.514;599616962971995324;14991.706;-54
2024-05-24T23:32:00.522;599616962979687114;14999.397;-23
2024-05-24T23:32:00.530;599616962987378904;15007.09;-25
2024-05-24T23:32:00.537;599616962995070694;15014.781;-21
2024-05-24T23:32:00.545;599616963002762484;15022.474;-2
2024-05-24T23:32:00.553;599616963010454274;15030.164;9
2024-05-24T23:32:00.560;599616963018146064;15037.856;16
2024-05-24T23:32:00.568;599616963025837854;15045.548;35
2024-05-24T23:32:00.576;599616963033529644;15053.24;63
2024-05-24T23:32:00.583;599616963041221434;15060.932;70
2024-05-24T23:32:00.591;599616963048913224;15068.624;47
2024-05-24T23:32:00.599;599616963056605014;15076.315;54
2024-05-24T23:32:00.607;599616963064296804;15084.008;94
2024-05-24T23:32:00.614;599616963071988594;15091.698;113
2024-05-24T23:32:00.622;599616963079680384;15099.391;106
2024-05-24T23:32:00.630;599616963087372174;15107.082;120
2024-05-24T23:32:00.637;599616963095063964;15114.774;136
2024-05-24T23:32:00.645;599616963102755754;15122.466;124
2024-05-24T23:32:00.653;599616963110447544;15130.158;101
2024-05-24T23:32:00.660;599616963118139334;15137.85;103
2024-05-24T23:32:00.668;599616963125831124;15145.542;131
2024-05-24T23:32:00.676;599616963133522914;15153.232;139
2024-05-24T23:32:00.683;599616963141189660;15160.9;117
2024-05-24T23:32:00.691;599616963148881798;15168.592;131
2024-05-24T23:32:00.699;599616963156573936;15176.284;141
2024-05-24T23:32:00.706;599616963164266074;15183.977;70
2024-05-24T23:32:00.714;599616963171958212;15191.669;2
2024-05-24T23:32:00.722;599616963179650350;15199.361;32
2024-05-24T23:32:00.730;599616963187342488;15207.054;51
2024-05-24T23:32:00.737;599616963195034626;15214.744;-7
2024-05-24T23:32:00.745;599616963202726764;15222.437;-44
2024-05-24T23:32:00.753;599616963210418902;15230.129;-11
2024-05-24T23:32:00.760;599616963218111040;15237.821;30
2024-05-24T23:32:00.768;599616963225803178;15245.514;28
2024-05-24T23:32:00.776;599616963233495316;15253.206;21
2024-05-24T23:32:00.783;599616963241187454;15260.898;49
2024-05-24T23:32:00.791;599616963248879592;15268.59;84
2024-05-24T23:32:00.799;599616963256571730;15276.282;91
2024-05-24T23:32:00.806;599616963264263868;15283.975;98
2024-05-24T23:32:00.814;599616963271956006;15291.666;127
2024-05-24T23:32:00.822;599616963279648144;15299.358;134
2024-05-24T23:32:00.830;599616963287340282;15307.051;124
2024-05-24T23:32:00.837;599616963295032420;15314.743;153
2024-05-24T23:32:00.845;599616963302724558;15322.435;214
2024-05-24T23:32:00.853;599616963310416696;15330.127;249
2024-05-24T23:32:00.860;599616963318108834;15337.819;230
2024-05-24T23:32:00.868;599616963325800972;15345.512;197
2024-05-24T23:32:00.876;599616963333493110;15353.204;212
2024-05-24T23:32:00.883;599616963341185248;15360.896;252
2024-05-24T23:32:00.891;599616963348877386;15368.588;254
2024-05-24T23:32:00.899;599616963356569524;15376.279;226
2024-05-24T23:32:00.906;599616963364261662;15383.972;202
2024-05-24T23:32:00.914;599616963371953800;15391.664;186
2024-05-24T23:32:00.922;599616963379645938;15399.356;174
2024-05-24T23:32:00.930;599616963387338076;15407.049;285
2024-05-24T23:32:00.937;599616963395030214;15414.741;664
2024-05-24T23:32:00.945;599616963402722352;15422.434;1175
2024-05-24T23:32:00.953;599616963410414490;15430.125;1319
2024-05-24T23:32:00.960;599616963418106628;15437.816;819
2024-05-24T23:32:00.968;599616963425798766;15445.509;216
2024-05-24T23:32:00.976;599616963433490904;15453.201;124
2024-05-24T23:32:00.983;599616963441183042;15460.894;256
2024-05-24T23:32:00.991;599616963448875180;15468.586;202
2024-05-24T23:32:00.999;599616963456567318;15476.277;143
2024-05-24T23:32:01.006;599616963464259456;15483.97;176
2024-05-24T23:32:01.014;599616963471951594;15491.662;171
2024-05-24T23:32:01.022;599616963479643732;15499.3545;174
2024-05-24T23:32:01.030;599616963487335870;15507.047;212
2024-05-24T23:32:01.037;599616963495028008;15514.738;216
2024-05-24T23:32:01.045;599616963502720146;15522.431;207
2024-05-24T23:32:01.053;599616963510412284;15530.122;219
2024-05-24T23:32:01.060;599616963518104422;15537.814;233
2024-05-24T23:32:01.068;599616963525796560;15545.507;230
2024-05-24T23:32:01.076;599616963533488698;15553.199;242
2024-05-24T23:32:01.083;599616963541180836;15560.892;273
2024-05-24T23:32:01.091;599616963548872974;15568.584;282
2024-05-24T23:32:01.099;599616963556565112;15576.276;235
2024-05-24T23:32:01.106;599616963564257250;15583.967;190
2024-05-24T23:32:01.114;599616963571949388;15591.659;212
2024-05-24T23:32:01.122;599616963579641526;15599.352;247
2024-05-24T23:32:01.130;599616963587333664;15607.044;237
2024-05-24T23:32:01.137;599616963595025802;15614.736;212
2024-05-24T23:32:01.145;599616963602717940;15622.429;186
2024-05-24T23:32:01.153;599616963610410078;15630.121;164
2024-05-24T23:32:01.160;599616963618102216;15637.8125;164
2024-05-24T23:32:01.168;599616963625794354;15645.505;190
2024-05-24T23:32:01.176;599616963633486492;15653.197;216
2024-05-24T23:32:01.183;599616963641178630;15660.889;216
2024-05-24T23:32:01.191;599616963648870768;15668.581;167
2024-05-24T23:32:01.199;599616963656562906;15676.273;120
2024-05-24T23:32:01.206;599616963664255044;15683.966;73
2024-05-24T23:32:01.214;599616963671947182;15691.657;-65
2024-05-24T23:32:01.222;599616963679639320;15699.35;-197
2024-05-24T23:32:01.230;599616963687331458;15707.042;-209
2024-05-24T23:32:01.237;599616963695023596;15714.734;-216
2024-05-24T23:32:01.245;599616963702735860;15722.446;-256
2024-05-24T23:32:01.253;599616963710427719;15730.138;-252
2024-05-24T23:32:01.260;599616963718119578;15737.83;-221
2024-05-24T23:32:01.268;599616963725811437;15745.521;-200
2024-05-24T23:32:01.276;599616963733503296;15753.214;-197
2024-05-24T23:32:01.283;599616963741195155;15760.905;-207
2024-05-24T23:32:01.291;599616963748887014;15768.598;-200
2024-05-24T23:32:01.299;599616963756578873;15776.29;-169
2024-05-24T23:32:01.306;599616963764270732;15783.981;-181
2024-05-24T23:32:01.314;599616963771962591;15791.674;-230
2024-05-24T23:32:01.322;599616963779654450;15799.364;-221
2024-05-24T23:32:01.330;599616963787346309;15807.057;-188
2024-05-24T23:32:01.337;599616963795038168;15814.748;-193
2024-05-24T23:32:01.345;599616963802730027;15822.44;-176
2024-05-24T23:32:01.353;599616963810421886;15830.133;-127
2024-05-24T23:32:01.360;599616963818113745;15837.824;-94
2024-05-24T23:32:01.368;599616963825805604;15845.517;-91
2024-05-24T23:32:01.376;599616963833497463;15853.208;-91
2024-05-24T23:32:01.383;599616963841189322;15860.899;-84
2024-05-24T23:32:01.391;599616963848881181;15868.592;-103
2024-05-24T23:32:01.399;599616963856573040;15876.283;-129
2024-05-24T23:32:01.406;599616963864264899;15883.976;-103
2024-05-24T23:32:01.414;599616963871956758;15891.667;-70
2024-05-24T23:32:01.422;599616963879648617;15899.359;-63
2024-05-24T23:32:01.430;599616963887340476;15907.051;-54
2024-05-24T23:32:01.437;599616963895032335;15914.743;-28
2024-05-24T23:32:01.445;599616963902724194;15922.436;9
2024-05-24T23:32:01.453;599616963910416053;15930.126;37
2024-05-24T23:32:01.460;599616963918107912;15937.818;40
2024-05-24T23:32:01.468;599616963925799771;15945.51;35
2024-05-24T23:32:01.476;599616963933491630;15953.202;58
2024-05-24T23:32:01.483;599616963941183489;15960.894;91
