Phone timestamp;sensor timestamp [ns];timestamp [ms];ecg [uV]
2024-05-25T23:06:43.961;599616932864550638;0.0;4889
2024-05-25T23:06:43.968;599616932872242010;7.691372;5658
2024-05-25T23:06:43.976;599616932879933382;15.382744;6424
2024-05-25T23:06:43.984;599616932887624754;23.074116;6964
2024-05-25T23:06:43.991;599616932895316126;30.765488;7543
2024-05-25T23:06:43.999;599616932903007498;38.45686;8149
2024-05-25T23:06:44.007;599616932910698870;46.14823;8622
2024-05-25T23:06:44.014;599616932918390242;53.839603;9068
2024-05-25T23:06:44.022;599616932926081614;61.530975;9599
2024-05-25T23:06:44.030;599616932933772986;69.22235;10055
2024-05-25T23:06:44.037;599616932941464358;76.91372;10356
2024-05-25T23:06:44.045;599616932949155730;84.60509;10694
2024-05-25T23:06:44.053;599616932956847102;92.29646;11127
2024-05-25T23:06:44.060;599616932964538474;99.98784;11497
2024-05-25T23:06:44.068;599616932972229846;107.67921;11791
2024-05-25T23:06:44.076;599616932979921218;115.370575;12090
2024-05-25T23:06:44.084;599616932987612590;123.06195;12377
2024-05-25T23:06:44.091;599616932995303962;130.75333;12622
2024-05-25T23:06:44.099;599616933002995334;138.4447;12838
2024-05-25T23:06:44.107;599616933010686706;146.13606;13078
2024-05-25T23:06:44.114;599616933018378078;153.82744;13368
2024-05-25T23:06:44.122;599616933026069450;161.51881;13590
2024-05-25T23:06:44.130;599616933033760822;169.21017;13690
2024-05-25T23:06:44.137;599616933041452194;176.90155;13833
2024-05-25T23:06:44.145;599616933049143566;184.59293;14051
2024-05-25T23:06:44.153;599616933056834938;192.2843;14336
2024-05-25T23:06:44.160;599616933064526310;199.97568;14613
2024-05-25T23:06:44.168;599616933072217682;207.66704;14595
2024-05-25T23:06:44.176;599616933079909054;215.35841;14502
2024-05-25T23:06:44.184;599616933087600426;223.04979;14618
2024-05-25T23:06:44.191;599616933095291798;230.74115;14701
2024-05-25T23:06:44.199;599616933102983170;238.43253;14773
2024-05-25T23:06:44.207;599616933110674542;246.1239;14972
2024-05-25T23:06:44.214;599616933118365914;253.81528;15037
2024-05-25T23:06:44.222;599616933126057286;261.50665;14949
2024-05-25T23:06:44.230;599616933133748658;269.19803;15016
2024-05-25T23:06:44.237;599616933141440030;276.8894;15153
2024-05-25T23:06:44.245;599616933149131402;284.58078;15144
2024-05-25T23:06:44.253;599616933156822774;292.27213;15151
2024-05-25T23:06:44.260;599616933164514146;299.96353;15255
2024-05-25T23:06:44.268;599616933172205518;307.65488;15294
2024-05-25T23:06:44.276;599616933179896890;315.34625;15248
2024-05-25T23:06:44.284;599616933187588262;323.03763;15171
2024-05-25T23:06:44.291;599616933195279634;330.729;15259
2024-05-25T23:06:44.299;599616933202971006;338.42035;15644
2024-05-25T23:06:44.307;599616933210662378;346.11176;15898
2024-05-25T23:06:44.314;599616933218353750;353.8031;15755
2024-05-25T23:06:44.322;599616933226045122;361.4945;15410
2024-05-25T23:06:44.330;599616933233736494;369.18585;15056
2024-05-25T23:06:44.337;599616933241427866;376.87723;14870
2024-05-25T23:06:44.345;599616933249119238;384.5686;14898
2024-05-25T23:06:44.353;599616933256810610;392.25998;14901
2024-05-25T23:06:44.360;599616933264501982;399.95135;14766
2024-05-25T23:06:44.368;599616933272193354;407.64273;14627
2024-05-25T23:06:44.376;599616933279884726;415.33408;14600
2024-05-25T23:06:44.384;599616933287576098;423.02548;14627
2024-05-25T23:06:44.391;599616933295267470;430.71683;14623
2024-05-25T23:06:44.399;599616933302958842;438.4082;14586
2024-05-25T23:06:44.407;599616933310650214;446.09958;14495
2024-05-25T23:06:44.414;599616933318341586;453.79095;14324
2024-05-25T23:06:44.422;599616933326032958;461.4823;14190
2024-05-25T23:06:44.430;599616933333724330;469.1737;14116
2024-05-25T23:06:44.437;599616933341415702;476.86505;14081
2024-05-25T23:06:44.445;599616933349107074;484.55646;14079
2024-05-25T23:06:44.453;599616933356798446;492.2478;14039
2024-05-25T23:06:44.460;599616933364489818;499.93918;14011
2024-05-25T23:06:44.468;599616933372181190;507.63055;13863
2024-05-25T23:06:44.476;599616933379872562;515.3219;13588
2024-05-25T23:06:44.484;599616933387563934;523.0133;13479
2024-05-25T23:06:44.491;599616933395255306;530.70465;13433
2024-05-25T23:06:44.499;599616933402946678;538.39606;13289
2024-05-25T23:06:44.507;599616933410638050;546.0874;13217
2024-05-25T23:06:44.514;599616933418329422;553.7788;13159
2024-05-25T23:06:44.522;599616933426050898;561.5003;13037
2024-05-25T23:06:44.530;599616933433741852;569.1912;13000
2024-05-25T23:06:44.537;599616933441432806;576.8822;12970
2024-05-25T23:06:44.545;599616933449123760;584.5731;12761
2024-05-25T23:06:44.553;599616933456814714;592.26404;12590
2024-05-25T23:06:44.560;599616933464505668;599.955;12585
2024-05-25T23:06:44.568;599616933472196622;607.64594;12562
2024-05-25T23:06:44.576;599616933479887576;615.337;12456
2024-05-25T23:06:44.584;599616933487578530;623.0279;12335
2024-05-25T23:06:44.591;599616933495269484;630.7189;12280
2024-05-25T23:06:44.599;599616933502960438;638.4098;12254
2024-05-25T23:06:44.607;599616933510651392;646.1007;12020
2024-05-25T23:06:44.614;599616933518342346;653.7917;11749
2024-05-25T23:06:44.622;599616933526033300;661.48267;11763
2024-05-25T23:06:44.630;599616933533724254;669.17365;11749
2024-05-25T23:06:44.637;599616933541415208;676.86456;11499
2024-05-25T23:06:44.645;599616933549106162;684.55554;11414
2024-05-25T23:06:44.653;599616933556797116;692.24646;11451
2024-05-25T23:06:44.660;599616933564488070;699.9374;11240
2024-05-25T23:06:44.668;599616933572179024;707.6284;11016
2024-05-25T23:06:44.676;599616933579869978;715.31934;10974
2024-05-25T23:06:44.684;599616933587560932;723.0103;10893
2024-05-25T23:06:44.691;599616933595251886;730.70123;10761
2024-05-25T23:06:44.699;599616933602942840;738.3922;10654
2024-05-25T23:06:44.707;599616933610633794;746.0831;10578
2024-05-25T23:06:44.714;599616933618324748;753.7741;10585
2024-05-25T23:06:44.722;599616933626015702;761.4651;10536
2024-05-25T23:06:44.730;599616933633706656;769.156;10282
2024-05-25T23:06:44.737;599616933641397610;776.847;10078
2024-05-25T23:06:44.745;599616933649088564;784.5379;10071
2024-05-25T23:06:44.753;599616933656779518;792.2289;10015
2024-05-25T23:06:44.760;599616933664470472;799.9198;9869
2024-05-25T23:06:44.768;599616933672161426;807.61084;9765
2024-05-25T23:06:44.776;599616933679852380;815.30176;9643
2024-05-25T23:06:44.783;599616933687543334;822.9927;9476
2024-05-25T23:06:44.791;599616933695234288;830.68365;9455
2024-05-25T23:06:44.799;599616933702925242;838.3746;9744
2024-05-25T23:06:44.807;599616933710616196;846.06555;10101
2024-05-25T23:06:44.814;599616933718307150;853.75653;9960
2024-05-25T23:06:44.822;599616933725998104;861.4475;9318
2024-05-25T23:06:44.830;599616933733689058;869.1384;8913
2024-05-25T23:06:44.837;599616933741380012;876.82935;8934
2024-05-25T23:06:44.845;599616933749070966;884.5203;8818
2024-05-25T23:06:44.853;599616933756761920;892.21124;8591
2024-05-25T23:06:44.860;599616933764452874;899.9022;8510
2024-05-25T23:06:44.868;599616933772143828;907.5932;8381
2024-05-25T23:06:44.876;599616933779834782;915.2842;8196
2024-05-25T23:06:44.883;599616933787525736;922.9751;8115
2024-05-25T23:06:44.891;599616933795216690;930.6661;8103
2024-05-25T23:06:44.899;599616933802907644;938.357;8027
2024-05-25T23:06:44.907;599616933810598598;946.0479;7830
2024-05-25T23:06:44.914;599616933818289552;953.73895;7677
2024-05-25T23:06:44.922;599616933825980506;961.4299;7658
2024-05-25T23:06:44.930;599616933833671460;969.12085;7612
2024-05-25T23:06:44.937;599616933841362414;976.81177;7485
2024-05-25T23:06:44.945;599616933849053368;984.50275;7418
2024-05-25T23:06:44.953;599616933856744322;992.19366;7397
2024-05-25T23:06:44.960;599616933864435276;999.8846;7355
2024-05-25T23:06:44.968;599616933872126230;1007.5756;7272
2024-05-25T23:06:44.976;599616933879817184;1015.26654;7073
2024-05-25T23:06:44.983;599616933887508138;1022.9575;6931
2024-05-25T23:06:44.991;599616933895199092;1030.6484;6918
2024-05-25T23:06:44.999;599616933902890046;1038.3394;6813
2024-05-25T23:06:45.007;599616933910581000;1046.0304;6695
2024-05-25T23:06:45.014;599616933918271954;1053.7213;6698
2024-05-25T23:06:45.022;599616933925962908;1061.4122;6658
2024-05-25T23:06:45.030;599616933933653862;1069.1033;6542
2024-05-25T23:06:45.037;599616933941344816;1076.7942;6503
2024-05-25T23:06:45.045;599616933949035770;1084.4851;6478
2024-05-25T23:06:45.053;599616933956726724;1092.1761;6357
2024-05-25T23:06:45.060;599616933964417678;1099.8671;6255
2024-05-25T23:06:45.068;599616933972108632;1107.558;6232
2024-05-25T23:06:45.076;599616933979799586;1115.2489;6200
2024-05-25T23:06:45.083;599616933987490544;1122.94;6137
2024-05-25T23:06:45.091;599616933995181498;1130.6309;6059
2024-05-25T23:06:45.099;599616934002872452;1138.3218;5980
2024-05-25T23:06:45.107;599616934010563406;1146.0128;5929
2024-05-25T23:06:45.114;599616934018254360;1153.7037;5876
2024-05-25T23:06:45.122;599616934025945314;1161.3947;5809
2024-05-25T23:06:45.130;599616934033636268;1169.0856;5765
2024-05-25T23:06:45.137;599616934041327222;1176.7766;5730
2024-05-25T23:06:45.145;599616934049018176;1184.4675;5616
2024-05-25T23:06:45.153;599616934056709130;1192.1584;5459
2024-05-25T23:06:45.160;599616934064400084;1199.8495;5424
2024-05-25T23:06:45.168;599616934072091038;1207.5404;5436
2024-05-25T23:06:45.176;599616934079781992;1215.2313;5267
2024-05-25T23:06:45.183;599616934087472946;1222.9224;5068
2024-05-25T23:06:45.191;599616934095163900;1230.6133;5047
2024-05-25T23:06:45.199;599616934102854854;1238.3042;5051
2024-05-25T23:06:45.206;599616934110545808;1245.9951;4970
2024-05-25T23:06:45.214;599616934118236762;1253.6862;4912
2024-05-25T23:06:45.222;599616934125927716;1261.3771;4924
2024-05-25T23:06:45.230;599616934133618670;1269.068;4894
2024-05-25T23:06:45.237;599616934141309624;1276.759;4781
2024-05-25T23:06:45.245;599616934149000578;1284.45;4693
2024-05-25T23:06:45.253;599616934156691532;1292.1409;4649
2024-05-25T23:06:45.260;599616934164382486;1299.8318;4572
2024-05-25T23:06:45.268;599616934172073440;1307.5228;4459
2024-05-25T23:06:45.276;599616934179764394;1315.2137;4419
2024-05-25T23:06:45.283;599616934187455348;1322.9047;4581
2024-05-25T23:06:45.291;599616934195146302;1330.5957;4926
2024-05-25T23:06:45.299;599616934202837256;1338.2866;5126
2024-05-25T23:06:45.306;599616934210528210;1345.9775;4848
2024-05-25T23:06:45.314;599616934218219164;1353.6685;4338
2024-05-25T23:06:45.322;599616934225910118;1361.3595;4107
2024-05-25T23:06:45.330;599616934233601072;1369.0505;4128
2024-05-25T23:06:45.337;599616934241292026;1376.7413;4091
2024-05-25T23:06:45.345;599616934248982980;1384.4324;4016
2024-05-25T23:06:45.353;599616934256673934;1392.1233;3984
2024-05-25T23:06:45.360;599616934264364888;1399.8143;3908
2024-05-25T23:06:45.368;599616934272055842;1407.5051;3810
2024-05-25T23:06:45.376;599616934279746796;1415.1962;3755
2024-05-25T23:06:45.383;599616934287437750;1422.8872;3683
2024-05-25T23:06:45.391;599616934295128704;1430.578;3570
2024-05-25T23:06:45.399;599616934302819658;1438.269;3477
2024-05-25T23:06:45.406;599616934310510612;1445.96;3435
2024-05-25T23:06:45.414;599616934318201566;1453.651;3396
2024-05-25T23:06:45.422;599616934325892520;1461.3418;3352
2024-05-25T23:06:45.430;599616934333583474;1469.0328;3347
2024-05-25T23:06:45.437;599616934341274428;1476.7239;3317
2024-05-25T23:06:45.445;599616934348965382;1484.4147;3262
2024-05-25T23:06:45.453;599616934356656336;1492.1057;3266
2024-05-25T23:06:45.460;599616934364347290;1499.7966;3273
2024-05-25T23:06:45.468;599616934372038244;1507.4877;3218
2024-05-25T23:06:45.476;599616934379729198;1515.1785;3111
2024-05-25T23:06:45.483;599616934387420152;1522.8695;3005
2024-05-25T23:06:45.491;599616934395111106;1530.5605;2993
2024-05-25T23:06:45.499;599616934402802060;1538.2513;3021
2024-05-25T23:06:45.506;599616934410493014;1545.9424;2982
2024-05-25T23:06:45.514;599616934418183968;1553.6333;2919
2024-05-25T23:06:45.522;599616934425874922;1561.3243;2898
2024-05-25T23:06:45.530;599616934433565876;1569.0153;2887
2024-05-25T23:06:45.537;599616934441256830;1576.7062;2866
2024-05-25T23:06:45.545;599616934448947784;1584.3972;2877
2024-05-25T23:06:45.553;599616934456638738;1592.088;2866
2024-05-25T23:06:45.560;599616934464329692;1599.779;2792
2024-05-25T23:06:45.568;599616934472020646;1607.47;2759
2024-05-25T23:06:45.576;599616934479711600;1615.161;2799
2024-05-25T23:06:45.583;599616934487402554;1622.8519;2817
2024-05-25T23:06:45.591;599616934495093508;1630.5428;2778
2024-05-25T23:06:45.599;599616934502784462;1638.2339;2720
2024-05-25T23:06:45.606;599616934510475416;1645.9247;2688
2024-05-25T23:06:45.614;599616934518166370;1653.6157;2699
2024-05-25T23:06:45.622;599616934525857324;1661.3066;2699
2024-05-25T23:06:45.629;599616934533548278;1668.9977;2660
2024-05-25T23:06:45.637;599616934541239232;1676.6886;2597
2024-05-25T23:06:45.645;599616934548905134;1684.3546;2519
2024-05-25T23:06:45.653;599616934556596436;1692.0458;2477
2024-05-25T23:06:45.660;599616934564287738;1699.737;2486
2024-05-25T23:06:45.668;599616934571979040;1707.4283;2475
2024-05-25T23:06:45.676;599616934579670342;1715.1198;2465
2024-05-25T23:06:45.683;599616934587361644;1722.811;2479
2024-05-25T23:06:45.691;599616934595052946;1730.5023;2458
2024-05-25T23:06:45.699;599616934602744248;1738.1936;2407
2024-05-25T23:06:45.706;599616934610435550;1745.8849;2375
2024-05-25T23:06:45.714;599616934618126852;1753.5762;2315
2024-05-25T23:06:45.722;599616934625818154;1761.2675;2243
2024-05-25T23:06:45.729;599616934633509456;1768.9589;2250
2024-05-25T23:06:45.737;599616934641200758;1776.6501;2241
2024-05-25T23:06:45.745;599616934648892060;1784.3414;2139
2024-05-25T23:06:45.753;599616934656583362;1792.0327;2090
2024-05-25T23:06:45.760;599616934664274664;1799.724;2236
2024-05-25T23:06:45.768;599616934671965966;1807.4153;2586
2024-05-25T23:06:45.776;599616934679657268;1815.1067;2857
2024-05-25T23:06:45.783;599616934687348570;1822.798;2655
2024-05-25T23:06:45.791;599616934695039872;1830.4893;2139
2024-05-25T23:06:45.799;599616934702731174;1838.1804;1903
2024-05-25T23:06:45.806;599616934710422476;1845.8718;1972
2024-05-25T23:06:45.814;599616934718113778;1853.5631;1965
2024-05-25T23:06:45.822;599616934725805080;1861.2544;1893
2024-05-25T23:06:45.829;599616934733496382;1868.9458;1870
2024-05-25T23:06:45.837;599616934741187684;1876.6371;1849
2024-05-25T23:06:45.845;599616934748878986;1884.3284;1859
2024-05-25T23:06:45.853;599616934756570288;1892.0197;1889
2024-05-25T23:06:45.860;599616934764261590;1899.7109;1873
2024-05-25T23:06:45.868;599616934771952892;1907.4022;1822
2024-05-25T23:06:45.876;599616934779644194;1915.0935;1775
2024-05-25T23:06:45.883;599616934787335496;1922.7849;1683
2024-05-25T23:06:45.891;599616934795026798;1930.4762;1560
2024-05-25T23:06:45.899;599616934802718100;1938.1675;1539
2024-05-25T23:06:45.906;599616934810409402;1945.8588;1583
2024-05-25T23:06:45.914;599616934818100704;1953.55;1541
2024-05-25T23:06:45.922;599616934825792006;1961.2413;1486
2024-05-25T23:06:45.929;599616934833483308;1968.9326;1502
2024-05-25T23:06:45.937;599616934841174610;1976.624;1514
2024-05-25T23:06:45.945;599616934848865912;1984.3153;1484
2024-05-25T23:06:45.953;599616934856557214;1992.0065;1472
2024-05-25T23:06:45.960;599616934864248516;1999.6979;1488
2024-05-25T23:06:45.968;599616934871939818;2007.3892;1484
2024-05-25T23:06:45.976;599616934879631120;2015.0804;1449
2024-05-25T23:06:45.983;599616934887322422;2022.7719;1379
2024-05-25T23:06:45.991;599616934895013724;2030.4631;1326
2024-05-25T23:06:45.999;599616934902705026;2038.1544;1352
2024-05-25T23:06:46.006;599616934910396328;2045.8456;1338
2024-05-25T23:06:46.014;599616934918087630;2053.537;1268
2024-05-25T23:06:46.022;599616934925778932;2061.2283;1308
2024-05-25T23:06:46.029;599616934933470234;2068.9194;1375
2024-05-25T23:06:46.037;599616934941161536;2076.6108;1335
2024-05-25T23:06:46.045;599616934948852838;2084.3022;1310
2024-05-25T23:06:46.052;599616934956544140;2091.9934;1352
2024-05-25T23:06:46.060;599616934964235442;2099.6848;1363
2024-05-25T23:06:46.068;599616934971926744;2107.3762;1326
2024-05-25T23:06:46.076;599616934979618046;2115.0674;1326
2024-05-25T23:06:46.083;599616934987309348;2122.7585;1368
2024-05-25T23:06:46.091;599616934995000650;2130.45;1384
2024-05-25T23:06:46.099;599616935002691952;2138.1414;1349
2024-05-25T23:06:46.106;599616935010383254;2145.8325;1317
2024-05-25T23:06:46.114;599616935018074556;2153.524;1333
2024-05-25T23:06:46.122;599616935025765858;2161.2153;1347
2024-05-25T23:06:46.129;599616935033457160;2168.9065;1298
2024-05-25T23:06:46.137;599616935041148462;2176.5977;1257
2024-05-25T23:06:46.145;599616935048839764;2184.289;1282
2024-05-25T23:06:46.152;599616935056531066;2191.9805;1301
2024-05-25T23:06:46.160;599616935064222368;2199.6719;1278
2024-05-25T23:06:46.168;599616935071913670;2207.363;1271
2024-05-25T23:06:46.176;599616935079604972;2215.0544;1296
2024-05-25T23:06:46.183;599616935087296274;2222.7456;1315
2024-05-25T23:06:46.191;599616935094987576;2230.4368;1315
2024-05-25T23:06:46.199;599616935102678878;2238.1282;1298
2024-05-25T23:06:46.206;599616935110390298;2245.8396;1280
2024-05-25T23:06:46.214;599616935118081321;2253.5305;1287
2024-05-25T23:06:46.222;599616935125772344;2261.2217;1282
2024-05-25T23:06:46.229;599616935133463367;2268.9126;1231
2024-05-25T23:06:46.237;599616935141154390;2276.6038;1257
2024-05-25T23:06:46.245;599616935148845413;2284.2947;1518
2024-05-25T23:06:46.252;599616935156536436;2291.9858;1875
2024-05-25T23:06:46.260;599616935164227459;2299.677;1956
2024-05-25T23:06:46.268;599616935171918482;2307.368;1604
2024-05-25T23:06:46.276;599616935179609505;2315.0588;1141
2024-05-25T23:06:46.283;599616935187300528;2322.75;995
2024-05-25T23:06:46.291;599616935194991551;2330.441;1044
2024-05-25T23:06:46.299;599616935202682574;2338.132;988
2024-05-25T23:06:46.306;599616935210373597;2345.823;923
2024-05-25T23:06:46.314;599616935218064620;2353.514;970
2024-05-25T23:06:46.322;599616935225755643;2361.205;1018
2024-05-25T23:06:46.329;599616935233446666;2368.896;993
2024-05-25T23:06:46.337;599616935241137689;2376.587;967
2024-05-25T23:06:46.345;599616935248828712;2384.278;988
2024-05-25T23:06:46.352;599616935256519735;2391.969;990
2024-05-25T23:06:46.360;599616935264210758;2399.66;986
2024-05-25T23:06:46.368;599616935271901781;2407.351;1037
2024-05-25T23:06:46.376;599616935279592804;2415.042;1016
2024-05-25T23:06:46.383;599616935287283827;2422.7334;884
2024-05-25T23:06:46.391;599616935294974850;2430.4243;840
2024-05-25T23:06:46.399;599616935302665873;2438.1152;875
2024-05-25T23:06:46.406;599616935310356896;2445.8064;828
2024-05-25T23:06:46.414;599616935318047919;2453.4973;791
2024-05-25T23:06:46.422;599616935325738942;2461.1882;826
2024-05-25T23:06:46.429;599616935333429965;2468.8794;796
2024-05-25T23:06:46.437;599616935341120988;2476.5703;743
2024-05-25T23:06:46.445;599616935348812011;2484.2615;770
2024-05-25T23:06:46.452;599616935356503034;2491.9524;812
2024-05-25T23:06:46.460;599616935364194057;2499.6433;803
2024-05-25T23:06:46.468;599616935371885080;2507.3345;780
2024-05-25T23:06:46.476;599616935379576103;2515.0254;743
2024-05-25T23:06:46.483;599616935387267126;2522.7163;664
2024-05-25T23:06:46.491;599616935394958149;2530.4075;601
2024-05-25T23:06:46.499;599616935402649172;2538.0984;611
2024-05-25T23:06:46.506;599616935410340195;2545.7896;643
2024-05-25T23:06:46.514;599616935418031218;2553.4807;671
2024-05-25T23:06:46.522;599616935425722241;2561.1716;678
2024-05-25T23:06:46.529;599616935433413264;2568.8628;671
2024-05-25T23:06:46.537;599616935441104287;2576.5537;689
2024-05-25T23:06:46.545;599616935448795310;2584.2446;713
2024-05-25T23:06:46.552;599616935456486333;2591.9358;722
2024-05-25T23:06:46.560;599616935464177356;2599.6267;736
2024-05-25T23:06:46.568;599616935471868379;2607.3179;736
2024-05-25T23:06:46.576;599616935479559402;2615.0088;722
2024-05-25T23:06:46.583;599616935487250425;2622.6997;733
2024-05-25T23:06:46.591;599616935494941448;2630.3909;780
2024-05-25T23:06:46.599;599616935502632471;2638.0818;805
2024-05-25T23:06:46.606;599616935510323494;2645.7727;777
2024-05-25T23:06:46.614;599616935518014517;2653.4639;740
2024-05-25T23:06:46.622;599616935525705540;2661.1548;722
2024-05-25T23:06:46.629;599616935533396563;2668.8457;713
2024-05-25T23:06:46.637;599616935541087586;2676.5369;706
2024-05-25T23:06:46.645;599616935548778609;2684.228;720
2024-05-25T23:06:46.652;599616935556469632;2691.9192;752
2024-05-25T23:06:46.660;599616935564160655;2699.61;766
2024-05-25T23:06:46.668;599616935571851678;2707.301;757
2024-05-25T23:06:46.675;599616935579542701;2714.9922;759
2024-05-25T23:06:46.683;599616935587233724;2722.683;780
2024-05-25T23:06:46.691;599616935594924747;2730.374;803
2024-05-25T23:06:46.699;599616935602615770;2738.0652;801
2024-05-25T23:06:46.706;599616935610306793;2745.756;752
2024-05-25T23:06:46.714;599616935617997816;2753.4473;717
2024-05-25T23:06:46.722;599616935625688839;2761.1382;794
2024-05-25T23:06:46.729;599616935633379862;2768.829;1065
2024-05-25T23:06:46.737;599616935641070885;2776.5203;1474
2024-05-25T23:06:46.745;599616935648761908;2784.2112;1620
2024-05-25T23:06:46.752;599616935656452931;2791.902;1250
2024-05-25T23:06:46.760;599616935664143954;2799.5933;812
2024-05-25T23:06:46.768;599616935671835032;2807.2844;740
2024-05-25T23:06:46.775;599616935679526055;2814.9756;759
2024-05-25T23:06:46.783;599616935687217078;2822.6665;666
2024-05-25T23:06:46.791;599616935694908101;2830.3574;622
2024-05-25T23:06:46.799;599616935702599124;2838.0486;632
2024-05-25T23:06:46.806;599616935710290147;2845.7395;622
2024-05-25T23:06:46.814;599616935717981170;2853.4304;618
2024-05-25T23:06:46.822;599616935725672193;2861.1216;583
2024-05-25T23:06:46.829;599616935733363216;2868.8125;539
2024-05-25T23:06:46.837;599616935741054239;2876.5037;551
2024-05-25T23:06:46.845;599616935748745262;2884.1946;560
2024-05-25T23:06:46.852;599616935756436285;2891.8855;534
2024-05-25T23:06:46.860;599616935764127308;2899.5767;530
2024-05-25T23:06:46.868;599616935771818331;2907.2676;525
2024-05-25T23:06:46.875;599616935779509354;2914.9585;502
2024-05-25T23:06:46.883;599616935787200377;2922.65;495
2024-05-25T23:06:46.891;599616935794891400;2930.3408;472
2024-05-25T23:06:46.899;599616935802582423;2938.032;430
2024-05-25T23:06:46.906;599616935810273446;2945.723;405
2024-05-25T23:06:46.914;599616935817964469;2953.4138;375
2024-05-25T23:06:46.922;599616935825655492;2961.105;354
2024-05-25T23:06:46.929;599616935833346515;2968.796;375
2024-05-25T23:06:46.937;599616935841037538;2976.4868;372
2024-05-25T23:06:46.945;599616935848728561;2984.178;335
2024-05-25T23:06:46.952;599616935856419584;2991.869;349
2024-05-25T23:06:46.960;599616935864110607;2999.5598;386
2024-05-25T23:06:46.968;599616935871801630;3007.251;384
2024-05-25T23:06:46.975;599616935879492653;3014.942;375
2024-05-25T23:06:46.983;599616935887183676;3022.633;365
2024-05-25T23:06:46.991;599616935894874699;3030.324;310
2024-05-25T23:06:46.999;599616935902565722;3038.015;243
2024-05-25T23:06:47.006;599616935910256745;3045.706;250
2024-05-25T23:06:47.014;599616935917947768;3053.3972;298
2024-05-25T23:06:47.022;599616935925638791;3061.0881;319
2024-05-25T23:06:47.029;599616935933329814;3068.7793;317
2024-05-25T23:06:47.037;599616935941020837;3076.4702;338
2024-05-25T23:06:47.045;599616935948711860;3084.1614;372
2024-05-25T23:06:47.052;599616935956402883;3091.8523;384
2024-05-25T23:06:47.060;599616935964093906;3099.5432;393
2024-05-25T23:06:47.068;599616935971784929;3107.2344;405
2024-05-25T23:06:47.075;599616935979475952;3114.9253;409
2024-05-25T23:06:47.083;599616935987166975;3122.6162;423
2024-05-25T23:06:47.091;599616935994857998;3130.3074;444
2024-05-25T23:06:47.098;599616936002549021;3137.9983;453
2024-05-25T23:06:47.106;599616936010240044;3145.6895;460
2024-05-25T23:06:47.114;599616936017931067;3153.3804;446
2024-05-25T23:06:47.122;599616936025622090;3161.0713;398
2024-05-25T23:06:47.129;599616936033313113;3168.7625;388
2024-05-25T23:06:47.137;599616936041004136;3176.4534;439
2024-05-25T23:06:47.145;599616936048695159;3184.1445;463
2024-05-25T23:06:47.152;599616936056386182;3191.8357;458
2024-05-25T23:06:47.160;599616936064077205;3199.5266;469
2024-05-25T23:06:47.168;599616936071768228;3207.2178;481
2024-05-25T23:06:47.175;599616936079459251;3214.9087;483
2024-05-25T23:06:47.183;599616936087150274;3222.5996;474
2024-05-25T23:06:47.191;599616936094841297;3230.2908;469
2024-05-25T23:06:47.198;599616936102532320;3237.9817;472
2024-05-25T23:06:47.206;599616936110223343;3245.6726;460
2024-05-25T23:06:47.214;599616936117914366;3253.3638;548
2024-05-25T23:06:47.222;599616936125605389;3261.0547;886
2024-05-25T23:06:47.229;599616936133296412;3268.7458;1291
2024-05-25T23:06:47.237;599616936140987435;3276.4368;1294
2024-05-25T23:06:47.245;599616936148678458;3284.1277;845
2024-05-25T23:06:47.252;599616936156369481;3291.8188;509
2024-05-25T23:06:47.260;599616936164060504;3299.5098;532
2024-05-25T23:06:47.268;599616936171751527;3307.2007;560
2024-05-25T23:06:47.275;599616936179442550;3314.892;474
2024-05-25T23:06:47.283;599616936187133573;3322.583;463
2024-05-25T23:06:47.291;599616936194824596;3330.2742;481
2024-05-25T23:06:47.298;599616936202515619;3337.965;426
2024-05-25T23:06:47.306;599616936210206642;3345.656;395
2024-05-25T23:06:47.314;599616936217897665;3353.3472;435
2024-05-25T23:06:47.322;599616936225588688;3361.038;456
2024-05-25T23:06:47.329;599616936233259676;3368.7092;435
2024-05-25T23:06:47.337;599616936240950978;3376.4004;442
2024-05-25T23:06:47.345;599616936248642280;3384.0916;469
2024-05-25T23:06:47.352;599616936256333582;3391.783;460
2024-05-25T23:06:47.360;599616936264024884;3399.474;421
2024-05-25T23:06:47.368;599616936271716186;3407.1655;400
2024-05-25T23:06:47.375;599616936279407488;3414.857;421
2024-05-25T23:06:47.383;599616936287098790;3422.5483;421
2024-05-25T23:06:47.391;599616936294790092;3430.2395;347
2024-05-25T23:06:47.398;599616936302481394;3437.9307;259
2024-05-25T23:06:47.406;599616936310172696;3445.622;240
2024-05-25T23:06:47.414;599616936317863998;3453.3132;236
2024-05-25T23:06:47.422;599616936325555300;3461.0046;178
2024-05-25T23:06:47.429;599616936333246602;3468.696;166
2024-05-25T23:06:47.437;599616936340937904;3476.3872;203
2024-05-25T23:06:47.445;599616936348629206;3484.0786;173
2024-05-25T23:06:47.452;599616936356320508;3491.7698;131
2024-05-25T23:06:47.460;599616936364011810;3499.4612;157
2024-05-25T23:06:47.468;599616936371703112;3507.1523;187
2024-05-25T23:06:47.475;599616936379394414;3514.8438;182
2024-05-25T23:06:47.483;599616936387085716;3522.5352;150
2024-05-25T23:06:47.491;599616936394777018;3530.2263;71
2024-05-25T23:06:47.498;599616936402468320;3537.9177;18
2024-05-25T23:06:47.506;599616936410159622;3545.609;48
2024-05-25T23:06:47.514;599616936417850924;3553.3003;87
2024-05-25T23:06:47.521;599616936425542226;3560.9915;108
2024-05-25T23:06:47.529;599616936433233528;3568.683;129
2024-05-25T23:06:47.537;599616936440924830;3576.3743;120
2024-05-25T23:06:47.545;599616936448616132;3584.0654;122
2024-05-25T23:06:47.552;599616936456307434;3591.7568;173
2024-05-25T23:06:47.560;599616936463998736;3599.448;208
2024-05-25T23:06:47.568;599616936471690038;3607.1394;219
2024-05-25T23:06:47.575;599616936479381340;3614.8306;231
2024-05-25T23:06:47.583;599616936487072642;3622.5222;224
2024-05-25T23:06:47.591;599616936494763944;3630.2134;243
2024-05-25T23:06:47.598;599616936502455246;3637.9045;289
2024-05-25T23:06:47.606;599616936510146548;3645.596;273
2024-05-25T23:06:47.614;599616936517837850;3653.287;229
2024-05-25T23:06:47.621;599616936525529152;3660.9785;245
2024-05-25T23:06:47.629;599616936533220454;3668.6697;263
2024-05-25T23:06:47.637;599616936540911756;3676.3613;277
2024-05-25T23:06:47.645;599616936548603058;3684.0525;321
2024-05-25T23:06:47.652;599616936556294360;3691.7437;338
2024-05-25T23:06:47.660;599616936563985662;3699.435;333
2024-05-25T23:06:47.668;599616936571676964;3707.1262;363
2024-05-25T23:06:47.675;599616936579368266;3714.8176;379
2024-05-25T23:06:47.683;599616936587059568;3722.509;370
2024-05-25T23:06:47.691;599616936594750870;3730.2004;382
2024-05-25T23:06:47.698;599616936602442172;3737.8916;388
2024-05-25T23:06:47.706;599616936610133474;3745.5828;368
2024-05-25T23:06:47.714;599616936617824776;3753.2742;386
2024-05-25T23:06:47.721;599616936625516078;3760.9653;574
2024-05-25T23:06:47.729;599616936633207380;3768.6567;967
2024-05-25T23:06:47.737;599616936640898682;3776.3481;1247
2024-05-25T23:06:47.745;599616936648589984;3784.0393;1014
2024-05-25T23:06:47.752;599616936656281286;3791.7307;527
2024-05-25T23:06:47.760;599616936663972588;3799.4219;365
2024-05-25T23:06:47.768;599616936671663890;3807.1133;467
2024-05-25T23:06:47.775;599616936679355192;3814.8044;451
2024-05-25T23:06:47.783;599616936687046494;3822.4958;335
2024-05-25T23:06:47.791;599616936694737796;3830.1873;319
2024-05-25T23:06:47.798;599616936702429098;3837.8784;370
2024-05-25T23:06:47.806;599616936710120400;3845.5698;356
2024-05-25T23:06:47.814;599616936717811702;3853.261;303
2024-05-25T23:06:47.821;599616936725503004;3860.9524;312
2024-05-25T23:06:47.829;599616936733194306;3868.6436;354
2024-05-25T23:06:47.837;599616936740885608;3876.335;351
2024-05-25T23:06:47.845;599616936748576910;3884.0264;335
2024-05-25T23:06:47.852;599616936756268212;3891.7175;331
2024-05-25T23:06:47.860;599616936763959514;3899.409;296
2024-05-25T23:06:47.868;599616936771650816;3907.1;268
2024-05-25T23:06:47.875;599616936779342118;3914.7915;294
2024-05-25T23:06:47.883;599616936787033420;3922.4827;351
2024-05-25T23:06:47.891;599616936794734762;3930.184;379
2024-05-25T23:06:47.898;599616936802425925;3937.8752;342
2024-05-25T23:06:47.906;599616936810117088;3945.5664;275
2024-05-25T23:06:47.914;599616936817808251;3953.2578;263
2024-05-25T23:06:47.921;599616936825499414;3960.9487;259
2024-05-25T23:06:47.929;599616936833190577;3968.64;213
2024-05-25T23:06:47.937;599616936840881740;3976.331;210
2024-05-25T23:06:47.945;599616936848572903;3984.0222;252
2024-05-25T23:06:47.952;599616936856264066;3991.7136;210
2024-05-25T23:06:47.960;599616936863955229;3999.4045;97
2024-05-25T23:06:47.968;599616936871646392;4007.0957;57
2024-05-25T23:06:47.975;599616936879337555;4014.7869;106
2024-05-25T23:06:47.983;599616936887028718;4022.478;138
2024-05-25T23:06:47.991;599616936894719881;4030.1694;122
2024-05-25T23:06:47.998;599616936902411044;4037.8604;62
2024-05-25T23:06:48.006;599616936910102207;4045.5515;18
2024-05-25T23:06:48.014;599616936917793370;4053.2427;41
2024-05-25T23:06:48.021;599616936925484533;4060.9338;64
2024-05-25T23:06:48.029;599616936933175696;4068.6252;78
2024-05-25T23:06:48.037;599616936940866859;4076.3162;118
2024-05-25T23:06:48.045;599616936948558022;4084.0073;125
2024-05-25T23:06:48.052;599616936956249185;4091.6985;120
2024-05-25T23:06:48.060;599616936963940348;4099.3896;159
2024-05-25T23:06:48.068;599616936971631511;4107.081;199
2024-05-25T23:06:48.075;599616936979322674;4114.772;213
2024-05-25T23:06:48.083;599616936987013837;4122.4634;229
2024-05-25T23:06:48.091;599616936994705000;4130.1543;224
2024-05-25T23:06:48.098;599616937002396163;4137.8457;185
2024-05-25T23:06:48.106;599616937010087326;4145.5366;155
2024-05-25T23:06:48.114;599616937017778489;4153.2275;178
2024-05-25T23:06:48.121;599616937025469652;4160.919;224
2024-05-25T23:06:48.129;599616937033160815;4168.6104;243
2024-05-25T23:06:48.137;599616937040851978;4176.3013;240
2024-05-25T23:06:48.144;599616937048543141;4183.9927;261
2024-05-25T23:06:48.152;599616937056234304;4191.6836;300
2024-05-25T23:06:48.160;599616937063925467;4199.375;326
2024-05-25T23:06:48.168;599616937071616630;4207.066;340
2024-05-25T23:06:48.175;599616937079307793;4214.7573;347
2024-05-25T23:06:48.183;599616937086998956;4222.448;351
2024-05-25T23:06:48.191;599616937094690119;4230.139;365
2024-05-25T23:06:48.198;599616937102381282;4237.8306;375
2024-05-25T23:06:48.206;599616937110072445;4245.522;354
2024-05-25T23:06:48.214;599616937117763608;4253.213;363
2024-05-25T23:06:48.221;599616937125454771;4260.9043;530
2024-05-25T23:06:48.229;599616937133145934;4268.595;900
2024-05-25T23:06:48.237;599616937140837097;4276.2866;1234
2024-05-25T23:06:48.244;599616937148528260;4283.9775;1136
2024-05-25T23:06:48.252;599616937156219423;4291.669;666
2024-05-25T23:06:48.260;599616937163910586;4299.36;398
2024-05-25T23:06:48.268;599616937171601749;4307.051;469
2024-05-25T23:06:48.275;599616937179292912;4314.742;486
2024-05-25T23:06:48.283;599616937186984075;4322.4336;388
2024-05-25T23:06:48.291;599616937194675238;4330.125;370
2024-05-25T23:06:48.298;599616937202366401;4337.8154;391
2024-05-25T23:06:48.306;599616937210057564;4345.507;400
2024-05-25T23:06:48.314;599616937217748727;4353.198;409
2024-05-25T23:06:48.321;599616937225439890;4360.889;405
2024-05-25T23:06:48.329;599616937233131053;4368.5806;407
2024-05-25T23:06:48.337;599616937240822216;4376.2715;430
2024-05-25T23:06:48.344;599616937248513379;4383.9624;412
2024-05-25T23:06:48.352;599616937256204542;4391.654;358
2024-05-25T23:06:48.360;599616937263895705;4399.345;344
2024-05-25T23:06:48.368;599616937271586868;4407.0366;365
2024-05-25T23:06:48.375;599616937279278031;4414.727;388
2024-05-25T23:06:48.383;599616937286969194;4422.4185;398
2024-05-25T23:06:48.391;599616937294660357;4430.11;402
2024-05-25T23:06:48.398;599616937302351520;4437.801;405
2024-05-25T23:06:48.406;599616937310042683;4445.492;368
2024-05-25T23:06:48.414;599616937317733846;4453.183;307
2024-05-25T23:06:48.421;599616937325425009;4460.874;273
2024-05-25T23:06:48.429;599616937333116172;4468.5654;259
2024-05-25T23:06:48.437;599616937340807335;4476.257;238
2024-05-25T23:06:48.444;599616937348498498;4483.948;231
2024-05-25T23:06:48.452;599616937356189666;4491.6387;252
2024-05-25T23:06:48.460;599616937363880829;4499.33;247
2024-05-25T23:06:48.468;599616937371571992;4507.0215;219
2024-05-25T23:06:48.475;599616937379263155;4514.7124;217
2024-05-25T23:06:48.483;599616937386954318;4522.404;243
2024-05-25T23:06:48.491;599616937394645481;4530.0947;277
2024-05-25T23:06:48.498;599616937402336644;4537.7856;247
2024-05-25T23:06:48.506;599616937410027807;4545.477;138
2024-05-25T23:06:48.514;599616937417718970;4553.1685;115
2024-05-25T23:06:48.521;599616937425410133;4560.86;189
2024-05-25T23:06:48.529;599616937433101296;4568.551;157
2024-05-25T23:06:48.537;599616937440792459;4576.2417;74
2024-05-25T23:06:48.544;599616937448483622;4583.933;106
2024-05-25T23:06:48.552;599616937456174785;4591.624;148
2024-05-25T23:06:48.560;599616937463865948;4599.3154;111
2024-05-25T23:06:48.568;599616937471557111;4607.007;138
2024-05-25T23:06:48.575;599616937479248274;4614.6973;208
2024-05-25T23:06:48.583;599616937486939437;4622.3887;210
2024-05-25T23:06:48.591;599616937494630600;4630.08;182
2024-05-25T23:06:48.598;599616937502321763;4637.7715;173
2024-05-25T23:06:48.606;599616937510012926;4645.4624;187
2024-05-25T23:06:48.614;599616937517704089;4653.1533;217
2024-05-25T23:06:48.621;599616937525395252;4660.8447;224
2024-05-25T23:06:48.629;599616937533086415;4668.5356;233
2024-05-25T23:06:48.637;599616937540777578;4676.227;282
2024-05-25T23:06:48.644;599616937548468741;4683.9185;291
2024-05-25T23:06:48.652;599616937556159904;4691.609;277
2024-05-25T23:06:48.660;599616937563851067;4699.3003;331
2024-05-25T23:06:48.667;599616937571542230;4706.9917;391
2024-05-25T23:06:48.675;599616937579233393;4714.683;391
2024-05-25T23:06:48.683;599616937586924556;4722.374;377
2024-05-25T23:06:48.691;599616937594615719;4730.065;386
2024-05-25T23:06:48.698;599616937602306882;4737.7563;414
2024-05-25T23:06:48.706;599616937609998045;4745.4473;437
2024-05-25T23:06:48.714;599616937617689208;4753.1387;432
2024-05-25T23:06:48.721;599616937625380371;4760.83;400
2024-05-25T23:06:48.729;599616937633071534;4768.5205;395
2024-05-25T23:06:48.737;599616937640762697;4776.212;509
2024-05-25T23:06:48.744;599616937648453860;4783.9033;835
2024-05-25T23:06:48.752;599616937656145023;4791.5947;1229
2024-05-25T23:06:48.760;599616937663836186;4799.2856;1257
2024-05-25T23:06:48.767;599616937671527349;4806.9766;803
2024-05-25T23:06:48.775;599616937679218512;4814.668;379
2024-05-25T23:06:48.783;599616937686909675;4822.359;333
2024-05-25T23:06:48.791;599616937694600838;4830.0503;386
2024-05-25T23:06:48.798;599616937702292001;4837.7417;333
2024-05-25T23:06:48.806;599616937709983164;4845.432;314
2024-05-25T23:06:48.814;599616937717674327;4853.1235;351
2024-05-25T23:06:48.821;599616937725365490;4860.815;349
2024-05-25T23:06:48.829;599616937733056653;4868.5063;338
2024-05-25T23:06:48.837;599616937740747816;4876.1973;335
2024-05-25T23:06:48.844;599616937748438979;4883.888;324
2024-05-25T23:06:48.852;599616937756130142;4891.5796;328
2024-05-25T23:06:48.860;599616937763821305;4899.2705;342
2024-05-25T23:06:48.867;599616937771512468;4906.962;344
2024-05-25T23:06:48.875;599616937779203631;4914.6533;349
2024-05-25T23:06:48.883;599616937786894794;4922.3438;361
2024-05-25T23:06:48.891;599616937794585957;4930.035;344
2024-05-25T23:06:48.898;599616937802277120;4937.7266;307
2024-05-25T23:06:48.906;599616937809968283;4945.418;287
2024-05-25T23:06:48.914;599616937817659446;4953.109;273
2024-05-25T23:06:48.921;599616937825350609;4960.8;247
2024-05-25T23:06:48.929;599616937833041772;4968.491;236
2024-05-25T23:06:48.937;599616937840732935;4976.182;236
2024-05-25T23:06:48.944;599616937848424098;4983.8735;229
2024-05-25T23:06:48.952;599616937856115261;4991.565;243
2024-05-25T23:06:48.960;599616937863806424;4999.2554;250
2024-05-25T23:06:48.967;599616937871497587;5006.947;233
2024-05-25T23:06:48.975;599616937879188750;5014.638;226
2024-05-25T23:06:48.983;599616937886879913;5022.329;240
2024-05-25T23:06:48.991;599616937894571076;5030.0205;263
2024-05-25T23:06:48.998;599616937902262239;5037.7114;266
2024-05-25T23:06:49.006;599616937909953402;5045.403;185
2024-05-25T23:06:49.014;599616937917634564;5053.084;87
2024-05-25T23:06:49.021;599616937925325866;5060.7754;99
2024-05-25T23:06:49.029;599616937933017168;5068.467;166
2024-05-25T23:06:49.037;599616937940708470;5076.1577;192
2024-05-25T23:06:49.044;599616937948399772;5083.849;196
2024-05-25T23:06:49.052;599616937956091074;5091.5405;219
2024-05-25T23:06:49.060;599616937963782376;5099.232;231
2024-05-25T23:06:49.067;599616937971473678;5106.923;187
2024-05-25T23:06:49.075;599616937979164980;5114.6143;122
2024-05-25T23:06:49.083;599616937986856282;5122.3057;104
2024-05-25T23:06:49.090;599616937994547584;5129.9966;104
2024-05-25T23:06:49.098;599616938002238886;5137.688;90
2024-05-25T23:06:49.106;599616938009930188;5145.3794;78
2024-05-25T23:06:49.114;599616938017621490;5153.0713;106
2024-05-25T23:06:49.121;599616938025312792;5160.762;155
2024-05-25T23:06:49.129;599616938033004094;5168.4536;178
2024-05-25T23:06:49.137;599616938040695396;5176.145;166
2024-05-25T23:06:49.144;599616938048386698;5183.836;162
2024-05-25T23:06:49.152;599616938056078000;5191.5273;199
2024-05-25T23:06:49.160;599616938063769302;5199.2188;219
2024-05-25T23:06:49.167;599616938071460604;5206.91;215
2024-05-25T23:06:49.175;599616938079151906;5214.601;259
2024-05-25T23:06:49.183;599616938086843208;5222.2925;314
2024-05-25T23:06:49.190;599616938094534510;5229.984;307
2024-05-25T23:06:49.198;599616938102225812;5237.675;284
2024-05-25T23:06:49.206;599616938109917114;5245.366;300
2024-05-25T23:06:49.214;599616938117608416;5253.0576;319
2024-05-25T23:06:49.221;599616938125299718;5260.7495;321
2024-05-25T23:06:49.229;599616938132991020;5268.4404;340
2024-05-25T23:06:49.237;599616938140682322;5276.132;342
2024-05-25T23:06:49.244;599616938148373624;5283.823;300
2024-05-25T23:06:49.252;599616938156064926;5291.514;363
2024-05-25T23:06:49.260;599616938163756228;5299.2056;678
2024-05-25T23:06:49.267;599616938171447530;5306.897;1053
2024-05-25T23:06:49.275;599616938179138832;5314.5884;1027
2024-05-25T23:06:49.283;599616938186830134;5322.2793;557
2024-05-25T23:06:49.290;599616938194521436;5329.9707;206
2024-05-25T23:06:49.298;599616938202212738;5337.662;245
2024-05-25T23:06:49.306;599616938209904040;5345.353;319
2024-05-25T23:06:49.314;599616938217595342;5353.0444;247
2024-05-25T23:06:49.321;599616938225286644;5360.7363;226
2024-05-25T23:06:49.329;599616938232977946;5368.4277;236
2024-05-25T23:06:49.337;599616938240669248;5376.1187;173
2024-05-25T23:06:49.344;599616938248360550;5383.81;148
2024-05-25T23:06:49.352;599616938256051852;5391.5015;215
2024-05-25T23:06:49.360;599616938263743154;5399.1924;245
2024-05-25T23:06:49.367;599616938271434456;5406.884;194
2024-05-25T23:06:49.375;599616938279125758;5414.575;152
2024-05-25T23:06:49.383;599616938286817060;5422.2666;138
2024-05-25T23:06:49.390;599616938294508362;5429.9575;127
2024-05-25T23:06:49.398;599616938302199664;5437.649;113
2024-05-25T23:06:49.406;599616938309890966;5445.3403;94
2024-05-25T23:06:49.414;599616938317582268;5453.0312;104
2024-05-25T23:06:49.421;599616938325273570;5460.7227;141
2024-05-25T23:06:49.429;599616938332964872;5468.4146;136
2024-05-25T23:06:49.437;599616938340656174;5476.106;111
2024-05-25T23:06:49.444;599616938348347476;5483.797;159
2024-05-25T23:06:49.452;599616938356038778;5491.4883;210
2024-05-25T23:06:49.460;599616938363730080;5499.1797;180
2024-05-25T23:06:49.467;599616938371421382;5506.8706;141
2024-05-25T23:06:49.475;599616938379112684;5514.562;164
2024-05-25T23:06:49.483;599616938386803986;5522.2534;208
2024-05-25T23:06:49.490;599616938394495288;5529.9443;199
2024-05-25T23:06:49.498;599616938402186590;5537.6357;169
2024-05-25T23:06:49.506;599616938409877892;5545.327;178
2024-05-25T23:06:49.514;599616938417569194;5553.0186;143
2024-05-25T23:06:49.521;599616938425260496;5560.7095;37
2024-05-25T23:06:49.529;599616938432951798;5568.4014;9
2024-05-25T23:06:49.537;599616938440643100;5576.093;76
2024-05-25T23:06:49.544;599616938448334402;5583.784;113
2024-05-25T23:06:49.552;599616938456025704;5591.475;118
2024-05-25T23:06:49.560;599616938463717006;5599.1665;129
2024-05-25T23:06:49.567;599616938471408308;5606.858;136
2024-05-25T23:06:49.575;599616938479119728;5614.569;131
2024-05-25T23:06:49.583;599616938486810751;5622.2603;106
2024-05-25T23:06:49.590;599616938494501774;5629.951;111
2024-05-25T23:06:49.598;599616938502192797;5637.642;175
2024-05-25T23:06:49.606;599616938509883820;5645.333;213
2024-05-25T23:06:49.614;599616938517574843;5653.0244;175
2024-05-25T23:06:49.621;599616938525265866;5660.715;157
2024-05-25T23:06:49.629;599616938532956889;5668.4062;203
2024-05-25T23:06:49.637;599616938540647912;5676.097;201
2024-05-25T23:06:49.644;599616938548338935;5683.788;118
2024-05-25T23:06:49.652;599616938556029958;5691.4795;85
2024-05-25T23:06:49.660;599616938563720981;5699.1704;120
2024-05-25T23:06:49.667;599616938571412004;5706.8613;131
2024-05-25T23:06:49.675;599616938579103027;5714.5522;138
2024-05-25T23:06:49.683;599616938586794050;5722.2437;189
2024-05-25T23:06:49.690;599616938594485073;5729.9346;238
2024-05-25T23:06:49.698;599616938602176096;5737.6255;252
2024-05-25T23:06:49.706;599616938609867119;5745.3164;240
2024-05-25T23:06:49.714;599616938617558142;5753.008;256
2024-05-25T23:06:49.721;599616938625249165;5760.698;303
2024-05-25T23:06:49.729;599616938632940188;5768.3896;287
2024-05-25T23:06:49.737;599616938640631211;5776.0806;229
2024-05-25T23:06:49.744;599616938648322234;5783.7715;238
2024-05-25T23:06:49.752;599616938656013257;5791.4624;238
2024-05-25T23:06:49.760;599616938663704280;5799.154;166
2024-05-25T23:06:49.767;599616938671395303;5806.844;164
2024-05-25T23:06:49.775;599616938679086326;5814.5356;351
2024-05-25T23:06:49.783;599616938686777349;5822.227;720
2024-05-25T23:06:49.790;599616938694468372;5829.9175;1032
2024-05-25T23:06:49.798;599616938702159395;5837.609;912
2024-05-25T23:06:49.806;599616938709850418;5845.3;432
2024-05-25T23:06:49.813;599616938717541441;5852.991;162
2024-05-25T23:06:49.821;599616938725232464;5860.6816;215
2024-05-25T23:06:49.829;599616938732923487;5868.373;222
2024-05-25T23:06:49.837;599616938740614510;5876.064;141
2024-05-25T23:06:49.844;599616938748305533;5883.755;120
2024-05-25T23:06:49.852;599616938755996556;5891.446;101
2024-05-25T23:06:49.860;599616938763687579;5899.137;67
2024-05-25T23:06:49.867;599616938771378602;5906.8276;55
2024-05-25T23:06:49.875;599616938779069625;5914.519;50
2024-05-25T23:06:49.883;599616938786760648;5922.21;34
2024-05-25T23:06:49.890;599616938794451671;5929.901;4
2024-05-25T23:06:49.898;599616938802142694;5937.592;30
2024-05-25T23:06:49.906;599616938809833717;5945.283;87
2024-05-25T23:06:49.913;599616938817524740;5952.974;87
2024-05-25T23:06:49.921;599616938825215763;5960.665;83
2024-05-25T23:06:49.929;599616938832906786;5968.3564;113
2024-05-25T23:06:49.937;599616938840597809;5976.047;122
2024-05-25T23:06:49.944;599616938848288832;5983.7383;120
2024-05-25T23:06:49.952;599616938855979855;5991.429;152
2024-05-25T23:06:49.960;599616938863670878;5999.1206;173
2024-05-25T23:06:49.967;599616938871361901;6006.811;162
2024-05-25T23:06:49.975;599616938879052924;6014.5024;166
2024-05-25T23:06:49.983;599616938886743947;6022.1934;178
2024-05-25T23:06:49.990;599616938894434970;6029.8843;192
2024-05-25T23:06:49.998;599616938902125993;6037.575;210
2024-05-25T23:06:50.006;599616938909817016;6045.2666;187
2024-05-25T23:06:50.013;599616938917508039;6052.957;118
2024-05-25T23:06:50.021;599616938925199062;6060.6484;41
2024-05-25T23:06:50.029;599616938932890085;6068.3394;13
2024-05-25T23:06:50.037;599616938940581108;6076.0303;30
2024-05-25T23:06:50.044;599616938948272131;6083.7217;57
2024-05-25T23:06:50.052;599616938955963154;6091.4126;83
2024-05-25T23:06:50.060;599616938963654177;6099.1035;83
2024-05-25T23:06:50.067;599616938971345200;6106.7944;57
2024-05-25T23:06:50.075;599616938979036223;6114.486;23
2024-05-25T23:06:50.083;599616938986727246;6122.1763;23
2024-05-25T23:06:50.090;599616938994418269;6129.8677;55
2024-05-25T23:06:50.098;599616939002109292;6137.5586;83
2024-05-25T23:06:50.106;599616939009800315;6145.25;115
2024-05-25T23:06:50.113;599616939017491338;6152.9404;141
2024-05-25T23:06:50.121;599616939025182361;6160.632;134
2024-05-25T23:06:50.129;599616939032873384;6168.3228;125
2024-05-25T23:06:50.137;599616939040569430;6176.019;141
2024-05-25T23:06:50.144;599616939048260384;6183.7095;152
2024-05-25T23:06:50.152;599616939055951338;6191.4004;157
2024-05-25T23:06:50.160;599616939063642292;6199.092;187
2024-05-25T23:06:50.167;599616939071333246;6206.782;199
2024-05-25T23:06:50.175;599616939079024200;6214.4736;152
2024-05-25T23:06:50.183;599616939086715154;6222.1646;101
2024-05-25T23:06:50.190;599616939094406108;6229.8555;113
2024-05-25T23:06:50.198;599616939102097062;6237.5464;164
2024-05-25T23:06:50.206;599616939109788016;6245.2373;185
2024-05-25T23:06:50.213;599616939117478970;6252.9287;148
2024-05-25T23:06:50.221;599616939125169924;6260.619;104
2024-05-25T23:06:50.229;599616939132860878;6268.31;115
2024-05-25T23:06:50.237;599616939140551832;6276.0015;150
2024-05-25T23:06:50.244;599616939148242786;6283.692;141
2024-05-25T23:06:50.252;599616939155933740;6291.3833;129
2024-05-25T23:06:50.260;599616939163624694;6299.074;141
2024-05-25T23:06:50.267;599616939171315648;6306.7646;108
2024-05-25T23:06:50.275;599616939179006602;6314.456;108
2024-05-25T23:06:50.283;599616939186697556;6322.147;317
2024-05-25T23:06:50.290;599616939194388510;6329.838;724
2024-05-25T23:06:50.298;599616939202079464;6337.529;1016
2024-05-25T23:06:50.306;599616939209770418;6345.2197;805
2024-05-25T23:06:50.313;599616939217461372;6352.9106;275
2024-05-25T23:06:50.321;599616939225152326;6360.6016;32
2024-05-25T23:06:50.329;599616939232843280;6368.293;111
2024-05-25T23:06:50.336;599616939240534234;6375.9834;90
2024-05-25T23:06:50.344;599616939248225188;6383.6743;-18
2024-05-25T23:06:50.352;599616939255916142;6391.3657;-39
2024-05-25T23:06:50.360;599616939263607096;6399.056;-50
2024-05-25T23:06:50.367;599616939271298050;6406.7476;-60
2024-05-25T23:06:50.375;599616939278989004;6414.4385;-34
2024-05-25T23:06:50.383;599616939286679958;6422.1294;-16
2024-05-25T23:06:50.390;599616939294370912;6429.8203;-11
2024-05-25T23:06:50.398;599616939302061866;6437.511;4
2024-05-25T23:06:50.406;599616939309752820;6445.2026;20
2024-05-25T23:06:50.413;599616939317443774;6452.893;27
2024-05-25T23:06:50.421;599616939325134728;6460.584;53
2024-05-25T23:06:50.429;599616939332825682;6468.2754;101
2024-05-25T23:06:50.436;599616939340516636;6475.966;127
2024-05-25T23:06:50.444;599616939348207590;6483.6567;113
2024-05-25T23:06:50.452;599616939355898544;6491.348;111
2024-05-25T23:06:50.460;599616939363589498;6499.0386;150
2024-05-25T23:06:50.467;599616939371280452;6506.73;196
2024-05-25T23:06:50.475;599616939378971406;6514.421;201
2024-05-25T23:06:50.483;599616939386662360;6522.1113;182
2024-05-25T23:06:50.490;599616939394353314;6529.8027;194
2024-05-25T23:06:50.498;599616939402044268;6537.4937;213
2024-05-25T23:06:50.506;599616939409735222;6545.1846;219
2024-05-25T23:06:50.513;599616939417426176;6552.8755;224
2024-05-25T23:06:50.521;599616939425117130;6560.5664;187
2024-05-25T23:06:50.529;599616939432808084;6568.2573;101
2024-05-25T23:06:50.536;599616939440499038;6575.948;53
2024-05-25T23:06:50.544;599616939448189992;6583.6396;67
2024-05-25T23:06:50.552;599616939455880946;6591.33;81
2024-05-25T23:06:50.560;599616939463571900;6599.021;71
2024-05-25T23:06:50.567;599616939471262854;6606.7124;60
2024-05-25T23:06:50.575;599616939478953808;6614.403;69
2024-05-25T23:06:50.583;599616939486644762;6622.094;74
2024-05-25T23:06:50.590;599616939494335716;6629.785;85
2024-05-25T23:06:50.598;599616939502026670;6637.476;127
2024-05-25T23:06:50.606;599616939509717624;6645.167;157
2024-05-25T23:06:50.613;599616939517408578;6652.858;175
2024-05-25T23:06:50.621;599616939525099532;6660.5493;199
2024-05-25T23:06:50.629;599616939532790486;6668.2397;187
2024-05-25T23:06:50.636;599616939540481440;6675.9307;173
2024-05-25T23:06:50.644;599616939548172394;6683.622;222
2024-05-25T23:06:50.652;599616939555863348;6691.3125;263
2024-05-25T23:06:50.660;599616939563554302;6699.004;266
2024-05-25T23:06:50.667;599616939571245256;6706.695;275
2024-05-25T23:06:50.675;599616939578936210;6714.3853;275
2024-05-25T23:06:50.683;599616939586627164;6722.0767;270
2024-05-25T23:06:50.690;599616939594318118;6729.7676;270
2024-05-25T23:06:50.698;599616939602009076;6737.4585;270
2024-05-25T23:06:50.706;599616939609700030;6745.1494;275
2024-05-25T23:06:50.713;599616939617390984;6752.8403;243
2024-05-25T23:06:50.721;599616939625081938;6760.5312;157
2024-05-25T23:06:50.729;599616939632772892;6768.222;113
2024-05-25T23:06:50.736;599616939640463846;6775.913;155
2024-05-25T23:06:50.744;599616939648154800;6783.604;185
2024-05-25T23:06:50.752;599616939655845754;6791.295;159
2024-05-25T23:06:50.759;599616939663536708;6798.9863;148
2024-05-25T23:06:50.767;599616939671227662;6806.677;180
2024-05-25T23:06:50.775;599616939678918616;6814.3677;192
2024-05-25T23:06:50.783;599616939686609570;6822.059;173
2024-05-25T23:06:50.790;599616939694300524;6829.75;171
2024-05-25T23:06:50.798;599616939701991478;6837.441;210
2024-05-25T23:06:50.806;599616939709682432;6845.132;351
2024-05-25T23:06:50.813;599616939717373386;6852.8228;683
2024-05-25T23:06:50.821;599616939725064340;6860.5137;1002
2024-05-25T23:06:50.829;599616939732755294;6868.2046;854
2024-05-25T23:06:50.836;599616939740446248;6875.896;305
2024-05-25T23:06:50.844;599616939748137202;6883.5864;-30
2024-05-25T23:06:50.852;599616939755828156;6891.2773;-2
2024-05-25T23:06:50.859;599616939763519110;6898.9688;2
2024-05-25T23:06:50.867;599616939771210064;6906.659;-85
2024-05-25T23:06:50.875;599616939778901018;6914.3506;-78
2024-05-25T23:06:50.883;599616939786591972;6922.0415;-6
2024-05-25T23:06:50.890;599616939794282926;6929.732;2
2024-05-25T23:06:50.898;599616939801973880;6937.4233;-13
2024-05-25T23:06:50.906;599616939809664834;6945.1143;2
2024-05-25T23:06:50.913;599616939817355788;6952.805;32
2024-05-25T23:06:50.921;599616939825046742;6960.496;53
2024-05-25T23:06:50.929;599616939832737696;6968.187;60
2024-05-25T23:06:50.936;599616939840428650;6975.878;78
2024-05-25T23:06:50.944;599616939848119604;6983.569;113
2024-05-25T23:06:50.952;599616939855810558;6991.2603;127
2024-05-25T23:06:50.959;599616939863501512;6998.9507;127
2024-05-25T23:06:50.967;599616939871192466;7006.6416;157
2024-05-25T23:06:50.975;599616939878883420;7014.333;196
2024-05-25T23:06:50.983;599616939886574374;7022.0234;217
2024-05-25T23:06:50.990;599616939894265328;7029.715;231
2024-05-25T23:06:50.998;599616939901956282;7037.406;224
2024-05-25T23:06:51.006;599616939909647236;7045.0967;224
2024-05-25T23:06:51.013;599616939917338190;7052.7876;263
2024-05-25T23:06:51.021;599616939925029144;7060.4785;287
2024-05-25T23:06:51.029;599616939932720098;7068.1694;219
2024-05-25T23:06:51.036;599616939940411052;7075.8604;145
2024-05-25T23:06:51.044;599616939948102006;7083.5513;150
2024-05-25T23:06:51.052;599616939955792960;7091.2427;145
2024-05-25T23:06:51.059;599616939963483914;7098.933;106
2024-05-25T23:06:51.067;599616939971174868;7106.624;125
2024-05-25T23:06:51.075;599616939978865822;7114.3154;164
2024-05-25T23:06:51.083;599616939986556776;7122.006;162
2024-05-25T23:06:51.090;599616939994247730;7129.6973;159
2024-05-25T23:06:51.098;599616940001938684;7137.388;187
2024-05-25T23:06:51.106;599616940009629638;7145.0786;217
2024-05-25T23:06:51.113;599616940017320592;7152.77;238
2024-05-25T23:06:51.121;599616940025011546;7160.461;273
2024-05-25T23:06:51.129;599616940032702500;7168.152;296
2024-05-25T23:06:51.136;599616940040393454;7175.843;273
2024-05-25T23:06:51.144;599616940048084408;7183.5337;252
2024-05-25T23:06:51.152;599616940055775362;7191.2246;277
2024-05-25T23:06:51.159;599616940063466316;7198.9155;321
2024-05-25T23:06:51.167;599616940071157270;7206.607;319
2024-05-25T23:06:51.175;599616940078848224;7214.2974;296
2024-05-25T23:06:51.182;599616940086539178;7221.9883;317
2024-05-25T23:06:51.190;599616940094230132;7229.6797;344
2024-05-25T23:06:51.198;599616940101921086;7237.3706;331
2024-05-25T23:06:51.206;599616940109612040;7245.0615;310
2024-05-25T23:06:51.213;599616940117302994;7252.7524;305
2024-05-25T23:06:51.221;599616940124993948;7260.4434;277
2024-05-25T23:06:51.229;599616940132684902;7268.1343;240
2024-05-25T23:06:51.236;599616940140375856;7275.825;231
2024-05-25T23:06:51.244;599616940148066810;7283.5166;261
2024-05-25T23:06:51.252;599616940155757764;7291.207;307
2024-05-25T23:06:51.259;599616940163433674;7298.8833;321
2024-05-25T23:06:51.267;599616940171124837;7306.574;294
2024-05-25T23:06:51.275;599616940178816000;7314.2656;284
2024-05-25T23:06:51.282;599616940186507163;7321.9565;291
2024-05-25T23:06:51.290;599616940194198326;7329.6475;289
2024-05-25T23:06:51.298;599616940201889489;7337.339;261
2024-05-25T23:06:51.306;599616940209580652;7345.0303;224
2024-05-25T23:06:51.313;599616940217271815;7352.721;166
2024-05-25T23:06:51.321;599616940224962978;7360.412;71
2024-05-25T23:06:51.329;599616940232654141;7368.1035;118
2024-05-25T23:06:51.336;599616940240345304;7375.795;472
2024-05-25T23:06:51.344;599616940248036467;7383.486;831
2024-05-25T23:06:51.352;599616940255727630;7391.1772;713
2024-05-25T23:06:51.359;599616940263418793;7398.868;206
2024-05-25T23:06:51.367;599616940271109956;7406.559;-118
2024-05-25T23:06:51.375;599616940278801119;7414.2505;-94
2024-05-25T23:06:51.382;599616940286492282;7421.942;-55
2024-05-25T23:06:51.390;599616940294183445;7429.633;-106
2024-05-25T23:06:51.398;599616940301874608;7437.3237;-85
2024-05-25T23:06:51.406;599616940309565771;7445.015;-57
2024-05-25T23:06:51.413;599616940317256934;7452.7065;-90
2024-05-25T23:06:51.421;599616940324948097;7460.3975;-74
2024-05-25T23:06:51.429;599616940332639260;7468.089;-13
2024-05-25T23:06:51.436;599616940340330423;7475.78;4
2024-05-25T23:06:51.444;599616940348021586;7483.4707;9
2024-05-25T23:06:51.452;599616940355712749;7491.162;39
2024-05-25T23:06:51.459;599616940363403912;7498.8535;46
2024-05-25T23:06:51.467;599616940371095075;7506.5444;43
2024-05-25T23:06:51.475;599616940378786238;7514.2354;64
2024-05-25T23:06:51.482;599616940386477401;7521.927;101
2024-05-25T23:06:51.490;599616940394168564;7529.618;143
2024-05-25T23:06:51.498;599616940401859727;7537.309;166
2024-05-25T23:06:51.506;599616940409550890;7545.0005;150
2024-05-25T23:06:51.513;599616940417242053;7552.6914;162
2024-05-25T23:06:51.521;599616940424933216;7560.3823;199
2024-05-25T23:06:51.529;599616940432624379;7568.0737;203
2024-05-25T23:06:51.536;599616940440315542;7575.765;164
2024-05-25T23:06:51.544;599616940448006705;7583.456;92
2024-05-25T23:06:51.552;599616940455697868;7591.147;13
2024-05-25T23:06:51.559;599616940463389031;7598.8384;-6
2024-05-25T23:06:51.567;599616940471080194;7606.5293;27
2024-05-25T23:06:51.575;599616940478771357;7614.2207;67
2024-05-25T23:06:51.582;599616940486462520;7621.912;85
2024-05-25T23:06:51.590;599616940494153683;7629.603;67
2024-05-25T23:06:51.598;599616940501844846;7637.294;55
2024-05-25T23:06:51.605;599616940509536009;7644.9854;111
2024-05-25T23:06:51.613;599616940517227172;7652.677;169
2024-05-25T23:06:51.621;599616940524918335;7660.3677;173
2024-05-25T23:06:51.629;599616940532609498;7668.0586;180
2024-05-25T23:06:51.636;599616940540300661;7675.75;210
2024-05-25T23:06:51.644;599616940547991824;7683.441;217
2024-05-25T23:06:51.652;599616940555682987;7691.1323;199
2024-05-25T23:06:51.659;599616940563374150;7698.8237;208
2024-05-25T23:06:51.667;599616940571065313;7706.5146;247
2024-05-25T23:06:51.675;599616940578756476;7714.2056;266
2024-05-25T23:06:51.682;599616940586447639;7721.897;245
2024-05-25T23:06:51.690;599616940594138802;7729.5884;236
2024-05-25T23:06:51.698;599616940601829965;7737.2793;273
2024-05-25T23:06:51.705;599616940609521128;7744.97;284
2024-05-25T23:06:51.713;599616940617212291;7752.6616;240
2024-05-25T23:06:51.721;599616940624903454;7760.3525;203
2024-05-25T23:06:51.729;599616940632594617;7768.044;203
2024-05-25T23:06:51.736;599616940640285780;7775.7354;194
2024-05-25T23:06:51.744;599616940647976943;7783.427;175
2024-05-25T23:06:51.752;599616940655668106;7791.117;187
2024-05-25T23:06:51.759;599616940663359269;7798.8086;224
2024-05-25T23:06:51.767;599616940671050432;7806.5;245
2024-05-25T23:06:51.775;599616940678741595;7814.191;243
2024-05-25T23:06:51.782;599616940686432758;7821.8823;226
2024-05-25T23:06:51.790;599616940694123921;7829.573;196
2024-05-25T23:06:51.798;599616940701815084;7837.264;148
2024-05-25T23:06:51.805;599616940709506247;7844.9556;129
2024-05-25T23:06:51.813;599616940717197410;7852.647;169
2024-05-25T23:06:51.821;599616940724888578;7860.3384;189
2024-05-25T23:06:51.829;599616940732579741;7868.029;131
2024-05-25T23:06:51.836;599616940740270904;7875.72;57
2024-05-25T23:06:51.844;599616940747962067;7883.4116;30
2024-05-25T23:06:51.852;599616940755653230;7891.1025;67
2024-05-25T23:06:51.859;599616940763344393;7898.794;296
2024-05-25T23:06:51.867;599616940771035556;7906.485;701
2024-05-25T23:06:51.875;599616940778726719;7914.176;833
2024-05-25T23:06:51.882;599616940786417882;7921.867;405
2024-05-25T23:06:51.890;599616940794109045;7929.5586;-122
2024-05-25T23:06:51.898;599616940801800208;7937.25;-203
2024-05-25T23:06:51.905;599616940809491371;7944.9404;-53
2024-05-25T23:06:51.913;599616940817182534;7952.632;-83
2024-05-25T23:06:51.921;599616940824873697;7960.323;-173
2024-05-25T23:06:51.929;599616940832564860;7968.014;-134
2024-05-25T23:06:51.936;599616940840256023;7975.7056;-69
2024-05-25T23:06:51.944;599616940847947186;7983.3965;-60
2024-05-25T23:06:51.952;599616940855638349;7991.0874;-43
2024-05-25T23:06:51.959;599616940863329512;7998.779;-13
2024-05-25T23:06:51.967;599616940871020675;8006.47;4
2024-05-25T23:06:51.975;599616940878711838;8014.1616;18
2024-05-25T23:06:51.982;599616940886403001;8021.852;37
2024-05-25T23:06:51.990;599616940894094164;8029.5435;60
2024-05-25T23:06:51.998;599616940901785327;8037.235;108
2024-05-25T23:06:52.005;599616940909476490;8044.926;143
2024-05-25T23:06:52.013;599616940917167653;8052.617;127
2024-05-25T23:06:52.021;599616940924858816;8060.308;134
2024-05-25T23:06:52.028;599616940932549979;8067.999;187
2024-05-25T23:06:52.036;599616940940241142;8075.6904;171
2024-05-25T23:06:52.044;599616940947932305;8083.382;99
2024-05-25T23:06:52.052;599616940955623468;8091.073;92
2024-05-25T23:06:52.059;599616940963314631;8098.7637;122
2024-05-25T23:06:52.067;599616940971005794;8106.455;131
2024-05-25T23:06:52.075;599616940978696957;8114.1465;145
2024-05-25T23:06:52.082;599616940986388120;8121.8374;175
2024-05-25T23:06:52.090;599616940994079283;8129.529;189
2024-05-25T23:06:52.098;599616941001770446;8137.2197;187
2024-05-25T23:06:52.105;599616941009461609;8144.9106;175
2024-05-25T23:06:52.113;599616941017152772;8152.602;171
2024-05-25T23:06:52.121;599616941024843935;8160.2935;206
2024-05-25T23:06:52.128;599616941032535098;8167.985;238
2024-05-25T23:06:52.136;599616941040226261;8175.6753;238
2024-05-25T23:06:52.144;599616941047917424;8183.3667;247
2024-05-25T23:06:52.152;599616941055608587;8191.058;261
2024-05-25T23:06:52.159;599616941063299750;8198.749;243
2024-05-25T23:06:52.167;599616941070990913;8206.44;247
2024-05-25T23:06:52.175;599616941078682076;8214.131;303
2024-05-25T23:06:52.182;599616941086373239;8221.822;333
2024-05-25T23:06:52.190;599616941094064402;8229.514;298
2024-05-25T23:06:52.198;599616941101755565;8237.205;282
2024-05-25T23:06:52.205;599616941109446728;8244.896;321
2024-05-25T23:06:52.213;599616941117137891;8252.587;342
2024-05-25T23:06:52.221;599616941124829054;8260.278;331
2024-05-25T23:06:52.228;599616941132520217;8267.97;324
2024-05-25T23:06:52.236;599616941140211380;8275.661;289
2024-05-25T23:06:52.244;599616941147902543;8283.353;250
2024-05-25T23:06:52.252;599616941155593706;8291.043;240
2024-05-25T23:06:52.259;599616941163284869;8298.734;243
2024-05-25T23:06:52.267;599616941170976032;8306.426;256
2024-05-25T23:06:52.275;599616941178667195;8314.116;284
2024-05-25T23:06:52.282;599616941186358358;8321.808;289
2024-05-25T23:06:52.290;599616941194049521;8329.499;268
2024-05-25T23:06:52.298;599616941201740684;8337.189;259
2024-05-25T23:06:52.305;599616941209431847;8344.881;259
2024-05-25T23:06:52.313;599616941217123010;8352.572;254
2024-05-25T23:06:52.321;599616941224814173;8360.264;270
2024-05-25T23:06:52.328;599616941232505336;8367.955;296
2024-05-25T23:06:52.336;599616941240196499;8375.6455;284
2024-05-25T23:06:52.344;599616941247887662;8383.337;226
2024-05-25T23:06:52.352;599616941255578825;8391.028;166
2024-05-25T23:06:52.359;599616941263269988;8398.72;159
2024-05-25T23:06:52.367;599616941270961151;8406.411;310
2024-05-25T23:06:52.375;599616941278652314;8414.102;662
2024-05-25T23:06:52.382;599616941286358532;8421.809;939
2024-05-25T23:06:52.390;599616941294049486;8429.499;738
2024-05-25T23:06:52.398;599616941301740440;8437.189;222
2024-05-25T23:06:52.405;599616941309431394;8444.881;-16
2024-05-25T23:06:52.413;599616941317122348;8452.571;94
2024-05-25T23:06:52.421;599616941324813302;8460.263;115
2024-05-25T23:06:52.428;599616941332504256;8467.954;-27
2024-05-25T23:06:52.436;599616941340195210;8475.645;-71
2024-05-25T23:06:52.444;599616941347886164;8483.336;-11
2024-05-25T23:06:52.452;599616941355577118;8491.026;4
2024-05-25T23:06:52.459;599616941363268072;8498.717;-4
2024-05-25T23:06:52.467;599616941370959026;8506.408;18
2024-05-25T23:06:52.475;599616941378649980;8514.1;46
2024-05-25T23:06:52.482;599616941386340934;8521.79;50
2024-05-25T23:06:52.490;599616941394031888;8529.481;57
2024-05-25T23:06:52.498;599616941401722842;8537.172;94
2024-05-25T23:06:52.505;599616941409413796;8544.863;145
2024-05-25T23:06:52.513;599616941417104750;8552.554;169
2024-05-25T23:06:52.521;599616941424795704;8560.245;155
2024-05-25T23:06:52.528;599616941432486658;8567.936;120
2024-05-25T23:06:52.536;599616941440177612;8575.627;83
2024-05-25T23:06:52.544;599616941447868566;8583.318;18
2024-05-25T23:06:52.552;599616941455559520;8591.009;-43
2024-05-25T23:06:52.559;599616941463250474;8598.7;-32
2024-05-25T23:06:52.567;599616941470941428;8606.392;18
2024-05-25T23:06:52.575;599616941478632382;8614.081;27
2024-05-25T23:06:52.582;599616941486323336;8621.772;30
2024-05-25T23:06:52.590;599616941494014290;8629.464;83
2024-05-25T23:06:52.598;599616941501705244;8637.154;138
2024-05-25T23:06:52.605;599616941509396198;8644.846;127
2024-05-25T23:06:52.613;599616941517087152;8652.537;104
2024-05-25T23:06:52.621;599616941524778106;8660.228;150
2024-05-25T23:06:52.628;599616941532469060;8667.918;201
2024-05-25T23:06:52.636;599616941540160014;8675.609;189
2024-05-25T23:06:52.644;599616941547850968;8683.3;199
2024-05-25T23:06:52.651;599616941555541922;8690.991;245
2024-05-25T23:06:52.659;599616941563232876;8698.683;254
2024-05-25T23:06:52.667;599616941570923830;8706.374;250
2024-05-25T23:06:52.675;599616941578614784;8714.063;277
2024-05-25T23:06:52.682;599616941586305738;8721.755;314
2024-05-25T23:06:52.690;599616941593996692;8729.446;326
2024-05-25T23:06:52.698;599616941601687646;8737.137;331
2024-05-25T23:06:52.705;599616941609378600;8744.828;331
2024-05-25T23:06:52.713;599616941617069554;8752.52;340
2024-05-25T23:06:52.721;599616941624760508;8760.209;370
2024-05-25T23:06:52.728;599616941632451462;8767.9;388
2024-05-25T23:06:52.736;599616941640142416;8775.592;379
2024-05-25T23:06:52.744;599616941647833370;8783.283;358
2024-05-25T23:06:52.751;599616941655524324;8790.974;314
2024-05-25T23:06:52.759;599616941663215278;8798.665;275
2024-05-25T23:06:52.767;599616941670906232;8806.356;275
2024-05-25T23:06:52.775;599616941678597186;8814.046;277
2024-05-25T23:06:52.782;599616941686288140;8821.737;250
2024-05-25T23:06:52.790;599616941693979094;8829.429;226
2024-05-25T23:06:52.798;599616941701670048;8837.119;224
2024-05-25T23:06:52.805;599616941709361002;8844.811;238
2024-05-25T23:06:52.813;599616941717051956;8852.502;270
2024-05-25T23:06:52.821;599616941724742910;8860.192;289
2024-05-25T23:06:52.828;599616941732433864;8867.883;280
2024-05-25T23:06:52.836;599616941740124818;8875.574;282
2024-05-25T23:06:52.844;599616941747815772;8883.266;303
2024-05-25T23:06:52.851;599616941755506726;8890.956;303
2024-05-25T23:06:52.859;599616941763197680;8898.647;261
2024-05-25T23:06:52.867;599616941770888634;8906.338;199
2024-05-25T23:06:52.875;599616941778579588;8914.028;194
2024-05-25T23:06:52.882;599616941786270542;8921.72;328
2024-05-25T23:06:52.890;599616941793961496;8929.411;657
2024-05-25T23:06:52.898;599616941801652450;8937.102;958
2024-05-25T23:06:52.905;599616941809343404;8944.793;812
2024-05-25T23:06:52.913;599616941817034358;8952.483;307
2024-05-25T23:06:52.921;599616941824725312;8960.175;50
2024-05-25T23:06:52.928;599616941832416266;8967.865;138
2024-05-25T23:06:52.936;599616941840107220;8975.557;136
2024-05-25T23:06:52.944;599616941847768082;8983.217;46
2024-05-25T23:06:52.951;599616941855459454;8990.908;90
2024-05-25T23:06:52.959;599616941863150826;8998.6;152
2024-05-25T23:06:52.967;599616941870842198;9006.292;136
2024-05-25T23:06:52.974;599616941878533570;9013.983;131
2024-05-25T23:06:52.982;599616941886224942;9021.675;155
2024-05-25T23:06:52.990;599616941893916314;9029.366;171
2024-05-25T23:06:52.998;599616941901607686;9037.057;129
2024-05-25T23:06:53.005;599616941909299058;9044.748;67
2024-05-25T23:06:53.013;599616941916990430;9052.439;81
2024-05-25T23:06:53.021;599616941924681802;9060.131;101
2024-05-25T23:06:53.028;599616941932373174;9067.822;48
2024-05-25T23:06:53.036;599616941940064546;9075.515;23
2024-05-25T23:06:53.044;599616941947755918;9083.206;43
2024-05-25T23:06:53.051;599616941955447290;9090.896;2
2024-05-25T23:06:53.059;599616941963138662;9098.588;-43
2024-05-25T23:06:53.067;599616941970830034;9106.279;2
2024-05-25T23:06:53.074;599616941978521406;9113.971;62
2024-05-25T23:06:53.082;599616941986212778;9121.662;64
2024-05-25T23:06:53.090;599616941993904150;9129.354;62
2024-05-25T23:06:53.098;599616942001595522;9137.045;99
2024-05-25T23:06:53.105;599616942009286894;9144.735;152
2024-05-25T23:06:53.113;599616942016978266;9152.428;180
2024-05-25T23:06:53.121;599616942024669638;9160.119;173
2024-05-25T23:06:53.128;599616942032361010;9167.811;178
2024-05-25T23:06:53.136;599616942040052382;9175.502;217
2024-05-25T23:06:53.144;599616942047743754;9183.193;240
2024-05-25T23:06:53.151;599616942055435126;9190.885;240
2024-05-25T23:06:53.159;599616942063126498;9198.575;259
2024-05-25T23:06:53.167;599616942070817870;9206.267;284
2024-05-25T23:06:53.174;599616942078509242;9213.958;296
2024-05-25T23:06:53.182;599616942086200614;9221.65;312
2024-05-25T23:06:53.190;599616942093891986;9229.342;340
2024-05-25T23:06:53.198;599616942101583358;9237.033;368
2024-05-25T23:06:53.205;599616942109274730;9244.725;377
2024-05-25T23:06:53.213;599616942116966102;9252.415;361
2024-05-25T23:06:53.221;599616942124657474;9260.106;363
2024-05-25T23:06:53.228;599616942132348846;9267.798;405
2024-05-25T23:06:53.236;599616942140040218;9275.489;439
2024-05-25T23:06:53.244;599616942147731590;9283.181;444
2024-05-25T23:06:53.251;599616942155422962;9290.873;435
2024-05-25T23:06:53.259;599616942163114334;9298.564;419
2024-05-25T23:06:53.267;599616942170805706;9306.255;368
2024-05-25T23:06:53.274;599616942178497078;9313.946;300
2024-05-25T23:06:53.282;599616942186188450;9321.638;282
2024-05-25T23:06:53.290;599616942193879822;9329.329;321
2024-05-25T23:06:53.298;599616942201571194;9337.0205;326
2024-05-25T23:06:53.305;599616942209262566;9344.712;296
2024-05-25T23:06:53.313;599616942216953938;9352.403;324
2024-05-25T23:06:53.321;599616942224645310;9360.094;370
2024-05-25T23:06:53.328;599616942232336682;9367.786;347
2024-05-25T23:06:53.336;599616942240028054;9375.478;333
2024-05-25T23:06:53.344;599616942247719426;9383.169;372
2024-05-25T23:06:53.351;599616942255410798;9390.86;377
2024-05-25T23:06:53.359;599616942263102170;9398.552;349
2024-05-25T23:06:53.367;599616942270793542;9406.243;361
2024-05-25T23:06:53.374;599616942278484914;9413.934;368
2024-05-25T23:06:53.382;599616942286176286;9421.625;307
2024-05-25T23:06:53.390;599616942293867658;9429.316;305
2024-05-25T23:06:53.398;599616942301559030;9437.009;560
2024-05-25T23:06:53.405;599616942309250402;9444.7;933
2024-05-25T23:06:53.413;599616942316941774;9452.392;967
2024-05-25T23:06:53.421;599616942324633146;9460.083;541
2024-05-25T23:06:53.428;599616942332324518;9467.774;162
2024-05-25T23:06:53.436;599616942340015890;9475.465;164
2024-05-25T23:06:53.444;599616942347707262;9483.156;215
2024-05-25T23:06:53.451;599616942355398634;9490.848;129
2024-05-25T23:06:53.459;599616942363090006;9498.539;111
2024-05-25T23:06:53.467;599616942370781378;9506.23;157
2024-05-25T23:06:53.474;599616942378472750;9513.923;169
2024-05-25T23:06:53.482;599616942386164122;9521.614;152
2024-05-25T23:06:53.490;599616942393855494;9529.305;141
2024-05-25T23:06:53.497;599616942401546866;9536.996;155
2024-05-25T23:06:53.505;599616942409268342;9544.718;194
2024-05-25T23:06:53.513;599616942416959296;9552.408;208
2024-05-25T23:06:53.521;599616942424650250;9560.1;185
2024-05-25T23:06:53.528;599616942432341204;9567.79;171
2024-05-25T23:06:53.536;599616942440032158;9575.481;134
2024-05-25T23:06:53.544;599616942447723112;9583.173;48
2024-05-25T23:06:53.551;599616942455414066;9590.864;-9
2024-05-25T23:06:53.559;599616942463105020;9598.554;-11
2024-05-25T23:06:53.567;599616942470795974;9606.245;6
2024-05-25T23:06:53.574;599616942478486928;9613.937;11
2024-05-25T23:06:53.582;599616942486177882;9621.627;-6
2024-05-25T23:06:53.590;599616942493868836;9629.318;16
2024-05-25T23:06:53.598;599616942501559790;9637.01;69
2024-05-25T23:06:53.605;599616942509250744;9644.699;87
2024-05-25T23:06:53.613;599616942516941698;9652.391;108
2024-05-25T23:06:53.621;599616942524632652;9660.082;145
2024-05-25T23:06:53.628;599616942532323606;9667.773;159
2024-05-25T23:06:53.636;599616942540014560;9675.464;166
2024-05-25T23:06:53.644;599616942547705514;9683.155;187
2024-05-25T23:06:53.651;599616942555396468;9690.847;206
2024-05-25T23:06:53.659;599616942563087422;9698.536;217
2024-05-25T23:06:53.667;599616942570778376;9706.228;229
2024-05-25T23:06:53.674;599616942578469330;9713.919;245
2024-05-25T23:06:53.682;599616942586160284;9721.609;263
2024-05-25T23:06:53.690;599616942593851238;9729.301;275
2024-05-25T23:06:53.697;599616942601542192;9736.992;287
2024-05-25T23:06:53.705;599616942609233146;9744.683;321
2024-05-25T23:06:53.713;599616942616924100;9752.373;347
2024-05-25T23:06:53.721;599616942624615054;9760.064;338
2024-05-25T23:06:53.728;599616942632306008;9767.756;331
2024-05-25T23:06:53.736;599616942639996962;9775.446;358
2024-05-25T23:06:53.744;599616942647687916;9783.138;386
2024-05-25T23:06:53.751;599616942655378870;9790.828;386
2024-05-25T23:06:53.759;599616942663069824;9798.519;358
2024-05-25T23:06:53.767;599616942670760778;9806.21;312
2024-05-25T23:06:53.774;599616942678451732;9813.901;245
2024-05-25T23:06:53.782;599616942686142686;9821.592;187
2024-05-25T23:06:53.790;599616942693833640;9829.283;185
2024-05-25T23:06:53.797;599616942701524594;9836.974;231
2024-05-25T23:06:53.805;599616942709215548;9844.665;245
2024-05-25T23:06:53.813;599616942716906502;9852.355;203
2024-05-25T23:06:53.821;599616942724597456;9860.047;187
2024-05-25T23:06:53.828;599616942732288410;9867.738;229
2024-05-25T23:06:53.836;599616942739979364;9875.429;259
2024-05-25T23:06:53.844;599616942747670318;9883.119;254
2024-05-25T23:06:53.851;599616942755361272;9890.811;263
2024-05-25T23:06:53.859;599616942763052226;9898.501;273
2024-05-25T23:06:53.867;599616942770743180;9906.192;259
2024-05-25T23:06:53.874;599616942778434134;9913.884;259
2024-05-25T23:06:53.882;599616942786125088;9921.575;270
2024-05-25T23:06:53.890;599616942793816042;9929.266;217
2024-05-25T23:06:53.897;599616942801506996;9936.956;127
2024-05-25T23:06:53.905;599616942809197950;9944.647;196
2024-05-25T23:06:53.913;599616942816888904;9952.338;534
2024-05-25T23:06:53.921;599616942824579858;9960.029;891
2024-05-25T23:06:53.928;599616942832270812;9967.721;801
2024-05-25T23:06:53.936;599616942839961766;9975.411;312
2024-05-25T23:06:53.944;599616942847652720;9983.102;6
2024-05-25T23:06:53.951;599616942855343674;9990.793;41
2024-05-25T23:06:53.959;599616942863034628;9998.484;55
2024-05-25T23:06:53.967;599616942870725582;10006.175;-32
2024-05-25T23:06:53.974;599616942878416536;10013.866;-6
2024-05-25T23:06:53.982;599616942886107490;10021.558;76
2024-05-25T23:06:53.990;599616942893798444;10029.247;60
2024-05-25T23:06:53.997;599616942901489398;10036.938;9
2024-05-25T23:06:54.005;599616942909180352;10044.63;11
2024-05-25T23:06:54.013;599616942916871306;10052.32;9
2024-05-25T23:06:54.021;599616942924562260;10060.012;-2
2024-05-25T23:06:54.028;599616942932253214;10067.703;23
2024-05-25T23:06:54.036;599616942939944168;10075.393;50
2024-05-25T23:06:54.044;599616942947635122;10083.084;53
2024-05-25T23:06:54.051;599616942955326076;10090.775;46
2024-05-25T23:06:54.059;599616942963017030;10098.467;46
2024-05-25T23:06:54.067;599616942970677892;10106.127;20
2024-05-25T23:06:54.074;599616942978369264;10113.818;-6
2024-05-25T23:06:54.082;599616942986060636;10121.51;-11
2024-05-25T23:06:54.090;599616942993752008;10129.201;-9
2024-05-25T23:06:54.097;599616943001443380;10136.893;18
2024-05-25T23:06:54.105;599616943009134752;10144.584;46
2024-05-25T23:06:54.113;599616943016826124;10152.276;20
2024-05-25T23:06:54.120;599616943024517496;10159.967;13
2024-05-25T23:06:54.128;599616943032208868;10167.658;57
2024-05-25T23:06:54.136;599616943039900240;10175.35;43
2024-05-25T23:06:54.144;599616943047591612;10183.041;-25
2024-05-25T23:06:54.151;599616943055282984;10190.732;-20
2024-05-25T23:06:54.159;599616943062974356;10198.424;30
2024-05-25T23:06:54.167;599616943070665728;10206.115;34
2024-05-25T23:06:54.174;599616943078357100;10213.806;25
2024-05-25T23:06:54.182;599616943086048472;10221.497;53
2024-05-25T23:06:54.190;599616943093739844;10229.189;94
2024-05-25T23:06:54.197;599616943101431216;10236.881;118
2024-05-25T23:06:54.205;599616943109122588;10244.572;136
2024-05-25T23:06:54.213;599616943116813960;10252.264;169
2024-05-25T23:06:54.220;599616943124505332;10259.955;203
2024-05-25T23:06:54.228;599616943132196704;10267.6455;206
2024-05-25T23:06:54.236;599616943139888076;10275.337;192
2024-05-25T23:06:54.244;599616943147579448;10283.028;219
2024-05-25T23:06:54.251;599616943155270820;10290.72;236
2024-05-25T23:06:54.259;599616943162962192;10298.412;182
2024-05-25T23:06:54.267;599616943170653564;10306.104;148
2024-05-25T23:06:54.274;599616943178344936;10313.795;175
2024-05-25T23:06:54.282;599616943186036308;10321.485;199
2024-05-25T23:06:54.290;599616943193727680;10329.177;192
2024-05-25T23:06:54.297;599616943201419052;10336.868;169
2024-05-25T23:06:54.305;599616943209110424;10344.56;152
2024-05-25T23:06:54.313;599616943216801796;10352.251;155
2024-05-25T23:06:54.320;599616943224493168;10359.942;152
2024-05-25T23:06:54.328;599616943232184540;10367.634;155
2024-05-25T23:06:54.336;599616943239875912;10375.326;192
2024-05-25T23:06:54.344;599616943247567284;10383.017;217
2024-05-25T23:06:54.351;599616943255258656;10390.708;208
2024-05-25T23:06:54.359;599616943262950028;10398.399;222
2024-05-25T23:06:54.367;599616943270641400;10406.091;240
2024-05-25T23:06:54.374;599616943278332772;10413.782;217
2024-05-25T23:06:54.382;599616943286024144;10421.474;201
2024-05-25T23:06:54.390;599616943293715516;10429.164;222
2024-05-25T23:06:54.397;599616943301406888;10436.855;229
2024-05-25T23:06:54.405;599616943309098260;10444.548;210
2024-05-25T23:06:54.413;599616943316789632;10452.239;236
2024-05-25T23:06:54.420;599616943324481004;10459.931;460
2024-05-25T23:06:54.428;599616943332172376;10467.622;840
2024-05-25T23:06:54.436;599616943339863748;10475.313;912
2024-05-25T23:06:54.444;599616943347555120;10483.005;458
2024-05-25T23:06:54.451;599616943355246492;10490.695;11
2024-05-25T23:06:54.459;599616943362937864;10498.387;-25
2024-05-25T23:06:54.467;599616943370629236;10506.078;39
2024-05-25T23:06:54.474;599616943378320608;10513.77;-13
2024-05-25T23:06:54.482;599616943386011980;10521.462;-6
2024-05-25T23:06:54.490;599616943393703352;10529.153;60
2024-05-25T23:06:54.497;599616943401394724;10536.845;32
2024-05-25T23:06:54.505;599616943409086096;10544.535;-34
2024-05-25T23:06:54.513;599616943416777468;10552.227;-25
2024-05-25T23:06:54.520;599616943424468840;10559.918;18
2024-05-25T23:06:54.528;599616943432160212;10567.609;27
2024-05-25T23:06:54.536;599616943439851584;10575.301;39
2024-05-25T23:06:54.543;599616943447542956;10582.992;78
2024-05-25T23:06:54.551;599616943455234328;10590.685;99
2024-05-25T23:06:54.559;599616943462925700;10598.375;94
2024-05-25T23:06:54.567;599616943470617072;10606.066;64
2024-05-25T23:06:54.574;599616943478308444;10613.758;37
2024-05-25T23:06:54.582;599616943485999816;10621.449;57
2024-05-25T23:06:54.590;599616943493691188;10629.141;74
2024-05-25T23:06:54.597;599616943501382560;10636.832;67
2024-05-25T23:06:54.605;599616943509073932;10644.523;101
2024-05-25T23:06:54.613;599616943516765304;10652.214;141
2024-05-25T23:06:54.620;599616943524456676;10659.905;143
2024-05-25T23:06:54.628;599616943532148056;10667.598;162
2024-05-25T23:06:54.636;599616943539839428;10675.289;203
2024-05-25T23:06:54.643;599616943547530800;10682.98;217
2024-05-25T23:06:54.651;599616943555222172;10690.672;201
2024-05-25T23:06:54.659;599616943562913544;10698.363;206
2024-05-25T23:06:54.667;599616943570604916;10706.054;238
2024-05-25T23:06:54.674;599616943578296288;10713.745;254
2024-05-25T23:06:54.682;599616943585987660;10721.437;245
2024-05-25T23:06:54.690;599616943593679032;10729.128;240
2024-05-25T23:06:54.697;599616943601370404;10736.82;263
2024-05-25T23:06:54.705;599616943609061776;10744.512;275
2024-05-25T23:06:54.713;599616943616753148;10752.203;229
2024-05-25T23:06:54.720;599616943624444520;10759.894;199
2024-05-25T23:06:54.728;599616943632135892;10767.585;240
2024-05-25T23:06:54.736;599616943639827264;10775.276;266
2024-05-25T23:06:54.743;599616943647518636;10782.968;243
2024-05-25T23:06:54.751;599616943655210008;10790.659;213
2024-05-25T23:06:54.759;599616943662901380;10798.351;203
2024-05-25T23:06:54.767;599616943670592752;10806.043;219
2024-05-25T23:06:54.774;599616943678284124;10813.734;229
2024-05-25T23:06:54.782;599616943685975496;10821.425;219
2024-05-25T23:06:54.790;599616943693666868;10829.116;238
2024-05-25T23:06:54.797;599616943701358240;10836.808;266
2024-05-25T23:06:54.805;599616943709049612;10844.499;261
2024-05-25T23:06:54.813;599616943716740984;10852.19;252
2024-05-25T23:06:54.820;599616943724432356;10859.882;247
2024-05-25T23:06:54.828;599616943732123728;10867.572;213
2024-05-25T23:06:54.836;599616943739815100;10875.264;178
2024-05-25T23:06:54.843;599616943747506472;10882.956;201
2024-05-25T23:06:54.851;599616943755197844;10890.647;250
2024-05-25T23:06:54.859;599616943762889216;10898.339;259
2024-05-25T23:06:54.867;599616943770580588;10906.03;243
2024-05-25T23:06:54.874;599616943778271960;10913.722;243
2024-05-25T23:06:54.882;599616943785963332;10921.413;252
2024-05-25T23:06:54.890;599616943793654704;10929.104;261
2024-05-25T23:06:54.897;599616943801346076;10936.795;263
2024-05-25T23:06:54.905;599616943809037448;10944.486;268
2024-05-25T23:06:54.913;599616943816728820;10952.179;252
2024-05-25T23:06:54.920;599616943824420192;10959.87;236
2024-05-25T23:06:54.928;599616943832111564;10967.562;370
2024-05-25T23:06:54.936;599616943839802936;10975.253;747
2024-05-25T23:06:54.943;599616943847494308;10982.943;1085
2024-05-25T23:06:54.951;599616943855185680;10990.635;933
2024-05-25T23:06:54.959;599616943862877052;10998.326;358
2024-05-25T23:06:54.967;599616943870568424;11006.018;0
2024-05-25T23:06:54.974;599616943878259796;11013.709;60
2024-05-25T23:06:54.982;599616943885951168;11021.4;85
2024-05-25T23:06:54.990;599616943893642540;11029.093;-30
2024-05-25T23:06:54.997;599616943901333912;11036.783;-53
2024-05-25T23:06:55.005;599616943909025284;11044.475;-37
2024-05-25T23:06:55.013;599616943916716656;11052.166;-71
2024-05-25T23:06:55.020;599616943924408028;11059.857;-57
2024-05-25T23:06:55.028;599616943932099400;11067.549;-2
2024-05-25T23:06:55.036;599616943939790772;11075.24;0
2024-05-25T23:06:55.043;599616943947482144;11082.932;-11
2024-05-25T23:06:55.051;599616943955173516;11090.622;25
2024-05-25T23:06:55.059;599616943962864888;11098.314;50
2024-05-25T23:06:55.067;599616943970556260;11106.006;4
2024-05-25T23:06:55.074;599616943978247632;11113.697;-53
2024-05-25T23:06:55.082;599616943985939004;11121.389;-34
2024-05-25T23:06:55.090;599616943993630376;11129.08;27
2024-05-25T23:06:55.097;599616944001321748;11136.771;43
2024-05-25T23:06:55.105;599616944009013120;11144.462;30
2024-05-25T23:06:55.113;599616944016704492;11152.153;46
2024-05-25T23:06:55.120;599616944024395864;11159.845;81
2024-05-25T23:06:55.128;599616944032087236;11167.536;97
2024-05-25T23:06:55.136;599616944039778608;11175.229;106
2024-05-25T23:06:55.143;599616944047469980;11182.92;129
2024-05-25T23:06:55.151;599616944055161352;11190.611;136
2024-05-25T23:06:55.159;599616944062852724;11198.302;127
2024-05-25T23:06:55.166;599616944070544096;11205.993;141
2024-05-25T23:06:55.174;599616944078235468;11213.685;187
2024-05-25T23:06:55.182;599616944085926840;11221.376;215
2024-05-25T23:06:55.190;599616944093648316;11229.098;192
2024-05-25T23:06:55.197;599616944101339270;11236.788;175
2024-05-25T23:06:55.205;599616944109030224;11244.4795;217
2024-05-25T23:06:55.213;599616944116721178;11252.171;259
2024-05-25T23:06:55.220;599616944124412132;11259.861;270
2024-05-25T23:06:55.228;599616944132103086;11267.553;289
2024-05-25T23:06:55.236;599616944139794040;11275.243;284
2024-05-25T23:06:55.243;599616944147484994;11282.935;208
2024-05-25T23:06:55.251;599616944155175948;11290.625;99
2024-05-25T23:06:55.259;599616944162866902;11298.316;69
2024-05-25T23:06:55.267;599616944170557856;11306.008;125
2024-05-25T23:06:55.274;599616944178248810;11313.698;162
2024-05-25T23:06:55.282;599616944185939764;11321.389;148
2024-05-25T23:06:55.290;599616944193630718;11329.08;145
2024-05-25T23:06:55.297;599616944201321672;11336.7705;171
2024-05-25T23:06:55.305;599616944209012626;11344.462;187
2024-05-25T23:06:55.313;599616944216703580;11352.153;189
2024-05-25T23:06:55.320;599616944224394534;11359.845;206
2024-05-25T23:06:55.328;599616944232085488;11367.534;231
2024-05-25T23:06:55.336;599616944239776442;11375.226;226
2024-05-25T23:06:55.343;599616944247467396;11382.917;201
2024-05-25T23:06:55.351;599616944255158350;11390.607;192
2024-05-25T23:06:55.359;599616944262849304;11398.299;203
2024-05-25T23:06:55.366;599616944270540258;11405.99;210
2024-05-25T23:06:55.374;599616944278231212;11413.68;199
2024-05-25T23:06:55.382;599616944285922166;11421.371;187
2024-05-25T23:06:55.390;599616944293613120;11429.0625;201
2024-05-25T23:06:55.397;599616944301304074;11436.754;215
2024-05-25T23:06:55.405;599616944308995028;11444.444;215
2024-05-25T23:06:55.413;599616944316685982;11452.136;229
2024-05-25T23:06:55.420;599616944324376936;11459.827;238
2024-05-25T23:06:55.428;599616944332067890;11467.517;196
2024-05-25T23:06:55.436;599616944339758844;11475.208;178
2024-05-25T23:06:55.443;599616944347449798;11482.899;351
2024-05-25T23:06:55.451;599616944355140752;11490.59;754
2024-05-25T23:06:55.459;599616944362831706;11498.281;1071
2024-05-25T23:06:55.466;599616944370522660;11505.973;889
2024-05-25T23:06:55.474;599616944378213614;11513.663;342
2024-05-25T23:06:55.482;599616944385904568;11521.354;6
2024-05-25T23:06:55.490;599616944393595522;11529.045;4
2024-05-25T23:06:55.497;599616944401286476;11536.736;-2
2024-05-25T23:06:55.505;599616944408977430;11544.427;-60
2024-05-25T23:06:55.513;599616944416668384;11552.118;-53
2024-05-25T23:06:55.520;599616944424359338;11559.809;-48
2024-05-25T23:06:55.528;599616944432050292;11567.499;-57
2024-05-25T23:06:55.536;599616944439741246;11575.19;-23
2024-05-25T23:06:55.543;599616944447432200;11582.882;9
2024-05-25T23:06:55.551;599616944455123154;11590.572;6
2024-05-25T23:06:55.559;599616944462814108;11598.264;16
2024-05-25T23:06:55.566;599616944470505062;11605.954;30
2024-05-25T23:06:55.574;599616944478196016;11613.6455;-25
2024-05-25T23:06:55.582;599616944485886970;11621.336;-113
2024-05-25T23:06:55.590;599616944493577924;11629.027;-101
2024-05-25T23:06:55.597;599616944501268878;11636.719;-27
2024-05-25T23:06:55.605;599616944508959832;11644.409;-16
2024-05-25T23:06:55.613;599616944516650786;11652.1;-25
2024-05-25T23:06:55.620;599616944524341740;11659.791;0
2024-05-25T23:06:55.628;599616944532032694;11667.481;37
2024-05-25T23:06:55.636;599616944539723648;11675.173;60
2024-05-25T23:06:55.643;599616944547414602;11682.864;71
2024-05-25T23:06:55.651;599616944555105556;11690.556;85
2024-05-25T23:06:55.659;599616944562796510;11698.246;99
2024-05-25T23:06:55.666;599616944570487464;11705.937;99
2024-05-25T23:06:55.674;599616944578178418;11713.628;101
2024-05-25T23:06:55.682;599616944585869372;11721.318;120
2024-05-25T23:06:55.690;599616944593560326;11729.01;159
2024-05-25T23:06:55.697;599616944601251280;11736.701;171
2024-05-25T23:06:55.705;599616944608942234;11744.392;138
2024-05-25T23:06:55.713;599616944616633188;11752.082;136
2024-05-25T23:06:55.720;599616944624324142;11759.773;185
2024-05-25T23:06:55.728;599616944632015096;11767.465;210
2024-05-25T23:06:55.736;599616944639706050;11775.155;185
2024-05-25T23:06:55.743;599616944647397004;11782.847;164
2024-05-25T23:06:55.751;599616944655087962;11790.538;171
2024-05-25T23:06:55.759;599616944662778916;11798.228;169
2024-05-25T23:06:55.766;599616944670469870;11805.919;169
2024-05-25T23:06:55.774;599616944678160824;11813.61;203
2024-05-25T23:06:55.782;599616944685851778;11821.301;231
2024-05-25T23:06:55.789;599616944693542732;11828.992;222
2024-05-25T23:06:55.797;599616944701233686;11836.684;210
2024-05-25T23:06:55.805;599616944708924640;11844.373;222
2024-05-25T23:06:55.813;599616944716615594;11852.064;226
2024-05-25T23:06:55.820;599616944724306548;11859.756;175
2024-05-25T23:06:55.828;599616944731997502;11867.447;122
2024-05-25T23:06:55.836;599616944739688456;11875.138;143
2024-05-25T23:06:55.843;599616944747379410;11882.829;166
2024-05-25T23:06:55.851;599616944755070364;11890.5205;127
2024-05-25T23:06:55.859;599616944762761318;11898.21;97
2024-05-25T23:06:55.866;599616944770452272;11905.901;104
2024-05-25T23:06:55.874;599616944778143226;11913.593;115
2024-05-25T23:06:55.882;599616944785834180;11921.283;111
2024-05-25T23:06:55.889;599616944793525134;11928.975;99
2024-05-25T23:06:55.897;599616944801216088;11936.666;104
2024-05-25T23:06:55.905;599616944808907042;11944.356;118
2024-05-25T23:06:55.913;599616944816597996;11952.047;127
2024-05-25T23:06:55.920;599616944824288950;11959.738;141
2024-05-25T23:06:55.928;599616944831979904;11967.43;155
2024-05-25T23:06:55.936;599616944839670858;11975.12;134
2024-05-25T23:06:55.943;599616944847361812;11982.812;87
2024-05-25T23:06:55.951;599616944855052766;11990.502;99
2024-05-25T23:06:55.959;599616944862743720;11998.192;291
2024-05-25T23:06:55.966;599616944870434674;12005.884;676
2024-05-25T23:06:55.974;599616944878125628;12013.575;970
2024-05-25T23:06:55.982;599616944885816582;12021.267;757
2024-05-25T23:06:55.989;599616944893507536;12028.957;169
2024-05-25T23:06:55.997;599616944901198490;12036.647;-182
2024-05-25T23:06:56.005;599616944908889444;12044.339;-150
2024-05-25T23:06:56.013;599616944916580398;12052.029;-115
2024-05-25T23:06:56.020;599616944924271352;12059.721;-180
2024-05-25T23:06:56.028;599616944931962306;12067.412;-206
2024-05-25T23:06:56.036;599616944939653260;12075.103;-189
2024-05-25T23:06:56.043;599616944947344214;12082.794;-164
2024-05-25T23:06:56.051;599616944955035168;12090.484;-138
2024-05-25T23:06:56.059;599616944962726122;12098.175;-127
2024-05-25T23:06:56.066;599616944970417076;12105.866;-108
2024-05-25T23:06:56.074;599616944978108030;12113.558;-113
2024-05-25T23:06:56.082;599616944985798984;12121.249;-185
2024-05-25T23:06:56.089;599616944993489938;12128.939;-256
2024-05-25T23:06:56.097;599616945001180892;12136.63;-236
2024-05-25T23:06:56.105;599616945008871846;12144.321;-157
2024-05-25T23:06:56.113;599616945016562800;12152.012;-122
2024-05-25T23:06:56.120;599616945024253754;12159.703;-141
2024-05-25T23:06:56.128;599616945031944708;12167.395;-138
2024-05-25T23:06:56.136;599616945039635662;12175.085;-87
2024-05-25T23:06:56.143;599616945047326616;12182.775;-48
2024-05-25T23:06:56.151;599616945055017570;12190.467;-48
2024-05-25T23:06:56.159;599616945062708524;12198.158;-25
2024-05-25T23:06:56.166;599616945070399478;12205.849;16
2024-05-25T23:06:56.174;599616945078090432;12213.54;16
2024-05-25T23:06:56.182;599616945085781386;12221.231;9
2024-05-25T23:06:56.189;599616945093472340;12228.921;53
2024-05-25T23:06:56.197;599616945101163294;12236.612;108
2024-05-25T23:06:56.205;599616945108854248;12244.304;106
2024-05-25T23:06:56.212;599616945116545202;12251.994;85
2024-05-25T23:06:56.220;599616945124236156;12259.686;92
2024-05-25T23:06:56.228;599616945131927110;12267.377;85
2024-05-25T23:06:56.236;599616945139618064;12275.068;57
2024-05-25T23:06:56.243;599616945147309018;12282.758;71
2024-05-25T23:06:56.251;599616945154999972;12290.449;101
2024-05-25T23:06:56.259;599616945162690926;12298.141;115
2024-05-25T23:06:56.266;599616945170381880;12305.831;125
2024-05-25T23:06:56.274;599616945178072834;12313.522;136
2024-05-25T23:06:56.282;599616945185763788;12321.214;159
2024-05-25T23:06:56.289;599616945193454742;12328.903;199
2024-05-25T23:06:56.297;599616945201145696;12336.595;210
2024-05-25T23:06:56.305;599616945208836650;12344.286;189
2024-05-25T23:06:56.312;599616945216497512;12351.946;201
2024-05-25T23:06:56.320;599616945224188884;12359.638;236
2024-05-25T23:06:56.328;599616945231880256;12367.329;238
2024-05-25T23:06:56.336;599616945239571628;12375.0205;229
2024-05-25T23:06:56.343;599616945247263000;12382.713;250
2024-05-25T23:06:56.351;599616945254954372;12390.404;247
2024-05-25T23:06:56.359;599616945262645744;12398.096;187
2024-05-25T23:06:56.366;599616945270337116;12405.787;122
2024-05-25T23:06:56.374;599616945278028488;12413.478;104
2024-05-25T23:06:56.382;599616945285719860;12421.169;99
2024-05-25T23:06:56.389;599616945293411232;12428.86;87
2024-05-25T23:06:56.397;599616945301102604;12436.552;81
2024-05-25T23:06:56.405;599616945308793976;12444.243;92
2024-05-25T23:06:56.412;599616945316485348;12451.935;111
2024-05-25T23:06:56.420;599616945324176720;12459.627;118
2024-05-25T23:06:56.428;599616945331868092;12467.317;125
2024-05-25T23:06:56.436;599616945339559464;12475.009;150
2024-05-25T23:06:56.443;599616945347250836;12482.7;152
2024-05-25T23:06:56.451;599616945354942208;12490.392;115
2024-05-25T23:06:56.459;599616945362633580;12498.083;83
2024-05-25T23:06:56.466;599616945370324952;12505.774;131
2024-05-25T23:06:56.474;599616945378016324;12513.466;363
2024-05-25T23:06:56.482;599616945385707696;12521.156;736
2024-05-25T23:06:56.489;599616945393399068;12528.849;875
2024-05-25T23:06:56.497;599616945401090440;12536.54;504
2024-05-25T23:06:56.505;599616945408781812;12544.231;-4
2024-05-25T23:06:56.512;599616945416473184;12551.923;-157
2024-05-25T23:06:56.520;599616945424164556;12559.614;-78
2024-05-25T23:06:56.528;599616945431855928;12567.306;-87
2024-05-25T23:06:56.535;599616945439547300;12574.996;-125
2024-05-25T23:06:56.543;599616945447238672;12582.6875;-111
2024-05-25T23:06:56.551;599616945454930044;12590.379;-101
2024-05-25T23:06:56.559;599616945462621416;12598.07;-81
2024-05-25T23:06:56.566;599616945470312788;12605.763;-46
2024-05-25T23:06:56.574;599616945478004160;12613.454;-43
2024-05-25T23:06:56.582;599616945485695532;12621.1455;-64
2024-05-25T23:06:56.589;599616945493386904;12628.836;-125
2024-05-25T23:06:56.597;599616945501078276;12636.527;-189
2024-05-25T23:06:56.605;599616945508769648;12644.219;-164
2024-05-25T23:06:56.612;599616945516461020;12651.91;-99
2024-05-25T23:06:56.620;599616945524152392;12659.602;-92
2024-05-25T23:06:56.628;599616945531843764;12667.293;-92
2024-05-25T23:06:56.635;599616945539535136;12674.985;-53
2024-05-25T23:06:56.643;599616945547226508;12682.676;0
2024-05-25T23:06:56.651;599616945554917880;12690.367;43
2024-05-25T23:06:56.659;599616945562609252;12698.059;62
2024-05-25T23:06:56.666;599616945570300624;12705.75;37
2024-05-25T23:06:56.674;599616945577991996;12713.441;25
2024-05-25T23:06:56.682;599616945585683368;12721.133;67
2024-05-25T23:06:56.689;599616945593374740;12728.824;94
2024-05-25T23:06:56.697;599616945601066112;12736.515;104
2024-05-25T23:06:56.705;599616945608757484;12744.206;138
2024-05-25T23:06:56.712;599616945616448856;12751.898;150
2024-05-25T23:06:56.720;599616945624140228;12759.59;97
2024-05-25T23:06:56.728;599616945631831600;12767.281;67
2024-05-25T23:06:56.735;599616945639522972;12774.973;115
2024-05-25T23:06:56.743;599616945647214344;12782.664;169
2024-05-25T23:06:56.751;599616945654905716;12790.3545;180
2024-05-25T23:06:56.759;599616945662597088;12798.046;182
2024-05-25T23:06:56.766;599616945670288460;12805.737;185
2024-05-25T23:06:56.774;599616945677979832;12813.429;201
2024-05-25T23:06:56.782;599616945685671204;12821.121;224
2024-05-25T23:06:56.789;599616945693362576;12828.8125;243
2024-05-25T23:06:56.797;599616945701053948;12836.504;266
2024-05-25T23:06:56.805;599616945708745320;12844.194;289
2024-05-25T23:06:56.812;599616945716436692;12851.886;284
2024-05-25T23:06:56.820;599616945724128064;12859.577;268
2024-05-25T23:06:56.828;599616945731819436;12867.269;289
2024-05-25T23:06:56.835;599616945739510808;12874.96;310
2024-05-25T23:06:56.843;599616945747202180;12882.651;305
2024-05-25T23:06:56.851;599616945754893552;12890.344;312
2024-05-25T23:06:56.859;599616945762584924;12898.035;314
2024-05-25T23:06:56.866;599616945770276296;12905.726;307
2024-05-25T23:06:56.874;599616945777997770;12913.447;310
2024-05-25T23:06:56.882;599616945785688724;12921.138;310
2024-05-25T23:06:56.889;599616945793379678;12928.829;287
2024-05-25T23:06:56.897;599616945801070632;12936.52;259
2024-05-25T23:06:56.905;599616945808761586;12944.211;250
2024-05-25T23:06:56.912;599616945816452540;12951.902;256
2024-05-25T23:06:56.920;599616945824143494;12959.593;252
2024-05-25T23:06:56.928;599616945831834448;12967.284;215
2024-05-25T23:06:56.935;599616945839525402;12974.975;171
2024-05-25T23:06:56.943;599616945847216356;12982.665;169
2024-05-25T23:06:56.951;599616945854907310;12990.356;182
2024-05-25T23:06:56.959;599616945862598264;12998.048;152
2024-05-25T23:06:56.966;599616945870289218;13005.739;83
2024-05-25T23:06:56.974;599616945877980172;13013.43;90
2024-05-25T23:06:56.982;599616945885671126;13021.12;377
2024-05-25T23:06:56.989;599616945893362080;13028.812;845
2024-05-25T23:06:56.997;599616945901053034;13036.502;1025
2024-05-25T23:06:57.005;599616945908743988;13044.193;636
2024-05-25T23:06:57.012;599616945916434942;13051.885;78
2024-05-25T23:06:57.020;599616945924125896;13059.575;-83
2024-05-25T23:06:57.028;599616945931816850;13067.266;18
2024-05-25T23:06:57.035;599616945939507804;13074.957;-4
2024-05-25T23:06:57.043;599616945947198758;13082.648;-83
2024-05-25T23:06:57.051;599616945954889712;13090.339;-76
2024-05-25T23:06:57.059;599616945962580666;13098.03;-43
2024-05-25T23:06:57.066;599616945970271620;13105.722;-25
2024-05-25T23:06:57.074;599616945977962574;13113.411;-4
2024-05-25T23:06:57.082;599616945985653528;13121.103;-11
2024-05-25T23:06:57.089;599616945993344482;13128.794;-81
2024-05-25T23:06:57.097;599616946001035436;13136.484;-150
2024-05-25T23:06:57.105;599616946008726390;13144.176;-145
2024-05-25T23:06:57.112;599616946016417344;13151.867;-106
2024-05-25T23:06:57.120;599616946024108298;13159.559;-76
2024-05-25T23:06:57.128;599616946031799252;13167.248;-46
2024-05-25T23:06:57.135;599616946039490206;13174.939;-34
2024-05-25T23:06:57.143;599616946047181160;13182.631;-30
2024-05-25T23:06:57.151;599616946054872114;13190.321;0
2024-05-25T23:06:57.159;599616946062563068;13198.013;48
2024-05-25T23:06:57.166;599616946070254022;13205.704;81
2024-05-25T23:06:57.174;599616946077944976;13213.394;76
2024-05-25T23:06:57.182;599616946085635930;13221.085;69
2024-05-25T23:06:57.189;599616946093326884;13228.776;101
2024-05-25T23:06:57.197;599616946101017838;13236.468;131
2024-05-25T23:06:57.205;599616946108708792;13244.158;118
2024-05-25T23:06:57.212;599616946116399746;13251.85;87
2024-05-25T23:06:57.220;599616946124090700;13259.54;71
2024-05-25T23:06:57.228;599616946131781654;13267.23;57
2024-05-25T23:06:57.235;599616946139472608;13274.922;53
2024-05-25T23:06:57.243;599616946147163562;13282.613;87
2024-05-25T23:06:57.251;599616946154854516;13290.304;129
2024-05-25T23:06:57.258;599616946162545470;13297.995;131
2024-05-25T23:06:57.266;599616946170236424;13305.686;129
2024-05-25T23:06:57.274;599616946177927378;13313.376;155
2024-05-25T23:06:57.282;599616946185618332;13321.067;187
2024-05-25T23:06:57.289;599616946193309286;13328.759;194
2024-05-25T23:06:57.297;599616946201000240;13336.45;210
2024-05-25T23:06:57.305;599616946208691194;13344.141;254
2024-05-25T23:06:57.312;599616946216382148;13351.832;270
2024-05-25T23:06:57.320;599616946224073102;13359.522;247
2024-05-25T23:06:57.328;599616946231764056;13367.213;247
2024-05-25T23:06:57.335;599616946239455010;13374.904;280
2024-05-25T23:06:57.343;599616946247145964;13382.596;310
2024-05-25T23:06:57.351;599616946254836918;13390.286;310
2024-05-25T23:06:57.358;599616946262527872;13397.978;300
2024-05-25T23:06:57.366;599616946270218826;13405.668;296
2024-05-25T23:06:57.374;599616946277909780;13413.359;307
2024-05-25T23:06:57.382;599616946285600734;13421.05;324
2024-05-25T23:06:57.389;599616946293291688;13428.741;335
2024-05-25T23:06:57.397;599616946300982642;13436.433;335
2024-05-25T23:06:57.405;599616946308673596;13444.123;314
2024-05-25T23:06:57.412;599616946316364550;13451.813;277
2024-05-25T23:06:57.420;599616946324055504;13459.505;259
2024-05-25T23:06:57.428;599616946331746458;13467.195;289
2024-05-25T23:06:57.435;599616946339407322;13474.857;303
2024-05-25T23:06:57.443;599616946347098694;13482.548;280
2024-05-25T23:06:57.451;599616946354790066;13490.239;263
2024-05-25T23:06:57.458;599616946362481438;13497.931;229
2024-05-25T23:06:57.466;599616946370172810;13505.622;111
2024-05-25T23:06:57.474;599616946377864182;13513.313;0
2024-05-25T23:06:57.482;599616946385555554;13521.005;108
2024-05-25T23:06:57.489;599616946393246926;13528.696;502
2024-05-25T23:06:57.497;599616946400938298;13536.388;909
2024-05-25T23:06:57.505;599616946408629670;13544.079;900
2024-05-25T23:06:57.512;599616946416321042;13551.7705;421
2024-05-25T23:06:57.520;599616946424012414;13559.462;0
2024-05-25T23:06:57.528;599616946431703786;13567.153;-27
2024-05-25T23:06:57.535;599616946439395158;13574.845;4
2024-05-25T23:06:57.543;599616946447086530;13582.536;-90
2024-05-25T23:06:57.551;599616946454777902;13590.227;-111
2024-05-25T23:06:57.558;599616946462469274;13597.918;-78
2024-05-25T23:06:57.566;599616946470160646;13605.61;-90
2024-05-25T23:06:57.574;599616946477852018;13613.302;-67
2024-05-25T23:06:57.581;599616946485543390;13620.993;-13
2024-05-25T23:06:57.589;599616946493234762;13628.685;-20
2024-05-25T23:06:57.597;599616946500926134;13636.376;-94
2024-05-25T23:06:57.605;599616946508617506;13644.066;-138
2024-05-25T23:06:57.612;599616946516308878;13651.758;-99
2024-05-25T23:06:57.620;599616946524000250;13659.449;-64
2024-05-25T23:06:57.628;599616946531691622;13667.141;-55
2024-05-25T23:06:57.635;599616946539382994;13674.832;-20
2024-05-25T23:06:57.643;599616946547074366;13682.524;2
2024-05-25T23:06:57.651;599616946554765738;13690.216;6
2024-05-25T23:06:57.658;599616946562457110;13697.906;43
2024-05-25T23:06:57.666;599616946570148482;13705.598;92
2024-05-25T23:06:57.674;599616946577839854;13713.289;113
2024-05-25T23:06:57.681;599616946585531226;13720.98;108
2024-05-25T23:06:57.689;599616946593222598;13728.672;111
2024-05-25T23:06:57.697;599616946600913970;13736.363;122
2024-05-25T23:06:57.705;599616946608605342;13744.055;92
2024-05-25T23:06:57.712;599616946616296714;13751.746;57
2024-05-25T23:06:57.720;599616946623988086;13759.4375;94
2024-05-25T23:06:57.728;599616946631679458;13767.129;134
2024-05-25T23:06:57.735;599616946639370830;13774.82;120
2024-05-25T23:06:57.743;599616946647062202;13782.512;113
2024-05-25T23:06:57.751;599616946654753574;13790.203;150
2024-05-25T23:06:57.758;599616946662444946;13797.895;194
2024-05-25T23:06:57.766;599616946670136318;13805.585;224
2024-05-25T23:06:57.774;599616946677827690;13813.276;226
2024-05-25T23:06:57.781;599616946685519062;13820.968;224
2024-05-25T23:06:57.789;599616946693210434;13828.66;252
2024-05-25T23:06:57.797;599616946700901806;13836.352;275
2024-05-25T23:06:57.805;599616946708593178;13844.043;273
2024-05-25T23:06:57.812;599616946716284550;13851.734;291
2024-05-25T23:06:57.820;599616946723975922;13859.425;314
2024-05-25T23:06:57.828;599616946731667294;13867.116;300
2024-05-25T23:06:57.835;599616946739358666;13874.808;289
2024-05-25T23:06:57.843;599616946747050038;13882.499;326
2024-05-25T23:06:57.851;599616946754741410;13890.19;358
2024-05-25T23:06:57.858;599616946762432782;13897.883;347
2024-05-25T23:06:57.866;599616946770124154;13905.574;328
2024-05-25T23:06:57.874;599616946777815526;13913.266;331
2024-05-25T23:06:57.881;599616946785506898;13920.956;349
2024-05-25T23:06:57.889;599616946793198270;13928.647;365
2024-05-25T23:06:57.897;599616946800889642;13936.339;365
2024-05-25T23:06:57.905;599616946808581014;13944.03;363
2024-05-25T23:06:57.912;599616946816272386;13951.722;340
2024-05-25T23:06:57.920;599616946823963758;13959.413;284
2024-05-25T23:06:57.928;599616946831655130;13967.104;263
2024-05-25T23:06:57.935;599616946839346502;13974.796;289
2024-05-25T23:06:57.943;599616946847037874;13982.487;291
2024-05-25T23:06:57.951;599616946854729246;13990.179;256
2024-05-25T23:06:57.958;599616946862420618;13997.87;219
2024-05-25T23:06:57.966;599616946870111990;14005.562;189
2024-05-25T23:06:57.974;599616946877803362;14013.253;159
2024-05-25T23:06:57.981;599616946885494734;14020.944;243
2024-05-25T23:06:57.989;599616946893186106;14028.635;578
2024-05-25T23:06:57.997;599616946900907582;14036.357;1004
2024-05-25T23:06:58.005;599616946908598536;14044.049;1062
2024-05-25T23:06:58.012;599616946916289490;14051.738;606
2024-05-25T23:06:58.020;599616946923980444;14059.43;166
2024-05-25T23:06:58.028;599616946931671398;14067.121;134
2024-05-25T23:06:58.035;599616946939362352;14074.812;175
2024-05-25T23:06:58.043;599616946947053306;14082.503;60
2024-05-25T23:06:58.051;599616946954744260;14090.194;-4
2024-05-25T23:06:58.058;599616946962435214;14097.884;6
2024-05-25T23:06:58.066;599616946970126168;14105.575;-43
2024-05-25T23:06:58.074;599616946977817122;14113.267;-118
2024-05-25T23:06:58.081;599616946985508076;14120.957;-111
2024-05-25T23:06:58.089;599616946993199030;14128.648;-71
2024-05-25T23:06:58.097;599616947000889984;14136.34;-97
2024-05-25T23:06:58.105;599616947008580938;14144.03;-182
2024-05-25T23:06:58.112;599616947016271892;14151.721;-201
2024-05-25T23:06:58.120;599616947023962846;14159.412;-141
2024-05-25T23:06:58.128;599616947031653800;14167.104;-113
2024-05-25T23:06:58.135;599616947039344754;14174.794;-115
2024-05-25T23:06:58.143;599616947047035708;14182.485;-97
2024-05-25T23:06:58.151;599616947054726662;14190.176;-78
2024-05-25T23:06:58.158;599616947062417616;14197.866;-67
2024-05-25T23:06:58.166;599616947070108570;14205.558;-39
2024-05-25T23:06:58.174;599616947077799524;14213.249;-2
2024-05-25T23:06:58.181;599616947085490478;14220.94;20
2024-05-25T23:06:58.189;599616947093181432;14228.631;18
2024-05-25T23:06:58.197;599616947100872386;14236.322;-6
2024-05-25T23:06:58.205;599616947108563340;14244.013;-16
2024-05-25T23:06:58.212;599616947116254294;14251.703;16
2024-05-25T23:06:58.220;599616947123945248;14259.395;32
2024-05-25T23:06:58.228;599616947131636202;14267.086;23
2024-05-25T23:06:58.235;599616947139327156;14274.776;48
2024-05-25T23:06:58.243;599616947147018110;14282.468;78
2024-05-25T23:06:58.251;599616947154709064;14290.158;74
2024-05-25T23:06:58.258;599616947162400018;14297.85;90
2024-05-25T23:06:58.266;599616947170090972;14305.54;136
2024-05-25T23:06:58.274;599616947177781926;14313.231;166
2024-05-25T23:06:58.281;599616947185472880;14320.923;162
2024-05-25T23:06:58.289;599616947193163834;14328.613;155
2024-05-25T23:06:58.297;599616947200854788;14336.304;182
2024-05-25T23:06:58.304;599616947208545742;14343.995;213
2024-05-25T23:06:58.312;599616947216236696;14351.686;213
2024-05-25T23:06:58.320;599616947223927650;14359.377;222
2024-05-25T23:06:58.328;599616947231618604;14367.068;250
2024-05-25T23:06:58.335;599616947239309558;14374.76;252
2024-05-25T23:06:58.343;599616947247000512;14382.449;233
2024-05-25T23:06:58.351;599616947254691466;14390.141;243
2024-05-25T23:06:58.358;599616947262382420;14397.832;277
2024-05-25T23:06:58.366;599616947270073374;14405.522;287
2024-05-25T23:06:58.374;599616947277764328;14413.214;266
2024-05-25T23:06:58.381;599616947285455282;14420.905;256
2024-05-25T23:06:58.389;599616947293146236;14428.595;282
2024-05-25T23:06:58.397;599616947300837190;14436.286;300
2024-05-25T23:06:58.404;599616947308528144;14443.978;305
2024-05-25T23:06:58.412;599616947316219098;14451.668;324
2024-05-25T23:06:58.420;599616947323910052;14459.359;312
2024-05-25T23:06:58.428;599616947331601006;14467.051;245
2024-05-25T23:06:58.435;599616947339291960;14474.742;194
2024-05-25T23:06:58.443;599616947346982914;14482.432;169
2024-05-25T23:06:58.451;599616947354673868;14490.123;145
2024-05-25T23:06:58.458;599616947362364822;14497.814;136
2024-05-25T23:06:58.466;599616947370055776;14505.505;115
2024-05-25T23:06:58.474;599616947377746730;14513.196;74
2024-05-25T23:06:58.481;599616947385437684;14520.888;115
2024-05-25T23:06:58.489;599616947393128638;14528.577;368
2024-05-25T23:06:58.497;599616947400819592;14536.269;791
2024-05-25T23:06:58.504;599616947408510546;14543.96;1027
2024-05-25T23:06:58.512;599616947416201500;14551.651;731
2024-05-25T23:06:58.520;599616947423892454;14559.342;215
2024-05-25T23:06:58.528;599616947431583408;14567.033;57
2024-05-25T23:06:58.535;599616947439274362;14574.724;150
2024-05-25T23:06:58.543;599616947446965316;14582.414;97
2024-05-25T23:06:58.551;599616947454656270;14590.105;0
2024-05-25T23:06:58.558;599616947462347228;14597.797;-9
2024-05-25T23:06:58.566;599616947470038182;14605.487;-27
2024-05-25T23:06:58.574;599616947477729136;14613.179;-50
2024-05-25T23:06:58.581;599616947485420090;14620.87;-41
2024-05-25T23:06:58.589;599616947493111044;14628.561;-32
2024-05-25T23:06:58.597;599616947500801998;14636.251;-50
2024-05-25T23:06:58.604;599616947508492952;14643.942;-127
2024-05-25T23:06:58.612;599616947516183906;14651.634;-194
2024-05-25T23:06:58.620;599616947523874860;14659.324;-164
2024-05-25T23:06:58.628;599616947531565814;14667.016;-111
2024-05-25T23:06:58.635;599616947539256768;14674.706;-122
2024-05-25T23:06:58.643;599616947546947722;14682.396;-171
2024-05-25T23:06:58.651;599616947554638676;14690.088;-180
2024-05-25T23:06:58.658;599616947562329630;14697.779;-145
2024-05-25T23:06:58.666;599616947570020584;14705.47;-122
2024-05-25T23:06:58.674;599616947577711538;14713.161;-115
2024-05-25T23:06:58.681;599616947585402492;14720.852;-99
2024-05-25T23:06:58.689;599616947593093446;14728.543;-101
2024-05-25T23:06:58.697;599616947600784400;14736.233;-131
2024-05-25T23:06:58.704;599616947608475354;14743.925;-131
2024-05-25T23:06:58.712;599616947616166308;14751.616;-97
2024-05-25T23:06:58.720;599616947623857262;14759.307;-53
2024-05-25T23:06:58.727;599616947631548216;14766.997;-23
2024-05-25T23:06:58.735;599616947639239170;14774.688;-2
2024-05-25T23:06:58.743;599616947646930124;14782.379;23
2024-05-25T23:06:58.751;599616947654621078;14790.07;34
2024-05-25T23:06:58.758;599616947662312032;14797.762;41
2024-05-25T23:06:58.766;599616947670002986;14805.453;71
2024-05-25T23:06:58.774;599616947677693940;14813.143;122
2024-05-25T23:06:58.781;599616947685384894;14820.834;164
2024-05-25T23:06:58.789;599616947693075848;14828.525;173
2024-05-25T23:06:58.797;599616947700766802;14836.216;164
2024-05-25T23:06:58.804;599616947708457756;14843.907;185
2024-05-25T23:06:58.812;599616947716148710;14851.599;224
2024-05-25T23:06:58.820;599616947723839664;14859.289;240
2024-05-25T23:06:58.827;599616947731530618;14866.9795;245
2024-05-25T23:06:58.835;599616947739221572;14874.671;266
2024-05-25T23:06:58.843;599616947746912526;14882.362;280
2024-05-25T23:06:58.851;599616947754603480;14890.053;270
2024-05-25T23:06:58.858;599616947762294434;14897.744;277
2024-05-25T23:06:58.866;599616947769985388;14905.436;305
2024-05-25T23:06:58.874;599616947777676342;14913.125;326
2024-05-25T23:06:58.881;599616947785367296;14920.816;314
2024-05-25T23:06:58.889;599616947793058250;14928.508;303
2024-05-25T23:06:58.897;599616947800749204;14936.198;324
2024-05-25T23:06:58.904;599616947808440158;14943.89;358
2024-05-25T23:06:58.912;599616947816131112;14951.581;372
2024-05-25T23:06:58.920;599616947823822066;14959.271;388
2024-05-25T23:06:58.927;599616947831513020;14966.962;388
2024-05-25T23:06:58.935;599616947839203974;14974.653;314
2024-05-25T23:06:58.943;599616947846894928;14982.345;224
2024-05-25T23:06:58.951;599616947854585882;14990.035;226
2024-05-25T23:06:58.958;599616947862276836;14997.727;266
2024-05-25T23:06:58.966;599616947869967790;15005.417;263
2024-05-25T23:06:58.974;599616947877658744;15013.107;226
2024-05-25T23:06:58.981;599616947885349698;15020.799;185
2024-05-25T23:06:58.989;599616947893040652;15028.49;250
2024-05-25T23:06:58.997;599616947900731606;15036.181;557
2024-05-25T23:06:59.004;599616947908422560;15043.872;979
2024-05-25T23:06:59.012;599616947916113514;15051.563;1109
2024-05-25T23:06:59.020;599616947923804468;15059.254;729
2024-05-25T23:06:59.027;599616947931495422;15066.944;250
2024-05-25T23:06:59.035;599616947939186376;15074.636;175
2024-05-25T23:06:59.043;599616947946877330;15082.327;291
2024-05-25T23:06:59.051;599616947954568284;15090.018;224
2024-05-25T23:06:59.058;599616947962259238;15097.709;129
2024-05-25T23:06:59.066;599616947969950192;15105.399;134
2024-05-25T23:06:59.074;599616947977641146;15113.09;99
2024-05-25T23:06:59.081;599616947985332100;15120.781;55
2024-05-25T23:06:59.089;599616947993023054;15128.473;69
2024-05-25T23:06:59.097;599616948000714008;15136.164;60
2024-05-25T23:06:59.104;599616948008404962;15143.8545;-16
2024-05-25T23:06:59.112;599616948016095916;15151.545;-85
2024-05-25T23:06:59.120;599616948023756778;15159.206;-94
2024-05-25T23:06:59.127;599616948031448150;15166.897;-83
2024-05-25T23:06:59.135;599616948039139522;15174.589;-64
2024-05-25T23:06:59.143;599616948046830894;15182.28;-34
2024-05-25T23:06:59.150;599616948054522266;15189.972;-20
2024-05-25T23:06:59.158;599616948062213638;15197.663;-16
2024-05-25T23:06:59.166;599616948069905010;15205.3545;-2
2024-05-25T23:06:59.174;599616948077596382;15213.046;11
2024-05-25T23:06:59.181;599616948085287754;15220.737;6
2024-05-25T23:06:59.189;599616948092979126;15228.429;-6
2024-05-25T23:06:59.197;599616948100670498;15236.119;13
2024-05-25T23:06:59.204;599616948108361870;15243.811;20
2024-05-25T23:06:59.212;599616948116053242;15251.503;-41
2024-05-25T23:06:59.220;599616948123744614;15259.194;-69
2024-05-25T23:06:59.227;599616948131435986;15266.886;-16
2024-05-25T23:06:59.235;599616948139127358;15274.577;13
2024-05-25T23:06:59.243;599616948146818730;15282.269;-4
2024-05-25T23:06:59.250;599616948154510102;15289.959;6
2024-05-25T23:06:59.258;599616948162201474;15297.65;39
2024-05-25T23:06:59.266;599616948169892846;15305.342;46
2024-05-25T23:06:59.274;599616948177584218;15313.033;53
2024-05-25T23:06:59.281;599616948185275590;15320.725;92
2024-05-25T23:06:59.289;599616948192966962;15328.417;134
2024-05-25T23:06:59.297;599616948200658334;15336.108;145
2024-05-25T23:06:59.304;599616948208349706;15343.799;145
2024-05-25T23:06:59.312;599616948216041078;15351.49;164
2024-05-25T23:06:59.320;599616948223732450;15359.182;196
2024-05-25T23:06:59.327;599616948231423822;15366.873;213
2024-05-25T23:06:59.335;599616948239115194;15374.564;215
2024-05-25T23:06:59.343;599616948246806566;15382.256;231
2024-05-25T23:06:59.350;599616948254497938;15389.947;240
2024-05-25T23:06:59.358;599616948262189310;15397.64;236
2024-05-25T23:06:59.366;599616948269880682;15405.33;243
2024-05-25T23:06:59.374;599616948277572054;15413.021;270
2024-05-25T23:06:59.381;599616948285263426;15420.713;296
2024-05-25T23:06:59.389;599616948292954798;15428.404;284
2024-05-25T23:06:59.397;599616948300646170;15436.096;268
2024-05-25T23:06:59.404;599616948308337542;15443.787;291
2024-05-25T23:06:59.412;599616948316028914;15451.478;335
2024-05-25T23:06:59.420;599616948323720286;15459.169;358
2024-05-25T23:06:59.427;599616948331411658;15466.86;342
2024-05-25T23:06:59.435;599616948339103030;15474.553;305
2024-05-25T23:06:59.443;599616948346794402;15482.244;280
2024-05-25T23:06:59.450;599616948354485774;15489.936;250
2024-05-25T23:06:59.458;599616948362177146;15497.627;224
2024-05-25T23:06:59.466;599616948369868518;15505.318;238
2024-05-25T23:06:59.474;599616948377559890;15513.009;240
2024-05-25T23:06:59.481;599616948385251262;15520.7;185
2024-05-25T23:06:59.489;599616948392942634;15528.392;173
2024-05-25T23:06:59.497;599616948400634006;15536.083;398
2024-05-25T23:06:59.504;599616948408325378;15543.775;835
2024-05-25T23:06:59.512;599616948416016750;15551.467;1106
2024-05-25T23:06:59.520;599616948423708122;15559.158;872
2024-05-25T23:06:59.527;599616948431399494;15566.849;365
2024-05-25T23:06:59.535;599616948439090866;15574.54;145
2024-05-25T23:06:59.543;599616948446782238;15582.231;238
2024-05-25T23:06:59.550;599616948454473610;15589.923;256
2024-05-25T23:06:59.558;599616948462164982;15597.614;192
2024-05-25T23:06:59.566;599616948469856354;15605.306;189
2024-05-25T23:06:59.573;599616948477547726;15612.997;164
2024-05-25T23:06:59.581;599616948485239098;15620.688;99
2024-05-25T23:06:59.589;599616948492930470;15628.38;67
2024-05-25T23:06:59.597;599616948500621842;15636.071;55
2024-05-25T23:06:59.604;599616948508313214;15643.763;6
2024-05-25T23:06:59.612;599616948516004586;15651.454;-78
2024-05-25T23:06:59.620;599616948523695958;15659.1455;-111
2024-05-25T23:06:59.627;599616948531387330;15666.837;-99
2024-05-25T23:06:59.635;599616948539078702;15674.527;-97
2024-05-25T23:06:59.643;599616948546770074;15682.219;-60
2024-05-25T23:06:59.650;599616948554461446;15689.911;-11
2024-05-25T23:06:59.658;599616948562152818;15697.603;-9
2024-05-25T23:06:59.666;599616948569844190;15705.294;-25
2024-05-25T23:06:59.673;599616948577535562;15712.985;-43
2024-05-25T23:06:59.681;599616948585257038;15720.706;-62
2024-05-25T23:06:59.689;599616948592947992;15728.397;-53
2024-05-25T23:06:59.697;599616948600638946;15736.089;-32
2024-05-25T23:06:59.704;599616948608329900;15743.779;-6
2024-05-25T23:06:59.712;599616948616020854;15751.47;0
2024-05-25T23:06:59.720;599616948623711808;15759.161;-60
2024-05-25T23:06:59.727;599616948631402762;15766.853;-120
2024-05-25T23:06:59.735;599616948639093716;15774.543;-81
2024-05-25T23:06:59.743;599616948646784670;15782.234;-32
2024-05-25T23:06:59.750;599616948654475624;15789.926;-34
2024-05-25T23:06:59.758;599616948662166578;15797.615;-32
2024-05-25T23:06:59.766;599616948669857532;15805.307;-9
2024-05-25T23:06:59.773;599616948677548486;15812.998;20
2024-05-25T23:06:59.781;599616948685239440;15820.688;48
2024-05-25T23:06:59.789;599616948692930394;15828.38;76
2024-05-25T23:06:59.797;599616948700621348;15836.071;115
2024-05-25T23:06:59.804;599616948708312302;15843.762;148
2024-05-25T23:06:59.812;599616948716003256;15851.452;143
2024-05-25T23:06:59.820;599616948723694210;15859.144;138
2024-05-25T23:06:59.827;599616948731385164;15866.835;166
2024-05-25T23:06:59.835;599616948739076118;15874.525;201
2024-05-25T23:06:59.843;599616948746767072;15882.217;215
2024-05-25T23:06:59.850;599616948754458026;15889.907;229
2024-05-25T23:06:59.858;599616948762148980;15897.598;238
2024-05-25T23:06:59.866;599616948769839934;15905.289;231
2024-05-25T23:06:59.873;599616948777530888;15912.98;226
2024-05-25T23:06:59.881;599616948785221842;15920.671;250
2024-05-25T23:06:59.889;599616948792912796;15928.362;277
2024-05-25T23:06:59.897;599616948800603750;15936.054;282
2024-05-25T23:06:59.904;599616948808294704;15943.744;266
2024-05-25T23:06:59.912;599616948815985658;15951.435;268
2024-05-25T23:06:59.920;599616948823676612;15959.126;280
2024-05-25T23:06:59.927;599616948831367566;15966.817;247
2024-05-25T23:06:59.935;599616948839058520;15974.508;233
