Phone timestamp;sensor timestamp [ns];timestamp [ms];ecg [uV]
2024-05-25T23:08:53.345;599617062263404054;0.0;1192
2024-05-25T23:08:53.352;599617062271095844;7.69179;3227
2024-05-25T23:08:53.360;599617062278787634;15.38358;4676
2024-05-25T23:08:53.368;599617062286479424;23.07537;5197
2024-05-25T23:08:53.375;599617062294171214;30.76716;5968
2024-05-25T23:08:53.383;599617062301863004;38.458954;6836
2024-05-25T23:08:53.391;599617062309554794;46.15074;7327
2024-05-25T23:08:53.398;599617062317246584;53.84253;7846
2024-05-25T23:08:53.406;599617062324938374;61.53432;8594
2024-05-25T23:08:53.414;599617062332630164;69.22611;9388
2024-05-25T23:08:53.421;599617062340321954;76.91791;10175
2024-05-25T23:08:53.429;599617062348013744;84.60969;10763
2024-05-25T23:08:53.437;599617062355705534;92.30148;10884
2024-05-25T23:08:53.444;599617062363397324;99.99327;10800
2024-05-25T23:08:53.452;599617062371089114;107.68506;11025
2024-05-25T23:08:53.460;599617062378780904;115.37685;11469
2024-05-25T23:08:53.468;599617062386472694;123.06864;11754
2024-05-25T23:08:53.475;599617062394164484;130.76044;11951
2024-05-25T23:08:53.483;599617062401856274;138.45222;12257
2024-05-25T23:08:53.491;599617062409548064;146.14401;12608
2024-05-25T23:08:53.498;599617062417239854;153.83582;12921
2024-05-25T23:08:53.506;599617062424931644;161.52759;13127
2024-05-25T23:08:53.514;599617062432623434;169.21938;13285
2024-05-25T23:08:53.521;599617062440315224;176.91116;13539
2024-05-25T23:08:53.529;599617062448007014;184.60297;13798
2024-05-25T23:08:53.537;599617062455698804;192.29475;13933
2024-05-25T23:08:53.544;599617062463390594;199.98654;14111
2024-05-25T23:08:53.552;599617062471082384;207.67833;14366
2024-05-25T23:08:53.560;599617062478774174;215.37012;14479
2024-05-25T23:08:53.568;599617062486465964;223.0619;14516
2024-05-25T23:08:53.575;599617062494157754;230.7537;14681
2024-05-25T23:08:53.583;599617062501849544;238.4455;14894
2024-05-25T23:08:53.591;599617062509541334;246.13728;15035
2024-05-25T23:08:53.598;599617062517233124;253.82907;15065
2024-05-25T23:08:53.606;599617062524924914;261.52087;15083
2024-05-25T23:08:53.614;599617062532616704;269.21265;15213
2024-05-25T23:08:53.621;599617062540308494;276.90445;15310
2024-05-25T23:08:53.629;599617062548000284;284.59622;15296
2024-05-25T23:08:53.637;599617062555692074;292.28802;15387
2024-05-25T23:08:53.644;599617062563383864;299.9798;15528
2024-05-25T23:08:53.652;599617062571075654;307.67163;15516
2024-05-25T23:08:53.660;599617062578767444;315.3634;15516
2024-05-25T23:08:53.668;599617062586459234;323.05518;15547
2024-05-25T23:08:53.675;599617062594151024;330.74698;15507
2024-05-25T23:08:53.683;599617062601842814;338.43875;15618
2024-05-25T23:08:53.691;599617062609534604;346.13055;15674
2024-05-25T23:08:53.698;599617062617226394;353.82233;15433
2024-05-25T23:08:53.706;599617062624918184;361.51413;15352
2024-05-25T23:08:53.714;599617062632609974;369.20593;15426
2024-05-25T23:08:53.721;599617062640301764;376.8977;15352
2024-05-25T23:08:53.729;599617062647993554;384.5895;15361
2024-05-25T23:08:53.737;599617062655685344;392.28128;15431
2024-05-25T23:08:53.744;599617062663377134;399.97308;15280
2024-05-25T23:08:53.752;599617062671068924;407.66486;15137
2024-05-25T23:08:53.760;599617062678760714;415.35666;15188
2024-05-25T23:08:53.768;599617062686452504;423.04846;15236
2024-05-25T23:08:53.775;599617062694144294;430.74023;15213
2024-05-25T23:08:53.783;599617062701836084;438.43204;15102
2024-05-25T23:08:53.791;599617062709527874;446.1238;14979
2024-05-25T23:08:53.798;599617062717219664;453.8156;14931
2024-05-25T23:08:53.806;599617062724911454;461.5074;14815
2024-05-25T23:08:53.814;599617062732603244;469.1992;14792
2024-05-25T23:08:53.821;599617062740295034;476.891;14803
2024-05-25T23:08:53.829;599617062747986824;484.5828;14458
2024-05-25T23:08:53.837;599617062755678614;492.27457;14130
2024-05-25T23:08:53.844;599617062763370404;499.96634;14146
2024-05-25T23:08:53.852;599617062771062194;507.65814;14146
2024-05-25T23:08:53.860;599617062778753984;515.3499;14016
2024-05-25T23:08:53.868;599617062786445774;523.04175;13944
2024-05-25T23:08:53.875;599617062794137564;530.7335;13898
2024-05-25T23:08:53.883;599617062801829354;538.4253;13780
2024-05-25T23:08:53.891;599617062809521144;546.1171;13657
2024-05-25T23:08:53.898;599617062817212934;553.8089;13555
2024-05-25T23:08:53.906;599617062824995024;561.591;13479
2024-05-25T23:08:53.914;599617062832685560;569.28156;13470
2024-05-25T23:08:53.921;599617062840376096;576.97205;13398
2024-05-25T23:08:53.929;599617062848066632;584.6626;13247
2024-05-25T23:08:53.937;599617062855757168;592.3531;13099
2024-05-25T23:08:53.945;599617062863447704;600.04364;12967
2024-05-25T23:08:53.952;599617062871138240;607.7342;13048
2024-05-25T23:08:53.960;599617062878828776;615.4247;13403
2024-05-25T23:08:53.968;599617062886519312;623.11523;13620
2024-05-25T23:08:53.975;599617062894209848;630.80585;13291
2024-05-25T23:08:53.983;599617062901900384;638.49634;12576
2024-05-25T23:08:53.991;599617062909590920;646.1869;12122
2024-05-25T23:08:53.998;599617062917281456;653.8774;12145
2024-05-25T23:08:54.006;599617062924971992;661.56793;12171
2024-05-25T23:08:54.014;599617062932662528;669.2585;11956
2024-05-25T23:08:54.021;599617062940353064;676.949;11761
2024-05-25T23:08:54.029;599617062948043600;684.6395;11717
2024-05-25T23:08:54.037;599617062955734136;692.33014;11673
2024-05-25T23:08:54.045;599617062963424672;700.0206;11550
2024-05-25T23:08:54.052;599617062971115208;707.7112;11467
2024-05-25T23:08:54.060;599617062978805744;715.4017;11435
2024-05-25T23:08:54.068;599617062986496280;723.0922;11319
2024-05-25T23:08:54.075;599617062994186816;730.7828;11143
2024-05-25T23:08:54.083;599617063001877352;738.47327;11050
2024-05-25T23:08:54.091;599617063009567888;746.1638;11043
2024-05-25T23:08:54.098;599617063017258424;753.8544;11002
2024-05-25T23:08:54.106;599617063024948960;761.5449;10849
2024-05-25T23:08:54.114;599617063032639496;769.2355;10691
2024-05-25T23:08:54.121;599617063040330032;776.92596;10640
2024-05-25T23:08:54.129;599617063048020568;784.6165;10583
2024-05-25T23:08:54.137;599617063055711104;792.30707;10425
2024-05-25T23:08:54.144;599617063063401640;799.99756;10333
2024-05-25T23:08:54.152;599617063071092176;807.6881;10309
2024-05-25T23:08:54.160;599617063078782712;815.37866;10170
2024-05-25T23:08:54.168;599617063086473248;823.0692;9999
2024-05-25T23:08:54.175;599617063094163784;830.75977;9981
2024-05-25T23:08:54.183;599617063101854320;838.45026;9939
2024-05-25T23:08:54.191;599617063109544856;846.1408;9726
2024-05-25T23:08:54.198;599617063117235392;853.83136;9568
2024-05-25T23:08:54.206;599617063124925928;861.52185;9513
2024-05-25T23:08:54.214;599617063132616464;869.2124;9376
2024-05-25T23:08:54.221;599617063140307000;876.90295;9191
2024-05-25T23:08:54.229;599617063147997536;884.59344;9078
2024-05-25T23:08:54.237;599617063155688072;892.28406;9034
2024-05-25T23:08:54.244;599617063163378608;899.97455;8964
2024-05-25T23:08:54.252;599617063171069144;907.6651;8804
2024-05-25T23:08:54.260;599617063178759680;915.35565;8670
2024-05-25T23:08:54.268;599617063186450216;923.04614;8633
2024-05-25T23:08:54.275;599617063194140752;930.7367;8596
2024-05-25T23:08:54.283;599617063201831288;938.42725;8499
2024-05-25T23:08:54.291;599617063209521824;946.11774;8378
2024-05-25T23:08:54.298;599617063217212360;953.80835;8279
2024-05-25T23:08:54.306;599617063224902896;961.49884;8226
2024-05-25T23:08:54.314;599617063232593432;969.1894;8223
2024-05-25T23:08:54.321;599617063240283968;976.87994;8110
2024-05-25T23:08:54.329;599617063247974504;984.57043;7839
2024-05-25T23:08:54.337;599617063255665040;992.261;7682
2024-05-25T23:08:54.344;599617063263355576;999.95154;7582
2024-05-25T23:08:54.352;599617063271046112;1007.642;7383
2024-05-25T23:08:54.360;599617063278736648;1015.3326;7295
2024-05-25T23:08:54.368;599617063286427184;1023.02313;7283
2024-05-25T23:08:54.375;599617063294117720;1030.7136;7168
2024-05-25T23:08:54.383;599617063301808256;1038.4042;7045
2024-05-25T23:08:54.391;599617063309498792;1046.0947;6994
2024-05-25T23:08:54.398;599617063317189328;1053.7853;6936
2024-05-25T23:08:54.406;599617063324879864;1061.4758;6846
2024-05-25T23:08:54.414;599617063332570400;1069.1664;6792
2024-05-25T23:08:54.421;599617063340260936;1076.8568;6779
2024-05-25T23:08:54.429;599617063347951472;1084.5475;6674
2024-05-25T23:08:54.437;599617063355642008;1092.2379;6485
2024-05-25T23:08:54.444;599617063363332544;1099.9285;6420
2024-05-25T23:08:54.452;599617063371023080;1107.619;6434
2024-05-25T23:08:54.460;599617063378713616;1115.3096;6357
2024-05-25T23:08:54.467;599617063386343960;1122.94;6232
2024-05-25T23:08:54.475;599617063394035332;1130.6313;6153
2024-05-25T23:08:54.483;599617063401726704;1138.3226;6200
2024-05-25T23:08:54.491;599617063409418076;1146.014;6464
2024-05-25T23:08:54.498;599617063417109448;1153.7053;6788
2024-05-25T23:08:54.506;599617063424800820;1161.3967;6765
2024-05-25T23:08:54.514;599617063432492192;1169.0881;6288
2024-05-25T23:08:54.521;599617063440183564;1176.7795;5811
2024-05-25T23:08:54.529;599617063447874936;1184.471;5695
2024-05-25T23:08:54.537;599617063455566308;1192.1624;5734
2024-05-25T23:08:54.544;599617063463257680;1199.8535;5679
2024-05-25T23:08:54.552;599617063470949052;1207.5449;5538
2024-05-25T23:08:54.560;599617063478640424;1215.2363;5389
2024-05-25T23:08:54.567;599617063486331796;1222.9277;5334
2024-05-25T23:08:54.575;599617063494023168;1230.6191;5308
2024-05-25T23:08:54.583;599617063501714540;1238.3105;5232
2024-05-25T23:08:54.591;599617063509405912;1246.002;5176
2024-05-25T23:08:54.598;599617063517097284;1253.6932;5167
2024-05-25T23:08:54.606;599617063524788656;1261.3845;5151
2024-05-25T23:08:54.614;599617063532480028;1269.0759;5084
2024-05-25T23:08:54.621;599617063540171400;1276.7673;5007
2024-05-25T23:08:54.629;599617063547862772;1284.4587;4987
2024-05-25T23:08:54.637;599617063555554144;1292.1501;4970
2024-05-25T23:08:54.644;599617063563245516;1299.8414;4908
2024-05-25T23:08:54.652;599617063570936888;1307.5328;4871
2024-05-25T23:08:54.660;599617063578628260;1315.2242;4857
2024-05-25T23:08:54.667;599617063586319632;1322.9155;4813
2024-05-25T23:08:54.675;599617063594011004;1330.6069;4734
2024-05-25T23:08:54.683;599617063601702376;1338.2983;4651
2024-05-25T23:08:54.690;599617063609393748;1345.9896;4614
2024-05-25T23:08:54.698;599617063617085120;1353.681;4593
2024-05-25T23:08:54.706;599617063624776492;1361.3724;4524
2024-05-25T23:08:54.714;599617063632467864;1369.0638;4461
2024-05-25T23:08:54.721;599617063640159236;1376.7552;4452
2024-05-25T23:08:54.729;599617063647850608;1384.4465;4419
2024-05-25T23:08:54.737;599617063655541980;1392.138;4343
2024-05-25T23:08:54.744;599617063663233352;1399.8292;4313
2024-05-25T23:08:54.752;599617063670924724;1407.5206;4283
2024-05-25T23:08:54.760;599617063678616096;1415.212;4158
2024-05-25T23:08:54.767;599617063686307468;1422.9034;4042
2024-05-25T23:08:54.775;599617063693998840;1430.5948;4023
2024-05-25T23:08:54.783;599617063701690212;1438.2863;4016
2024-05-25T23:08:54.790;599617063709381584;1445.9774;3961
2024-05-25T23:08:54.798;599617063717072956;1453.6688;3889
2024-05-25T23:08:54.806;599617063724764328;1461.3602;3841
2024-05-25T23:08:54.814;599617063732455700;1469.0516;3831
2024-05-25T23:08:54.821;599617063740147072;1476.743;3783
2024-05-25T23:08:54.829;599617063747838444;1484.4344;3644
2024-05-25T23:08:54.837;599617063755529816;1492.1259;3558
2024-05-25T23:08:54.844;599617063763221188;1499.8171;3553
2024-05-25T23:08:54.852;599617063770912560;1507.5084;3489
2024-05-25T23:08:54.860;599617063778603932;1515.1998;3433
2024-05-25T23:08:54.867;599617063786295304;1522.8912;3431
2024-05-25T23:08:54.875;599617063793986676;1530.5826;3371
2024-05-25T23:08:54.883;599617063801678048;1538.274;3271
2024-05-25T23:08:54.890;599617063809369420;1545.9653;3195
2024-05-25T23:08:54.898;599617063817060792;1553.6567;3118
2024-05-25T23:08:54.906;599617063824752164;1561.3481;3072
2024-05-25T23:08:54.914;599617063832443536;1569.0394;3037
2024-05-25T23:08:54.921;599617063840134908;1576.7308;2954
2024-05-25T23:08:54.929;599617063847826280;1584.4222;2875
2024-05-25T23:08:54.937;599617063855517652;1592.1135;2845
2024-05-25T23:08:54.944;599617063863209024;1599.8049;2813
2024-05-25T23:08:54.952;599617063870900396;1607.4963;2789
2024-05-25T23:08:54.960;599617063878591768;1615.1877;2789
2024-05-25T23:08:54.967;599617063886283140;1622.8792;2771
2024-05-25T23:08:54.975;599617063893974512;1630.5706;2738
2024-05-25T23:08:54.983;599617063901665884;1638.2618;2715
2024-05-25T23:08:54.990;599617063909357256;1645.9531;2694
2024-05-25T23:08:54.998;599617063917048628;1653.6445;2662
2024-05-25T23:08:55.006;599617063924740000;1661.3359;2606
2024-05-25T23:08:55.014;599617063932431372;1669.0273;2583
2024-05-25T23:08:55.021;599617063940122744;1676.7188;2734
2024-05-25T23:08:55.029;599617063947814124;1684.4102;3090
2024-05-25T23:08:55.037;599617063955505496;1692.1016;3391
2024-05-25T23:08:55.044;599617063963196868;1699.7927;3271
2024-05-25T23:08:55.052;599617063970888240;1707.4841;2769
2024-05-25T23:08:55.060;599617063978579612;1715.1755;2431
2024-05-25T23:08:55.067;599617063986270984;1722.867;2472
2024-05-25T23:08:55.075;599617063993962356;1730.5583;2502
2024-05-25T23:08:55.083;599617064001653728;1738.2498;2389
2024-05-25T23:08:55.090;599617064009345100;1745.941;2317
2024-05-25T23:08:55.098;599617064017036472;1753.6323;2271
2024-05-25T23:08:55.106;599617064024727844;1761.3237;2250
2024-05-25T23:08:55.114;599617064032419216;1769.0151;2271
2024-05-25T23:08:55.121;599617064040110588;1776.7065;2238
2024-05-25T23:08:55.129;599617064047801960;1784.398;2185
2024-05-25T23:08:55.137;599617064055493332;1792.0892;2201
2024-05-25T23:08:55.144;599617064063184704;1799.7806;2227
2024-05-25T23:08:55.152;599617064070876076;1807.472;2201
2024-05-25T23:08:55.160;599617064078567448;1815.1635;2174
2024-05-25T23:08:55.167;599617064086258820;1822.8547;2139
2024-05-25T23:08:55.175;599617064093950192;1830.5461;2072
2024-05-25T23:08:55.183;599617064101641564;1838.2375;2049
2024-05-25T23:08:55.190;599617064109332936;1845.9288;2079
2024-05-25T23:08:55.198;599617064117024308;1853.6202;2097
2024-05-25T23:08:55.206;599617064124715680;1861.3116;2090
2024-05-25T23:08:55.214;599617064132407052;1869.003;2060
2024-05-25T23:08:55.221;599617064140098424;1876.6945;2035
2024-05-25T23:08:55.229;599617064147789796;1884.3857;2046
2024-05-25T23:08:55.237;599617064155481168;1892.077;2051
2024-05-25T23:08:55.244;599617064163172540;1899.7684;2028
2024-05-25T23:08:55.252;599617064170863912;1907.4598;2025
2024-05-25T23:08:55.260;599617064178555284;1915.1512;2018
2024-05-25T23:08:55.267;599617064186246656;1922.8427;1979
2024-05-25T23:08:55.275;599617064193938028;1930.534;1954
2024-05-25T23:08:55.283;599617064201629400;1938.2255;1961
2024-05-25T23:08:55.290;599617064209320772;1945.9166;1967
2024-05-25T23:08:55.298;599617064217012144;1953.608;1919
2024-05-25T23:08:55.306;599617064224703516;1961.2994;1829
2024-05-25T23:08:55.313;599617064232394888;1968.9908;1794
2024-05-25T23:08:55.321;599617064240086260;1976.6823;1805
2024-05-25T23:08:55.329;599617064247777632;1984.3737;1750
2024-05-25T23:08:55.337;599617064255469004;1992.065;1646
2024-05-25T23:08:55.344;599617064263160376;1999.7563;1625
2024-05-25T23:08:55.352;599617064270851748;2007.4476;1636
2024-05-25T23:08:55.360;599617064278543120;2015.139;1595
2024-05-25T23:08:55.367;599617064286234492;2022.8304;1579
2024-05-25T23:08:55.375;599617064293925864;2030.5219;1611
2024-05-25T23:08:55.383;599617064301617236;2038.2131;1623
2024-05-25T23:08:55.390;599617064309308608;2045.9045;1592
2024-05-25T23:08:55.398;599617064316999980;2053.596;1560
2024-05-25T23:08:55.406;599617064324691352;2061.2874;1553
2024-05-25T23:08:55.413;599617064332382724;2068.9788;1497
2024-05-25T23:08:55.421;599617064340074096;2076.6702;1396
2024-05-25T23:08:55.429;599617064347765468;2084.3616;1349
2024-05-25T23:08:55.437;599617064355456840;2092.0527;1328
2024-05-25T23:08:55.444;599617064363148212;2099.7441;1268
2024-05-25T23:08:55.452;599617064370839584;2107.4355;1227
2024-05-25T23:08:55.460;599617064378530956;2115.127;1234
2024-05-25T23:08:55.467;599617064386222328;2122.8184;1250
2024-05-25T23:08:55.475;599617064393913700;2130.5098;1259
2024-05-25T23:08:55.483;599617064401605072;2138.201;1252
2024-05-25T23:08:55.490;599617064409296444;2145.8923;1231
2024-05-25T23:08:55.498;599617064416987816;2153.584;1227
2024-05-25T23:08:55.506;599617064424679188;2161.2751;1236
2024-05-25T23:08:55.513;599617064432370560;2168.9663;1220
2024-05-25T23:08:55.521;599617064440061932;2176.658;1215
2024-05-25T23:08:55.529;599617064447753304;2184.349;1236
2024-05-25T23:08:55.537;599617064455444676;2192.0408;1210
2024-05-25T23:08:55.544;599617064463136048;2199.732;1141
2024-05-25T23:08:55.552;599617064470827420;2207.4236;1192
2024-05-25T23:08:55.560;599617064478518792;2215.1147;1504
2024-05-25T23:08:55.567;599617064486210164;2222.806;1944
2024-05-25T23:08:55.575;599617064493901536;2230.4976;2086
2024-05-25T23:08:55.583;599617064501592908;2238.1887;1685
2024-05-25T23:08:55.590;599617064509284288;2245.8804;1173
2024-05-25T23:08:55.598;599617064516975660;2253.5715;1099
2024-05-25T23:08:55.606;599617064524667032;2261.2632;1227
2024-05-25T23:08:55.613;599617064532358404;2268.9543;1178
2024-05-25T23:08:55.621;599617064540049776;2276.6458;1113
2024-05-25T23:08:55.629;599617064547741148;2284.3372;1088
2024-05-25T23:08:55.637;599617064555432520;2292.0283;1009
2024-05-25T23:08:55.644;599617064563123892;2299.72;990
2024-05-25T23:08:55.652;599617064570815264;2307.4111;1034
2024-05-25T23:08:55.660;599617064578506636;2315.1025;1023
2024-05-25T23:08:55.667;599617064586198008;2322.794;993
2024-05-25T23:08:55.675;599617064593889380;2330.4854;1002
2024-05-25T23:08:55.683;599617064601580752;2338.1768;1016
2024-05-25T23:08:55.690;599617064609272124;2345.868;1021
2024-05-25T23:08:55.698;599617064616963496;2353.5596;1037
2024-05-25T23:08:55.706;599617064624654868;2361.2507;1060
2024-05-25T23:08:55.713;599617064632346240;2368.9421;1076
2024-05-25T23:08:55.721;599617064640037612;2376.6335;1071
2024-05-25T23:08:55.729;599617064647728984;2384.325;1069
2024-05-25T23:08:55.737;599617064655420356;2392.0164;1095
2024-05-25T23:08:55.744;599617064663111728;2399.7078;1115
2024-05-25T23:08:55.752;599617064670803100;2407.3992;1102
2024-05-25T23:08:55.760;599617064678494472;2415.0903;1095
2024-05-25T23:08:55.767;599617064686185844;2422.7817;1104
2024-05-25T23:08:55.775;599617064693877216;2430.4731;1092
2024-05-25T23:08:55.783;599617064701568588;2438.1646;1085
2024-05-25T23:08:55.790;599617064709259960;2445.856;1109
2024-05-25T23:08:55.798;599617064716951332;2453.5474;1132
2024-05-25T23:08:55.806;599617064724642704;2461.2385;1111
2024-05-25T23:08:55.813;599617064732334076;2468.93;1067
2024-05-25T23:08:55.821;599617064740025448;2476.6213;1055
2024-05-25T23:08:55.829;599617064747716820;2484.3127;1058
2024-05-25T23:08:55.837;599617064755408192;2492.0042;983
2024-05-25T23:08:55.844;599617064763099564;2499.6956;868
2024-05-25T23:08:55.852;599617064770790936;2507.387;835
2024-05-25T23:08:55.860;599617064778482308;2515.0781;856
2024-05-25T23:08:55.867;599617064786173680;2522.7698;835
2024-05-25T23:08:55.875;599617064793865052;2530.461;817
2024-05-25T23:08:55.883;599617064801556424;2538.1523;842
2024-05-25T23:08:55.890;599617064809247796;2545.8438;879
2024-05-25T23:08:55.898;599617064816939168;2553.5352;872
2024-05-25T23:08:55.906;599617064824630540;2561.2266;814
2024-05-25T23:08:55.913;599617064832321912;2568.9177;777
2024-05-25T23:08:55.921;599617064840013284;2576.6094;798
2024-05-25T23:08:55.929;599617064847704656;2584.3005;808
2024-05-25T23:08:55.936;599617064855396028;2591.992;798
2024-05-25T23:08:55.944;599617064863087400;2599.6833;796
2024-05-25T23:08:55.952;599617064870778772;2607.3745;752
2024-05-25T23:08:55.960;599617064878470144;2615.0662;685
2024-05-25T23:08:55.967;599617064886161516;2622.7573;645
2024-05-25T23:08:55.975;599617064893852888;2630.449;620
2024-05-25T23:08:55.983;599617064901544260;2638.1401;618
2024-05-25T23:08:55.990;599617064909235632;2645.8318;615
2024-05-25T23:08:55.998;599617064916927004;2653.523;590
2024-05-25T23:08:56.006;599617064924618376;2661.214;590
2024-05-25T23:08:56.013;599617064932309748;2668.9058;622
2024-05-25T23:08:56.021;599617064940001120;2676.597;632
2024-05-25T23:08:56.029;599617064947692492;2684.2886;627
2024-05-25T23:08:56.036;599617064955383864;2691.9797;636
2024-05-25T23:08:56.044;599617064963075236;2699.6714;632
2024-05-25T23:08:56.052;599617064970766608;2707.3625;613
2024-05-25T23:08:56.060;599617064978457980;2715.0537;622
2024-05-25T23:08:56.067;599617064986149352;2722.7454;643
2024-05-25T23:08:56.075;599617064993840724;2730.4365;618
2024-05-25T23:08:56.083;599617065001532096;2738.1282;590
2024-05-25T23:08:56.090;599617065009223468;2745.8193;731
2024-05-25T23:08:56.098;599617065016914840;2753.511;1129
2024-05-25T23:08:56.106;599617065024606212;2761.2021;1530
2024-05-25T23:08:56.113;599617065032297584;2768.8936;1472
2024-05-25T23:08:56.121;599617065039988956;2776.585;963
2024-05-25T23:08:56.129;599617065047680328;2784.2761;595
2024-05-25T23:08:56.136;599617065055371700;2791.9678;620
2024-05-25T23:08:56.144;599617065063063072;2799.659;634
2024-05-25T23:08:56.152;599617065070779580;2807.3757;516
2024-05-25T23:08:56.160;599617065078470603;2815.0667;504
2024-05-25T23:08:56.167;599617065086161626;2822.7576;546
2024-05-25T23:08:56.175;599617065093852649;2830.4487;523
2024-05-25T23:08:56.183;599617065101543672;2838.1396;516
2024-05-25T23:08:56.190;599617065109234695;2845.8306;551
2024-05-25T23:08:56.198;599617065116925718;2853.5217;525
2024-05-25T23:08:56.206;599617065124616741;2861.2126;469
2024-05-25T23:08:56.213;599617065132307764;2868.9036;488
2024-05-25T23:08:56.221;599617065139998787;2876.5947;527
2024-05-25T23:08:56.229;599617065147689810;2884.2856;523
2024-05-25T23:08:56.236;599617065155380833;2891.9768;518
2024-05-25T23:08:56.244;599617065163071856;2899.6677;555
2024-05-25T23:08:56.252;599617065170762879;2907.3586;597
2024-05-25T23:08:56.260;599617065178453902;2915.0498;615
2024-05-25T23:08:56.267;599617065186144925;2922.741;620
2024-05-25T23:08:56.275;599617065193835948;2930.432;627
2024-05-25T23:08:56.283;599617065201526971;2938.123;639
2024-05-25T23:08:56.290;599617065209217994;2945.814;652
2024-05-25T23:08:56.298;599617065216909017;2953.5051;659
2024-05-25T23:08:56.306;599617065224600040;2961.196;676
2024-05-25T23:08:56.313;599617065232291063;2968.887;685
2024-05-25T23:08:56.321;599617065239982086;2976.5781;673
2024-05-25T23:08:56.329;599617065247673109;2984.269;669
2024-05-25T23:08:56.336;599617065255364132;2991.96;655
2024-05-25T23:08:56.344;599617065263055155;2999.6511;585
2024-05-25T23:08:56.352;599617065270746178;3007.342;530
2024-05-25T23:08:56.360;599617065278437201;3015.0332;541
2024-05-25T23:08:56.367;599617065286128224;3022.724;530
2024-05-25T23:08:56.375;599617065293819247;3030.415;472
2024-05-25T23:08:56.383;599617065301510270;3038.1062;458
2024-05-25T23:08:56.390;599617065309201293;3045.797;483
2024-05-25T23:08:56.398;599617065316892316;3053.4883;458
2024-05-25T23:08:56.406;599617065324583339;3061.1794;407
2024-05-25T23:08:56.413;599617065332274362;3068.8704;386
2024-05-25T23:08:56.421;599617065339965385;3076.5615;402
2024-05-25T23:08:56.429;599617065347656408;3084.2524;435
2024-05-25T23:08:56.436;599617065355347431;3091.9434;453
2024-05-25T23:08:56.444;599617065363038454;3099.6345;451
2024-05-25T23:08:56.452;599617065370729477;3107.3254;458
2024-05-25T23:08:56.460;599617065378420500;3115.0164;469
2024-05-25T23:08:56.467;599617065386111523;3122.7075;472
2024-05-25T23:08:56.475;599617065393802546;3130.3984;472
2024-05-25T23:08:56.483;599617065401493569;3138.0894;467
2024-05-25T23:08:56.490;599617065409184592;3145.7805;439
2024-05-25T23:08:56.498;599617065416875615;3153.4714;398
2024-05-25T23:08:56.506;599617065424566638;3161.1626;347
2024-05-25T23:08:56.513;599617065432257661;3168.8535;321
2024-05-25T23:08:56.521;599617065439948684;3176.5444;331
2024-05-25T23:08:56.529;599617065447639707;3184.2358;328
2024-05-25T23:08:56.536;599617065455330730;3191.9268;326
2024-05-25T23:08:56.544;599617065463021753;3199.6177;351
2024-05-25T23:08:56.552;599617065470712776;3207.3088;356
2024-05-25T23:08:56.559;599617065478403799;3214.9998;347
2024-05-25T23:08:56.567;599617065486094822;3222.691;363
2024-05-25T23:08:56.575;599617065493785845;3230.3818;386
2024-05-25T23:08:56.583;599617065501476868;3238.0728;395
2024-05-25T23:08:56.590;599617065509167891;3245.764;388
2024-05-25T23:08:56.598;599617065516858914;3253.4548;384
2024-05-25T23:08:56.606;599617065524549937;3261.1458;402
2024-05-25T23:08:56.613;599617065532240960;3268.837;414
2024-05-25T23:08:56.621;599617065539931983;3276.5278;382
2024-05-25T23:08:56.629;599617065547623006;3284.219;386
2024-05-25T23:08:56.636;599617065555314029;3291.91;583
2024-05-25T23:08:56.644;599617065563005052;3299.6008;956
2024-05-25T23:08:56.652;599617065570696075;3307.292;1243
2024-05-25T23:08:56.659;599617065578387098;3314.9832;1092
2024-05-25T23:08:56.667;599617065586078121;3322.674;590
2024-05-25T23:08:56.675;599617065593769144;3330.3652;312
2024-05-25T23:08:56.683;599617065601460167;3338.0562;388
2024-05-25T23:08:56.690;599617065609151190;3345.7473;402
2024-05-25T23:08:56.698;599617065616842213;3353.4382;326
2024-05-25T23:08:56.706;599617065624533236;3361.1292;358
2024-05-25T23:08:56.713;599617065632194216;3368.7903;407
2024-05-25T23:08:56.721;599617065639885657;3376.4814;405
2024-05-25T23:08:56.729;599617065647577098;3384.173;412
2024-05-25T23:08:56.736;599617065655268539;3391.8645;379
2024-05-25T23:08:56.744;599617065662959980;3399.556;307
2024-05-25T23:08:56.752;599617065670651421;3407.2473;312
2024-05-25T23:08:56.759;599617065678342862;3414.939;372
2024-05-25T23:08:56.767;599617065686034303;3422.6301;386
2024-05-25T23:08:56.775;599617065693725744;3430.3218;382
2024-05-25T23:08:56.783;599617065701417185;3438.0132;398
2024-05-25T23:08:56.790;599617065709108626;3445.7043;419
2024-05-25T23:08:56.798;599617065716800067;3453.396;430
2024-05-25T23:08:56.806;599617065724491508;3461.0874;458
2024-05-25T23:08:56.813;599617065732182949;3468.779;493
2024-05-25T23:08:56.821;599617065739874390;3476.4702;504
2024-05-25T23:08:56.829;599617065747565831;3484.1619;493
2024-05-25T23:08:56.836;599617065755257272;3491.8533;488
2024-05-25T23:08:56.844;599617065762948713;3499.5447;472
2024-05-25T23:08:56.852;599617065770640154;3507.236;398
2024-05-25T23:08:56.859;599617065778331595;3514.9277;340
2024-05-25T23:08:56.867;599617065786023036;3522.619;363
2024-05-25T23:08:56.875;599617065793714477;3530.3103;391
2024-05-25T23:08:56.883;599617065801405918;3538.002;386
2024-05-25T23:08:56.890;599617065809097359;3545.693;368
2024-05-25T23:08:56.898;599617065816788800;3553.3848;363
2024-05-25T23:08:56.906;599617065824480241;3561.0762;395
2024-05-25T23:08:56.913;599617065832171682;3568.7678;421
2024-05-25T23:08:56.921;599617065839863123;3576.459;400
2024-05-25T23:08:56.929;599617065847554564;3584.1506;398
2024-05-25T23:08:56.936;599617065855246005;3591.842;446
2024-05-25T23:08:56.944;599617065862937446;3599.5332;479
2024-05-25T23:08:56.952;599617065870628887;3607.2249;474
2024-05-25T23:08:56.959;599617065878320328;3614.9163;476
2024-05-25T23:08:56.967;599617065886011769;3622.6077;500
2024-05-25T23:08:56.975;599617065893703210;3630.299;500
2024-05-25T23:08:56.982;599617065901394651;3637.9907;488
2024-05-25T23:08:56.990;599617065909086092;3645.682;509
2024-05-25T23:08:56.998;599617065916777533;3653.3735;541
2024-05-25T23:08:57.006;599617065924468974;3661.065;539
2024-05-25T23:08:57.013;599617065932160415;3668.7566;516
2024-05-25T23:08:57.021;599617065939851856;3676.4478;527
2024-05-25T23:08:57.029;599617065947543297;3684.1392;560
2024-05-25T23:08:57.036;599617065955234738;3691.8308;555
2024-05-25T23:08:57.044;599617065962926179;3699.522;544
2024-05-25T23:08:57.052;599617065970617620;3707.2136;557
2024-05-25T23:08:57.059;599617065978309061;3714.905;562
2024-05-25T23:08:57.067;599617065986000502;3722.5964;546
2024-05-25T23:08:57.075;599617065993691943;3730.2878;541
2024-05-25T23:08:57.082;599617066001383384;3737.9795;557
2024-05-25T23:08:57.090;599617066009074825;3745.6707;578
2024-05-25T23:08:57.098;599617066016766266;3753.362;578
2024-05-25T23:08:57.106;599617066024457707;3761.0537;562
2024-05-25T23:08:57.113;599617066032149148;3768.745;578
2024-05-25T23:08:57.121;599617066039840589;3776.4365;601
2024-05-25T23:08:57.129;599617066047532030;3784.128;583
2024-05-25T23:08:57.136;599617066055223471;3791.8196;541
2024-05-25T23:08:57.144;599617066062914912;3799.5107;518
2024-05-25T23:08:57.152;599617066070606353;3807.2024;511
2024-05-25T23:08:57.159;599617066078297794;3814.8938;495
2024-05-25T23:08:57.167;599617066085989235;3822.5852;495
2024-05-25T23:08:57.175;599617066093680676;3830.2766;490
2024-05-25T23:08:57.182;599617066101372117;3837.968;474
2024-05-25T23:08:57.190;599617066109063558;3845.6594;569
2024-05-25T23:08:57.198;599617066116754999;3853.3508;914
2024-05-25T23:08:57.206;599617066124446440;3861.0425;1328
2024-05-25T23:08:57.213;599617066132137881;3868.734;1335
2024-05-25T23:08:57.221;599617066139829322;3876.4253;831
2024-05-25T23:08:57.229;599617066147520763;3884.1167;439
2024-05-25T23:08:57.236;599617066155212204;3891.8083;488
2024-05-25T23:08:57.244;599617066162903645;3899.4995;534
2024-05-25T23:08:57.252;599617066170595086;3907.191;416
2024-05-25T23:08:57.259;599617066178286527;3914.8826;414
2024-05-25T23:08:57.267;599617066185977968;3922.5737;486
2024-05-25T23:08:57.275;599617066193684514;3930.2805;476
2024-05-25T23:08:57.282;599617066201375746;3937.9717;453
2024-05-25T23:08:57.290;599617066209066978;3945.663;467
2024-05-25T23:08:57.298;599617066216758210;3953.3542;479
2024-05-25T23:08:57.306;599617066224449442;3961.0454;476
2024-05-25T23:08:57.313;599617066232140674;3968.7366;479
2024-05-25T23:08:57.321;599617066239831906;3976.4277;490
2024-05-25T23:08:57.329;599617066247523138;3984.1191;497
2024-05-25T23:08:57.336;599617066255214370;3991.8103;442
2024-05-25T23:08:57.344;599617066262905602;3999.5015;349
2024-05-25T23:08:57.352;599617066270596834;4007.1929;284
2024-05-25T23:08:57.359;599617066278288066;4014.884;247
2024-05-25T23:08:57.367;599617066285979298;4022.5754;240
2024-05-25T23:08:57.375;599617066293670530;4030.2664;240
2024-05-25T23:08:57.382;599617066301361762;4037.9575;201
2024-05-25T23:08:57.390;599617066309052994;4045.649;169
2024-05-25T23:08:57.398;599617066316744226;4053.34;182
2024-05-25T23:08:57.406;599617066324435458;4061.0315;203
2024-05-25T23:08:57.413;599617066332126690;4068.7227;222
2024-05-25T23:08:57.421;599617066339817922;4076.414;245
2024-05-25T23:08:57.429;599617066347509154;4084.1052;247
2024-05-25T23:08:57.436;599617066355200386;4091.7961;236
2024-05-25T23:08:57.444;599617066362891618;4099.4873;236
2024-05-25T23:08:57.452;599617066370582850;4107.1787;217
2024-05-25T23:08:57.459;599617066378274082;4114.87;192
2024-05-25T23:08:57.467;599617066385965314;4122.5615;192
2024-05-25T23:08:57.475;599617066393656546;4130.2524;192
2024-05-25T23:08:57.482;599617066401347778;4137.944;182
2024-05-25T23:08:57.490;599617066409039010;4145.6353;187
2024-05-25T23:08:57.498;599617066416730242;4153.326;213
2024-05-25T23:08:57.506;599617066424421474;4161.0176;245
2024-05-25T23:08:57.513;599617066432112706;4168.7085;250
2024-05-25T23:08:57.521;599617066439803938;4176.4;231
2024-05-25T23:08:57.529;599617066447495170;4184.0913;236
2024-05-25T23:08:57.536;599617066455186402;4191.782;270
2024-05-25T23:08:57.544;599617066462877634;4199.4736;287
2024-05-25T23:08:57.552;599617066470568866;4207.165;280
2024-05-25T23:08:57.559;599617066478260098;4214.856;256
2024-05-25T23:08:57.567;599617066485951330;4222.5474;210
2024-05-25T23:08:57.575;599617066493642562;4230.2383;171
2024-05-25T23:08:57.582;599617066501333794;4237.9297;131
2024-05-25T23:08:57.590;599617066509025026;4245.621;99
2024-05-25T23:08:57.598;599617066516716258;4253.3125;106
2024-05-25T23:08:57.606;599617066524407490;4261.0034;108
2024-05-25T23:08:57.613;599617066532098722;4268.695;76
2024-05-25T23:08:57.621;599617066539789954;4276.3857;46
2024-05-25T23:08:57.629;599617066547481186;4284.077;20
2024-05-25T23:08:57.636;599617066555172418;4291.7686;-16
2024-05-25T23:08:57.644;599617066562863650;4299.4595;-16
2024-05-25T23:08:57.652;599617066570554882;4307.151;13
2024-05-25T23:08:57.659;599617066578246114;4314.8423;18
2024-05-25T23:08:57.667;599617066585937346;4322.533;11
2024-05-25T23:08:57.675;599617066593628578;4330.2246;37
2024-05-25T23:08:57.682;599617066601319810;4337.916;85
2024-05-25T23:08:57.690;599617066609011042;4345.607;108
2024-05-25T23:08:57.698;599617066616702274;4353.2983;97
2024-05-25T23:08:57.705;599617066624393506;4360.9897;90
2024-05-25T23:08:57.713;599617066632084738;4368.6807;118
2024-05-25T23:08:57.721;599617066639775970;4376.3716;150
2024-05-25T23:08:57.729;599617066647467202;4384.063;152
2024-05-25T23:08:57.736;599617066655158434;4391.7544;143
2024-05-25T23:08:57.744;599617066662849666;4399.4453;136
2024-05-25T23:08:57.752;599617066670540898;4407.1367;175
2024-05-25T23:08:57.759;599617066678232130;4414.828;419
2024-05-25T23:08:57.767;599617066685923362;4422.5195;861
2024-05-25T23:08:57.775;599617066693614594;4430.2104;1113
2024-05-25T23:08:57.782;599617066701305826;4437.902;814
2024-05-25T23:08:57.790;599617066708997058;4445.5933;289
2024-05-25T23:08:57.798;599617066716688290;4453.284;143
2024-05-25T23:08:57.805;599617066724379522;4460.9756;263
2024-05-25T23:08:57.813;599617066732070754;4468.667;247
2024-05-25T23:08:57.821;599617066739761986;4476.358;182
2024-05-25T23:08:57.829;599617066747453218;4484.0493;222
2024-05-25T23:08:57.836;599617066755134426;4491.7305;256
2024-05-25T23:08:57.844;599617066762825798;4499.422;247
2024-05-25T23:08:57.852;599617066770517170;4507.113;222
2024-05-25T23:08:57.859;599617066778208542;4514.8047;169
2024-05-25T23:08:57.867;599617066785899914;4522.496;129
2024-05-25T23:08:57.875;599617066793591286;4530.1875;120
2024-05-25T23:08:57.882;599617066801282658;4537.8784;92
2024-05-25T23:08:57.890;599617066808974030;4545.57;81
2024-05-25T23:08:57.898;599617066816665402;4553.2617;113
2024-05-25T23:08:57.905;599617066824356774;4560.9526;106
2024-05-25T23:08:57.913;599617066832048146;4568.644;48
2024-05-25T23:08:57.921;599617066839739518;4576.3354;53
2024-05-25T23:08:57.929;599617066847430890;4584.027;115
2024-05-25T23:08:57.936;599617066855122262;4591.7183;122
2024-05-25T23:08:57.944;599617066862813634;4599.4097;106
2024-05-25T23:08:57.952;599617066870505006;4607.101;143
2024-05-25T23:08:57.959;599617066878196378;4614.792;187
2024-05-25T23:08:57.967;599617066885887750;4622.4834;187
2024-05-25T23:08:57.975;599617066893579122;4630.1753;173
2024-05-25T23:08:57.982;599617066901270494;4637.8667;159
2024-05-25T23:08:57.990;599617066908961866;4645.5576;148
2024-05-25T23:08:57.998;599617066916653238;4653.249;148
2024-05-25T23:08:58.005;599617066924344610;4660.941;157
2024-05-25T23:08:58.013;599617066932035982;4668.632;178
2024-05-25T23:08:58.021;599617066939727354;4676.323;180
2024-05-25T23:08:58.029;599617066947418726;4684.0146;157
2024-05-25T23:08:58.036;599617066955110098;4691.706;152
2024-05-25T23:08:58.044;599617066962801470;4699.3975;185
2024-05-25T23:08:58.052;599617066970492842;4707.089;210
2024-05-25T23:08:58.059;599617066978184214;4714.7803;213
2024-05-25T23:08:58.067;599617066985875586;4722.471;217
2024-05-25T23:08:58.075;599617066993566958;4730.1626;226
2024-05-25T23:08:58.082;599617067001258330;4737.8545;233
2024-05-25T23:08:58.090;599617067008949702;4745.546;222
2024-05-25T23:08:58.098;599617067016641074;4753.237;189
2024-05-25T23:08:58.105;599617067024332446;4760.928;171
2024-05-25T23:08:58.113;599617067032023818;4768.6196;143
2024-05-25T23:08:58.121;599617067039715190;4776.3115;46
2024-05-25T23:08:58.129;599617067047406562;4784.0024;-25
2024-05-25T23:08:58.136;599617067055097934;4791.694;4
2024-05-25T23:08:58.144;599617067062789306;4799.3853;30
2024-05-25T23:08:58.152;599617067070480678;4807.0767;9
2024-05-25T23:08:58.159;599617067078172050;4814.768;9
2024-05-25T23:08:58.167;599617067085863422;4822.4595;27
2024-05-25T23:08:58.175;599617067093554794;4830.151;20
2024-05-25T23:08:58.182;599617067101246166;4837.842;9
2024-05-25T23:08:58.190;599617067108937538;4845.5337;34
2024-05-25T23:08:58.198;599617067116628910;4853.225;69
2024-05-25T23:08:58.205;599617067124320282;4860.916;64
2024-05-25T23:08:58.213;599617067132011654;4868.6074;39
2024-05-25T23:08:58.221;599617067139703026;4876.299;60
2024-05-25T23:08:58.228;599617067147394398;4883.9907;111
2024-05-25T23:08:58.236;599617067155085770;4891.6816;131
2024-05-25T23:08:58.244;599617067162777142;4899.373;143
2024-05-25T23:08:58.252;599617067170468514;4907.0645;157
2024-05-25T23:08:58.259;599617067178159886;4914.7554;164
2024-05-25T23:08:58.267;599617067185851258;4922.4473;169
2024-05-25T23:08:58.275;599617067193542630;4930.1387;182
2024-05-25T23:08:58.282;599617067201234002;4937.83;208
2024-05-25T23:08:58.290;599617067208925374;4945.521;236
2024-05-25T23:08:58.298;599617067216616746;4953.213;226
2024-05-25T23:08:58.305;599617067224308118;4960.9043;178
2024-05-25T23:08:58.313;599617067231999490;4968.595;187
2024-05-25T23:08:58.321;599617067239690862;4976.2866;370
2024-05-25T23:08:58.328;599617067247382234;4983.978;752
2024-05-25T23:08:58.336;599617067255073606;4991.67;1095
2024-05-25T23:08:58.344;599617067262764978;4999.361;983
2024-05-25T23:08:58.352;599617067270456350;5007.0522;469
2024-05-25T23:08:58.359;599617067278147722;5014.7437;125
2024-05-25T23:08:58.367;599617067285839094;5022.435;115
2024-05-25T23:08:58.375;599617067293530466;5030.1265;115
2024-05-25T23:08:58.382;599617067301221838;5037.818;71
2024-05-25T23:08:58.390;599617067308913210;5045.5093;90
2024-05-25T23:08:58.398;599617067316604590;5053.2;108
2024-05-25T23:08:58.405;599617067324295962;5060.892;118
2024-05-25T23:08:58.413;599617067331987334;5068.5835;150
2024-05-25T23:08:58.421;599617067339678706;5076.275;175
2024-05-25T23:08:58.428;599617067347370078;5083.966;194
2024-05-25T23:08:58.436;599617067355061450;5091.657;217
2024-05-25T23:08:58.444;599617067362752822;5099.349;194
2024-05-25T23:08:58.452;599617067370444194;5107.04;134
2024-05-25T23:08:58.459;599617067378135566;5114.7314;129
2024-05-25T23:08:58.467;599617067385826938;5122.423;180
2024-05-25T23:08:58.475;599617067393518310;5130.1143;199
2024-05-25T23:08:58.482;599617067401209682;5137.8057;196
2024-05-25T23:08:58.490;599617067408901054;5145.497;224
2024-05-25T23:08:58.498;599617067416592426;5153.1885;263
2024-05-25T23:08:58.505;599617067424283798;5160.8794;277
2024-05-25T23:08:58.513;599617067431975170;5168.571;261
2024-05-25T23:08:58.521;599617067439666542;5176.2627;243
2024-05-25T23:08:58.528;599617067447357914;5183.954;238
2024-05-25T23:08:58.536;599617067455049286;5191.645;217
2024-05-25T23:08:58.544;599617067462740658;5199.3364;201
2024-05-25T23:08:58.552;599617067470432030;5207.0283;224
2024-05-25T23:08:58.559;599617067478123402;5214.7197;254
2024-05-25T23:08:58.567;599617067485814774;5222.4106;245
2024-05-25T23:08:58.575;599617067493506146;5230.102;226
2024-05-25T23:08:58.582;599617067501197518;5237.7935;222
2024-05-25T23:08:58.590;599617067508888890;5245.485;226
2024-05-25T23:08:58.598;599617067516580262;5253.1763;226
2024-05-25T23:08:58.605;599617067524271634;5260.8677;219
2024-05-25T23:08:58.613;599617067531963006;5268.559;194
2024-05-25T23:08:58.621;599617067539654378;5276.25;155
2024-05-25T23:08:58.628;599617067547345750;5283.942;113
2024-05-25T23:08:58.636;599617067555037122;5291.6333;78
2024-05-25T23:08:58.644;599617067562728494;5299.324;74
2024-05-25T23:08:58.652;599617067570419866;5307.0156;57
2024-05-25T23:08:58.659;599617067578111238;5314.707;13
2024-05-25T23:08:58.667;599617067585802610;5322.399;6
2024-05-25T23:08:58.675;599617067593493982;5330.09;27
2024-05-25T23:08:58.682;599617067601185354;5337.7812;18
2024-05-25T23:08:58.690;599617067608876726;5345.4727;4
2024-05-25T23:08:58.698;599617067616568098;5353.164;23
2024-05-25T23:08:58.705;599617067624259470;5360.8555;55
2024-05-25T23:08:58.713;599617067631950842;5368.547;60
2024-05-25T23:08:58.721;599617067639642214;5376.2383;37
2024-05-25T23:08:58.728;599617067647333586;5383.929;46
2024-05-25T23:08:58.736;599617067655024958;5391.621;83
2024-05-25T23:08:58.744;599617067662716330;5399.3125;99
2024-05-25T23:08:58.752;599617067670407702;5407.0034;97
2024-05-25T23:08:58.759;599617067678099074;5414.695;99
2024-05-25T23:08:58.767;599617067685790446;5422.386;108
2024-05-25T23:08:58.775;599617067693481818;5430.078;120
2024-05-25T23:08:58.782;599617067701173190;5437.769;138
2024-05-25T23:08:58.790;599617067708864562;5445.4604;164
2024-05-25T23:08:58.798;599617067716555934;5453.152;196
2024-05-25T23:08:58.805;599617067724247306;5460.843;210
2024-05-25T23:08:58.813;599617067731938678;5468.5347;199
2024-05-25T23:08:58.821;599617067739630050;5476.226;210
2024-05-25T23:08:58.828;599617067747321422;5483.9175;245
2024-05-25T23:08:58.836;599617067755012794;5491.6084;250
2024-05-25T23:08:58.844;599617067762704166;5499.3003;247
2024-05-25T23:08:58.851;599617067770395538;5506.9917;254
2024-05-25T23:08:58.859;599617067778086910;5514.683;171
2024-05-25T23:08:58.867;599617067785778282;5522.374;25
2024-05-25T23:08:58.875;599617067793469654;5530.0654;99
2024-05-25T23:08:58.882;599617067801161026;5537.7573;507
2024-05-25T23:08:58.890;599617067808852398;5545.448;930
2024-05-25T23:08:58.898;599617067816543770;5553.1396;902
2024-05-25T23:08:58.905;599617067824235142;5560.831;414
2024-05-25T23:08:58.913;599617067831926514;5568.5225;48
2024-05-25T23:08:58.921;599617067839617886;5576.214;120
2024-05-25T23:08:58.928;599617067847309258;5583.9053;217
2024-05-25T23:08:58.936;599617067855000630;5591.5967;143
2024-05-25T23:08:58.944;599617067862692002;5599.2876;141
2024-05-25T23:08:58.951;599617067870383374;5606.979;192
2024-05-25T23:08:58.959;599617067878074754;5614.671;182
2024-05-25T23:08:58.967;599617067885766126;5622.3623;187
2024-05-25T23:08:58.975;599617067893457498;5630.053;233
2024-05-25T23:08:58.982;599617067901148870;5637.7446;259
2024-05-25T23:08:58.990;599617067908840242;5645.4365;259
2024-05-25T23:08:58.998;599617067916531614;5653.1274;263
2024-05-25T23:08:59.005;599617067924222986;5660.819;280
2024-05-25T23:08:59.013;599617067931914358;5668.5103;277
2024-05-25T23:08:59.021;599617067939605730;5676.2017;226
2024-05-25T23:08:59.028;599617067947297102;5683.893;194
2024-05-25T23:08:59.036;599617067954988474;5691.5845;231
2024-05-25T23:08:59.044;599617067962679846;5699.276;247
2024-05-25T23:08:59.051;599617067970371218;5706.967;201
2024-05-25T23:08:59.059;599617067978062590;5714.658;173
2024-05-25T23:08:59.067;599617067985753962;5722.35;201
2024-05-25T23:08:59.075;599617067993445334;5730.0415;219
2024-05-25T23:08:59.082;599617068001136706;5737.7324;203
2024-05-25T23:08:59.090;599617068008828078;5745.424;194
2024-05-25T23:08:59.098;599617068016519450;5753.1157;201
2024-05-25T23:08:59.105;599617068024210822;5760.807;192
2024-05-25T23:08:59.113;599617068031902194;5768.498;162
2024-05-25T23:08:59.121;599617068039593566;5776.1895;159
2024-05-25T23:08:59.128;599617068047284938;5783.881;175
2024-05-25T23:08:59.136;599617068054976310;5791.5723;164
2024-05-25T23:08:59.144;599617068062667682;5799.2637;148
2024-05-25T23:08:59.151;599617068070359054;5806.955;171
2024-05-25T23:08:59.159;599617068078050426;5814.6465;192
2024-05-25T23:08:59.167;599617068085741798;5822.3374;159
2024-05-25T23:08:59.175;599617068093433170;5830.0293;108
2024-05-25T23:08:59.182;599617068101124542;5837.7207;85
2024-05-25T23:08:59.190;599617068108815914;5845.4116;57
2024-05-25T23:08:59.198;599617068116507286;5853.103;32
2024-05-25T23:08:59.205;599617068124198658;5860.7944;39
2024-05-25T23:08:59.213;599617068131890030;5868.4863;62
2024-05-25T23:08:59.221;599617068139581402;5876.1772;69
2024-05-25T23:08:59.228;599617068147272774;5883.8687;50
2024-05-25T23:08:59.236;599617068154964146;5891.56;43
2024-05-25T23:08:59.244;599617068162655518;5899.252;74
2024-05-25T23:08:59.251;599617068170346890;5906.943;97
2024-05-25T23:08:59.259;599617068178038262;5914.6343;90
2024-05-25T23:08:59.267;599617068185729634;5922.3257;87
2024-05-25T23:08:59.275;599617068193421006;5930.0166;104
2024-05-25T23:08:59.282;599617068201112378;5937.7085;120
2024-05-25T23:08:59.290;599617068208803750;5945.4;125
2024-05-25T23:08:59.298;599617068216495122;5953.0913;134
2024-05-25T23:08:59.305;599617068224186494;5960.782;159
2024-05-25T23:08:59.313;599617068231877866;5968.4736;175
2024-05-25T23:08:59.321;599617068239569238;5976.1655;159
2024-05-25T23:08:59.328;599617068247260610;5983.8564;159
2024-05-25T23:08:59.336;599617068254951982;5991.548;196
2024-05-25T23:08:59.344;599617068262643354;5999.2393;222
2024-05-25T23:08:59.351;599617068270334726;6006.9307;215
2024-05-25T23:08:59.359;599617068278026098;6014.622;178
2024-05-25T23:08:59.367;599617068285717470;6022.3135;104
2024-05-25T23:08:59.375;599617068293408842;6030.005;34
2024-05-25T23:08:59.382;599617068301100214;6037.696;37
2024-05-25T23:08:59.390;599617068308791586;6045.3877;83
2024-05-25T23:08:59.398;599617068316482958;6053.079;120
2024-05-25T23:08:59.405;599617068324174330;6060.7705;129
2024-05-25T23:08:59.413;599617068331865702;6068.4614;111
2024-05-25T23:08:59.421;599617068339557074;6076.153;94
2024-05-25T23:08:59.428;599617068347248446;6083.8447;143
2024-05-25T23:08:59.436;599617068354939818;6091.5356;335
2024-05-25T23:08:59.444;599617068362631190;6099.227;740
2024-05-25T23:08:59.451;599617068370322562;6106.9185;1118
2024-05-25T23:08:59.459;599617068378013934;6114.61;997
2024-05-25T23:08:59.467;599617068385705306;6122.3013;444
2024-05-25T23:08:59.474;599617068393396678;6129.9927;127
2024-05-25T23:08:59.482;599617068401088050;6137.684;240
2024-05-25T23:08:59.490;599617068408779422;6145.375;305
2024-05-25T23:08:59.498;599617068416470794;6153.0664;213
2024-05-25T23:08:59.505;599617068424162166;6160.7583;206
2024-05-25T23:08:59.513;599617068431853538;6168.4497;250
2024-05-25T23:08:59.521;599617068439544918;6176.1406;259
2024-05-25T23:08:59.528;599617068447236290;6183.832;270
2024-05-25T23:08:59.536;599617068454927662;6191.524;296
2024-05-25T23:08:59.544;599617068462619034;6199.2153;310
2024-05-25T23:08:59.551;599617068470310406;6206.9062;291
2024-05-25T23:08:59.559;599617068478001778;6214.5977;231
2024-05-25T23:08:59.567;599617068485693150;6222.289;199
2024-05-25T23:08:59.574;599617068493384522;6229.9805;238
2024-05-25T23:08:59.582;599617068501075894;6237.672;256
2024-05-25T23:08:59.590;599617068508767266;6245.3633;189
2024-05-25T23:08:59.598;599617068516458638;6253.0547;115
2024-05-25T23:08:59.605;599617068524150010;6260.7456;104
2024-05-25T23:08:59.613;599617068531841382;6268.4375;122
2024-05-25T23:08:59.621;599617068539532754;6276.129;131
2024-05-25T23:08:59.628;599617068547224126;6283.82;150
2024-05-25T23:08:59.636;599617068554915498;6291.511;169
2024-05-25T23:08:59.644;599617068562606870;6299.2026;157
2024-05-25T23:08:59.651;599617068570298242;6306.8945;152
2024-05-25T23:08:59.659;599617068577989614;6314.5854;182
2024-05-25T23:08:59.667;599617068585680986;6322.277;217
2024-05-25T23:08:59.674;599617068593372358;6329.9683;229
2024-05-25T23:08:59.682;599617068601063730;6337.6597;224
2024-05-25T23:08:59.690;599617068608755102;6345.351;219
2024-05-25T23:08:59.698;599617068616446474;6353.0425;213
2024-05-25T23:08:59.705;599617068624137846;6360.734;182
2024-05-25T23:08:59.713;599617068631829218;6368.425;148
2024-05-25T23:08:59.721;599617068639520590;6376.1167;127
2024-05-25T23:08:59.728;599617068647211962;6383.808;97
2024-05-25T23:08:59.736;599617068654903334;6391.499;57
2024-05-25T23:08:59.744;599617068662594706;6399.1904;41
2024-05-25T23:08:59.751;599617068670286078;6406.882;64
2024-05-25T23:08:59.759;599617068677977450;6414.5737;97
2024-05-25T23:08:59.767;599617068685668822;6422.2646;99
2024-05-25T23:08:59.774;599617068693360194;6429.956;85
2024-05-25T23:08:59.782;599617068701051566;6437.6475;87
2024-05-25T23:08:59.790;599617068708742938;6445.3394;101
2024-05-25T23:08:59.798;599617068716434310;6453.0303;108
2024-05-25T23:08:59.805;599617068724125682;6460.7217;113
2024-05-25T23:08:59.813;599617068731817054;6468.413;129
2024-05-25T23:08:59.821;599617068739508426;6476.104;145
2024-05-25T23:08:59.828;599617068747199798;6483.796;136
2024-05-25T23:08:59.836;599617068754891170;6491.4873;118
2024-05-25T23:08:59.844;599617068762582542;6499.1787;97
2024-05-25T23:08:59.851;599617068770273914;6506.8696;78
2024-05-25T23:08:59.859;599617068777965286;6514.561;81
2024-05-25T23:08:59.867;599617068785656658;6522.253;74
2024-05-25T23:08:59.874;599617068793348030;6529.944;4
2024-05-25T23:08:59.882;599617068801039402;6537.6353;-64
2024-05-25T23:08:59.890;599617068808730774;6545.3267;-50
2024-05-25T23:08:59.898;599617068816422146;6553.018;-2
2024-05-25T23:08:59.905;599617068824113518;6560.7095;43
2024-05-25T23:08:59.913;599617068831804890;6568.401;81
2024-05-25T23:08:59.921;599617068839496262;6576.0923;87
2024-05-25T23:08:59.928;599617068847187634;6583.783;97
2024-05-25T23:08:59.936;599617068854879006;6591.475;138
2024-05-25T23:08:59.944;599617068862570378;6599.1665;169
2024-05-25T23:08:59.951;599617068870261750;6606.858;178
2024-05-25T23:08:59.959;599617068877953122;6614.549;192
2024-05-25T23:08:59.967;599617068885644494;6622.24;213
2024-05-25T23:08:59.974;599617068893335866;6629.932;201
2024-05-25T23:08:59.982;599617068901027238;6637.6235;175
2024-05-25T23:08:59.990;599617068908718610;6645.3145;266
2024-05-25T23:08:59.998;599617068916409982;6653.006;613
2024-05-25T23:09:00.005;599617068924101354;6660.6973;1071
2024-05-25T23:09:00.013;599617068931792726;6668.3887;1187
2024-05-25T23:09:00.021;599617068939484098;6676.08;761
2024-05-25T23:09:00.028;599617068947175470;6683.7715;289
2024-05-25T23:09:00.036;599617068954866842;6691.463;245
2024-05-25T23:09:00.044;599617068962558214;6699.154;342
2024-05-25T23:09:00.051;599617068970249586;6706.8457;287
2024-05-25T23:09:00.059;599617068977940958;6714.537;254
2024-05-25T23:09:00.067;599617068985632330;6722.228;294
2024-05-25T23:09:00.074;599617068993323702;6729.9194;298
2024-05-25T23:09:00.082;599617069001015082;6737.6113;294
2024-05-25T23:09:00.090;599617069008706454;6745.3027;284
2024-05-25T23:09:00.097;599617069016397826;6752.9937;240
2024-05-25T23:09:00.105;599617069024089198;6760.685;219
2024-05-25T23:09:00.113;599617069031780570;6768.3765;245
2024-05-25T23:09:00.121;599617069039471942;6776.068;250
2024-05-25T23:09:00.128;599617069047163314;6783.7593;175
2024-05-25T23:09:00.136;599617069054854686;6791.4507;81
2024-05-25T23:09:00.144;599617069062546058;6799.142;83
2024-05-25T23:09:00.151;599617069070237430;6806.833;118
2024-05-25T23:09:00.159;599617069077928802;6814.525;104
2024-05-25T23:09:00.167;599617069085620174;6822.2163;111
2024-05-25T23:09:00.174;599617069093311546;6829.907;159
2024-05-25T23:09:00.182;599617069101002918;6837.5986;187
2024-05-25T23:09:00.190;599617069108694290;6845.29;175
2024-05-25T23:09:00.197;599617069116385662;6852.982;169
2024-05-25T23:09:00.205;599617069124077034;6860.673;185
2024-05-25T23:09:00.213;599617069131768406;6868.3643;201
2024-05-25T23:09:00.221;599617069139459778;6876.0557;206
2024-05-25T23:09:00.228;599617069147151150;6883.7476;226
2024-05-25T23:09:00.236;599617069154842522;6891.4385;247
2024-05-25T23:09:00.244;599617069162533894;6899.13;215
2024-05-25T23:09:00.251;599617069170225266;6906.8213;152
2024-05-25T23:09:00.259;599617069177916638;6914.512;138
2024-05-25T23:09:00.267;599617069185608010;6922.204;134
2024-05-25T23:09:00.274;599617069193299382;6929.8955;97
2024-05-25T23:09:00.282;599617069200990754;6937.587;71
2024-05-25T23:09:00.290;599617069208682126;6945.278;71
2024-05-25T23:09:00.297;599617069216373498;6952.969;83
2024-05-25T23:09:00.305;599617069224064870;6960.661;97
2024-05-25T23:09:00.313;599617069231756242;6968.352;99
2024-05-25T23:09:00.321;599617069239447614;6976.0435;111
2024-05-25T23:09:00.328;599617069247138986;6983.735;122
2024-05-25T23:09:00.336;599617069254830358;6991.427;90
2024-05-25T23:09:00.344;599617069262521730;6999.1177;43
2024-05-25T23:09:00.351;599617069270213102;7006.809;64
2024-05-25T23:09:00.359;599617069277904474;7014.5005;111
2024-05-25T23:09:00.367;599617069285595846;7022.1914;122
2024-05-25T23:09:00.374;599617069293287218;7029.8833;83
2024-05-25T23:09:00.382;599617069300978590;7037.5747;0
2024-05-25T23:09:00.390;599617069308669962;7045.266;-43
2024-05-25T23:09:00.397;599617069316361334;7052.957;-11
2024-05-25T23:09:00.405;599617069324052706;7060.6484;23
2024-05-25T23:09:00.413;599617069331744078;7068.3403;37
2024-05-25T23:09:00.421;599617069339435450;7076.0312;62
2024-05-25T23:09:00.428;599617069347126822;7083.7227;67
2024-05-25T23:09:00.436;599617069354818194;7091.414;64
2024-05-25T23:09:00.444;599617069362509566;7099.1055;94
2024-05-25T23:09:00.451;599617069370200938;7106.797;136
2024-05-25T23:09:00.459;599617069377892310;7114.4883;157
2024-05-25T23:09:00.467;599617069385583682;7122.1797;171
2024-05-25T23:09:00.474;599617069393275054;7129.8706;194
2024-05-25T23:09:00.482;599617069400966426;7137.5625;215
2024-05-25T23:09:00.490;599617069408657798;7145.254;219
2024-05-25T23:09:00.497;599617069416349170;7152.9453;233
2024-05-25T23:09:00.505;599617069424040542;7160.636;270
2024-05-25T23:09:00.513;599617069431731914;7168.3276;291
2024-05-25T23:09:00.521;599617069439423286;7176.0195;282
2024-05-25T23:09:00.528;599617069447114658;7183.711;275
2024-05-25T23:09:00.536;599617069454806030;7191.402;268
2024-05-25T23:09:00.544;599617069462497402;7199.0933;277
2024-05-25T23:09:00.551;599617069470188774;7206.7847;437
2024-05-25T23:09:00.559;599617069477880146;7214.476;842
2024-05-25T23:09:00.567;599617069485571518;7222.1675;1220
2024-05-25T23:09:00.574;599617069493262890;7229.859;1109
2024-05-25T23:09:00.582;599617069500954262;7237.5503;562
2024-05-25T23:09:00.590;599617069508645634;7245.241;208
2024-05-25T23:09:00.597;599617069516337006;7252.933;284
2024-05-25T23:09:00.605;599617069524028378;7260.6245;338
2024-05-25T23:09:00.613;599617069531719750;7268.3154;229
2024-05-25T23:09:00.621;599617069539411122;7276.007;231
2024-05-25T23:09:00.628;599617069547102494;7283.6987;303
2024-05-25T23:09:00.636;599617069554793866;7291.39;296
2024-05-25T23:09:00.644;599617069562485246;7299.081;282
2024-05-25T23:09:00.651;599617069570176618;7306.7725;312
2024-05-25T23:09:00.659;599617069577867990;7314.464;326
2024-05-25T23:09:00.667;599617069585559362;7322.156;321
2024-05-25T23:09:00.674;599617069593250734;7329.8467;331
2024-05-25T23:09:00.682;599617069600942106;7337.538;335
2024-05-25T23:09:00.690;599617069608633478;7345.2295;307
2024-05-25T23:09:00.697;599617069616324850;7352.9204;273
2024-05-25T23:09:00.705;599617069624016222;7360.6123;261
2024-05-25T23:09:00.713;599617069631707594;7368.3037;270
2024-05-25T23:09:00.720;599617069639398966;7375.995;282
2024-05-25T23:09:00.728;599617069647090338;7383.686;238
2024-05-25T23:09:00.736;599617069654781710;7391.3774;182
2024-05-25T23:09:00.744;599617069662473082;7399.0693;199
2024-05-25T23:09:00.751;599617069670164454;7406.7603;217
2024-05-25T23:09:00.759;599617069677855826;7414.4517;185
2024-05-25T23:09:00.767;599617069685547198;7422.143;178
2024-05-25T23:09:00.774;599617069693238570;7429.835;213
2024-05-25T23:09:00.782;599617069700929942;7437.526;233
2024-05-25T23:09:00.790;599617069708621314;7445.2173;222
2024-05-25T23:09:00.797;599617069716312686;7452.9087;187
2024-05-25T23:09:00.805;599617069724004058;7460.5996;152
2024-05-25T23:09:00.813;599617069731695430;7468.2915;131
2024-05-25T23:09:00.820;599617069739386802;7475.983;87
2024-05-25T23:09:00.828;599617069747078174;7483.6743;2
2024-05-25T23:09:00.836;599617069754769546;7491.365;-53
2024-05-25T23:09:00.844;599617069762460918;7499.0566;-67
2024-05-25T23:09:00.851;599617069770152290;7506.7485;-76
2024-05-25T23:09:00.859;599617069777843662;7514.4395;-62
2024-05-25T23:09:00.867;599617069785535034;7522.131;-23
2024-05-25T23:09:00.874;599617069793226406;7529.8223;-13
2024-05-25T23:09:00.882;599617069800917778;7537.5137;-74
2024-05-25T23:09:00.890;599617069808609150;7545.205;-141
2024-05-25T23:09:00.897;599617069816300522;7552.8965;-125
2024-05-25T23:09:00.905;599617069823991894;7560.588;-81
2024-05-25T23:09:00.913;599617069831683266;7568.279;-74
2024-05-25T23:09:00.920;599617069839374638;7575.9707;-55
2024-05-25T23:09:00.928;599617069847066010;7583.662;-18
2024-05-25T23:09:00.936;599617069854757382;7591.3535;-18
2024-05-25T23:09:00.944;599617069862448754;7599.0444;-23
2024-05-25T23:09:00.951;599617069870140126;7606.736;13
2024-05-25T23:09:00.959;599617069877831498;7614.4277;57
2024-05-25T23:09:00.967;599617069885522870;7622.119;71
2024-05-25T23:09:00.974;599617069893214242;7629.81;69
2024-05-25T23:09:00.982;599617069900905614;7637.5015;76
2024-05-25T23:09:00.990;599617069908596986;7645.193;94
2024-05-25T23:09:00.997;599617069916288358;7652.8843;101
2024-05-25T23:09:01.005;599617069923979730;7660.5757;113
2024-05-25T23:09:01.013;599617069931671102;7668.267;159
2024-05-25T23:09:01.020;599617069939362474;7675.9585;196
2024-05-25T23:09:01.028;599617069947053846;7683.6494;187
2024-05-25T23:09:01.036;599617069954745218;7691.3413;192
2024-05-25T23:09:01.044;599617069962436590;7699.0327;233
2024-05-25T23:09:01.051;599617069970127962;7706.7236;259
2024-05-25T23:09:01.059;599617069977819334;7714.415;259
2024-05-25T23:09:01.067;599617069985510706;7722.107;256
2024-05-25T23:09:01.074;599617069993202078;7729.7983;226
2024-05-25T23:09:01.082;599617070000893450;7737.4893;185
2024-05-25T23:09:01.090;599617070008584822;7745.1807;171
2024-05-25T23:09:01.097;599617070016276194;7752.872;164
2024-05-25T23:09:01.105;599617070023967566;7760.5635;180
2024-05-25T23:09:01.113;599617070031658938;7768.255;361
2024-05-25T23:09:01.120;599617070039350310;7775.9463;754
2024-05-25T23:09:01.128;599617070047041682;7783.6377;1097
2024-05-25T23:09:01.136;599617070054733054;7791.3286;988
2024-05-25T23:09:01.144;599617070062424426;7799.0205;483
2024-05-25T23:09:01.151;599617070070115798;7806.712;175
2024-05-25T23:09:01.159;599617070077807170;7814.403;250
2024-05-25T23:09:01.167;599617070085498542;7822.094;289
2024-05-25T23:09:01.174;599617070093189914;7829.786;206
2024-05-25T23:09:01.182;599617070100881286;7837.4775;215
2024-05-25T23:09:01.190;599617070108572658;7845.1685;266
2024-05-25T23:09:01.197;599617070116264030;7852.86;268
2024-05-25T23:09:01.205;599617070123985506;7860.5815;275
2024-05-25T23:09:01.213;599617070131676460;7868.2725;280
2024-05-25T23:09:01.220;599617070139367414;7875.9634;282
2024-05-25T23:09:01.228;599617070147058368;7883.6543;312
2024-05-25T23:09:01.236;599617070154749322;7891.345;335
2024-05-25T23:09:01.244;599617070162440276;7899.036;326
2024-05-25T23:09:01.251;599617070170131230;7906.7275;298
2024-05-25T23:09:01.259;599617070177822184;7914.418;250
2024-05-25T23:09:01.267;599617070185513138;7922.109;182
2024-05-25T23:09:01.274;599617070193204092;7929.8003;127
2024-05-25T23:09:01.282;599617070200895046;7937.4907;131
2024-05-25T23:09:01.290;599617070208586000;7945.1816;169
2024-05-25T23:09:01.297;599617070216276954;7952.873;164
2024-05-25T23:09:01.305;599617070223967908;7960.5635;136
2024-05-25T23:09:01.313;599617070231658862;7968.255;145
2024-05-25T23:09:01.320;599617070239349816;7975.946;138
2024-05-25T23:09:01.328;599617070247040770;7983.6367;85
2024-05-25T23:09:01.336;599617070254731724;7991.3276;78
2024-05-25T23:09:01.344;599617070262422678;7999.0186;115
2024-05-25T23:09:01.351;599617070270113632;8006.71;115
2024-05-25T23:09:01.359;599617070277804586;8014.4004;87
2024-05-25T23:09:01.367;599617070285495540;8022.0913;62
2024-05-25T23:09:01.374;599617070293186494;8029.7827;50
2024-05-25T23:09:01.382;599617070300877448;8037.473;27
2024-05-25T23:09:01.390;599617070308568402;8045.1646;-78
2024-05-25T23:09:01.397;599617070316259356;8052.8555;-194
2024-05-25T23:09:01.405;599617070323950310;8060.546;-189
2024-05-25T23:09:01.413;599617070331641264;8068.2373;-141
2024-05-25T23:09:01.420;599617070339332218;8075.928;-136
2024-05-25T23:09:01.428;599617070347023172;8083.619;-125
2024-05-25T23:09:01.436;599617070354714126;8091.31;-90
2024-05-25T23:09:01.444;599617070362405080;8099.001;-85
2024-05-25T23:09:01.451;599617070370096034;8106.692;-87
2024-05-25T23:09:01.459;599617070377786988;8114.383;-60
2024-05-25T23:09:01.467;599617070385477942;8122.074;-23
2024-05-25T23:09:01.474;599617070393168896;8129.7646;-9
2024-05-25T23:09:01.482;599617070400859850;8137.4556;-11
2024-05-25T23:09:01.490;599617070408550804;8145.147;-2
2024-05-25T23:09:01.497;599617070416241758;8152.8374;23
2024-05-25T23:09:01.505;599617070423932712;8160.529;41
2024-05-25T23:09:01.513;599617070431623666;8168.2197;46
2024-05-25T23:09:01.520;599617070439314620;8175.91;71
2024-05-25T23:09:01.528;599617070447005574;8183.6016;106
2024-05-25T23:09:01.536;599617070454696528;8191.2925;97
2024-05-25T23:09:01.543;599617070462387482;8198.983;81
2024-05-25T23:09:01.551;599617070470078436;8206.675;111
2024-05-25T23:09:01.559;599617070477769390;8214.365;148
2024-05-25T23:09:01.567;599617070485460344;8222.057;134
2024-05-25T23:09:01.574;599617070493151298;8229.747;101
2024-05-25T23:09:01.582;599617070500842252;8237.4375;108
2024-05-25T23:09:01.590;599617070508533206;8245.129;148
2024-05-25T23:09:01.597;599617070516224160;8252.82;173
2024-05-25T23:09:01.605;599617070523915114;8260.512;175
2024-05-25T23:09:01.613;599617070531606068;8268.202;194
2024-05-25T23:09:01.620;599617070539297022;8275.893;217
2024-05-25T23:09:01.628;599617070546987976;8283.584;210
2024-05-25T23:09:01.636;599617070554678930;8291.274;210
2024-05-25T23:09:01.643;599617070562369884;8298.966;245
2024-05-25T23:09:01.651;599617070570060838;8306.657;245
2024-05-25T23:09:01.659;599617070577751792;8314.348;208
2024-05-25T23:09:01.667;599617070585442746;8322.039;275
2024-05-25T23:09:01.674;599617070593133700;8329.7295;585
2024-05-25T23:09:01.682;599617070600824654;8337.421;1009
2024-05-25T23:09:01.690;599617070608515608;8345.111;1104
2024-05-25T23:09:01.697;599617070616206562;8352.803;685
2024-05-25T23:09:01.705;599617070623897516;8360.493;261
2024-05-25T23:09:01.713;599617070631588470;8368.185;247
2024-05-25T23:09:01.720;599617070639279424;8375.876;319
2024-05-25T23:09:01.728;599617070646970378;8383.566;245
2024-05-25T23:09:01.736;599617070654661332;8391.257;236
2024-05-25T23:09:01.743;599617070662352286;8398.948;296
2024-05-25T23:09:01.751;599617070670043240;8406.639;289
2024-05-25T23:09:01.759;599617070677734194;8414.33;277
2024-05-25T23:09:01.766;599617070685395056;8421.991;303
2024-05-25T23:09:01.774;599617070693086428;8429.683;310
2024-05-25T23:09:01.782;599617070700777800;8437.374;303
2024-05-25T23:09:01.790;599617070708469172;8445.065;324
2024-05-25T23:09:01.797;599617070716160544;8452.757;354
2024-05-25T23:09:01.805;599617070723851916;8460.447;358
2024-05-25T23:09:01.813;599617070731543288;8468.139;303
2024-05-25T23:09:01.820;599617070739234660;8475.831;231
2024-05-25T23:09:01.828;599617070746926032;8483.522;217
2024-05-25T23:09:01.836;599617070754617404;8491.213;208
2024-05-25T23:09:01.843;599617070762308776;8498.904;152
2024-05-25T23:09:01.851;599617070770000148;8506.596;141
2024-05-25T23:09:01.859;599617070777691520;8514.288;162
2024-05-25T23:09:01.866;599617070785382892;8521.979;141
2024-05-25T23:09:01.874;599617070793074264;8529.67;129
2024-05-25T23:09:01.882;599617070800765636;8537.361;159
2024-05-25T23:09:01.890;599617070808457008;8545.053;166
2024-05-25T23:09:01.897;599617070816148380;8552.744;94
2024-05-25T23:09:01.905;599617070823839752;8560.436;23
2024-05-25T23:09:01.913;599617070831531124;8568.127;46
2024-05-25T23:09:01.920;599617070839222496;8575.818;76
2024-05-25T23:09:01.928;599617070846913868;8583.51;30
2024-05-25T23:09:01.936;599617070854605240;8591.201;-9
2024-05-25T23:09:01.943;599617070862296612;8598.893;-6
2024-05-25T23:09:01.951;599617070869987984;8606.584;-50
2024-05-25T23:09:01.959;599617070877679356;8614.275;-111
2024-05-25T23:09:01.966;599617070885370728;8621.967;-99
2024-05-25T23:09:01.974;599617070893062100;8629.657;-64
2024-05-25T23:09:01.982;599617070900753472;8637.35;-62
2024-05-25T23:09:01.990;599617070908444844;8645.041;-62
2024-05-25T23:09:01.997;599617070916136216;8652.732;-57
2024-05-25T23:09:02.005;599617070923827588;8660.424;-43
2024-05-25T23:09:02.013;599617070931518960;8668.115;-18
2024-05-25T23:09:02.020;599617070939210332;8675.807;-11
2024-05-25T23:09:02.028;599617070946901704;8683.497;-9
2024-05-25T23:09:02.036;599617070954593076;8691.188;13
2024-05-25T23:09:02.043;599617070962284448;8698.88;20
2024-05-25T23:09:02.051;599617070969975820;8706.571;2
2024-05-25T23:09:02.059;599617070977667192;8714.264;-18
2024-05-25T23:09:02.066;599617070985358564;8721.955;-32
2024-05-25T23:09:02.074;599617070993049936;8729.646;-34
2024-05-25T23:09:02.082;599617071000741308;8737.337;-34
2024-05-25T23:09:02.090;599617071008432680;8745.028;-30
2024-05-25T23:09:02.097;599617071016124052;8752.72;-11
2024-05-25T23:09:02.105;599617071023815424;8760.411;4
2024-05-25T23:09:02.113;599617071031506796;8768.103;18
2024-05-25T23:09:02.120;599617071039198168;8775.794;53
2024-05-25T23:09:02.128;599617071046889540;8783.486;76
2024-05-25T23:09:02.136;599617071054580912;8791.177;74
2024-05-25T23:09:02.143;599617071062272284;8798.868;81
2024-05-25T23:09:02.151;599617071069963656;8806.56;111
2024-05-25T23:09:02.159;599617071077655028;8814.251;136
2024-05-25T23:09:02.166;599617071085346400;8821.942;141
2024-05-25T23:09:02.174;599617071093037772;8829.634;148
2024-05-25T23:09:02.182;599617071100729144;8837.325;159
2024-05-25T23:09:02.190;599617071108420516;8845.016;162
2024-05-25T23:09:02.197;599617071116111888;8852.707;143
2024-05-25T23:09:02.205;599617071123803260;8860.399;129
2024-05-25T23:09:02.213;599617071131494632;8868.091;243
2024-05-25T23:09:02.220;599617071139186004;8875.782;588
2024-05-25T23:09:02.228;599617071146877376;8883.474;977
2024-05-25T23:09:02.236;599617071154568748;8891.165;1007
2024-05-25T23:09:02.243;599617071162260120;8898.855;585
2024-05-25T23:09:02.251;599617071169951492;8906.547;199
2024-05-25T23:09:02.259;599617071177642864;8914.238;199
2024-05-25T23:09:02.266;599617071185334236;8921.93;280
2024-05-25T23:09:02.274;599617071193025608;8929.622;215
2024-05-25T23:09:02.282;599617071200716980;8937.313;192
2024-05-25T23:09:02.290;599617071208408352;8945.005;236
2024-05-25T23:09:02.297;599617071216099724;8952.696;238
2024-05-25T23:09:02.305;599617071223791096;8960.387;217
2024-05-25T23:09:02.313;599617071231482468;8968.078;189
2024-05-25T23:09:02.320;599617071239173840;8975.77;162
2024-05-25T23:09:02.328;599617071246865220;8983.461;173
2024-05-25T23:09:02.336;599617071254556592;8991.152;215
2024-05-25T23:09:02.343;599617071262247964;8998.845;238
2024-05-25T23:09:02.351;599617071269939336;9006.536;243
2024-05-25T23:09:02.359;599617071277630708;9014.227;245
2024-05-25T23:09:02.366;599617071285322080;9021.918;231
2024-05-25T23:09:02.374;599617071293013452;9029.609;162
2024-05-25T23:09:02.382;599617071300704824;9037.301;78
2024-05-25T23:09:02.389;599617071308396196;9044.992;62
2024-05-25T23:09:02.397;599617071316087568;9052.684;60
2024-05-25T23:09:02.405;599617071323778940;9060.375;-25
2024-05-25T23:09:02.413;599617071331470312;9068.065;-104
2024-05-25T23:09:02.420;599617071339161684;9075.758;-71
2024-05-25T23:09:02.428;599617071346853056;9083.449;-23
2024-05-25T23:09:02.436;599617071354544428;9091.141;-30
2024-05-25T23:09:02.443;599617071362235800;9098.832;-18
2024-05-25T23:09:02.451;599617071369927172;9106.523;16
2024-05-25T23:09:02.459;599617071377618544;9114.215;27
2024-05-25T23:09:02.466;599617071385309916;9121.905;20
2024-05-25T23:09:02.474;599617071393001288;9129.597;30
2024-05-25T23:09:02.482;599617071400692660;9137.288;30
2024-05-25T23:09:02.489;599617071408384032;9144.98;2
2024-05-25T23:09:02.497;599617071416075404;9152.672;-34
2024-05-25T23:09:02.505;599617071423766776;9160.363;-78
2024-05-25T23:09:02.513;599617071431458148;9168.055;-106
2024-05-25T23:09:02.520;599617071439149520;9175.745;-94
2024-05-25T23:09:02.528;599617071446840892;9183.437;-87
2024-05-25T23:09:02.536;599617071454532264;9191.128;-87
2024-05-25T23:09:02.543;599617071462223636;9198.819;-74
2024-05-25T23:09:02.551;599617071469915008;9206.511;-104
2024-05-25T23:09:02.559;599617071477606380;9214.202;-162
2024-05-25T23:09:02.566;599617071485297752;9221.895;-152
2024-05-25T23:09:02.574;599617071492989124;9229.585;-101
2024-05-25T23:09:02.582;599617071500680496;9237.276;-85
2024-05-25T23:09:02.589;599617071508371868;9244.968;-85
2024-05-25T23:09:02.597;599617071516063240;9252.659;-76
2024-05-25T23:09:02.605;599617071523754612;9260.351;-53
2024-05-25T23:09:02.613;599617071531445984;9268.042;-39
2024-05-25T23:09:02.620;599617071539137356;9275.733;-27
2024-05-25T23:09:02.628;599617071546828728;9283.424;4
2024-05-25T23:09:02.636;599617071554520100;9291.116;32
2024-05-25T23:09:02.643;599617071562211472;9298.808;27
2024-05-25T23:09:02.651;599617071569902844;9306.499;20
2024-05-25T23:09:02.659;599617071577594216;9314.19;48
2024-05-25T23:09:02.666;599617071585285588;9321.882;90
2024-05-25T23:09:02.674;599617071592976960;9329.573;113
2024-05-25T23:09:02.682;599617071600668332;9337.264;118
2024-05-25T23:09:02.689;599617071608359704;9344.955;134
2024-05-25T23:09:02.697;599617071616051076;9352.646;162
2024-05-25T23:09:02.705;599617071623742448;9360.338;171
2024-05-25T23:09:02.713;599617071631433820;9368.03;173
2024-05-25T23:09:02.720;599617071639125192;9375.722;203
2024-05-25T23:09:02.728;599617071646816564;9383.413;238
2024-05-25T23:09:02.736;599617071654507936;9391.104;222
2024-05-25T23:09:02.743;599617071662199308;9398.795;203
2024-05-25T23:09:02.751;599617071669890680;9406.486;210
2024-05-25T23:09:02.759;599617071677582052;9414.178;210
2024-05-25T23:09:02.766;599617071685273424;9421.869;296
2024-05-25T23:09:02.774;599617071692964796;9429.561;615
2024-05-25T23:09:02.782;599617071700656168;9437.253;1048
2024-05-25T23:09:02.789;599617071708347540;9444.944;1148
2024-05-25T23:09:02.797;599617071716038912;9452.635;689
2024-05-25T23:09:02.805;599617071723730284;9460.326;194
2024-05-25T23:09:02.813;599617071731421656;9468.018;169
2024-05-25T23:09:02.820;599617071739113028;9475.709;282
2024-05-25T23:09:02.828;599617071746804400;9483.4;189
2024-05-25T23:09:02.836;599617071754495772;9491.092;141
2024-05-25T23:09:02.843;599617071762187144;9498.783;219
2024-05-25T23:09:02.851;599617071769878516;9506.474;240
2024-05-25T23:09:02.859;599617071777569888;9514.166;222
2024-05-25T23:09:02.866;599617071785261260;9521.857;238
2024-05-25T23:09:02.874;599617071792952632;9529.549;254
2024-05-25T23:09:02.882;599617071800644004;9537.24;261
2024-05-25T23:09:02.889;599617071808330416;9544.926;275
2024-05-25T23:09:02.897;599617071816021857;9552.617;280
2024-05-25T23:09:02.905;599617071823713298;9560.309;240
2024-05-25T23:09:02.913;599617071831404739;9568.001;145
2024-05-25T23:09:02.920;599617071839096180;9575.692;50
2024-05-25T23:09:02.928;599617071846787621;9583.384;4
2024-05-25T23:09:02.936;599617071854479062;9591.075;4
2024-05-25T23:09:02.943;599617071862170503;9598.766;18
2024-05-25T23:09:02.951;599617071869861944;9606.458;23
2024-05-25T23:09:02.959;599617071877553385;9614.149;32
2024-05-25T23:09:02.966;599617071885244826;9621.841;48
2024-05-25T23:09:02.974;599617071892936267;9629.532;50
2024-05-25T23:09:02.982;599617071900627708;9637.224;53
2024-05-25T23:09:02.989;599617071908319149;9644.915;74
2024-05-25T23:09:02.997;599617071916010590;9652.607;104
2024-05-25T23:09:03.005;599617071923702031;9660.298;111
2024-05-25T23:09:03.012;599617071931393472;9667.989;97
2024-05-25T23:09:03.020;599617071939084913;9675.681;104
2024-05-25T23:09:03.028;599617071946776354;9683.372;136
2024-05-25T23:09:03.036;599617071954467795;9691.063;152
2024-05-25T23:09:03.043;599617071962159236;9698.756;120
2024-05-25T23:09:03.051;599617071969850677;9706.447;50
2024-05-25T23:09:03.059;599617071977542118;9714.138;0
2024-05-25T23:09:03.066;599617071985233559;9721.829;-20
2024-05-25T23:09:03.074;599617071992925000;9729.5205;-39
2024-05-25T23:09:03.082;599617072000616441;9737.212;-23
2024-05-25T23:09:03.089;599617072008307882;9744.904;2
2024-05-25T23:09:03.097;599617072015999323;9752.596;-9
2024-05-25T23:09:03.105;599617072023690764;9760.287;-34
2024-05-25T23:09:03.112;599617072031382205;9767.978;-16
2024-05-25T23:09:03.120;599617072039073646;9775.669;11
2024-05-25T23:09:03.128;599617072046765087;9783.361;6
2024-05-25T23:09:03.136;599617072054456528;9791.053;2
2024-05-25T23:09:03.143;599617072062147969;9798.744;27
2024-05-25T23:09:03.151;599617072069839410;9806.436;30
2024-05-25T23:09:03.159;599617072077530851;9814.127;9
2024-05-25T23:09:03.166;599617072085222292;9821.817;23
2024-05-25T23:09:03.174;599617072092913733;9829.51;67
2024-05-25T23:09:03.182;599617072100605174;9837.201;90
2024-05-25T23:09:03.189;599617072108296615;9844.893;81
2024-05-25T23:09:03.197;599617072115988056;9852.584;74
2024-05-25T23:09:03.205;599617072123679497;9860.275;94
2024-05-25T23:09:03.212;599617072131370938;9867.967;115
2024-05-25T23:09:03.220;599617072139062379;9875.659;122
2024-05-25T23:09:03.228;599617072146753820;9883.35;143
2024-05-25T23:09:03.236;599617072154445261;9891.041;171
2024-05-25T23:09:03.243;599617072162136702;9898.732;175
2024-05-25T23:09:03.251;599617072169828143;9906.424;175
2024-05-25T23:09:03.259;599617072177519584;9914.115;199
2024-05-25T23:09:03.266;599617072185211025;9921.808;226
2024-05-25T23:09:03.274;599617072192902466;9929.499;240
2024-05-25T23:09:03.282;599617072200593907;9937.189;226
2024-05-25T23:09:03.289;599617072208285348;9944.881;189
2024-05-25T23:09:03.297;599617072215976789;9952.572;157
2024-05-25T23:09:03.305;599617072223668230;9960.264;148
2024-05-25T23:09:03.312;599617072231359671;9967.956;129
2024-05-25T23:09:03.320;599617072239051112;9975.647;134
2024-05-25T23:09:03.328;599617072246742553;9983.339;291
2024-05-25T23:09:03.336;599617072254433994;9991.029;669
2024-05-25T23:09:03.343;599617072262125435;9998.721;1053
2024-05-25T23:09:03.351;599617072269816876;10006.413;1021
2024-05-25T23:09:03.359;599617072277508317;10014.1045;537
2024-05-25T23:09:03.366;599617072285199758;10021.796;169
2024-05-25T23:09:03.374;599617072292891199;10029.487;201
2024-05-25T23:09:03.382;599617072300582640;10037.179;250
2024-05-25T23:09:03.389;599617072308274081;10044.87;178
2024-05-25T23:09:03.397;599617072315965522;10052.562;175
2024-05-25T23:09:03.405;599617072323656963;10060.253;166
2024-05-25T23:09:03.412;599617072331348404;10067.944;76
2024-05-25T23:09:03.420;599617072339039845;10075.636;55
2024-05-25T23:09:03.428;599617072346731286;10083.327;90
2024-05-25T23:09:03.436;599617072354422727;10091.019;85
2024-05-25T23:09:03.443;599617072362114168;10098.711;108
2024-05-25T23:09:03.451;599617072369815674;10106.412;159
2024-05-25T23:09:03.459;599617072377506976;10114.104;171
2024-05-25T23:09:03.466;599617072385198278;10121.795;164
2024-05-25T23:09:03.474;599617072392889580;10129.485;182
2024-05-25T23:09:03.482;599617072400580882;10137.177;171
2024-05-25T23:09:03.489;599617072408272184;10144.868;83
2024-05-25T23:09:03.497;599617072415963486;10152.56;18
2024-05-25T23:09:03.505;599617072423654788;10160.251;69
2024-05-25T23:09:03.512;599617072431346090;10167.942;111
2024-05-25T23:09:03.520;599617072439037392;10175.634;69
2024-05-25T23:09:03.528;599617072446728694;10183.324;57
2024-05-25T23:09:03.536;599617072454419996;10191.016;69
2024-05-25T23:09:03.543;599617072462111298;10198.707;30
2024-05-25T23:09:03.551;599617072469802600;10206.398;4
2024-05-25T23:09:03.559;599617072477493902;10214.09;34
2024-05-25T23:09:03.566;599617072485185204;10221.781;53
2024-05-25T23:09:03.574;599617072492876506;10229.473;48
2024-05-25T23:09:03.582;599617072500567808;10237.163;57
2024-05-25T23:09:03.589;599617072508259110;10244.8545;78
2024-05-25T23:09:03.597;599617072515950412;10252.546;87
2024-05-25T23:09:03.605;599617072523641714;10260.237;48
2024-05-25T23:09:03.612;599617072531333016;10267.929;-13
2024-05-25T23:09:03.620;599617072539024318;10275.62;-41
2024-05-25T23:09:03.628;599617072546715620;10283.312;-46
2024-05-25T23:09:03.636;599617072554406922;10291.002;-55
2024-05-25T23:09:03.643;599617072562098224;10298.694;-53
2024-05-25T23:09:03.651;599617072569789526;10306.386;-41
2024-05-25T23:09:03.659;599617072577480828;10314.077;-39
2024-05-25T23:09:03.666;599617072585172130;10321.769;-41
2024-05-25T23:09:03.674;599617072592863432;10329.46;-32
2024-05-25T23:09:03.682;599617072600554734;10337.151;-9
2024-05-25T23:09:03.689;599617072608246036;10344.842;11
2024-05-25T23:09:03.697;599617072615937338;10352.533;11
2024-05-25T23:09:03.705;599617072623628640;10360.225;4
2024-05-25T23:09:03.712;599617072631319942;10367.916;20
2024-05-25T23:09:03.720;599617072639011244;10375.607;43
2024-05-25T23:09:03.728;599617072646702546;10383.299;50
2024-05-25T23:09:03.735;599617072654393848;10390.99;57
2024-05-25T23:09:03.743;599617072662085150;10398.681;76
2024-05-25T23:09:03.751;599617072669776452;10406.372;85
2024-05-25T23:09:03.759;599617072677467754;10414.063;76
2024-05-25T23:09:03.766;599617072685159056;10421.755;90
2024-05-25T23:09:03.774;599617072692850358;10429.446;122
2024-05-25T23:09:03.782;599617072700541660;10437.138;113
2024-05-25T23:09:03.789;599617072708232962;10444.829;55
2024-05-25T23:09:03.797;599617072715924264;10452.52;32
2024-05-25T23:09:03.805;599617072723615566;10460.211;74
2024-05-25T23:09:03.812;599617072731306868;10467.902;118
2024-05-25T23:09:03.820;599617072738998170;10475.594;129
2024-05-25T23:09:03.828;599617072746689472;10483.285;141
2024-05-25T23:09:03.835;599617072754380774;10490.977;164
2024-05-25T23:09:03.843;599617072762072076;10498.668;173
2024-05-25T23:09:03.851;599617072769763378;10506.359;159
2024-05-25T23:09:03.859;599617072777454680;10514.051;171
2024-05-25T23:09:03.866;599617072785145982;10521.742;213
2024-05-25T23:09:03.874;599617072792837284;10529.434;208
2024-05-25T23:09:03.882;599617072800528586;10537.125;162
2024-05-25T23:09:03.889;599617072808219888;10544.816;233
2024-05-25T23:09:03.897;599617072815911190;10552.508;578
2024-05-25T23:09:03.905;599617072823602492;10560.198;1025
2024-05-25T23:09:03.912;599617072831293794;10567.89;1090
2024-05-25T23:09:03.920;599617072838985096;10575.581;578
2024-05-25T23:09:03.928;599617072846676398;10583.272;55
2024-05-25T23:09:03.935;599617072854367700;10590.964;16
2024-05-25T23:09:03.943;599617072862059002;10598.655;115
2024-05-25T23:09:03.951;599617072869750304;10606.347;64
2024-05-25T23:09:03.959;599617072877441606;10614.037;67
2024-05-25T23:09:03.966;599617072885132908;10621.729;125
2024-05-25T23:09:03.974;599617072892824210;10629.42;113
2024-05-25T23:09:03.982;599617072900515512;10637.111;108
2024-05-25T23:09:03.989;599617072908206814;10644.803;155
2024-05-25T23:09:03.997;599617072915898116;10652.494;173
2024-05-25T23:09:04.005;599617072923589418;10660.186;169
2024-05-25T23:09:04.012;599617072931275712;10667.871;199
2024-05-25T23:09:04.020;599617072938967084;10675.563;231
2024-05-25T23:09:04.028;599617072946658456;10683.255;206
2024-05-25T23:09:04.035;599617072954349828;10690.946;171
2024-05-25T23:09:04.043;599617072962041200;10698.638;159
2024-05-25T23:09:04.051;599617072969732572;10706.328;141
2024-05-25T23:09:04.059;599617072977423944;10714.02;131
2024-05-25T23:09:04.066;599617072985115316;10721.711;143
2024-05-25T23:09:04.074;599617072992806688;10729.402;150
2024-05-25T23:09:04.082;599617073000498060;10737.094;134
2024-05-25T23:09:04.089;599617073008189432;10744.785;92
2024-05-25T23:09:04.097;599617073015880804;10752.478;57
2024-05-25T23:09:04.105;599617073023572176;10760.168;78
2024-05-25T23:09:04.112;599617073031263548;10767.859;101
2024-05-25T23:09:04.120;599617073038954920;10775.551;76
2024-05-25T23:09:04.128;599617073046646292;10783.242;62
2024-05-25T23:09:04.135;599617073054337664;10790.934;101
2024-05-25T23:09:04.143;599617073062029036;10798.625;127
2024-05-25T23:09:04.151;599617073069720408;10806.316;108
2024-05-25T23:09:04.159;599617073077411780;10814.007;78
2024-05-25T23:09:04.166;599617073085103152;10821.699;43
2024-05-25T23:09:04.174;599617073092794524;10829.391;11
2024-05-25T23:09:04.182;599617073100485896;10837.082;-23
2024-05-25T23:09:04.189;599617073108177268;10844.773;-43
2024-05-25T23:09:04.197;599617073115868640;10852.465;-23
2024-05-25T23:09:04.205;599617073123560012;10860.156;-11
2024-05-25T23:09:04.212;599617073131251384;10867.848;-41
2024-05-25T23:09:04.220;599617073138942756;10875.538;-46
2024-05-25T23:09:04.228;599617073146634128;10883.2295;-11
2024-05-25T23:09:04.235;599617073154325500;10890.921;-2
2024-05-25T23:09:04.243;599617073162016872;10898.613;-9
2024-05-25T23:09:04.251;599617073169708244;10906.305;6
2024-05-25T23:09:04.258;599617073177399616;10913.996;16
2024-05-25T23:09:04.266;599617073185090988;10921.6875;23
2024-05-25T23:09:04.274;599617073192782360;10929.378;25
2024-05-25T23:09:04.282;599617073200473732;10937.069;4
2024-05-25T23:09:04.289;599617073208165104;10944.761;0
2024-05-25T23:09:04.297;599617073215856476;10952.452;11
2024-05-25T23:09:04.305;599617073223547848;10960.144;2
2024-05-25T23:09:04.312;599617073231239220;10967.836;4
2024-05-25T23:09:04.320;599617073238930592;10975.527;43
2024-05-25T23:09:04.328;599617073246621964;10983.218;64
2024-05-25T23:09:04.335;599617073254313336;10990.909;69
2024-05-25T23:09:04.343;599617073262004708;10998.601;97
2024-05-25T23:09:04.351;599617073269696080;11006.292;125
2024-05-25T23:09:04.358;599617073277387452;11013.983;129
2024-05-25T23:09:04.366;599617073285078824;11021.675;134
2024-05-25T23:09:04.374;599617073292770196;11029.366;157
2024-05-25T23:09:04.382;599617073300461568;11037.057;187
2024-05-25T23:09:04.389;599617073308152940;11044.749;185
2024-05-25T23:09:04.397;599617073315844312;11052.44;166
2024-05-25T23:09:04.405;599617073323535684;11060.132;175
2024-05-25T23:09:04.412;599617073331227056;11067.823;169
2024-05-25T23:09:04.420;599617073338918428;11075.515;101
2024-05-25T23:09:04.428;599617073346609800;11083.206;157
2024-05-25T23:09:04.435;599617073354301172;11090.896;532
2024-05-25T23:09:04.443;599617073361992544;11098.588;944
2024-05-25T23:09:04.451;599617073369683916;11106.279;868
2024-05-25T23:09:04.458;599617073377375288;11113.972;368
2024-05-25T23:09:04.466;599617073385066660;11121.663;53
2024-05-25T23:09:04.474;599617073392758032;11129.3545;118
2024-05-25T23:09:04.482;599617073400449404;11137.046;155
2024-05-25T23:09:04.489;599617073408140776;11144.736;69
2024-05-25T23:09:04.497;599617073415832148;11152.428;90
2024-05-25T23:09:04.505;599617073423523520;11160.119;143
2024-05-25T23:09:04.512;599617073431214892;11167.811;122
2024-05-25T23:09:04.520;599617073438906264;11175.502;106
2024-05-25T23:09:04.528;599617073446597636;11183.193;101
2024-05-25T23:09:04.535;599617073454289008;11190.886;74
2024-05-25T23:09:04.543;599617073461980380;11198.576;71
2024-05-25T23:09:04.551;599617073469671752;11206.268;115
2024-05-25T23:09:04.558;599617073477363124;11213.959;157
2024-05-25T23:09:04.566;599617073485054496;11221.65;171
2024-05-25T23:09:04.574;599617073492745876;11229.342;169
2024-05-25T23:09:04.582;599617073500437248;11237.033;178
2024-05-25T23:09:04.589;599617073508128620;11244.725;203
2024-05-25T23:09:04.597;599617073515819992;11252.415;217
2024-05-25T23:09:04.605;599617073523511364;11260.107;199
2024-05-25T23:09:04.612;599617073531202736;11267.799;178
2024-05-25T23:09:04.620;599617073538894108;11275.49;166
2024-05-25T23:09:04.628;599617073546585480;11283.182;92
2024-05-25T23:09:04.635;599617073554276852;11290.873;0
2024-05-25T23:09:04.643;599617073561968224;11298.564;16
2024-05-25T23:09:04.651;599617073569659596;11306.255;69
2024-05-25T23:09:04.658;599617073577350968;11313.946;60
2024-05-25T23:09:04.666;599617073585042340;11321.638;39
2024-05-25T23:09:04.674;599617073592733712;11329.329;43
2024-05-25T23:09:04.682;599617073600425084;11337.021;55
2024-05-25T23:09:04.689;599617073608116456;11344.713;62
2024-05-25T23:09:04.697;599617073615807828;11352.404;74
2024-05-25T23:09:04.705;599617073623499200;11360.096;97
2024-05-25T23:09:04.712;599617073631190572;11367.786;97
2024-05-25T23:09:04.720;599617073638881944;11375.478;41
2024-05-25T23:09:04.728;599617073646573316;11383.169;2
2024-05-25T23:09:04.735;599617073654264688;11390.86;16
2024-05-25T23:09:04.743;599617073661956060;11398.552;-4
2024-05-25T23:09:04.751;599617073669647432;11406.244;-57
2024-05-25T23:09:04.758;599617073677338804;11413.936;-64
2024-05-25T23:09:04.766;599617073685030176;11421.626;-78
2024-05-25T23:09:04.774;599617073692721548;11429.317;-143
2024-05-25T23:09:04.782;599617073700412920;11437.009;-166
2024-05-25T23:09:04.789;599617073708104292;11444.7;-125
2024-05-25T23:09:04.797;599617073715795664;11452.392;-97
2024-05-25T23:09:04.805;599617073723487036;11460.083;-106
2024-05-25T23:09:04.812;599617073731178408;11467.774;-115
2024-05-25T23:09:04.820;599617073738869780;11475.465;-99
2024-05-25T23:09:04.828;599617073746561152;11483.157;-67
2024-05-25T23:09:04.835;599617073754252524;11490.849;-55
2024-05-25T23:09:04.843;599617073761943896;11498.54;-53
2024-05-25T23:09:04.851;599617073769635268;11506.231;-32
2024-05-25T23:09:04.858;599617073777326640;11513.923;-13
2024-05-25T23:09:04.866;599617073785018012;11521.614;-13
2024-05-25T23:09:04.874;599617073792709384;11529.305;2
2024-05-25T23:09:04.881;599617073800400756;11536.996;46
2024-05-25T23:09:04.889;599617073808092128;11544.6875;81
2024-05-25T23:09:04.897;599617073815783500;11552.38;78
2024-05-25T23:09:04.905;599617073823474872;11560.071;67
2024-05-25T23:09:04.912;599617073831166244;11567.763;83
2024-05-25T23:09:04.920;599617073838857616;11575.454;62
2024-05-25T23:09:04.928;599617073846548988;11583.145;-30
2024-05-25T23:09:04.935;599617073854240360;11590.836;-83
2024-05-25T23:09:04.943;599617073861931732;11598.527;-69
2024-05-25T23:09:04.951;599617073869623104;11606.219;11
2024-05-25T23:09:04.958;599617073877314476;11613.91;303
2024-05-25T23:09:04.966;599617073885005848;11621.603;745
2024-05-25T23:09:04.974;599617073892697220;11629.294;868
2024-05-25T23:09:04.981;599617073900388592;11636.984;467
2024-05-25T23:09:04.989;599617073908079964;11644.676;41
2024-05-25T23:09:04.997;599617073915771336;11652.367;18
2024-05-25T23:09:05.005;599617073923462708;11660.059;122
2024-05-25T23:09:05.012;599617073931154080;11667.75;69
2024-05-25T23:09:05.020;599617073938845452;11675.441;16
2024-05-25T23:09:05.028;599617073946536824;11683.133;57
2024-05-25T23:09:05.035;599617073954228196;11690.823;87
2024-05-25T23:09:05.043;599617073961919568;11698.516;71
2024-05-25T23:09:05.051;599617073969610940;11706.207;74
2024-05-25T23:09:05.058;599617073977302312;11713.898;115
2024-05-25T23:09:05.066;599617073984993684;11721.59;157
2024-05-25T23:09:05.074;599617073992685056;11729.281;171
2024-05-25T23:09:05.081;599617074000376428;11736.973;169
2024-05-25T23:09:05.089;599617074008067800;11744.663;175
2024-05-25T23:09:05.097;599617074015759172;11752.3545;206
2024-05-25T23:09:05.105;599617074023450544;11760.046;236
2024-05-25T23:09:05.112;599617074031141916;11767.738;243
2024-05-25T23:09:05.120;599617074038833288;11775.43;263
2024-05-25T23:09:05.128;599617074046524660;11783.121;282
2024-05-25T23:09:05.135;599617074054216040;11790.8125;273
2024-05-25T23:09:05.143;599617074061907412;11798.504;275
2024-05-25T23:09:05.151;599617074069598784;11806.194;298
2024-05-25T23:09:05.158;599617074077290156;11813.886;305
2024-05-25T23:09:05.166;599617074084981528;11821.577;263
2024-05-25T23:09:05.174;599617074092672900;11829.269;215
2024-05-25T23:09:05.181;599617074100364272;11836.96;208
2024-05-25T23:09:05.189;599617074108055644;11844.652;201
2024-05-25T23:09:05.197;599617074115747016;11852.344;143
2024-05-25T23:09:05.205;599617074123438388;11860.034;78
2024-05-25T23:09:05.212;599617074131129760;11867.726;85
2024-05-25T23:09:05.220;599617074138821132;11875.417;108
2024-05-25T23:09:05.228;599617074146512504;11883.108;76
2024-05-25T23:09:05.235;599617074154203876;11890.8;57
2024-05-25T23:09:05.243;599617074161895248;11898.491;101
2024-05-25T23:09:05.251;599617074169586620;11906.183;134
2024-05-25T23:09:05.258;599617074177277992;11913.874;115
2024-05-25T23:09:05.266;599617074184969364;11921.565;81
2024-05-25T23:09:05.274;599617074192660736;11929.257;53
2024-05-25T23:09:05.281;599617074200352108;11936.948;20
2024-05-25T23:09:05.289;599617074208043480;11944.64;-9
2024-05-25T23:09:05.297;599617074215734852;11952.331;-30
2024-05-25T23:09:05.305;599617074223426224;11960.022;-46
2024-05-25T23:09:05.312;599617074231117596;11967.713;-60
2024-05-25T23:09:05.320;599617074238808968;11975.404;-85
2024-05-25T23:09:05.328;599617074246500340;11983.096;-94
2024-05-25T23:09:05.335;599617074254191712;11990.788;-67
2024-05-25T23:09:05.343;599617074261883084;11998.4795;-50
2024-05-25T23:09:05.351;599617074269574456;12006.171;-57
2024-05-25T23:09:05.358;599617074277265828;12013.862;-55
2024-05-25T23:09:05.366;599617074284957200;12021.553;-32
2024-05-25T23:09:05.374;599617074292648572;12029.244;-18
2024-05-25T23:09:05.381;599617074300339944;12036.936;-20
2024-05-25T23:09:05.389;599617074308031316;12044.627;2
2024-05-25T23:09:05.397;599617074315722688;12052.318;46
2024-05-25T23:09:05.405;599617074323414060;12060.011;53
2024-05-25T23:09:05.412;599617074331105432;12067.702;23
2024-05-25T23:09:05.420;599617074338796804;12075.393;-4
2024-05-25T23:09:05.428;599617074346488176;12083.084;-53
2024-05-25T23:09:05.435;599617074354179548;12090.775;-85
2024-05-25T23:09:05.443;599617074361870920;12098.467;-62
2024-05-25T23:09:05.451;599617074369562292;12106.158;-57
2024-05-25T23:09:05.458;599617074377253664;12113.85;-99
2024-05-25T23:09:05.466;599617074384945036;12121.541;-76
2024-05-25T23:09:05.474;599617074392636408;12129.231;169
2024-05-25T23:09:05.481;599617074400327780;12136.924;620
2024-05-25T23:09:05.489;599617074408019152;12144.615;909
2024-05-25T23:09:05.497;599617074415710524;12152.307;641
2024-05-25T23:09:05.504;599617074423401896;12159.998;81
2024-05-25T23:09:05.512;599617074431093268;12167.689;-120
2024-05-25T23:09:05.520;599617074438784640;12175.381;13
2024-05-25T23:09:05.528;599617074446476012;12183.071;23
2024-05-25T23:09:05.535;599617074454167384;12190.763;-41
2024-05-25T23:09:05.543;599617074461858756;12198.454;13
2024-05-25T23:09:05.551;599617074469550128;12206.146;48
2024-05-25T23:09:05.558;599617074477241500;12213.838;20
2024-05-25T23:09:05.566;599617074484932872;12221.529;43
2024-05-25T23:09:05.574;599617074492624244;12229.221;101
2024-05-25T23:09:05.581;599617074500315616;12236.911;127
2024-05-25T23:09:05.589;599617074508006988;12244.603;136
2024-05-25T23:09:05.597;599617074515698360;12252.294;138
2024-05-25T23:09:05.604;599617074523389732;12259.985;159
2024-05-25T23:09:05.612;599617074531081104;12267.677;189
2024-05-25T23:09:05.620;599617074538772476;12275.368;206
2024-05-25T23:09:05.628;599617074546463848;12283.061;231
2024-05-25T23:09:05.635;599617074554155220;12290.752;266
2024-05-25T23:09:05.643;599617074561846592;12298.442;280
2024-05-25T23:09:05.651;599617074569537964;12306.134;270
2024-05-25T23:09:05.658;599617074577229336;12313.825;289
2024-05-25T23:09:05.666;599617074584920708;12321.517;326
2024-05-25T23:09:05.674;599617074592612080;12329.208;340
2024-05-25T23:09:05.681;599617074600303452;12336.899;335
2024-05-25T23:09:05.689;599617074607994824;12344.591;331
2024-05-25T23:09:05.697;599617074615686204;12352.282;338
2024-05-25T23:09:05.704;599617074623377576;12359.974;335
2024-05-25T23:09:05.712;599617074631068948;12367.665;296
2024-05-25T23:09:05.720;599617074638760320;12375.356;270
2024-05-25T23:09:05.728;599617074646451692;12383.048;273
2024-05-25T23:09:05.735;599617074654143064;12390.739;213
2024-05-25T23:09:05.743;599617074661834436;12398.431;104
2024-05-25T23:09:05.751;599617074669525808;12406.121;67
2024-05-25T23:09:05.758;599617074677217180;12413.8125;62
2024-05-25T23:09:05.766;599617074684908552;12421.504;37
2024-05-25T23:09:05.774;599617074692599924;12429.196;32
2024-05-25T23:09:05.781;599617074700291296;12436.888;48
2024-05-25T23:09:05.789;599617074707982668;12444.579;62
2024-05-25T23:09:05.797;599617074715674040;12452.2705;78
2024-05-25T23:09:05.804;599617074723365412;12459.961;99
2024-05-25T23:09:05.812;599617074731056784;12467.652;125
2024-05-25T23:09:05.820;599617074738748156;12475.344;131
2024-05-25T23:09:05.828;599617074746439528;12483.035;83
2024-05-25T23:09:05.835;599617074754130900;12490.727;37
2024-05-25T23:09:05.843;599617074761822272;12498.419;23
2024-05-25T23:09:05.851;599617074769513644;12506.11;4
2024-05-25T23:09:05.858;599617074777205016;12513.801;-11
2024-05-25T23:09:05.866;599617074784896388;12521.492;-6
2024-05-25T23:09:05.874;599617074792587760;12529.184;-11
2024-05-25T23:09:05.881;599617074800279132;12536.875;-16
2024-05-25T23:09:05.889;599617074807970504;12544.566;-11
2024-05-25T23:09:05.897;599617074815661876;12552.258;2
2024-05-25T23:09:05.904;599617074823353248;12559.949;39
2024-05-25T23:09:05.912;599617074831044620;12567.64;67
2024-05-25T23:09:05.920;599617074838735992;12575.332;25
2024-05-25T23:09:05.928;599617074846427364;12583.023;-62
2024-05-25T23:09:05.935;599617074854118736;12590.715;-104
2024-05-25T23:09:05.943;599617074861810108;12598.406;-74
2024-05-25T23:09:05.951;599617074869501480;12606.098;-43
2024-05-25T23:09:05.958;599617074877192852;12613.789;-41
2024-05-25T23:09:05.966;599617074884884224;12621.4795;-34
2024-05-25T23:09:05.974;599617074892575596;12629.171;-48
2024-05-25T23:09:05.981;599617074900266968;12636.862;-74
2024-05-25T23:09:05.989;599617074907958340;12644.555;46
2024-05-25T23:09:05.997;599617074915649712;12652.246;416
2024-05-25T23:09:06.004;599617074923341084;12659.9375;805
2024-05-25T23:09:06.012;599617074931032456;12667.629;794
2024-05-25T23:09:06.020;599617074938723828;12675.319;344
2024-05-25T23:09:06.028;599617074946415200;12683.011;-32
2024-05-25T23:09:06.035;599617074954106572;12690.702;-11
2024-05-25T23:09:06.043;599617074961797944;12698.394;81
2024-05-25T23:09:06.051;599617074969489316;12706.085;27
2024-05-25T23:09:06.058;599617074977180688;12713.776;18
2024-05-25T23:09:06.066;599617074984872060;12721.469;67
2024-05-25T23:09:06.074;599617074992563432;12729.16;74
2024-05-25T23:09:06.081;599617075000254804;12736.851;94
2024-05-25T23:09:06.089;599617075007946176;12744.542;138
2024-05-25T23:09:06.097;599617075015637548;12752.233;152
2024-05-25T23:09:06.104;599617075023328920;12759.925;143
2024-05-25T23:09:06.112;599617075031020292;12767.616;162
2024-05-25T23:09:06.120;599617075038711664;12775.308;194
2024-05-25T23:09:06.127;599617075046403036;12782.998;196
2024-05-25T23:09:06.135;599617075054094408;12790.69;201
2024-05-25T23:09:06.143;599617075061785780;12798.382;236
2024-05-25T23:09:06.151;599617075069477152;12806.073;252
2024-05-25T23:09:06.158;599617075077168524;12813.765;243
2024-05-25T23:09:06.166;599617075084859896;12821.456;256
2024-05-25T23:09:06.174;599617075092551268;12829.147;296
2024-05-25T23:09:06.181;599617075100242640;12836.839;319
2024-05-25T23:09:06.189;599617075107934012;12844.529;314
2024-05-25T23:09:06.197;599617075115625384;12852.221;298
2024-05-25T23:09:06.204;599617075123316756;12859.912;300
2024-05-25T23:09:06.212;599617075131008128;12867.6045;321
2024-05-25T23:09:06.220;599617075138699500;12875.296;331
2024-05-25T23:09:06.227;599617075146390872;12882.987;335
2024-05-25T23:09:06.235;599617075154082244;12890.679;340
2024-05-25T23:09:06.243;599617075161773616;12898.369;321
2024-05-25T23:09:06.251;599617075169464988;12906.061;277
2024-05-25T23:09:06.258;599617075177156368;12913.752;252
2024-05-25T23:09:06.266;599617075184847740;12921.443;240
2024-05-25T23:09:06.274;599617075192539112;12929.135;217
2024-05-25T23:09:06.281;599617075200230484;12936.827;192
2024-05-25T23:09:06.289;599617075207921856;12944.519;180
2024-05-25T23:09:06.297;599617075215613228;12952.209;182
2024-05-25T23:09:06.304;599617075223304600;12959.9;164
2024-05-25T23:09:06.312;599617075230995972;12967.592;108
2024-05-25T23:09:06.320;599617075238687344;12975.283;92
2024-05-25T23:09:06.327;599617075246378716;12982.975;125
2024-05-25T23:09:06.335;599617075254070088;12990.666;120
2024-05-25T23:09:06.343;599617075261761460;12998.357;97
2024-05-25T23:09:06.351;599617075269452832;13006.049;122
2024-05-25T23:09:06.358;599617075277144204;13013.74;155
2024-05-25T23:09:06.366;599617075284835576;13021.432;155
2024-05-25T23:09:06.374;599617075292526948;13029.123;129
2024-05-25T23:09:06.381;599617075300218320;13036.814;90
2024-05-25T23:09:06.389;599617075307909692;13044.506;64
2024-05-25T23:09:06.397;599617075315601064;13052.197;37
2024-05-25T23:09:06.404;599617075323292436;13059.888;-4
2024-05-25T23:09:06.412;599617075330983808;13067.579;0
2024-05-25T23:09:06.420;599617075338675180;13075.2705;27
2024-05-25T23:09:06.427;599617075346366552;13082.963;-30
2024-05-25T23:09:06.435;599617075354057924;13090.654;-113
2024-05-25T23:09:06.443;599617075361749296;13098.346;-104
2024-05-25T23:09:06.451;599617075369440668;13106.037;-67
2024-05-25T23:09:06.458;599617075377132040;13113.728;-71
2024-05-25T23:09:06.466;599617075384823412;13121.419;-74
2024-05-25T23:09:06.474;599617075392514784;13129.11;-55
2024-05-25T23:09:06.481;599617075400206156;13136.802;-32
2024-05-25T23:09:06.489;599617075407897528;13144.493;-39
2024-05-25T23:09:06.497;599617075415588900;13152.186;-106
2024-05-25T23:09:06.504;599617075423280272;13159.877;-129
2024-05-25T23:09:06.512;599617075430971644;13167.568;41
2024-05-25T23:09:06.520;599617075438663016;13175.259;435
2024-05-25T23:09:06.527;599617075446354388;13182.95;828
2024-05-25T23:09:06.535;599617075454045760;13190.642;821
2024-05-25T23:09:06.543;599617075461737132;13198.333;349
2024-05-25T23:09:06.551;599617075469428504;13206.024;-25
2024-05-25T23:09:06.558;599617075477119876;13213.716;18
2024-05-25T23:09:06.566;599617075484811248;13221.406;81
2024-05-25T23:09:06.574;599617075492502620;13229.099;2
2024-05-25T23:09:06.581;599617075500193992;13236.79;6
2024-05-25T23:09:06.589;599617075507885364;13244.481;67
2024-05-25T23:09:06.597;599617075515576736;13252.173;90
2024-05-25T23:09:06.604;599617075523268108;13259.864;101
2024-05-25T23:09:06.612;599617075530959480;13267.556;104
2024-05-25T23:09:06.620;599617075538650852;13275.247;111
2024-05-25T23:09:06.627;599617075546342224;13282.9375;148
2024-05-25T23:09:06.635;599617075554033596;13290.629;178
2024-05-25T23:09:06.643;599617075561724968;13298.321;180
2024-05-25T23:09:06.651;599617075569416340;13306.013;194
2024-05-25T23:09:06.658;599617075577107712;13313.704;215
2024-05-25T23:09:06.666;599617075584799084;13321.3955;217
2024-05-25T23:09:06.674;599617075592490456;13329.087;226
2024-05-25T23:09:06.681;599617075600181828;13336.777;259
2024-05-25T23:09:06.689;599617075607873200;13344.469;289
2024-05-25T23:09:06.697;599617075615564572;13352.16;291
2024-05-25T23:09:06.704;599617075623255944;13359.852;277
2024-05-25T23:09:06.712;599617075630947316;13367.543;289
2024-05-25T23:09:06.720;599617075638638688;13375.235;317
2024-05-25T23:09:06.727;599617075646330060;13382.927;317
2024-05-25T23:09:06.735;599617075654021432;13390.617;294
2024-05-25T23:09:06.743;599617075661712804;13398.309;256
2024-05-25T23:09:06.751;599617075669404176;13406.0;219
2024-05-25T23:09:06.758;599617075677095548;13413.691;213
2024-05-25T23:09:06.766;599617075684786920;13421.383;231
2024-05-25T23:09:06.774;599617075692478292;13429.074;247
2024-05-25T23:09:06.781;599617075700169664;13436.766;259
2024-05-25T23:09:06.789;599617075707861036;13444.457;259
2024-05-25T23:09:06.797;599617075715552408;13452.148;247
2024-05-25T23:09:06.804;599617075723243780;13459.84;256
2024-05-25T23:09:06.812;599617075730935152;13467.531;280
2024-05-25T23:09:06.820;599617075738626532;13475.223;263
2024-05-25T23:09:06.827;599617075746317904;13482.914;222
2024-05-25T23:09:06.835;599617075754009276;13490.605;219
2024-05-25T23:09:06.843;599617075761700648;13498.296;199
2024-05-25T23:09:06.850;599617075769392020;13505.987;101
2024-05-25T23:09:06.858;599617075777083392;13513.679;48
2024-05-25T23:09:06.866;599617075784774764;13521.371;92
2024-05-25T23:09:06.874;599617075792466136;13529.0625;120
2024-05-25T23:09:06.881;599617075800157508;13536.754;97
2024-05-25T23:09:06.889;599617075807848880;13544.445;85
2024-05-25T23:09:06.897;599617075815540252;13552.136;106
2024-05-25T23:09:06.904;599617075823231624;13559.827;120
2024-05-25T23:09:06.912;599617075830922996;13567.519;113
2024-05-25T23:09:06.920;599617075838614368;13575.21;125
2024-05-25T23:09:06.927;599617075846305740;13582.901;134
2024-05-25T23:09:06.935;599617075853997112;13590.594;55
2024-05-25T23:09:06.943;599617075861688484;13598.285;-43
2024-05-25T23:09:06.950;599617075869379856;13605.976;-46
2024-05-25T23:09:06.958;599617075877071228;13613.667;-34
2024-05-25T23:09:06.966;599617075884762600;13621.358;-64
2024-05-25T23:09:06.974;599617075892453972;13629.05;-83
2024-05-25T23:09:06.981;599617075900145344;13636.741;-108
2024-05-25T23:09:06.989;599617075907836716;13644.433;-155
2024-05-25T23:09:06.997;599617075915528088;13652.124;-173
2024-05-25T23:09:07.004;599617075923219460;13659.814;-157
2024-05-25T23:09:07.012;599617075930910832;13667.507;-127
2024-05-25T23:09:07.020;599617075938602204;13675.198;-118
2024-05-25T23:09:07.027;599617075946293576;13682.89;-169
2024-05-25T23:09:07.035;599617075953984948;13690.581;-182
2024-05-25T23:09:07.043;599617075961676320;13698.272;30
2024-05-25T23:09:07.050;599617075969367692;13705.964;481
2024-05-25T23:09:07.058;599617075977059064;13713.654;852
2024-05-25T23:09:07.066;599617075984750436;13721.346;722
2024-05-25T23:09:07.074;599617075992441808;13729.037;199
2024-05-25T23:09:07.081;599617076000133180;13736.7295;-97
2024-05-25T23:09:07.089;599617076007824552;13744.421;-20
2024-05-25T23:09:07.097;599617076015515924;13752.112;18
2024-05-25T23:09:07.104;599617076023207296;13759.804;-20
2024-05-25T23:09:07.112;599617076030898668;13767.495;11
2024-05-25T23:09:07.120;599617076038590040;13775.186;20
2024-05-25T23:09:07.127;599617076046281412;13782.877;2
2024-05-25T23:09:07.135;599617076053972784;13790.568;46
2024-05-25T23:09:07.143;599617076061664156;13798.26;83
2024-05-25T23:09:07.150;599617076069355528;13805.951;81
2024-05-25T23:09:07.158;599617076077046900;13813.644;97
2024-05-25T23:09:07.166;599617076084738272;13821.335;122
2024-05-25T23:09:07.174;599617076092429644;13829.025;129
2024-05-25T23:09:07.181;599617076100121016;13836.717;141
2024-05-25T23:09:07.189;599617076107812388;13844.408;166
2024-05-25T23:09:07.197;599617076115503760;13852.1;203
2024-05-25T23:09:07.204;599617076123195132;13859.791;215
2024-05-25T23:09:07.212;599617076130886504;13867.482;201
2024-05-25T23:09:07.220;599617076138577876;13875.174;213
2024-05-25T23:09:07.227;599617076146269248;13882.865;240
2024-05-25T23:09:07.235;599617076153960620;13890.557;208
2024-05-25T23:09:07.243;599617076161651992;13898.248;162
2024-05-25T23:09:07.250;599617076169343364;13905.939;173
2024-05-25T23:09:07.258;599617076177034736;13913.631;199
2024-05-25T23:09:07.266;599617076184726108;13921.322;194
2024-05-25T23:09:07.274;599617076192417480;13929.014;203
2024-05-25T23:09:07.281;599617076200108852;13936.704;233
2024-05-25T23:09:07.289;599617076207800224;13944.3955;252
2024-05-25T23:09:07.297;599617076215491596;13952.087;252
2024-05-25T23:09:07.304;599617076223182968;13959.779;238
2024-05-25T23:09:07.312;599617076230874340;13967.471;236
2024-05-25T23:09:07.320;599617076238565712;13975.162;268
2024-05-25T23:09:07.327;599617076246257084;13982.854;287
2024-05-25T23:09:07.335;599617076253948456;13990.544;282
2024-05-25T23:09:07.343;599617076261639828;13998.235;298
2024-05-25T23:09:07.350;599617076269331200;14005.927;307
2024-05-25T23:09:07.358;599617076277022572;14013.618;289
2024-05-25T23:09:07.366;599617076284713944;14021.31;296
2024-05-25T23:09:07.374;599617076292405316;14029.002;333
2024-05-25T23:09:07.381;599617076300096696;14036.693;331
2024-05-25T23:09:07.389;599617076307788068;14044.384;273
2024-05-25T23:09:07.397;599617076315479440;14052.075;233
2024-05-25T23:09:07.404;599617076323170812;14059.767;245
2024-05-25T23:09:07.412;599617076330862184;14067.458;254
2024-05-25T23:09:07.420;599617076338553556;14075.149;243
2024-05-25T23:09:07.427;599617076346244928;14082.841;245
2024-05-25T23:09:07.435;599617076353936300;14090.532;240
2024-05-25T23:09:07.443;599617076361627672;14098.225;138
2024-05-25T23:09:07.450;599617076369319044;14105.915;-27
2024-05-25T23:09:07.458;599617076377010416;14113.606;-67
2024-05-25T23:09:07.466;599617076384701788;14121.298;-6
2024-05-25T23:09:07.473;599617076392393160;14128.989;-4
2024-05-25T23:09:07.481;599617076400084532;14136.681;-53
2024-05-25T23:09:07.489;599617076407775904;14144.372;-57
2024-05-25T23:09:07.497;599617076415467276;14152.0625;-25
2024-05-25T23:09:07.504;599617076423158648;14159.754;-37
2024-05-25T23:09:07.512;599617076430850020;14167.445;-83
2024-05-25T23:09:07.520;599617076438541392;14175.138;-99
2024-05-25T23:09:07.527;599617076446232764;14182.829;-113
2024-05-25T23:09:07.535;599617076453924136;14190.5205;-138
2024-05-25T23:09:07.543;599617076461615508;14198.212;-148
2024-05-25T23:09:07.550;599617076469306880;14205.903;-127
2024-05-25T23:09:07.558;599617076476998252;14213.594;-122
2024-05-25T23:09:07.566;599617076484689624;14221.285;-159
2024-05-25T23:09:07.573;599617076492380996;14228.977;-125
2024-05-25T23:09:07.581;599617076500072368;14236.668;164
2024-05-25T23:09:07.589;599617076507763740;14244.36;625
2024-05-25T23:09:07.597;599617076515455112;14252.052;824
2024-05-25T23:09:07.604;599617076523146484;14259.743;472
2024-05-25T23:09:07.612;599617076530837856;14267.434;-9
2024-05-25T23:09:07.620;599617076538529228;14275.125;-85
2024-05-25T23:09:07.627;599617076546220600;14282.816;4
2024-05-25T23:09:07.635;599617076553911972;14290.508;-50
2024-05-25T23:09:07.643;599617076561603344;14298.199;-71
2024-05-25T23:09:07.650;599617076569294716;14305.891;0
2024-05-25T23:09:07.658;599617076576986088;14313.582;13
2024-05-25T23:09:07.666;599617076584677460;14321.273;4
2024-05-25T23:09:07.673;599617076592368832;14328.965;32
2024-05-25T23:09:07.681;599617076600060204;14336.656;53
2024-05-25T23:09:07.689;599617076607751576;14344.348;55
2024-05-25T23:09:07.697;599617076615442948;14352.039;74
2024-05-25T23:09:07.704;599617076623134320;14359.73;118
2024-05-25T23:09:07.712;599617076630825692;14367.422;152
2024-05-25T23:09:07.720;599617076638517064;14375.112;141
2024-05-25T23:09:07.727;599617076646208436;14382.804;99
2024-05-25T23:09:07.735;599617076653899808;14390.496;115
2024-05-25T23:09:07.743;599617076661591180;14398.1875;164
2024-05-25T23:09:07.750;599617076669282552;14405.879;166
2024-05-25T23:09:07.758;599617076676973924;14413.57;169
2024-05-25T23:09:07.766;599617076684665296;14421.262;196
2024-05-25T23:09:07.773;599617076692356668;14428.952;201
2024-05-25T23:09:07.781;599617076700048040;14436.644;201
2024-05-25T23:09:07.789;599617076707739412;14444.335;222
2024-05-25T23:09:07.797;599617076715430784;14452.026;245
2024-05-25T23:09:07.804;599617076723122156;14459.718;256
2024-05-25T23:09:07.812;599617076730813528;14467.41;243
2024-05-25T23:09:07.820;599617076738504900;14475.102;243
2024-05-25T23:09:07.827;599617076746196272;14482.792;273
2024-05-25T23:09:07.835;599617076753887644;14490.483;289
2024-05-25T23:09:07.843;599617076761579016;14498.175;282
2024-05-25T23:09:07.850;599617076769270388;14505.866;284
2024-05-25T23:09:07.858;599617076776961760;14513.558;284
2024-05-25T23:09:07.866;599617076784653132;14521.249;275
2024-05-25T23:09:07.873;599617076792344504;14528.94;277
2024-05-25T23:09:07.881;599617076800035876;14536.632;300
2024-05-25T23:09:07.889;599617076807727248;14544.323;331
2024-05-25T23:09:07.897;599617076815418620;14552.015;335
2024-05-25T23:09:07.904;599617076823109992;14559.706;312
2024-05-25T23:09:07.912;599617076830801364;14567.397;307
2024-05-25T23:09:07.920;599617076838492736;14575.089;317
2024-05-25T23:09:07.927;599617076846184108;14582.78;275
2024-05-25T23:09:07.935;599617076853875480;14590.471;240
2024-05-25T23:09:07.943;599617076861566860;14598.162;245
2024-05-25T23:09:07.950;599617076869258232;14605.854;187
2024-05-25T23:09:07.958;599617076876949604;14613.546;62
2024-05-25T23:09:07.966;599617076884640976;14621.237;4
2024-05-25T23:09:07.973;599617076892332348;14628.929;6
2024-05-25T23:09:07.981;599617076900023720;14636.62;-11
2024-05-25T23:09:07.989;599617076907715092;14644.312;-27
2024-05-25T23:09:07.997;599617076915406464;14652.002;-27
2024-05-25T23:09:08.004;599617076923097836;14659.693;-13
2024-05-25T23:09:08.012;599617076930789208;14667.385;-6
2024-05-25T23:09:08.020;599617076938480580;14675.076;-50
2024-05-25T23:09:08.027;599617076946171952;14682.769;-87
2024-05-25T23:09:08.035;599617076953863324;14690.46;-67
2024-05-25T23:09:08.043;599617076961554696;14698.151;-76
2024-05-25T23:09:08.050;599617076969246068;14705.842;-127
2024-05-25T23:09:08.058;599617076976937440;14713.533;-162
2024-05-25T23:09:08.066;599617076984628812;14721.225;-166
2024-05-25T23:09:08.073;599617076992320184;14728.916;-157
2024-05-25T23:09:08.081;599617077000011556;14736.607;-157
2024-05-25T23:09:08.089;599617077007702928;14744.299;-166
2024-05-25T23:09:08.096;599617077015394300;14751.99;-164
2024-05-25T23:09:08.104;599617077023085672;14759.682;-178
2024-05-25T23:09:08.112;599617077030777044;14767.373;-159
2024-05-25T23:09:08.120;599617077038468416;14775.064;92
2024-05-25T23:09:08.127;599617077046159788;14782.756;555
2024-05-25T23:09:08.135;599617077053851160;14790.447;805
2024-05-25T23:09:08.143;599617077061542532;14798.139;507
2024-05-25T23:09:08.150;599617077069233904;14805.83;0
2024-05-25T23:09:08.158;599617077076925276;14813.5205;-136
2024-05-25T23:09:08.166;599617077084616648;14821.212;-20
2024-05-25T23:09:08.173;599617077092308020;14828.904;-53
2024-05-25T23:09:08.181;599617077099999392;14836.596;-115
2024-05-25T23:09:08.189;599617077107690764;14844.287;-62
2024-05-25T23:09:08.196;599617077115382136;14851.979;-32
2024-05-25T23:09:08.204;599617077123073508;14859.67;-41
2024-05-25T23:09:08.212;599617077130764880;14867.36;-13
2024-05-25T23:09:08.220;599617077138456252;14875.052;-13
2024-05-25T23:09:08.227;599617077146147624;14882.743;-64
2024-05-25T23:09:08.235;599617077153838996;14890.435;-60
2024-05-25T23:09:08.243;599617077161530368;14898.126;-4
2024-05-25T23:09:08.250;599617077169221740;14905.818;30
2024-05-25T23:09:08.258;599617077176913112;14913.51;41
2024-05-25T23:09:08.266;599617077184604484;14921.2;57
2024-05-25T23:09:08.273;599617077192295856;14928.892;81
2024-05-25T23:09:08.281;599617077199987228;14936.583;106
2024-05-25T23:09:08.289;599617077207678600;14944.274;129
2024-05-25T23:09:08.296;599617077215369972;14951.966;155
2024-05-25T23:09:08.304;599617077223061344;14959.657;185
2024-05-25T23:09:08.312;599617077230752716;14967.349;201
2024-05-25T23:09:08.320;599617077238444088;14975.04;194
2024-05-25T23:09:08.327;599617077246135460;14982.731;196
2024-05-25T23:09:08.335;599617077253826832;14990.423;224
2024-05-25T23:09:08.343;599617077261518204;14998.114;252
2024-05-25T23:09:08.350;599617077269209576;15005.806;256
2024-05-25T23:09:08.358;599617077276900948;15013.497;256
2024-05-25T23:09:08.366;599617077284592320;15021.188;268
2024-05-25T23:09:08.373;599617077292283692;15028.879;273
2024-05-25T23:09:08.381;599617077299975064;15036.57;266
2024-05-25T23:09:08.389;599617077307666436;15044.262;273
2024-05-25T23:09:08.396;599617077315357808;15051.954;303
2024-05-25T23:09:08.404;599617077323049180;15059.6455;312
2024-05-25T23:09:08.412;599617077330740552;15067.337;291
2024-05-25T23:09:08.420;599617077338431924;15075.028;294
2024-05-25T23:09:08.427;599617077346123296;15082.719;326
2024-05-25T23:09:08.435;599617077353814668;15090.41;335
2024-05-25T23:09:08.443;599617077361506040;15098.102;310
2024-05-25T23:09:08.450;599617077369197412;15105.793;266
2024-05-25T23:09:08.458;599617077376888784;15113.484;159
2024-05-25T23:09:08.466;599617077384580156;15121.177;9
2024-05-25T23:09:08.473;599617077392271528;15128.868;-48
2024-05-25T23:09:08.481;599617077399962900;15136.56;2
2024-05-25T23:09:08.489;599617077407654272;15144.25;34
2024-05-25T23:09:08.496;599617077415345644;15151.941;18
2024-05-25T23:09:08.504;599617077423037024;15159.633;2
2024-05-25T23:09:08.512;599617077430728396;15167.324;23
2024-05-25T23:09:08.520;599617077438419768;15175.016;55
2024-05-25T23:09:08.527;599617077446111140;15182.707;64
2024-05-25T23:09:08.535;599617077453802512;15190.398;69
2024-05-25T23:09:08.543;599617077461493884;15198.09;90
2024-05-25T23:09:08.550;599617077469185256;15205.781;83
2024-05-25T23:09:08.558;599617077476876628;15213.473;16
2024-05-25T23:09:08.566;599617077484568000;15221.164;-55
2024-05-25T23:09:08.573;599617077492259372;15228.855;-57
2024-05-25T23:09:08.581;599617077499950744;15236.547;-50
2024-05-25T23:09:08.589;599617077507642116;15244.238;-115
2024-05-25T23:09:08.596;599617077515333488;15251.929;-164
2024-05-25T23:09:08.604;599617077523024860;15259.62;-134
2024-05-25T23:09:08.612;599617077530716232;15267.3125;-99
2024-05-25T23:09:08.620;599617077538407604;15275.004;-101
2024-05-25T23:09:08.627;599617077546098976;15282.695;-106
2024-05-25T23:09:08.635;599617077553790348;15290.387;-118
2024-05-25T23:09:08.643;599617077561481720;15298.078;-129
2024-05-25T23:09:08.650;599617077569173092;15305.769;20
2024-05-25T23:09:08.658;599617077576864464;15313.46;439
2024-05-25T23:09:08.666;599617077584555836;15321.151;831
2024-05-25T23:09:08.673;599617077592247208;15328.843;722
2024-05-25T23:09:08.681;599617077599938580;15336.534;199
2024-05-25T23:09:08.689;599617077607629952;15344.227;-106
2024-05-25T23:09:08.696;599617077615321324;15351.918;-11
2024-05-25T23:09:08.704;599617077623012696;15359.608;32
2024-05-25T23:09:08.712;599617077630704068;15367.3;-81
2024-05-25T23:09:08.719;599617077638395440;15374.991;-87
2024-05-25T23:09:08.727;599617077646086812;15382.683;-18
2024-05-25T23:09:08.735;599617077653778184;15390.374;-30
2024-05-25T23:09:08.743;599617077661469556;15398.065;-46
2024-05-25T23:09:08.750;599617077669160928;15405.757;0
2024-05-25T23:09:08.758;599617077676852300;15413.448;46
2024-05-25T23:09:08.766;599617077684543672;15421.14;60
2024-05-25T23:09:08.773;599617077692235044;15428.831;67
2024-05-25T23:09:08.781;599617077699926416;15436.522;81
2024-05-25T23:09:08.789;599617077707617788;15444.214;106
2024-05-25T23:09:08.796;599617077715309160;15451.905;129
2024-05-25T23:09:08.804;599617077723000532;15459.597;148
2024-05-25T23:09:08.812;599617077730691904;15467.287;178
2024-05-25T23:09:08.819;599617077738383276;15474.979;210
2024-05-25T23:09:08.827;599617077746074648;15482.671;206
2024-05-25T23:09:08.835;599617077753766020;15490.362;196
2024-05-25T23:09:08.843;599617077761457392;15498.054;226
2024-05-25T23:09:08.850;599617077769148764;15505.745;263
2024-05-25T23:09:08.858;599617077776840136;15513.437;263
2024-05-25T23:09:08.866;599617077784531508;15521.127;250
2024-05-25T23:09:08.873;599617077792222880;15528.818;259
2024-05-25T23:09:08.881;599617077799914252;15536.51;275
2024-05-25T23:09:08.889;599617077807605624;15544.201;275
2024-05-25T23:09:08.896;599617077815296996;15551.893;280
2024-05-25T23:09:08.904;599617077822988368;15559.585;300
2024-05-25T23:09:08.912;599617077830679740;15567.276;303
2024-05-25T23:09:08.919;599617077838371112;15574.968;275
2024-05-25T23:09:08.927;599617077846062484;15582.658;273
2024-05-25T23:09:08.935;599617077853753856;15590.35;303
2024-05-25T23:09:08.943;599617077861445228;15598.041;317
2024-05-25T23:09:08.950;599617077869136600;15605.732;300
2024-05-25T23:09:08.958;599617077876827972;15613.424;243
2024-05-25T23:09:08.966;599617077884519344;15621.115;129
2024-05-25T23:09:08.973;599617077892210716;15628.808;60
2024-05-25T23:09:08.981;599617077899902088;15636.498;76
2024-05-25T23:09:08.989;599617077907593460;15644.189;97
2024-05-25T23:09:08.996;599617077915284832;15651.881;104
2024-05-25T23:09:09.004;599617077922976204;15659.572;108
2024-05-25T23:09:09.012;599617077930667576;15667.264;83
2024-05-25T23:09:09.019;599617077938358948;15674.955;81
2024-05-25T23:09:09.027;599617077946050320;15682.646;129
2024-05-25T23:09:09.035;599617077953741692;15690.337;136
2024-05-25T23:09:09.043;599617077961433064;15698.028;108
2024-05-25T23:09:09.050;599617077969124436;15705.721;118
2024-05-25T23:09:09.058;599617077976815808;15713.412;131
2024-05-25T23:09:09.066;599617077984537284;15721.133;118
2024-05-25T23:09:09.073;599617077992228238;15728.824;115
2024-05-25T23:09:09.081;599617077999919192;15736.516;106
2024-05-25T23:09:09.089;599617078007610146;15744.206;87
2024-05-25T23:09:09.096;599617078015301100;15751.897;69
2024-05-25T23:09:09.104;599617078022992054;15759.588;13
2024-05-25T23:09:09.112;599617078030683008;15767.278;-18
2024-05-25T23:09:09.119;599617078038373962;15774.97;-4
2024-05-25T23:09:09.127;599617078046064916;15782.661;-64
2024-05-25T23:09:09.135;599617078053755870;15790.352;-164
2024-05-25T23:09:09.143;599617078061446824;15798.043;-157
2024-05-25T23:09:09.150;599617078069137778;15805.734;-141
2024-05-25T23:09:09.158;599617078076828732;15813.425;-210
2024-05-25T23:09:09.166;599617078084519686;15821.115;-206
2024-05-25T23:09:09.173;599617078092210640;15828.807;39
2024-05-25T23:09:09.181;599617078099901594;15836.498;472
2024-05-25T23:09:09.189;599617078107592548;15844.188;738
2024-05-25T23:09:09.196;599617078115283502;15851.88;481
2024-05-25T23:09:09.204;599617078122974456;15859.57;-64
2024-05-25T23:09:09.212;599617078130665410;15867.261;-273
2024-05-25T23:09:09.219;599617078138356364;15874.952;-143
2024-05-25T23:09:09.227;599617078146047318;15882.644;-115
2024-05-25T23:09:09.235;599617078153738272;15890.335;-173
2024-05-25T23:09:09.243;599617078161429226;15898.025;-145
2024-05-25T23:09:09.250;599617078169120180;15905.716;-113
2024-05-25T23:09:09.258;599617078176811134;15913.407;-101
2024-05-25T23:09:09.266;599617078184502088;15921.098;-60
2024-05-25T23:09:09.273;599617078192193042;15928.789;-27
2024-05-25T23:09:09.281;599617078199883996;15936.48;-23
2024-05-25T23:09:09.289;599617078207574950;15944.171;-13
2024-05-25T23:09:09.296;599617078215265904;15951.861;20
2024-05-25T23:09:09.304;599617078222956858;15959.553;55
2024-05-25T23:09:09.312;599617078230647812;15967.243;69
2024-05-25T23:09:09.319;599617078238338766;15974.935;92
2024-05-25T23:09:09.327;599617078246029720;15982.626;118
