Phone timestamp;sensor timestamp [ns];timestamp [ms];ecg [uV]
2024-05-25T23:12:57.911;599617306851329008;0.0;5876
2024-05-25T23:12:57.918;599617306859020728;7.69172;6466
2024-05-25T23:12:57.926;599617306866712448;15.38344;7459
2024-05-25T23:12:57.934;599617306874404168;23.07516;8112
2024-05-25T23:12:57.941;599617306882095888;30.76688;8598
2024-05-25T23:12:57.949;599617306889787608;38.4586;9131
2024-05-25T23:12:57.957;599617306897479328;46.15032;9559
2024-05-25T23:12:57.964;599617306905171048;53.84204;10013
2024-05-25T23:12:57.972;599617306912862768;61.53376;10587
2024-05-25T23:12:57.980;599617306920554488;69.22548;10962
2024-05-25T23:12:57.987;599617306928246208;76.9172;11101
2024-05-25T23:12:57.995;599617306935937928;84.60892;11402
2024-05-25T23:12:58.003;599617306943629648;92.30064;11851
2024-05-25T23:12:58.010;599617306951321368;99.99236;12213
2024-05-25T23:12:58.018;599617306959013088;107.68408;12511
2024-05-25T23:12:58.026;599617306966704808;115.3758;12794
2024-05-25T23:12:58.034;599617306974396528;123.06752;13034
2024-05-25T23:12:58.041;599617306982088248;130.75925;13291
2024-05-25T23:12:58.049;599617306989779968;138.45096;13525
2024-05-25T23:12:58.057;599617306997471688;146.14268;13717
2024-05-25T23:12:58.064;599617307005163408;153.8344;13995
2024-05-25T23:12:58.072;599617307012855128;161.52611;14222
2024-05-25T23:12:58.080;599617307020546848;169.21783;14241
2024-05-25T23:12:58.087;599617307028238568;176.90956;14331
2024-05-25T23:12:58.095;599617307035930288;184.60127;14609
2024-05-25T23:12:58.103;599617307043622008;192.293;14829
2024-05-25T23:12:58.110;599617307051313728;199.98473;14919
2024-05-25T23:12:58.118;599617307059005448;207.67645;14998
2024-05-25T23:12:58.126;599617307066697168;215.36816;15116
2024-05-25T23:12:58.134;599617307074388888;223.05988;15225
2024-05-25T23:12:58.141;599617307082080608;230.7516;15264
2024-05-25T23:12:58.149;599617307089772328;238.44333;15331
2024-05-25T23:12:58.157;599617307097464048;246.13504;15537
2024-05-25T23:12:58.164;599617307105155768;253.82675;15646
2024-05-25T23:12:58.172;599617307112847488;261.5185;15540
2024-05-25T23:12:58.180;599617307120539208;269.2102;15540
2024-05-25T23:12:58.187;599617307128230928;276.90192;15720
2024-05-25T23:12:58.195;599617307135922648;284.59363;15785
2024-05-25T23:12:58.203;599617307143614368;292.28537;15757
2024-05-25T23:12:58.210;599617307151306088;299.97708;15820
2024-05-25T23:12:58.218;599617307158997808;307.6688;15898
2024-05-25T23:12:58.226;599617307166689528;315.3605;15845
2024-05-25T23:12:58.234;599617307174381248;323.05222;15699
2024-05-25T23:12:58.241;599617307182072968;330.74396;15692
2024-05-25T23:12:58.249;599617307189764688;338.43567;15829
2024-05-25T23:12:58.257;599617307197456408;346.12738;15806
2024-05-25T23:12:58.264;599617307205148128;353.81912;15609
2024-05-25T23:12:58.272;599617307212839848;361.51083;15560
2024-05-25T23:12:58.280;599617307220531568;369.20255;15662
2024-05-25T23:12:58.287;599617307228223288;376.8943;15641
2024-05-25T23:12:58.295;599617307235915008;384.586;15544
2024-05-25T23:12:58.303;599617307243606728;392.27774;15551
2024-05-25T23:12:58.310;599617307251298448;399.96945;15540
2024-05-25T23:12:58.318;599617307258990168;407.66116;15398
2024-05-25T23:12:58.326;599617307266681888;415.3529;15269
2024-05-25T23:12:58.334;599617307274373608;423.04462;15271
2024-05-25T23:12:58.341;599617307282065328;430.73633;15315
2024-05-25T23:12:58.349;599617307289757048;438.42804;15225
2024-05-25T23:12:58.357;599617307297448768;446.11975;15037
2024-05-25T23:12:58.364;599617307305140488;453.8115;14979
2024-05-25T23:12:58.372;599617307312832208;461.5032;14958
2024-05-25T23:12:58.380;599617307320523928;469.19492;14799
2024-05-25T23:12:58.387;599617307328215648;476.88666;14796
2024-05-25T23:12:58.395;599617307335907368;484.57837;15137
2024-05-25T23:12:58.403;599617307343599088;492.27008;15482
2024-05-25T23:12:58.410;599617307351290808;499.9618;15394
2024-05-25T23:12:58.418;599617307358982528;507.6535;14868
2024-05-25T23:12:58.426;599617307366674248;515.3453;14442
2024-05-25T23:12:58.434;599617307374365968;523.037;14435
2024-05-25T23:12:58.441;599617307382057688;530.7287;14363
2024-05-25T23:12:58.449;599617307389749408;538.4204;13875
2024-05-25T23:12:58.457;599617307397441128;546.1121;13539
2024-05-25T23:12:58.464;599617307405132848;553.80383;13655
2024-05-25T23:12:58.472;599617307412849660;561.5206;13592
2024-05-25T23:12:58.480;599617307420541032;569.21204;13280
2024-05-25T23:12:58.487;599617307428232404;576.90344;13222
2024-05-25T23:12:58.495;599617307435923776;584.5947;13199
2024-05-25T23:12:58.503;599617307443615148;592.28613;12979
2024-05-25T23:12:58.510;599617307451306520;599.97754;12840
2024-05-25T23:12:58.518;599617307458997892;607.6689;12812
2024-05-25T23:12:58.526;599617307466689264;615.3602;12791
2024-05-25T23:12:58.534;599617307474380636;623.05164;12750
2024-05-25T23:12:58.541;599617307482072008;630.743;12676
2024-05-25T23:12:58.549;599617307489763380;638.4344;12611
2024-05-25T23:12:58.557;599617307497454752;646.12573;12451
2024-05-25T23:12:58.564;599617307505146124;653.8171;12152
2024-05-25T23:12:58.572;599617307512837496;661.5085;11946
2024-05-25T23:12:58.580;599617307520528868;669.1999;11895
2024-05-25T23:12:58.587;599617307528220240;676.89124;11777
2024-05-25T23:12:58.595;599617307535911612;684.5826;11574
2024-05-25T23:12:58.603;599617307543602984;692.274;11481
2024-05-25T23:12:58.610;599617307551294356;699.9654;11437
2024-05-25T23:12:58.618;599617307558985728;707.6567;11305
2024-05-25T23:12:58.626;599617307566677100;715.3481;11180
2024-05-25T23:12:58.634;599617307574368472;723.0395;11101
2024-05-25T23:12:58.641;599617307582059844;730.73083;10988
2024-05-25T23:12:58.649;599617307589751216;738.4222;10803
2024-05-25T23:12:58.657;599617307597442588;746.1136;10671
2024-05-25T23:12:58.664;599617307605133960;753.80493;10675
2024-05-25T23:12:58.672;599617307612825332;761.49634;10617
2024-05-25T23:12:58.680;599617307620516704;769.1877;10404
2024-05-25T23:12:58.687;599617307628208076;776.879;10235
2024-05-25T23:12:58.695;599617307635899448;784.57043;10201
2024-05-25T23:12:58.703;599617307643590820;792.26184;10177
2024-05-25T23:12:58.710;599617307651282192;799.9531;10087
2024-05-25T23:12:58.718;599617307658973564;807.64453;9944
2024-05-25T23:12:58.726;599617307666664936;815.33594;9782
2024-05-25T23:12:58.734;599617307674356308;823.02734;9675
2024-05-25T23:12:58.741;599617307682047680;830.7186;9559
2024-05-25T23:12:58.749;599617307689739052;838.41003;9432
2024-05-25T23:12:58.757;599617307697430424;846.10144;9425
2024-05-25T23:12:58.764;599617307705121796;853.7928;9395
2024-05-25T23:12:58.772;599617307712813168;861.48413;9214
2024-05-25T23:12:58.780;599617307720504540;869.17554;9096
2024-05-25T23:12:58.787;599617307728195912;876.8669;9089
2024-05-25T23:12:58.795;599617307735887284;884.5583;8997
2024-05-25T23:12:58.803;599617307743578656;892.24963;8867
2024-05-25T23:12:58.810;599617307751270028;899.941;8798
2024-05-25T23:12:58.818;599617307758961400;907.6324;8710
2024-05-25T23:12:58.826;599617307766652772;915.3238;8594
2024-05-25T23:12:58.834;599617307774344144;923.0152;8494
2024-05-25T23:12:58.841;599617307782035516;930.7065;8436
2024-05-25T23:12:58.849;599617307789726888;938.3979;8425
2024-05-25T23:12:58.857;599617307797418260;946.0893;8339
2024-05-25T23:12:58.864;599617307805109632;953.7806;8189
2024-05-25T23:12:58.872;599617307812801004;961.472;8133
2024-05-25T23:12:58.880;599617307820492376;969.1634;8101
2024-05-25T23:12:58.887;599617307828183748;976.85474;7969
2024-05-25T23:12:58.895;599617307835875120;984.5461;7869
2024-05-25T23:12:58.903;599617307843566492;992.2375;7851
2024-05-25T23:12:58.910;599617307851257864;999.92883;7765
2024-05-25T23:12:58.918;599617307858949236;1007.62024;7612
2024-05-25T23:12:58.926;599617307866640608;1015.31165;7503
2024-05-25T23:12:58.934;599617307874331980;1023.0029;7471
2024-05-25T23:12:58.941;599617307882023352;1030.6943;7478
2024-05-25T23:12:58.949;599617307889714724;1038.3857;7478
2024-05-25T23:12:58.957;599617307897406096;1046.077;7647
2024-05-25T23:12:58.964;599617307905097468;1053.7684;7964
2024-05-25T23:12:58.972;599617307912788840;1061.4598;7783
2024-05-25T23:12:58.980;599617307920480212;1069.1512;7054
2024-05-25T23:12:58.987;599617307928171584;1076.8427;6630
2024-05-25T23:12:58.995;599617307935862956;1084.5339;6674
2024-05-25T23:12:59.003;599617307943554328;1092.2252;6605
2024-05-25T23:12:59.010;599617307951245700;1099.9166;6406
2024-05-25T23:12:59.018;599617307958937072;1107.608;6385
2024-05-25T23:12:59.026;599617307966628444;1115.2994;6394
2024-05-25T23:12:59.033;599617307974289728;1122.9608;6260
2024-05-25T23:12:59.041;599617307981981518;1130.6526;6105
2024-05-25T23:12:59.049;599617307989673308;1138.3444;6033
2024-05-25T23:12:59.057;599617307997365098;1146.0361;6008
2024-05-25T23:12:59.064;599617308005056888;1153.7279;5938
2024-05-25T23:12:59.072;599617308012748678;1161.4197;5859
2024-05-25T23:12:59.080;599617308020440468;1169.1115;5852
2024-05-25T23:12:59.087;599617308028132258;1176.8032;5841
2024-05-25T23:12:59.095;599617308035824048;1184.4951;5697
2024-05-25T23:12:59.103;599617308043515838;1192.1869;5508
2024-05-25T23:12:59.110;599617308051207628;1199.8787;5447
2024-05-25T23:12:59.118;599617308058899418;1207.5704;5454
2024-05-25T23:12:59.126;599617308066591208;1215.2622;5403
2024-05-25T23:12:59.133;599617308074282998;1222.954;5327
2024-05-25T23:12:59.141;599617308081974788;1230.6458;5251
2024-05-25T23:12:59.149;599617308089666578;1238.3375;5179
2024-05-25T23:12:59.157;599617308097358368;1246.0293;5107
2024-05-25T23:12:59.164;599617308105050158;1253.7211;4982
2024-05-25T23:12:59.172;599617308112741948;1261.413;4885
2024-05-25T23:12:59.180;599617308120433738;1269.1047;4852
2024-05-25T23:12:59.187;599617308128125528;1276.7965;4762
2024-05-25T23:12:59.195;599617308135817318;1284.4883;4660
2024-05-25T23:12:59.203;599617308143509108;1292.18;4632
2024-05-25T23:12:59.210;599617308151200898;1299.8718;4549
2024-05-25T23:12:59.218;599617308158892688;1307.5636;4387
2024-05-25T23:12:59.226;599617308166584478;1315.2554;4297
2024-05-25T23:12:59.233;599617308174276268;1322.9471;4276
2024-05-25T23:12:59.241;599617308181968058;1330.6392;4234
2024-05-25T23:12:59.249;599617308189659848;1338.3309;4181
2024-05-25T23:12:59.257;599617308197351638;1346.0227;4148
2024-05-25T23:12:59.264;599617308205043428;1353.7145;4142
2024-05-25T23:12:59.272;599617308212735218;1361.4062;4102
2024-05-25T23:12:59.280;599617308220427008;1369.098;4012
2024-05-25T23:12:59.287;599617308228118798;1376.7898;3968
2024-05-25T23:12:59.295;599617308235810588;1384.4816;3975
2024-05-25T23:12:59.303;599617308243502378;1392.1733;3947
2024-05-25T23:12:59.310;599617308251194168;1399.8652;3891
2024-05-25T23:12:59.318;599617308258885958;1407.557;3854
2024-05-25T23:12:59.326;599617308266577748;1415.2488;3827
2024-05-25T23:12:59.333;599617308274269538;1422.9406;3785
2024-05-25T23:12:59.341;599617308281961328;1430.6323;3736
2024-05-25T23:12:59.349;599617308289653118;1438.3241;3718
2024-05-25T23:12:59.357;599617308297344908;1446.0159;3713
2024-05-25T23:12:59.364;599617308305036698;1453.7076;3665
2024-05-25T23:12:59.372;599617308312728488;1461.3994;3597
2024-05-25T23:12:59.380;599617308320420278;1469.0913;3579
2024-05-25T23:12:59.387;599617308328112068;1476.7831;3560
2024-05-25T23:12:59.395;599617308335803858;1484.4749;3505
2024-05-25T23:12:59.403;599617308343495648;1492.1666;3465
2024-05-25T23:12:59.410;599617308351187438;1499.8584;3454
2024-05-25T23:12:59.418;599617308358879228;1507.5502;3421
2024-05-25T23:12:59.426;599617308366571018;1515.242;3377
2024-05-25T23:12:59.433;599617308374262808;1522.9337;3352
2024-05-25T23:12:59.441;599617308381954598;1530.6255;3354
2024-05-25T23:12:59.449;599617308389646388;1538.3174;3306
2024-05-25T23:12:59.457;599617308397338178;1546.0092;3130
2024-05-25T23:12:59.464;599617308405029968;1553.701;2993
2024-05-25T23:12:59.472;599617308412721758;1561.3928;3012
2024-05-25T23:12:59.480;599617308420413548;1569.0846;3026
2024-05-25T23:12:59.487;599617308428105338;1576.7764;2970
2024-05-25T23:12:59.495;599617308435797128;1584.4681;2921
2024-05-25T23:12:59.503;599617308443488918;1592.1599;2877
2024-05-25T23:12:59.510;599617308451180708;1599.8517;2884
2024-05-25T23:12:59.518;599617308458872498;1607.5436;3132
2024-05-25T23:12:59.526;599617308466564288;1615.2354;3593
2024-05-25T23:12:59.533;599617308474256078;1622.9271;3829
2024-05-25T23:12:59.541;599617308481947868;1630.6189;3461
2024-05-25T23:12:59.549;599617308489639658;1638.3107;2854
2024-05-25T23:12:59.557;599617308497331448;1646.0024;2639
2024-05-25T23:12:59.564;599617308505023238;1653.6942;2722
2024-05-25T23:12:59.572;599617308512715028;1661.386;2674
2024-05-25T23:12:59.580;599617308520406818;1669.0778;2565
2024-05-25T23:12:59.587;599617308528098608;1676.7695;2572
2024-05-25T23:12:59.595;599617308535820506;1684.4916;2572
2024-05-25T23:12:59.603;599617308543511878;1692.1829;2505
2024-05-25T23:12:59.610;599617308551203250;1699.8743;2444
2024-05-25T23:12:59.618;599617308558894622;1707.5656;2398
2024-05-25T23:12:59.626;599617308566585994;1715.257;2380
2024-05-25T23:12:59.633;599617308574277366;1722.9484;2363
2024-05-25T23:12:59.641;599617308581968738;1730.6398;2306
2024-05-25T23:12:59.649;599617308589660110;1738.3312;2264
2024-05-25T23:12:59.657;599617308597351482;1746.0226;2268
2024-05-25T23:12:59.664;599617308605042854;1753.7137;2220
2024-05-25T23:12:59.672;599617308612734226;1761.4052;2120
2024-05-25T23:12:59.680;599617308620425598;1769.0966;2104
2024-05-25T23:12:59.687;599617308628116970;1776.788;2123
2024-05-25T23:12:59.695;599617308635808342;1784.4794;2083
2024-05-25T23:12:59.703;599617308643499714;1792.1708;2035
2024-05-25T23:12:59.710;599617308651191086;1799.862;2016
2024-05-25T23:12:59.718;599617308658882458;1807.5535;2009
2024-05-25T23:12:59.726;599617308666573830;1815.2448;1951
2024-05-25T23:12:59.733;599617308674265202;1822.9362;1852
2024-05-25T23:12:59.741;599617308681956574;1830.6276;1803
2024-05-25T23:12:59.749;599617308689647946;1838.319;1775
2024-05-25T23:12:59.757;599617308697339318;1846.0104;1715
2024-05-25T23:12:59.764;599617308705030690;1853.7017;1676
2024-05-25T23:12:59.772;599617308712722062;1861.3931;1655
2024-05-25T23:12:59.780;599617308720413434;1869.0845;1609
2024-05-25T23:12:59.787;599617308728104806;1876.7758;1558
2024-05-25T23:12:59.795;599617308735796178;1884.4672;1544
2024-05-25T23:12:59.803;599617308743487550;1892.1586;1555
2024-05-25T23:12:59.810;599617308751178922;1899.8499;1555
2024-05-25T23:12:59.818;599617308758870294;1907.5413;1532
2024-05-25T23:12:59.826;599617308766561666;1915.2327;1497
2024-05-25T23:12:59.833;599617308774253038;1922.9241;1484
2024-05-25T23:12:59.841;599617308781944410;1930.6155;1493
2024-05-25T23:12:59.849;599617308789635782;1938.3068;1491
2024-05-25T23:12:59.856;599617308797327154;1945.9982;1491
2024-05-25T23:12:59.864;599617308805018526;1953.6895;1511
2024-05-25T23:12:59.872;599617308812709898;1961.3809;1497
2024-05-25T23:12:59.880;599617308820401270;1969.0723;1453
2024-05-25T23:12:59.887;599617308828092642;1976.7637;1456
2024-05-25T23:12:59.895;599617308835784014;1984.4551;1481
2024-05-25T23:12:59.903;599617308843475386;1992.1465;1472
2024-05-25T23:12:59.910;599617308851166758;1999.8376;1451
2024-05-25T23:12:59.918;599617308858858130;2007.529;1444
2024-05-25T23:12:59.926;599617308866549502;2015.2205;1442
2024-05-25T23:12:59.933;599617308874240874;2022.9119;1430
2024-05-25T23:12:59.941;599617308881932246;2030.6033;1405
2024-05-25T23:12:59.949;599617308889623618;2038.2947;1333
2024-05-25T23:12:59.956;599617308897314990;2045.986;1201
2024-05-25T23:12:59.964;599617308905006362;2053.6772;1106
2024-05-25T23:12:59.972;599617308912697734;2061.3687;1122
2024-05-25T23:12:59.980;599617308920389106;2069.06;1159
2024-05-25T23:12:59.987;599617308928080478;2076.7515;1176
2024-05-25T23:12:59.995;599617308935771850;2084.4429;1194
2024-05-25T23:13:00.003;599617308943463222;2092.1343;1196
2024-05-25T23:13:00.010;599617308951154594;2099.8254;1180
2024-05-25T23:13:00.018;599617308958845966;2107.5168;1178
2024-05-25T23:13:00.026;599617308966537338;2115.2083;1190
2024-05-25T23:13:00.033;599617308974228710;2122.8997;1196
2024-05-25T23:13:00.041;599617308981920082;2130.591;1208
2024-05-25T23:13:00.049;599617308989611454;2138.2825;1201
2024-05-25T23:13:00.056;599617308997302826;2145.9739;1139
2024-05-25T23:13:00.064;599617309004994198;2153.6653;1120
2024-05-25T23:13:00.072;599617309012685570;2161.3564;1322
2024-05-25T23:13:00.080;599617309020376942;2169.0479;1778
2024-05-25T23:13:00.087;599617309028068314;2176.7393;2183
2024-05-25T23:13:00.095;599617309035759686;2184.4307;2067
2024-05-25T23:13:00.103;599617309043451058;2192.122;1467
2024-05-25T23:13:00.110;599617309051142430;2199.8135;1051
2024-05-25T23:13:00.118;599617309058833802;2207.505;1090
2024-05-25T23:13:00.126;599617309066525174;2215.196;1155
2024-05-25T23:13:00.133;599617309074216546;2222.8875;1074
2024-05-25T23:13:00.141;599617309081907918;2230.5789;1053
2024-05-25T23:13:00.149;599617309089599290;2238.2703;1062
2024-05-25T23:13:00.156;599617309097290670;2245.9617;1039
2024-05-25T23:13:00.164;599617309104982042;2253.653;1051
2024-05-25T23:13:00.172;599617309112673414;2261.3445;1065
2024-05-25T23:13:00.180;599617309120364786;2269.036;1016
2024-05-25T23:13:00.187;599617309128056158;2276.727;949
2024-05-25T23:13:00.195;599617309135747530;2284.4185;884
2024-05-25T23:13:00.203;599617309143438902;2292.1099;789
2024-05-25T23:13:00.210;599617309151130274;2299.8013;713
2024-05-25T23:13:00.218;599617309158821646;2307.4927;731
2024-05-25T23:13:00.226;599617309166513018;2315.184;770
2024-05-25T23:13:00.233;599617309174204390;2322.8755;761
2024-05-25T23:13:00.241;599617309181895762;2330.5667;743
2024-05-25T23:13:00.249;599617309189587134;2338.258;766
2024-05-25T23:13:00.256;599617309197278506;2345.9495;798
2024-05-25T23:13:00.264;599617309204969878;2353.6409;810
2024-05-25T23:13:00.272;599617309212661250;2361.3323;817
2024-05-25T23:13:00.280;599617309220352622;2369.0234;838
2024-05-25T23:13:00.287;599617309228043994;2376.715;828
2024-05-25T23:13:00.295;599617309235735366;2384.4062;773
2024-05-25T23:13:00.303;599617309243426738;2392.098;731
2024-05-25T23:13:00.310;599617309251118110;2399.789;726
2024-05-25T23:13:00.318;599617309258809482;2407.4805;687
2024-05-25T23:13:00.326;599617309266500854;2415.1719;618
2024-05-25T23:13:00.333;599617309274192226;2422.863;583
2024-05-25T23:13:00.341;599617309281883598;2430.5547;581
2024-05-25T23:13:00.349;599617309289574970;2438.2458;578
2024-05-25T23:13:00.356;599617309297266342;2445.9375;571
2024-05-25T23:13:00.364;599617309304957714;2453.6287;569
2024-05-25T23:13:00.372;599617309312649086;2461.3203;574
2024-05-25T23:13:00.380;599617309320340458;2469.0115;555
2024-05-25T23:13:00.387;599617309328031830;2476.7026;539
2024-05-25T23:13:00.395;599617309335723202;2484.3943;560
2024-05-25T23:13:00.403;599617309343414574;2492.0854;592
2024-05-25T23:13:00.410;599617309351105946;2499.777;597
2024-05-25T23:13:00.418;599617309358797318;2507.4683;588
2024-05-25T23:13:00.426;599617309366488690;2515.16;583
2024-05-25T23:13:00.433;599617309374180062;2522.851;578
2024-05-25T23:13:00.441;599617309381871434;2530.5422;537
2024-05-25T23:13:00.449;599617309389562806;2538.234;500
2024-05-25T23:13:00.456;599617309397254178;2545.925;481
2024-05-25T23:13:00.464;599617309404945550;2553.6167;419
2024-05-25T23:13:00.472;599617309412636922;2561.3079;361
2024-05-25T23:13:00.479;599617309420328294;2568.9993;375
2024-05-25T23:13:00.487;599617309428019666;2576.6907;412
2024-05-25T23:13:00.495;599617309435711038;2584.3818;432
2024-05-25T23:13:00.503;599617309443402410;2592.0735;446
2024-05-25T23:13:00.510;599617309451093782;2599.7646;453
2024-05-25T23:13:00.518;599617309458785154;2607.4563;460
2024-05-25T23:13:00.526;599617309466476526;2615.1475;483
2024-05-25T23:13:00.533;599617309474167898;2622.8389;504
2024-05-25T23:13:00.541;599617309481859270;2630.5303;525
2024-05-25T23:13:00.549;599617309489550642;2638.2217;562
2024-05-25T23:13:00.556;599617309497242014;2645.913;578
2024-05-25T23:13:00.564;599617309504933386;2653.6042;555
2024-05-25T23:13:00.572;599617309512624758;2661.296;551
2024-05-25T23:13:00.579;599617309520316130;2668.987;590
2024-05-25T23:13:00.587;599617309528007502;2676.6785;618
2024-05-25T23:13:00.595;599617309535698874;2684.3699;615
2024-05-25T23:13:00.603;599617309543390246;2692.0613;606
2024-05-25T23:13:00.610;599617309551081618;2699.7527;574
2024-05-25T23:13:00.618;599617309558772990;2707.4438;562
2024-05-25T23:13:00.626;599617309566464362;2715.1353;750
2024-05-25T23:13:00.633;599617309574155734;2722.8267;1224
2024-05-25T23:13:00.641;599617309581847106;2730.518;1690
2024-05-25T23:13:00.649;599617309589538478;2738.2095;1588
2024-05-25T23:13:00.656;599617309597229850;2745.901;937
2024-05-25T23:13:00.664;599617309604921222;2753.5923;507
2024-05-25T23:13:00.672;599617309612612594;2761.2837;604
2024-05-25T23:13:00.679;599617309620303966;2768.9749;671
2024-05-25T23:13:00.687;599617309627995338;2776.6663;523
2024-05-25T23:13:00.695;599617309635686710;2784.3577;486
2024-05-25T23:13:00.703;599617309643378082;2792.049;544
2024-05-25T23:13:00.710;599617309651069454;2799.7405;530
2024-05-25T23:13:00.718;599617309658760834;2807.432;511
2024-05-25T23:13:00.726;599617309666452206;2815.1233;548
2024-05-25T23:13:00.733;599617309674143578;2822.8145;583
2024-05-25T23:13:00.741;599617309681834950;2830.506;576
2024-05-25T23:13:00.749;599617309689526322;2838.1973;525
2024-05-25T23:13:00.756;599617309697217694;2845.8887;481
2024-05-25T23:13:00.764;599617309704909066;2853.58;488
2024-05-25T23:13:00.772;599617309712600438;2861.2715;465
2024-05-25T23:13:00.779;599617309720291810;2868.963;405
2024-05-25T23:13:00.787;599617309727983182;2876.654;402
2024-05-25T23:13:00.795;599617309735674554;2884.3457;428
2024-05-25T23:13:00.803;599617309743365926;2892.0369;419
2024-05-25T23:13:00.810;599617309751057298;2899.7283;419
2024-05-25T23:13:00.818;599617309758748670;2907.4197;456
2024-05-25T23:13:00.826;599617309766440042;2915.1108;486
2024-05-25T23:13:00.833;599617309774131414;2922.8025;481
2024-05-25T23:13:00.841;599617309781822786;2930.4937;465
2024-05-25T23:13:00.849;599617309789514158;2938.1853;472
2024-05-25T23:13:00.856;599617309797205530;2945.8765;490
2024-05-25T23:13:00.864;599617309804896902;2953.568;463
2024-05-25T23:13:00.872;599617309812588274;2961.2593;405
2024-05-25T23:13:00.879;599617309820279646;2968.9504;372
2024-05-25T23:13:00.887;599617309827971018;2976.642;326
2024-05-25T23:13:00.895;599617309835662390;2984.3333;256
2024-05-25T23:13:00.903;599617309843353762;2992.025;233
2024-05-25T23:13:00.910;599617309851045134;2999.716;256
2024-05-25T23:13:00.918;599617309858736506;3007.4077;268
2024-05-25T23:13:00.926;599617309866427878;3015.0989;250
2024-05-25T23:13:00.933;599617309874119250;3022.79;201
2024-05-25T23:13:00.941;599617309881810622;3030.4817;171
2024-05-25T23:13:00.949;599617309889501994;3038.1729;192
2024-05-25T23:13:00.956;599617309897193366;3045.8645;206
2024-05-25T23:13:00.964;599617309904884738;3053.5557;175
2024-05-25T23:13:00.972;599617309912576110;3061.247;111
2024-05-25T23:13:00.979;599617309920267482;3068.9385;53
2024-05-25T23:13:00.987;599617309927958854;3076.6296;62
2024-05-25T23:13:00.995;599617309935650226;3084.3213;106
2024-05-25T23:13:01.003;599617309943341598;3092.0125;134
2024-05-25T23:13:01.010;599617309951032970;3099.704;152
2024-05-25T23:13:01.018;599617309958724342;3107.3953;169
2024-05-25T23:13:01.026;599617309966415714;3115.0867;173
2024-05-25T23:13:01.033;599617309974107086;3122.778;189
2024-05-25T23:13:01.041;599617309981798458;3130.4695;210
2024-05-25T23:13:01.049;599617309989489830;3138.161;229
2024-05-25T23:13:01.056;599617309997181202;3145.852;252
2024-05-25T23:13:01.064;599617310004872574;3153.5437;275
2024-05-25T23:13:01.072;599617310012563946;3161.2349;275
2024-05-25T23:13:01.079;599617310020255318;3168.9263;270
2024-05-25T23:13:01.087;599617310027946690;3176.6177;314
2024-05-25T23:13:01.095;599617310035638062;3184.309;365
2024-05-25T23:13:01.103;599617310043329434;3192.0005;368
2024-05-25T23:13:01.110;599617310051020806;3199.692;349
2024-05-25T23:13:01.118;599617310058712178;3207.3833;356
2024-05-25T23:13:01.126;599617310066403550;3215.0745;377
2024-05-25T23:13:01.133;599617310074094922;3222.7659;379
2024-05-25T23:13:01.141;599617310081786294;3230.4573;384
2024-05-25T23:13:01.149;599617310089477666;3238.1487;407
2024-05-25T23:13:01.156;599617310097169038;3245.84;393
2024-05-25T23:13:01.164;599617310104860410;3253.5315;333
2024-05-25T23:13:01.172;599617310112551782;3261.2227;405
2024-05-25T23:13:01.179;599617310120243154;3268.914;784
2024-05-25T23:13:01.187;599617310127934526;3276.6055;1305
2024-05-25T23:13:01.195;599617310135625898;3284.2969;1437
2024-05-25T23:13:01.202;599617310143317270;3291.9883;921
2024-05-25T23:13:01.210;599617310151008642;3299.6797;321
2024-05-25T23:13:01.218;599617310158700014;3307.371;250
2024-05-25T23:13:01.226;599617310166391386;3315.0623;388
2024-05-25T23:13:01.233;599617310174082758;3322.754;331
2024-05-25T23:13:01.241;599617310181774130;3330.445;291
2024-05-25T23:13:01.249;599617310189465502;3338.1365;347
2024-05-25T23:13:01.256;599617310197156874;3345.828;335
2024-05-25T23:13:01.264;599617310204848246;3353.5193;319
2024-05-25T23:13:01.272;599617310212539618;3361.2107;368
2024-05-25T23:13:01.279;599617310220210982;3368.8818;395
2024-05-25T23:13:01.287;599617310227902632;3376.5737;391
2024-05-25T23:13:01.295;599617310235594282;3384.2651;402
2024-05-25T23:13:01.302;599617310243285932;3391.957;414
2024-05-25T23:13:01.310;599617310250977582;3399.6484;370
2024-05-25T23:13:01.318;599617310258669232;3407.3403;307
2024-05-25T23:13:01.326;599617310266360882;3415.0317;312
2024-05-25T23:13:01.333;599617310274052532;3422.7236;358
2024-05-25T23:13:01.341;599617310281744182;3430.415;368
2024-05-25T23:13:01.349;599617310289435832;3438.107;351
2024-05-25T23:13:01.356;599617310297127482;3445.7983;375
2024-05-25T23:13:01.364;599617310304819132;3453.4902;414
2024-05-25T23:13:01.372;599617310312510782;3461.1816;428
2024-05-25T23:13:01.379;599617310320202432;3468.8735;430
2024-05-25T23:13:01.387;599617310327894082;3476.565;446
2024-05-25T23:13:01.395;599617310335585732;3484.2568;449
2024-05-25T23:13:01.402;599617310343277382;3491.9482;432
2024-05-25T23:13:01.410;599617310350969032;3499.6401;432
2024-05-25T23:13:01.418;599617310358660682;3507.3315;432
2024-05-25T23:13:01.426;599617310366352332;3515.0234;391
2024-05-25T23:13:01.433;599617310374043982;3522.7148;333
2024-05-25T23:13:01.441;599617310381735632;3530.4067;314
2024-05-25T23:13:01.449;599617310389427282;3538.0981;331
2024-05-25T23:13:01.456;599617310397118932;3545.79;351
2024-05-25T23:13:01.464;599617310404810582;3553.4814;354
2024-05-25T23:13:01.472;599617310412502232;3561.1733;303
2024-05-25T23:13:01.479;599617310420193882;3568.8647;245
2024-05-25T23:13:01.487;599617310427885532;3576.5566;238
2024-05-25T23:13:01.495;599617310435577182;3584.248;250
2024-05-25T23:13:01.502;599617310443268832;3591.94;261
2024-05-25T23:13:01.510;599617310450960482;3599.6313;298
2024-05-25T23:13:01.518;599617310458652132;3607.3232;326
2024-05-25T23:13:01.526;599617310466343782;3615.0146;319
2024-05-25T23:13:01.533;599617310474035432;3622.7065;310
2024-05-25T23:13:01.541;599617310481727082;3630.398;331
2024-05-25T23:13:01.549;599617310489418732;3638.0898;351
2024-05-25T23:13:01.556;599617310497110382;3645.7812;351
2024-05-25T23:13:01.564;599617310504802032;3653.4731;365
2024-05-25T23:13:01.572;599617310512493682;3661.1648;388
2024-05-25T23:13:01.579;599617310520185332;3668.8562;375
2024-05-25T23:13:01.587;599617310527876982;3676.548;347
2024-05-25T23:13:01.595;599617310535568632;3684.2395;361
2024-05-25T23:13:01.602;599617310543260282;3691.9314;391
2024-05-25T23:13:01.610;599617310550951932;3699.6228;391
2024-05-25T23:13:01.618;599617310558643582;3707.3147;377
2024-05-25T23:13:01.626;599617310566335232;3715.006;379
2024-05-25T23:13:01.633;599617310574026882;3722.698;393
2024-05-25T23:13:01.641;599617310581718532;3730.3894;398
2024-05-25T23:13:01.649;599617310589410182;3738.0813;409
2024-05-25T23:13:01.656;599617310597101832;3745.7727;439
2024-05-25T23:13:01.664;599617310604793482;3753.4646;432
2024-05-25T23:13:01.672;599617310612485132;3761.156;356
2024-05-25T23:13:01.679;599617310620176782;3768.848;307
2024-05-25T23:13:01.687;599617310627868432;3776.5393;342
2024-05-25T23:13:01.695;599617310635560082;3784.2312;372
2024-05-25T23:13:01.702;599617310643251732;3791.9226;358
2024-05-25T23:13:01.710;599617310650943382;3799.6145;338
2024-05-25T23:13:01.718;599617310658635032;3807.306;303
2024-05-25T23:13:01.725;599617310666326682;3814.9978;312
2024-05-25T23:13:01.733;599617310674018332;3822.6892;541
2024-05-25T23:13:01.741;599617310681709982;3830.381;1053
2024-05-25T23:13:01.749;599617310689401632;3838.0725;1507
2024-05-25T23:13:01.756;599617310697093282;3845.7644;1372
2024-05-25T23:13:01.764;599617310704784932;3853.4558;701
2024-05-25T23:13:01.772;599617310712476582;3861.1477;252
2024-05-25T23:13:01.779;599617310720168232;3868.839;321
2024-05-25T23:13:01.787;599617310727859882;3876.531;372
2024-05-25T23:13:01.795;599617310735551532;3884.2224;259
2024-05-25T23:13:01.802;599617310743243182;3891.9143;256
2024-05-25T23:13:01.810;599617310750934832;3899.6057;303
2024-05-25T23:13:01.818;599617310758626482;3907.2976;277
2024-05-25T23:13:01.825;599617310766318132;3914.989;270
2024-05-25T23:13:01.833;599617310774009782;3922.681;298
2024-05-25T23:13:01.841;599617310781711498;3930.3826;319
2024-05-25T23:13:01.849;599617310789403009;3938.0742;319
2024-05-25T23:13:01.856;599617310797094520;3945.7656;303
2024-05-25T23:13:01.864;599617310804786031;3953.4568;303
2024-05-25T23:13:01.872;599617310812477542;3961.1484;326
2024-05-25T23:13:01.879;599617310820169053;3968.8398;324
2024-05-25T23:13:01.887;599617310827860564;3976.5315;282
2024-05-25T23:13:01.895;599617310835552075;3984.223;259
2024-05-25T23:13:01.902;599617310843243586;3991.9146;263
2024-05-25T23:13:01.910;599617310850935097;3999.606;250
2024-05-25T23:13:01.918;599617310858626608;4007.2976;217
2024-05-25T23:13:01.925;599617310866318119;4014.989;208
2024-05-25T23:13:01.933;599617310874009630;4022.6807;231
2024-05-25T23:13:01.941;599617310881701141;4030.372;196
2024-05-25T23:13:01.949;599617310889392652;4038.0637;106
2024-05-25T23:13:01.956;599617310897084163;4045.7551;90
2024-05-25T23:13:01.964;599617310904775674;4053.4468;118
2024-05-25T23:13:01.972;599617310912467185;4061.1382;60
2024-05-25T23:13:01.979;599617310920158696;4068.8296;-13
2024-05-25T23:13:01.987;599617310927850207;4076.5212;-4
2024-05-25T23:13:01.995;599617310935541718;4084.2126;-13
2024-05-25T23:13:02.002;599617310943233229;4091.9043;-87
2024-05-25T23:13:02.010;599617310950924740;4099.5957;-125
2024-05-25T23:13:02.018;599617310958616251;4107.287;-125
2024-05-25T23:13:02.025;599617310966307762;4114.979;-148
2024-05-25T23:13:02.033;599617310973999273;4122.6704;-175
2024-05-25T23:13:02.041;599617310981690784;4130.362;-178
2024-05-25T23:13:02.049;599617310989382295;4138.053;-166
2024-05-25T23:13:02.056;599617310997073806;4145.745;-145
2024-05-25T23:13:02.064;599617311004765317;4153.4365;-136
2024-05-25T23:13:02.072;599617311012456828;4161.128;-125
2024-05-25T23:13:02.079;599617311020148339;4168.8193;-104
2024-05-25T23:13:02.087;599617311027839850;4176.5107;-99
2024-05-25T23:13:02.095;599617311035531361;4184.202;-106
2024-05-25T23:13:02.102;599617311043222872;4191.8936;-87
2024-05-25T23:13:02.110;599617311050914383;4199.5854;-60
2024-05-25T23:13:02.118;599617311058605894;4207.277;-48
2024-05-25T23:13:02.125;599617311066297405;4214.9683;-53
2024-05-25T23:13:02.133;599617311073988916;4222.6597;-53
2024-05-25T23:13:02.141;599617311081680427;4230.3516;-27
2024-05-25T23:13:02.149;599617311089371938;4238.043;6
2024-05-25T23:13:02.156;599617311097063449;4245.7344;20
2024-05-25T23:13:02.164;599617311104754960;4253.426;2
2024-05-25T23:13:02.172;599617311112446471;4261.1177;-18
2024-05-25T23:13:02.179;599617311120137982;4268.809;-27
2024-05-25T23:13:02.187;599617311127829493;4276.5005;-30
2024-05-25T23:13:02.195;599617311135521004;4284.192;-11
2024-05-25T23:13:02.202;599617311143212515;4291.8833;27
2024-05-25T23:13:02.210;599617311150904026;4299.5747;55
2024-05-25T23:13:02.218;599617311158595537;4307.2666;57
2024-05-25T23:13:02.225;599617311166287048;4314.958;76
2024-05-25T23:13:02.233;599617311173978559;4322.6494;113
2024-05-25T23:13:02.241;599617311181670070;4330.341;125
2024-05-25T23:13:02.249;599617311189361581;4338.0327;122
2024-05-25T23:13:02.256;599617311197053092;4345.724;143
2024-05-25T23:13:02.264;599617311204744603;4353.4155;171
2024-05-25T23:13:02.272;599617311212436114;4361.107;164
2024-05-25T23:13:02.279;599617311220127625;4368.799;157
2024-05-25T23:13:02.287;599617311227819136;4376.4897;180
2024-05-25T23:13:02.295;599617311235510647;4384.1816;173
2024-05-25T23:13:02.302;599617311243202158;4391.873;162
2024-05-25T23:13:02.310;599617311250893669;4399.565;321
2024-05-25T23:13:02.318;599617311258585180;4407.256;777
2024-05-25T23:13:02.325;599617311266276691;4414.9478;1278
2024-05-25T23:13:02.333;599617311273968202;4422.639;1273
2024-05-25T23:13:02.341;599617311281659713;4430.331;671
2024-05-25T23:13:02.349;599617311289351224;4438.022;178
2024-05-25T23:13:02.356;599617311297042735;4445.714;194
2024-05-25T23:13:02.364;599617311304734246;4453.4053;245
2024-05-25T23:13:02.372;599617311312425757;4461.097;134
2024-05-25T23:13:02.379;599617311320117268;4468.788;143
2024-05-25T23:13:02.387;599617311327808779;4476.48;210
2024-05-25T23:13:02.395;599617311335500290;4484.1714;187
2024-05-25T23:13:02.402;599617311343201844;4491.8726;157
2024-05-25T23:13:02.410;599617311350893216;4499.564;141
2024-05-25T23:13:02.418;599617311358584588;4507.256;108
2024-05-25T23:13:02.425;599617311366275960;4514.9473;113
2024-05-25T23:13:02.433;599617311373967332;4522.638;141
2024-05-25T23:13:02.441;599617311381658704;4530.3296;138
2024-05-25T23:13:02.449;599617311389350076;4538.021;99
2024-05-25T23:13:02.456;599617311397041448;4545.7124;67
2024-05-25T23:13:02.464;599617311404732820;4553.404;74
2024-05-25T23:13:02.472;599617311412424192;4561.095;60
2024-05-25T23:13:02.479;599617311420115564;4568.7866;-48
2024-05-25T23:13:02.487;599617311427806936;4576.4775;-157
2024-05-25T23:13:02.495;599617311435498308;4584.1694;-145
2024-05-25T23:13:02.502;599617311443189680;4591.861;-101
2024-05-25T23:13:02.510;599617311450881052;4599.552;-104
2024-05-25T23:13:02.518;599617311458572424;4607.243;-97
2024-05-25T23:13:02.525;599617311466263796;4614.935;-55
2024-05-25T23:13:02.533;599617311473955168;4622.6265;-23
2024-05-25T23:13:02.541;599617311481646540;4630.3174;-20
2024-05-25T23:13:02.549;599617311489337912;4638.009;-34
2024-05-25T23:13:02.556;599617311497029284;4645.7;-53
2024-05-25T23:13:02.564;599617311504720656;4653.392;-71
2024-05-25T23:13:02.572;599617311512412028;4661.083;-101
2024-05-25T23:13:02.579;599617311520103400;4668.7744;-143
2024-05-25T23:13:02.587;599617311527794772;4676.466;-173
2024-05-25T23:13:02.595;599617311535486144;4684.1567;-182
2024-05-25T23:13:02.602;599617311543177516;4691.8486;-187
2024-05-25T23:13:02.610;599617311550868888;4699.54;-180
2024-05-25T23:13:02.618;599617311558560260;4707.2314;-148
2024-05-25T23:13:02.625;599617311566251632;4714.9224;-120
2024-05-25T23:13:02.633;599617311573943004;4722.614;-120
2024-05-25T23:13:02.641;599617311581634376;4730.3057;-129
2024-05-25T23:13:02.648;599617311589325748;4737.9966;-125
2024-05-25T23:13:02.656;599617311597017120;4745.688;-141
2024-05-25T23:13:02.664;599617311604708492;4753.3794;-164
2024-05-25T23:13:02.672;599617311612399864;4761.0713;-141
2024-05-25T23:13:02.679;599617311620091236;4768.762;-106
2024-05-25T23:13:02.687;599617311627782608;4776.4536;-104
2024-05-25T23:13:02.695;599617311635473980;4784.145;-106
2024-05-25T23:13:02.702;599617311643165352;4791.836;-74
2024-05-25T23:13:02.710;599617311650856724;4799.528;-32
2024-05-25T23:13:02.718;599617311658548096;4807.219;-11
2024-05-25T23:13:02.725;599617311666239468;4814.9106;-11
2024-05-25T23:13:02.733;599617311673930840;4822.6016;-6
2024-05-25T23:13:02.741;599617311681622212;4830.293;18
2024-05-25T23:13:02.748;599617311689313584;4837.985;48
2024-05-25T23:13:02.756;599617311697004956;4845.6763;60
2024-05-25T23:13:02.764;599617311704696328;4853.367;81
2024-05-25T23:13:02.772;599617311712387700;4861.0586;106
2024-05-25T23:13:02.779;599617311720079072;4868.75;104
2024-05-25T23:13:02.787;599617311727770444;4876.4414;94
2024-05-25T23:13:02.795;599617311735461816;4884.133;118
2024-05-25T23:13:02.802;599617311743153188;4891.824;148
2024-05-25T23:13:02.810;599617311750844560;4899.5156;164
2024-05-25T23:13:02.818;599617311758535932;4907.207;171
2024-05-25T23:13:02.825;599617311766227304;4914.8984;180
2024-05-25T23:13:02.833;599617311773918676;4922.59;210
2024-05-25T23:13:02.841;599617311781610048;4930.281;243
2024-05-25T23:13:02.848;599617311789301420;4937.972;245
2024-05-25T23:13:02.856;599617311796992792;4945.664;254
2024-05-25T23:13:02.864;599617311804684164;4953.3555;275
2024-05-25T23:13:02.872;599617311812375536;4961.0464;263
2024-05-25T23:13:02.879;599617311820066908;4968.738;250
2024-05-25T23:13:02.887;599617311827758280;4976.429;277
2024-05-25T23:13:02.895;599617311835449652;4984.1206;284
2024-05-25T23:13:02.902;599617311843141024;4991.812;219
2024-05-25T23:13:02.910;599617311850832396;4999.5034;185
2024-05-25T23:13:02.918;599617311858523768;5007.195;368
2024-05-25T23:13:02.925;599617311866215140;5014.8857;828
2024-05-25T23:13:02.933;599617311873906512;5022.5776;1284
2024-05-25T23:13:02.941;599617311881597884;5030.269;1231
2024-05-25T23:13:02.948;599617311889289256;5037.96;645
2024-05-25T23:13:02.956;599617311896980628;5045.6514;201
2024-05-25T23:13:02.964;599617311904672008;5053.3433;213
2024-05-25T23:13:02.972;599617311912363380;5061.0347;231
2024-05-25T23:13:02.979;599617311920054752;5068.7256;74
2024-05-25T23:13:02.987;599617311927746124;5076.417;23
2024-05-25T23:13:02.995;599617311935437496;5084.1084;76
2024-05-25T23:13:03.002;599617311943128868;5091.8003;64
2024-05-25T23:13:03.010;599617311950820240;5099.491;18
2024-05-25T23:13:03.018;599617311958511612;5107.1826;-6
2024-05-25T23:13:03.025;599617311966202984;5114.874;-50
2024-05-25T23:13:03.033;599617311973894356;5122.565;-78
2024-05-25T23:13:03.041;599617311981585728;5130.257;-37
2024-05-25T23:13:03.048;599617311989277100;5137.948;-9
2024-05-25T23:13:03.056;599617311996968472;5145.6396;-30
2024-05-25T23:13:03.064;599617312004659844;5153.3306;-20
2024-05-25T23:13:03.072;599617312012351216;5161.0225;27
2024-05-25T23:13:03.079;599617312020042588;5168.714;55
2024-05-25T23:13:03.087;599617312027733960;5176.405;67
2024-05-25T23:13:03.095;599617312035425332;5184.096;90
2024-05-25T23:13:03.102;599617312043116704;5191.7876;108
2024-05-25T23:13:03.110;599617312050808076;5199.4795;108
2024-05-25T23:13:03.118;599617312058499448;5207.1704;99
2024-05-25T23:13:03.125;599617312066190820;5214.862;87
2024-05-25T23:13:03.133;599617312073882192;5222.553;81
2024-05-25T23:13:03.141;599617312081573564;5230.244;48
2024-05-25T23:13:03.148;599617312089264936;5237.936;-39
2024-05-25T23:13:03.156;599617312096956308;5245.6274;-87
2024-05-25T23:13:03.164;599617312104647680;5253.319;-60
2024-05-25T23:13:03.172;599617312112339052;5261.01;-60
2024-05-25T23:13:03.179;599617312120030424;5268.701;-90
2024-05-25T23:13:03.187;599617312127721796;5276.393;-78
2024-05-25T23:13:03.195;599617312135413168;5284.084;-71
2024-05-25T23:13:03.202;599617312143104540;5291.7754;-87
2024-05-25T23:13:03.210;599617312150795912;5299.467;-78
2024-05-25T23:13:03.218;599617312158487284;5307.1587;-43
2024-05-25T23:13:03.225;599617312166178656;5314.8496;-18
2024-05-25T23:13:03.233;599617312173870028;5322.541;-20
2024-05-25T23:13:03.241;599617312181561400;5330.2324;-25
2024-05-25T23:13:03.248;599617312189252772;5337.924;-2
2024-05-25T23:13:03.256;599617312196944144;5345.615;32
2024-05-25T23:13:03.264;599617312204635516;5353.3066;43
2024-05-25T23:13:03.271;599617312212326888;5360.998;55
2024-05-25T23:13:03.279;599617312220018260;5368.689;81
2024-05-25T23:13:03.287;599617312227709632;5376.3804;87
2024-05-25T23:13:03.295;599617312235401004;5384.0723;81
2024-05-25T23:13:03.302;599617312243092376;5391.7637;99
2024-05-25T23:13:03.310;599617312250783748;5399.4546;134
2024-05-25T23:13:03.318;599617312258475120;5407.146;152
2024-05-25T23:13:03.325;599617312266166492;5414.8374;148
2024-05-25T23:13:03.333;599617312273857864;5422.529;143
2024-05-25T23:13:03.341;599617312281549236;5430.22;162
2024-05-25T23:13:03.348;599617312289240608;5437.9116;185
2024-05-25T23:13:03.356;599617312296931980;5445.603;187
2024-05-25T23:13:03.364;599617312304623352;5453.2944;201
2024-05-25T23:13:03.371;599617312312314724;5460.986;222
2024-05-25T23:13:03.379;599617312320006096;5468.6772;217
2024-05-25T23:13:03.387;599617312327697468;5476.368;189
2024-05-25T23:13:03.395;599617312335388840;5484.0596;164
2024-05-25T23:13:03.402;599617312343080212;5491.7515;155
2024-05-25T23:13:03.410;599617312350771584;5499.443;162
2024-05-25T23:13:03.418;599617312358462956;5507.134;162
2024-05-25T23:13:03.425;599617312366154328;5514.825;155
2024-05-25T23:13:03.433;599617312373845700;5522.5166;166
2024-05-25T23:13:03.441;599617312381537072;5530.2085;192
2024-05-25T23:13:03.448;599617312389228444;5537.8994;208
2024-05-25T23:13:03.456;599617312396919816;5545.591;231
2024-05-25T23:13:03.464;599617312404611188;5553.282;268
2024-05-25T23:13:03.471;599617312412302560;5560.973;273
2024-05-25T23:13:03.479;599617312419993932;5568.665;217
2024-05-25T23:13:03.487;599617312427685304;5576.3564;148
2024-05-25T23:13:03.495;599617312435376676;5584.048;115
2024-05-25T23:13:03.502;599617312443068048;5591.739;129
2024-05-25T23:13:03.510;599617312450759420;5599.4307;145
2024-05-25T23:13:03.518;599617312458450792;5607.122;145
2024-05-25T23:13:03.525;599617312466142172;5614.813;150
2024-05-25T23:13:03.533;599617312473833544;5622.5044;131
2024-05-25T23:13:03.541;599617312481524916;5630.196;162
2024-05-25T23:13:03.548;599617312489216288;5637.8877;426
2024-05-25T23:13:03.556;599617312496907660;5645.5786;921
2024-05-25T23:13:03.564;599617312504599032;5653.27;1201
2024-05-25T23:13:03.571;599617312512290404;5660.9614;842
2024-05-25T23:13:03.579;599617312519981776;5668.6523;199
2024-05-25T23:13:03.587;599617312527673148;5676.344;-53
2024-05-25T23:13:03.595;599617312535364520;5684.0356;37
2024-05-25T23:13:03.602;599617312543055892;5691.727;27
2024-05-25T23:13:03.610;599617312550747264;5699.418;-46
2024-05-25T23:13:03.618;599617312558438636;5707.1094;-16
2024-05-25T23:13:03.625;599617312566130008;5714.8013;11
2024-05-25T23:13:03.633;599617312573821380;5722.492;-6
2024-05-25T23:13:03.641;599617312581512752;5730.1836;-23
2024-05-25T23:13:03.648;599617312589204124;5737.875;-37
2024-05-25T23:13:03.656;599617312596895496;5745.567;-46
2024-05-25T23:13:03.664;599617312604586868;5753.258;-20
2024-05-25T23:13:03.671;599617312612278240;5760.949;16
2024-05-25T23:13:03.679;599617312619969612;5768.6406;9
2024-05-25T23:13:03.687;599617312627660984;5776.3315;-18
2024-05-25T23:13:03.695;599617312635352356;5784.0234;-27
2024-05-25T23:13:03.702;599617312643043728;5791.715;-39
2024-05-25T23:13:03.710;599617312650735100;5799.4062;-64
2024-05-25T23:13:03.718;599617312658426472;5807.097;-60
2024-05-25T23:13:03.725;599617312666117844;5814.7886;-27
2024-05-25T23:13:03.733;599617312673809216;5822.4805;-2
2024-05-25T23:13:03.741;599617312681500588;5830.172;2
2024-05-25T23:13:03.748;599617312689191960;5837.863;-6
2024-05-25T23:13:03.756;599617312696883332;5845.554;2
2024-05-25T23:13:03.764;599617312704574704;5853.2456;32
2024-05-25T23:13:03.771;599617312712266076;5860.937;39
2024-05-25T23:13:03.779;599617312719957448;5868.6284;37
2024-05-25T23:13:03.787;599617312727648820;5876.32;53
2024-05-25T23:13:03.795;599617312735340192;5884.011;57
2024-05-25T23:13:03.802;599617312743031564;5891.7026;39
2024-05-25T23:13:03.810;599617312750722936;5899.394;37
2024-05-25T23:13:03.818;599617312758414308;5907.0854;62
2024-05-25T23:13:03.825;599617312766105680;5914.7764;81
2024-05-25T23:13:03.833;599617312773797052;5922.468;71
2024-05-25T23:13:03.841;599617312781488424;5930.1597;50
2024-05-25T23:13:03.848;599617312789179796;5937.851;64
2024-05-25T23:13:03.856;599617312796871168;5945.542;99
2024-05-25T23:13:03.864;599617312804562540;5953.2334;113
2024-05-25T23:13:03.871;599617312812253912;5960.925;125
2024-05-25T23:13:03.879;599617312819945284;5968.616;136
2024-05-25T23:13:03.887;599617312827636656;5976.3076;94
2024-05-25T23:13:03.894;599617312835328028;5983.999;43
2024-05-25T23:13:03.902;599617312843019400;5991.6904;67
2024-05-25T23:13:03.910;599617312850710772;5999.382;118
2024-05-25T23:13:03.918;599617312858402144;6007.073;129
2024-05-25T23:13:03.925;599617312866093516;6014.7646;125
2024-05-25T23:13:03.933;599617312873784888;6022.4556;127
2024-05-25T23:13:03.941;599617312881476260;6030.147;143
2024-05-25T23:13:03.948;599617312889167632;6037.839;159
2024-05-25T23:13:03.956;599617312896859004;6045.5303;166
2024-05-25T23:13:03.964;599617312904550376;6053.221;182
2024-05-25T23:13:03.971;599617312912241748;6060.9126;210
2024-05-25T23:13:03.979;599617312919933120;6068.604;199
2024-05-25T23:13:03.987;599617312927624492;6076.296;131
2024-05-25T23:13:03.994;599617312935315864;6083.987;81
2024-05-25T23:13:04.002;599617312943007236;6091.678;111
2024-05-25T23:13:04.010;599617312950698608;6099.3696;143
2024-05-25T23:13:04.018;599617312958389980;6107.0605;131
2024-05-25T23:13:04.025;599617312966081352;6114.7524;136
2024-05-25T23:13:04.033;599617312973772724;6122.444;166
2024-05-25T23:13:04.041;599617312981464096;6130.1353;180
2024-05-25T23:13:04.048;599617312989155468;6137.826;185
2024-05-25T23:13:04.056;599617312996846840;6145.518;208
2024-05-25T23:13:04.064;599617313004538212;6153.2095;229
2024-05-25T23:13:04.071;599617313012229584;6160.9004;208
2024-05-25T23:13:04.079;599617313019920956;6168.592;199
2024-05-25T23:13:04.087;599617313027607368;6176.2783;240
2024-05-25T23:13:04.094;599617313035298809;6183.9697;275
2024-05-25T23:13:04.102;599617313042990250;6191.661;280
2024-05-25T23:13:04.110;599617313050681691;6199.353;277
2024-05-25T23:13:04.118;599617313058373132;6207.044;238
2024-05-25T23:13:04.125;599617313066064573;6214.7354;173
2024-05-25T23:13:04.133;599617313073756014;6222.4272;138
2024-05-25T23:13:04.141;599617313081447455;6230.118;131
2024-05-25T23:13:04.148;599617313089138896;6237.8096;143
2024-05-25T23:13:04.156;599617313096830337;6245.5015;136
2024-05-25T23:13:04.164;599617313104521778;6253.193;48
2024-05-25T23:13:04.171;599617313112213219;6260.884;-50
2024-05-25T23:13:04.179;599617313119904660;6268.5757;-30
2024-05-25T23:13:04.187;599617313127596101;6276.267;148
2024-05-25T23:13:04.194;599617313135287542;6283.959;539
2024-05-25T23:13:04.202;599617313142978983;6291.65;1011
2024-05-25T23:13:04.210;599617313150670424;6299.3413;1046
2024-05-25T23:13:04.218;599617313158361865;6307.033;479
2024-05-25T23:13:04.225;599617313166053306;6314.724;-11
2024-05-25T23:13:04.233;599617313173744747;6322.4155;-9
2024-05-25T23:13:04.241;599617313181436188;6330.1074;53
2024-05-25T23:13:04.248;599617313189127629;6337.799;-64
2024-05-25T23:13:04.256;599617313196819070;6345.4897;-134
2024-05-25T23:13:04.264;599617313204510511;6353.1816;-111
2024-05-25T23:13:04.271;599617313212201952;6360.873;-97
2024-05-25T23:13:04.279;599617313219893393;6368.5645;-97
2024-05-25T23:13:04.287;599617313227584834;6376.256;-85
2024-05-25T23:13:04.294;599617313235276275;6383.9473;-74
2024-05-25T23:13:04.302;599617313242967716;6391.6387;-62
2024-05-25T23:13:04.310;599617313250659157;6399.33;-55
2024-05-25T23:13:04.318;599617313258350598;6407.0215;-46
2024-05-25T23:13:04.325;599617313266042039;6414.713;-13
2024-05-25T23:13:04.333;599617313273733480;6422.405;23
2024-05-25T23:13:04.341;599617313281424921;6430.0957;30
2024-05-25T23:13:04.348;599617313289116362;6437.787;16
2024-05-25T23:13:04.356;599617313296807803;6445.479;37
2024-05-25T23:13:04.364;599617313304499244;6453.1704;85
2024-05-25T23:13:04.371;599617313312190685;6460.8613;113
2024-05-25T23:13:04.379;599617313319882126;6468.553;97
2024-05-25T23:13:04.387;599617313327573567;6476.2446;78
2024-05-25T23:13:04.394;599617313335265008;6483.936;83
2024-05-25T23:13:04.402;599617313342956449;6491.6274;90
2024-05-25T23:13:04.410;599617313350647890;6499.319;99
2024-05-25T23:13:04.418;599617313358339331;6507.0107;131
2024-05-25T23:13:04.425;599617313366030772;6514.7017;159
2024-05-25T23:13:04.433;599617313373722213;6522.393;152
2024-05-25T23:13:04.441;599617313381413654;6530.085;134
2024-05-25T23:13:04.448;599617313389105095;6537.7764;143
2024-05-25T23:13:04.456;599617313396796536;6545.4673;164
2024-05-25T23:13:04.464;599617313404487977;6553.159;159
2024-05-25T23:13:04.471;599617313412179418;6560.8506;159
2024-05-25T23:13:04.479;599617313419870859;6568.5415;173
2024-05-25T23:13:04.487;599617313427562300;6576.2334;129
2024-05-25T23:13:04.494;599617313435253741;6583.925;30
2024-05-25T23:13:04.502;599617313442945182;6591.616;11
2024-05-25T23:13:04.510;599617313450636623;6599.3076;76
2024-05-25T23:13:04.517;599617313458328064;6606.999;104
2024-05-25T23:13:04.525;599617313466019505;6614.6904;92
2024-05-25T23:13:04.533;599617313473710946;6622.382;104
2024-05-25T23:13:04.541;599617313481402387;6630.073;134
2024-05-25T23:13:04.548;599617313489093828;6637.7646;152
2024-05-25T23:13:04.556;599617313496785269;6645.4565;162
2024-05-25T23:13:04.564;599617313504476710;6653.1475;182
2024-05-25T23:13:04.571;599617313512168151;6660.839;206
2024-05-25T23:13:04.579;599617313519859592;6668.531;201
2024-05-25T23:13:04.587;599617313527551033;6676.222;192
2024-05-25T23:13:04.594;599617313535242474;6683.913;215
2024-05-25T23:13:04.602;599617313542933915;6691.605;247
2024-05-25T23:13:04.610;599617313550625356;6699.2964;252
2024-05-25T23:13:04.617;599617313558316797;6706.988;231
2024-05-25T23:13:04.625;599617313566008238;6714.679;189
2024-05-25T23:13:04.633;599617313573699679;6722.3706;164
2024-05-25T23:13:04.641;599617313581391120;6730.0625;175
2024-05-25T23:13:04.648;599617313589062530;6737.7334;189
2024-05-25T23:13:04.656;599617313596754250;6745.4253;199
2024-05-25T23:13:04.664;599617313604445970;6753.117;194
2024-05-25T23:13:04.671;599617313612137690;6760.8086;101
2024-05-25T23:13:04.679;599617313619829410;6768.5;-4
2024-05-25T23:13:04.687;599617313627521130;6776.192;2
2024-05-25T23:13:04.694;599617313635212850;6783.884;46
2024-05-25T23:13:04.702;599617313642904570;6791.5757;34
2024-05-25T23:13:04.710;599617313650596290;6799.267;18
2024-05-25T23:13:04.717;599617313658288010;6806.959;32
2024-05-25T23:13:04.725;599617313665979730;6814.651;60
2024-05-25T23:13:04.733;599617313673671450;6822.343;74
2024-05-25T23:13:04.741;599617313681363170;6830.0337;90
2024-05-25T23:13:04.748;599617313689054890;6837.7256;134
2024-05-25T23:13:04.756;599617313696746610;6845.4175;157
2024-05-25T23:13:04.764;599617313704438330;6853.1094;127
2024-05-25T23:13:04.771;599617313712130050;6860.801;111
2024-05-25T23:13:04.779;599617313719821770;6868.4927;127
2024-05-25T23:13:04.787;599617313727513490;6876.1846;108
2024-05-25T23:13:04.794;599617313735205210;6883.8765;67
2024-05-25T23:13:04.802;599617313742896930;6891.5684;25
2024-05-25T23:13:04.810;599617313750588650;6899.2593;-43
2024-05-25T23:13:04.817;599617313758280370;6906.951;-76
2024-05-25T23:13:04.825;599617313765972090;6914.643;67
2024-05-25T23:13:04.833;599617313773663810;6922.335;479
2024-05-25T23:13:04.841;599617313781355530;6930.0264;972
2024-05-25T23:13:04.848;599617313789047250;6937.7183;986
2024-05-25T23:13:04.856;599617313796738970;6945.41;379
2024-05-25T23:13:04.864;599617313804430690;6953.102;-129
2024-05-25T23:13:04.871;599617313812122410;6960.7935;-120
2024-05-25T23:13:04.879;599617313819814130;6968.4854;-55
2024-05-25T23:13:04.887;599617313827505850;6976.177;-152
2024-05-25T23:13:04.894;599617313835197570;6983.8687;-159
2024-05-25T23:13:04.902;599617313842889290;6991.56;-104
2024-05-25T23:13:04.910;599617313850581010;6999.252;-104
2024-05-25T23:13:04.917;599617313858272730;7006.944;-101
2024-05-25T23:13:04.925;599617313865964450;7014.6357;-60
2024-05-25T23:13:04.933;599617313873656170;7022.327;-23
2024-05-25T23:13:04.941;599617313881347890;7030.019;-11
2024-05-25T23:13:04.948;599617313889039610;7037.711;-11
2024-05-25T23:13:04.956;599617313896731330;7045.4023;9
2024-05-25T23:13:04.964;599617313904423050;7053.0938;53
2024-05-25T23:13:04.971;599617313912114770;7060.7856;76
2024-05-25T23:13:04.979;599617313919806490;7068.4775;83
2024-05-25T23:13:04.987;599617313927498210;7076.1694;108
2024-05-25T23:13:04.994;599617313935189930;7083.861;83
2024-05-25T23:13:05.002;599617313942881650;7091.5527;-4
2024-05-25T23:13:05.010;599617313950573370;7099.2446;-18
2024-05-25T23:13:05.017;599617313958265090;7106.9365;53
2024-05-25T23:13:05.025;599617313965956810;7114.6274;87
2024-05-25T23:13:05.033;599617313973648530;7122.3193;81
2024-05-25T23:13:05.041;599617313981340250;7130.011;85
2024-05-25T23:13:05.048;599617313989031970;7137.703;108
2024-05-25T23:13:05.056;599617313996723690;7145.3945;138
2024-05-25T23:13:05.064;599617314004415410;7153.0864;152
2024-05-25T23:13:05.071;599617314012107130;7160.7783;164
2024-05-25T23:13:05.079;599617314019798850;7168.47;178
2024-05-25T23:13:05.087;599617314027490570;7176.1616;164
2024-05-25T23:13:05.094;599617314035182290;7183.853;138
2024-05-25T23:13:05.102;599617314042874010;7191.545;145
2024-05-25T23:13:05.110;599617314050565730;7199.237;157
2024-05-25T23:13:05.117;599617314058257450;7206.928;122
2024-05-25T23:13:05.125;599617314065949170;7214.62;67
2024-05-25T23:13:05.133;599617314073640890;7222.312;55
2024-05-25T23:13:05.141;599617314081332610;7230.004;87
2024-05-25T23:13:05.148;599617314089024330;7237.6953;111
2024-05-25T23:13:05.156;599617314096716050;7245.387;120
2024-05-25T23:13:05.164;599617314104407770;7253.0786;141
2024-05-25T23:13:05.171;599617314112099490;7260.7705;169
2024-05-25T23:13:05.179;599617314119791210;7268.462;169
2024-05-25T23:13:05.187;599617314127482930;7276.154;162
2024-05-25T23:13:05.194;599617314135174650;7283.8457;187
2024-05-25T23:13:05.202;599617314142866370;7291.5376;224
2024-05-25T23:13:05.210;599617314150583182;7299.2544;236
2024-05-25T23:13:05.217;599617314158274554;7306.9453;224
2024-05-25T23:13:05.225;599617314165965926;7314.6367;189
2024-05-25T23:13:05.233;599617314173657298;7322.328;152
2024-05-25T23:13:05.241;599617314181348670;7330.02;152
2024-05-25T23:13:05.248;599617314189040042;7337.711;162
2024-05-25T23:13:05.256;599617314196731414;7345.4023;171
2024-05-25T23:13:05.264;599617314204422786;7353.0938;173
2024-05-25T23:13:05.271;599617314212114158;7360.7847;118
2024-05-25T23:13:05.279;599617314219805530;7368.4766;41
2024-05-25T23:13:05.287;599617314227496902;7376.168;50
2024-05-25T23:13:05.294;599617314235188274;7383.8594;97
2024-05-25T23:13:05.302;599617314242879646;7391.5503;92
2024-05-25T23:13:05.310;599617314250571018;7399.242;74
2024-05-25T23:13:05.317;599617314258262390;7406.9336;78
2024-05-25T23:13:05.325;599617314265953762;7414.625;92
2024-05-25T23:13:05.333;599617314273645134;7422.316;97
2024-05-25T23:13:05.341;599617314281336506;7430.0073;83
2024-05-25T23:13:05.348;599617314289027878;7437.699;69
2024-05-25T23:13:05.356;599617314296719250;7445.39;62
2024-05-25T23:13:05.364;599617314304410622;7453.0815;6
2024-05-25T23:13:05.371;599617314312101994;7460.773;-62
2024-05-25T23:13:05.379;599617314319793366;7468.4644;-50
2024-05-25T23:13:05.387;599617314327484738;7476.156;-18
2024-05-25T23:13:05.394;599617314335176110;7483.847;-30
2024-05-25T23:13:05.402;599617314342867482;7491.5386;-34
2024-05-25T23:13:05.410;599617314350558854;7499.2295;-25
2024-05-25T23:13:05.417;599617314358250226;7506.9214;-41
2024-05-25T23:13:05.425;599617314365941598;7514.613;-74
2024-05-25T23:13:05.433;599617314373632970;7522.304;-2
2024-05-25T23:13:05.440;599617314381324342;7529.995;333
2024-05-25T23:13:05.448;599617314389015714;7537.6865;865
2024-05-25T23:13:05.456;599617314396707086;7545.3784;1120
2024-05-25T23:13:05.464;599617314404398458;7553.0693;722
2024-05-25T23:13:05.471;599617314412089830;7560.7607;106
2024-05-25T23:13:05.479;599617314419781202;7568.452;-53
2024-05-25T23:13:05.487;599617314427472574;7576.1436;78
2024-05-25T23:13:05.494;599617314435163946;7583.835;16
2024-05-25T23:13:05.502;599617314442855318;7591.5264;-141
2024-05-25T23:13:05.510;599617314450546690;7599.218;-152
2024-05-25T23:13:05.517;599617314458238062;7606.9087;-106
2024-05-25T23:13:05.525;599617314465929434;7614.6;-87
2024-05-25T23:13:05.533;599617314473620806;7622.292;-53
2024-05-25T23:13:05.540;599617314481312178;7629.9834;-20
2024-05-25T23:13:05.548;599617314489003550;7637.6743;-23
2024-05-25T23:13:05.556;599617314496694922;7645.3657;-4
2024-05-25T23:13:05.564;599617314504386294;7653.0576;46
2024-05-25T23:13:05.571;599617314512077666;7660.749;71
2024-05-25T23:13:05.579;599617314519769038;7668.44;81
2024-05-25T23:13:05.587;599617314527460410;7676.1313;111
2024-05-25T23:13:05.594;599617314535151782;7683.8228;141
2024-05-25T23:13:05.602;599617314542843154;7691.514;155
2024-05-25T23:13:05.610;599617314550534526;7699.2056;150
2024-05-25T23:13:05.617;599617314558225898;7706.897;145
2024-05-25T23:13:05.625;599617314565917270;7714.5884;171
2024-05-25T23:13:05.633;599617314573608642;7722.2793;189
2024-05-25T23:13:05.640;599617314581300014;7729.971;180
2024-05-25T23:13:05.648;599617314588991386;7737.6626;192
2024-05-25T23:13:05.656;599617314596682758;7745.3535;231
2024-05-25T23:13:05.664;599617314604374130;7753.045;238
2024-05-25T23:13:05.671;599617314612065502;7760.7363;238
2024-05-25T23:13:05.679;599617314619756874;7768.428;259
2024-05-25T23:13:05.687;599617314627448246;7776.119;256
2024-05-25T23:13:05.694;599617314635139618;7783.8105;226
2024-05-25T23:13:05.702;599617314642830990;7791.502;224
2024-05-25T23:13:05.710;599617314650522362;7799.1934;247
2024-05-25T23:13:05.717;599617314658213734;7806.885;256
2024-05-25T23:13:05.725;599617314665905106;7814.576;243
2024-05-25T23:13:05.733;599617314673596478;7822.2676;224
2024-05-25T23:13:05.740;599617314681287850;7829.9585;233
2024-05-25T23:13:05.748;599617314688979222;7837.6504;256
2024-05-25T23:13:05.756;599617314696670594;7845.342;261
2024-05-25T23:13:05.764;599617314704361966;7853.033;273
2024-05-25T23:13:05.771;599617314712023250;7860.694;294
2024-05-25T23:13:05.779;599617314719715040;7868.3857;289
2024-05-25T23:13:05.787;599617314727406830;7876.0776;275
2024-05-25T23:13:05.794;599617314735098620;7883.77;287
2024-05-25T23:13:05.802;599617314742790410;7891.4614;289
2024-05-25T23:13:05.810;599617314750482200;7899.1533;250
2024-05-25T23:13:05.817;599617314758173990;7906.845;213
2024-05-25T23:13:05.825;599617314765865780;7914.537;206
2024-05-25T23:13:05.833;599617314773557570;7922.2285;201
2024-05-25T23:13:05.840;599617314781249360;7929.9204;159
2024-05-25T23:13:05.848;599617314788941150;7937.6123;76
2024-05-25T23:13:05.856;599617314796632940;7945.304;18
2024-05-25T23:13:05.863;599617314804324730;7952.9956;2
2024-05-25T23:13:05.871;599617314812016520;7960.6875;-13
2024-05-25T23:13:05.879;599617314819708310;7968.3794;-23
2024-05-25T23:13:05.887;599617314827400100;7976.0713;9
2024-05-25T23:13:05.894;599617314835091890;7983.763;46
2024-05-25T23:13:05.902;599617314842783680;7991.4546;55
2024-05-25T23:13:05.910;599617314850475470;7999.1465;46
2024-05-25T23:13:05.917;599617314858167260;8006.8384;23
2024-05-25T23:13:05.925;599617314865859050;8014.5303;-11
2024-05-25T23:13:05.933;599617314873550840;8022.2217;-37
2024-05-25T23:13:05.940;599617314881242630;8029.9136;-69
2024-05-25T23:13:05.948;599617314888934420;8037.6055;-90
2024-05-25T23:13:05.956;599617314896626210;8045.2974;-76
2024-05-25T23:13:05.963;599617314904318000;8052.989;-85
2024-05-25T23:13:05.971;599617314912009790;8060.6807;-94
2024-05-25T23:13:05.979;599617314919701580;8068.3726;-50
2024-05-25T23:13:05.987;599617314927393370;8076.0645;-9
2024-05-25T23:13:05.994;599617314935085160;8083.756;-39
2024-05-25T23:13:06.002;599617314942776950;8091.4478;-113
2024-05-25T23:13:06.010;599617314950468740;8099.1396;-164
2024-05-25T23:13:06.017;599617314958160530;8106.8315;-145
2024-05-25T23:13:06.025;599617314965852320;8114.523;-115
2024-05-25T23:13:06.033;599617314973544110;8122.215;-111
2024-05-25T23:13:06.040;599617314981235900;8129.9067;-99
2024-05-25T23:13:06.048;599617314988927690;8137.5986;-99
2024-05-25T23:13:06.056;599617314996619480;8145.29;-13
2024-05-25T23:13:06.063;599617315004311270;8152.982;365
2024-05-25T23:13:06.071;599617315012003060;8160.6743;926
2024-05-25T23:13:06.079;599617315019694850;8168.366;1102
2024-05-25T23:13:06.087;599617315027386640;8176.0576;613
2024-05-25T23:13:06.094;599617315035078430;8183.7495;20
2024-05-25T23:13:06.102;599617315042770220;8191.4414;-108
2024-05-25T23:13:06.110;599617315050462010;8199.133;-53
2024-05-25T23:13:06.117;599617315058153800;8206.825;-127
2024-05-25T23:13:06.125;599617315065845590;8214.517;-134
2024-05-25T23:13:06.133;599617315073537380;8222.209;-53
2024-05-25T23:13:06.140;599617315081229170;8229.9;-48
2024-05-25T23:13:06.148;599617315088920960;8237.592;-81
2024-05-25T23:13:06.156;599617315096612750;8245.284;-43
2024-05-25T23:13:06.163;599617315104304540;8252.976;9
2024-05-25T23:13:06.171;599617315111996330;8260.667;27
2024-05-25T23:13:06.179;599617315119688120;8268.359;41
2024-05-25T23:13:06.187;599617315127379910;8276.051;76
2024-05-25T23:13:06.194;599617315135071700;8283.743;94
2024-05-25T23:13:06.202;599617315142763490;8291.435;97
2024-05-25T23:13:06.210;599617315150455280;8299.126;118
2024-05-25T23:13:06.217;599617315158147070;8306.818;159
2024-05-25T23:13:06.225;599617315165838860;8314.51;194
2024-05-25T23:13:06.233;599617315173530650;8322.201;206
2024-05-25T23:13:06.240;599617315181222440;8329.894;206
2024-05-25T23:13:06.248;599617315188914230;8337.585;226
2024-05-25T23:13:06.256;599617315196606020;8345.277;261
2024-05-25T23:13:06.263;599617315204297810;8352.969;273
2024-05-25T23:13:06.271;599617315211989600;8360.66;275
2024-05-25T23:13:06.279;599617315219681390;8368.353;289
2024-05-25T23:13:06.287;599617315227373180;8376.044;289
2024-05-25T23:13:06.294;599617315235064970;8383.735;273
2024-05-25T23:13:06.302;599617315242756760;8391.428;280
2024-05-25T23:13:06.310;599617315250448550;8399.119;303
2024-05-25T23:13:06.317;599617315258140340;8406.812;310
2024-05-25T23:13:06.325;599617315265832130;8414.503;287
2024-05-25T23:13:06.333;599617315273554028;8422.225;266
2024-05-25T23:13:06.340;599617315281245400;8429.916;261
2024-05-25T23:13:06.348;599617315288936772;8437.608;236
2024-05-25T23:13:06.356;599617315296628144;8445.299;182
2024-05-25T23:13:06.363;599617315304319516;8452.99;185
2024-05-25T23:13:06.371;599617315312010888;8460.682;217
2024-05-25T23:13:06.379;599617315319702260;8468.373;178
2024-05-25T23:13:06.387;599617315327393632;8476.064;101
2024-05-25T23:13:06.394;599617315335085004;8483.756;94
2024-05-25T23:13:06.402;599617315342776376;8491.447;141
2024-05-25T23:13:06.410;599617315350467748;8499.139;129
2024-05-25T23:13:06.417;599617315358159120;8506.83;74
2024-05-25T23:13:06.425;599617315365850492;8514.521;57
2024-05-25T23:13:06.433;599617315373541864;8522.213;81
2024-05-25T23:13:06.440;599617315381233236;8529.904;87
2024-05-25T23:13:06.448;599617315388924608;8537.596;87
2024-05-25T23:13:06.456;599617315396615980;8545.287;106
2024-05-25T23:13:06.463;599617315404307352;8552.979;125
2024-05-25T23:13:06.471;599617315411998724;8560.67;108
2024-05-25T23:13:06.479;599617315419690096;8568.361;94
2024-05-25T23:13:06.487;599617315427381468;8576.052;120
2024-05-25T23:13:06.494;599617315435072840;8583.744;129
2024-05-25T23:13:06.502;599617315442764212;8591.435;67
2024-05-25T23:13:06.510;599617315450455584;8599.127;13
2024-05-25T23:13:06.517;599617315458146956;8606.818;25
2024-05-25T23:13:06.525;599617315465838328;8614.51;23
2024-05-25T23:13:06.533;599617315473529700;8622.201;-23
2024-05-25T23:13:06.540;599617315481221072;8629.893;-50
2024-05-25T23:13:06.548;599617315488912444;8637.583;-60
2024-05-25T23:13:06.556;599617315496603816;8645.274;-90
2024-05-25T23:13:06.563;599617315504295188;8652.966;-122
2024-05-25T23:13:06.571;599617315511986560;8660.657;-127
2024-05-25T23:13:06.579;599617315519677932;8668.349;-97
2024-05-25T23:13:06.587;599617315527369304;8676.041;-71
2024-05-25T23:13:06.594;599617315535060676;8683.732;-85
2024-05-25T23:13:06.602;599617315542752048;8691.423;-101
2024-05-25T23:13:06.610;599617315550443420;8699.114;-87
2024-05-25T23:13:06.617;599617315558134792;8706.806;-78
2024-05-25T23:13:06.625;599617315565826164;8714.497;-83
2024-05-25T23:13:06.633;599617315573517536;8722.188;-64
2024-05-25T23:13:06.640;599617315581208908;8729.88;-30
2024-05-25T23:13:06.648;599617315588900280;8737.571;-11
2024-05-25T23:13:06.656;599617315596591652;8745.263;-23
2024-05-25T23:13:06.663;599617315604283024;8752.954;-27
2024-05-25T23:13:06.671;599617315611974396;8760.6455;-25
2024-05-25T23:13:06.679;599617315619665768;8768.337;25
2024-05-25T23:13:06.687;599617315627357140;8776.028;287
2024-05-25T23:13:06.694;599617315635048512;8783.72;796
2024-05-25T23:13:06.702;599617315642739884;8791.411;1157
2024-05-25T23:13:06.710;599617315650431256;8799.102;889
2024-05-25T23:13:06.717;599617315658122628;8806.793;250
2024-05-25T23:13:06.725;599617315665814000;8814.485;-11
2024-05-25T23:13:06.733;599617315673505372;8822.177;120
2024-05-25T23:13:06.740;599617315681196744;8829.868;118
2024-05-25T23:13:06.748;599617315688888116;8837.56;9
2024-05-25T23:13:06.756;599617315696579488;8845.251;43
2024-05-25T23:13:06.763;599617315704270860;8852.941;106
2024-05-25T23:13:06.771;599617315711962232;8860.633;97
2024-05-25T23:13:06.779;599617315719653604;8868.324;101
2024-05-25T23:13:06.787;599617315727344976;8876.016;134
2024-05-25T23:13:06.794;599617315735036348;8883.707;143
2024-05-25T23:13:06.802;599617315742727720;8891.399;138
2024-05-25T23:13:06.810;599617315750419092;8899.091;155
2024-05-25T23:13:06.817;599617315758110464;8906.781;189
2024-05-25T23:13:06.825;599617315765801836;8914.473;222
2024-05-25T23:13:06.833;599617315773493208;8922.164;238
2024-05-25T23:13:06.840;599617315781184580;8929.855;210
2024-05-25T23:13:06.848;599617315788875952;8937.547;178
2024-05-25T23:13:06.856;599617315796567324;8945.238;201
2024-05-25T23:13:06.863;599617315804258696;8952.93;233
2024-05-25T23:13:06.871;599617315811950068;8960.621;240
2024-05-25T23:13:06.879;599617315819641440;8968.3125;256
2024-05-25T23:13:06.887;599617315827332812;8976.004;270
2024-05-25T23:13:06.894;599617315835024192;8983.695;261
2024-05-25T23:13:06.902;599617315842715564;8991.387;266
2024-05-25T23:13:06.910;599617315850406936;8999.078;291
2024-05-25T23:13:06.917;599617315858098308;9006.77;305
2024-05-25T23:13:06.925;599617315865789680;9014.46;296
2024-05-25T23:13:06.933;599617315873481052;9022.151;273
2024-05-25T23:13:06.940;599617315881172424;9029.843;266
2024-05-25T23:13:06.948;599617315888863796;9037.535;252
2024-05-25T23:13:06.956;599617315896555168;9045.227;180
2024-05-25T23:13:06.963;599617315904246540;9052.918;127
2024-05-25T23:13:06.971;599617315911937912;9060.609;148
2024-05-25T23:13:06.979;599617315919629284;9068.3;148
2024-05-25T23:13:06.986;599617315927320656;9075.991;118
2024-05-25T23:13:06.994;599617315935012028;9083.683;115
2024-05-25T23:13:07.002;599617315942703400;9091.374;81
2024-05-25T23:13:07.010;599617315950394772;9099.065;18
2024-05-25T23:13:07.017;599617315958086144;9106.758;16
2024-05-25T23:13:07.025;599617315965777516;9114.449;46
2024-05-25T23:13:07.033;599617315973468888;9122.141;46
2024-05-25T23:13:07.040;599617315981160260;9129.831;27
2024-05-25T23:13:07.048;599617315988851632;9137.522;11
2024-05-25T23:13:07.056;599617315996543004;9145.214;25
2024-05-25T23:13:07.063;599617316004234376;9152.905;43
2024-05-25T23:13:07.071;599617316011925748;9160.597;27
2024-05-25T23:13:07.079;599617316019617120;9168.288;6
2024-05-25T23:13:07.086;599617316027308492;9175.9795;-2
2024-05-25T23:13:07.094;599617316034999864;9183.671;-23
2024-05-25T23:13:07.102;599617316042691236;9191.362;-32
2024-05-25T23:13:07.110;599617316050382608;9199.054;-25
2024-05-25T23:13:07.117;599617316058073980;9206.745;-20
2024-05-25T23:13:07.125;599617316065765352;9214.437;-4
2024-05-25T23:13:07.133;599617316073456724;9222.128;9
2024-05-25T23:13:07.140;599617316081148096;9229.819;18
2024-05-25T23:13:07.148;599617316088839468;9237.51;30
2024-05-25T23:13:07.156;599617316096530840;9245.201;11
2024-05-25T23:13:07.163;599617316104222212;9252.894;-46
2024-05-25T23:13:07.171;599617316111913584;9260.585;-78
2024-05-25T23:13:07.179;599617316119604956;9268.276;-90
2024-05-25T23:13:07.186;599617316127296328;9275.968;-101
2024-05-25T23:13:07.194;599617316134987700;9283.659;-106
2024-05-25T23:13:07.202;599617316142679072;9291.35;-108
2024-05-25T23:13:07.210;599617316150370444;9299.041;-101
2024-05-25T23:13:07.217;599617316158061816;9306.732;-85
2024-05-25T23:13:07.225;599617316165753188;9314.424;-71
2024-05-25T23:13:07.233;599617316173444560;9322.115;-41
2024-05-25T23:13:07.240;599617316181135932;9329.808;-2
2024-05-25T23:13:07.248;599617316188827304;9337.499;0
2024-05-25T23:13:07.256;599617316196518676;9345.189;-23
2024-05-25T23:13:07.263;599617316204210048;9352.881;-13
2024-05-25T23:13:07.271;599617316211901420;9360.572;20
2024-05-25T23:13:07.279;599617316219592792;9368.264;41
2024-05-25T23:13:07.286;599617316227284164;9375.955;46
2024-05-25T23:13:07.294;599617316234975536;9383.646;39
2024-05-25T23:13:07.302;599617316242666908;9391.338;18
2024-05-25T23:13:07.310;599617316250358280;9399.029;55
2024-05-25T23:13:07.317;599617316258049652;9406.721;321
2024-05-25T23:13:07.325;599617316265741024;9414.412;833
2024-05-25T23:13:07.333;599617316273432396;9422.104;1162
2024-05-25T23:13:07.340;599617316281123768;9429.795;824
2024-05-25T23:13:07.348;599617316288815140;9437.486;148
2024-05-25T23:13:07.356;599617316296506512;9445.178;-92
2024-05-25T23:13:07.363;599617316304197884;9452.868;53
2024-05-25T23:13:07.371;599617316311889256;9460.56;53
2024-05-25T23:13:07.379;599617316319580628;9468.251;-32
2024-05-25T23:13:07.386;599617316327272000;9475.943;16
2024-05-25T23:13:07.394;599617316334963372;9483.635;57
2024-05-25T23:13:07.402;599617316342654744;9491.326;30
2024-05-25T23:13:07.410;599617316350346116;9499.018;46
2024-05-25T23:13:07.417;599617316358037488;9506.708;92
2024-05-25T23:13:07.425;599617316365728860;9514.399;120
2024-05-25T23:13:07.433;599617316373420232;9522.091;125
2024-05-25T23:13:07.440;599617316381111604;9529.782;122
2024-05-25T23:13:07.448;599617316388802976;9537.474;143
2024-05-25T23:13:07.456;599617316396464260;9545.135;180
2024-05-25T23:13:07.463;599617316404156050;9552.827;194
2024-05-25T23:13:07.471;599617316411847840;9560.519;206
2024-05-25T23:13:07.479;599617316419539630;9568.211;231
2024-05-25T23:13:07.486;599617316427231420;9575.902;226
2024-05-25T23:13:07.494;599617316434923210;9583.595;169
2024-05-25T23:13:07.502;599617316442615000;9591.286;129
2024-05-25T23:13:07.509;599617316450306790;9598.979;108
2024-05-25T23:13:07.517;599617316457998580;9606.669;48
2024-05-25T23:13:07.525;599617316465690370;9614.361;16
2024-05-25T23:13:07.533;599617316473382160;9622.053;39
2024-05-25T23:13:07.540;599617316481073950;9629.745;64
2024-05-25T23:13:07.548;599617316488765740;9637.437;83
2024-05-25T23:13:07.556;599617316496457530;9645.129;99
2024-05-25T23:13:07.563;599617316504149320;9652.82;113
2024-05-25T23:13:07.571;599617316511841110;9660.513;125
2024-05-25T23:13:07.579;599617316519532900;9668.203;99
2024-05-25T23:13:07.586;599617316527224690;9675.8955;64
2024-05-25T23:13:07.594;599617316534916480;9683.587;81
2024-05-25T23:13:07.602;599617316542608270;9691.279;118
2024-05-25T23:13:07.609;599617316550300060;9698.971;131
2024-05-25T23:13:07.617;599617316557991850;9706.663;129
2024-05-25T23:13:07.625;599617316565683640;9714.3545;131
2024-05-25T23:13:07.633;599617316573375430;9722.047;150
2024-05-25T23:13:07.640;599617316581067220;9729.737;173
2024-05-25T23:13:07.648;599617316588759010;9737.43;182
2024-05-25T23:13:07.656;599617316596450800;9745.121;203
2024-05-25T23:13:07.663;599617316604142590;9752.813;231
2024-05-25T23:13:07.671;599617316611834380;9760.506;219
2024-05-25T23:13:07.679;599617316619526170;9768.197;180
2024-05-25T23:13:07.686;599617316627217960;9775.89;159
2024-05-25T23:13:07.694;599617316634909750;9783.581;164
2024-05-25T23:13:07.702;599617316642601540;9791.273;166
2024-05-25T23:13:07.709;599617316650293330;9798.964;152
2024-05-25T23:13:07.717;599617316657985120;9806.656;145
2024-05-25T23:13:07.725;599617316665676910;9814.348;152
2024-05-25T23:13:07.733;599617316673368700;9822.04;159
2024-05-25T23:13:07.740;599617316681060490;9829.731;159
2024-05-25T23:13:07.748;599617316688752280;9837.424;175
2024-05-25T23:13:07.756;599617316696444070;9845.115;189
2024-05-25T23:13:07.763;599617316704135860;9852.808;171
2024-05-25T23:13:07.771;599617316711827650;9860.498;162
2024-05-25T23:13:07.779;599617316719519440;9868.19;189
2024-05-25T23:13:07.786;599617316727211230;9875.882;206
2024-05-25T23:13:07.794;599617316734903020;9883.574;171
2024-05-25T23:13:07.802;599617316742594810;9891.266;120
2024-05-25T23:13:07.809;599617316750286600;9898.958;90
2024-05-25T23:13:07.817;599617316757978390;9906.649;53
2024-05-25T23:13:07.825;599617316765670180;9914.342;-13
2024-05-25T23:13:07.833;599617316773361970;9922.032;-55
2024-05-25T23:13:07.840;599617316781053760;9929.725;-37
2024-05-25T23:13:07.848;599617316788745550;9937.416;-25
2024-05-25T23:13:07.856;599617316796437340;9945.108;-43
2024-05-25T23:13:07.863;599617316804129130;9952.8;-30
2024-05-25T23:13:07.871;599617316811820920;9960.492;4
2024-05-25T23:13:07.879;599617316819512710;9968.184;6
2024-05-25T23:13:07.886;599617316827204500;9975.876;-4
2024-05-25T23:13:07.894;599617316834896290;9983.566;4
2024-05-25T23:13:07.902;599617316842588080;9991.259;16
2024-05-25T23:13:07.909;599617316850279870;9998.95;18
2024-05-25T23:13:07.917;599617316857971660;10006.643;13
2024-05-25T23:13:07.925;599617316865663450;10014.334;6
2024-05-25T23:13:07.933;599617316873355240;10022.026;30
2024-05-25T23:13:07.940;599617316881047030;10029.719;199
2024-05-25T23:13:07.948;599617316888738820;10037.41;615
2024-05-25T23:13:07.956;599617316896430610;10045.103;1069
2024-05-25T23:13:07.963;599617316904122400;10052.793;1018
2024-05-25T23:13:07.971;599617316911814190;10060.485;412
2024-05-25T23:13:07.979;599617316919505980;10068.177;-16
2024-05-25T23:13:07.986;599617316927197770;10075.869;57
2024-05-25T23:13:07.994;599617316934889560;10083.561;129
2024-05-25T23:13:08.002;599617316942581350;10091.253;23
2024-05-25T23:13:08.009;599617316950273140;10098.944;-16
2024-05-25T23:13:08.017;599617316957995038;10106.666;-37
2024-05-25T23:13:08.025;599617316965686410;10114.357;-90
2024-05-25T23:13:08.033;599617316973377782;10122.049;-81
2024-05-25T23:13:08.040;599617316981069154;10129.74;-60
2024-05-25T23:13:08.048;599617316988760526;10137.431;-50
2024-05-25T23:13:08.056;599617316996451898;10145.123;-4
2024-05-25T23:13:08.063;599617317004143270;10152.814;39
2024-05-25T23:13:08.071;599617317011834642;10160.506;34
2024-05-25T23:13:08.079;599617317019526014;10168.197;11
2024-05-25T23:13:08.086;599617317027217386;10175.889;-2
2024-05-25T23:13:08.094;599617317034908758;10183.58;-41
2024-05-25T23:13:08.102;599617317042600130;10191.2705;-74
2024-05-25T23:13:08.109;599617317050291502;10198.962;-37
2024-05-25T23:13:08.117;599617317057982874;10206.653;16
2024-05-25T23:13:08.125;599617317065674246;10214.346;16
2024-05-25T23:13:08.133;599617317073365618;10222.037;20
2024-05-25T23:13:08.140;599617317081056990;10229.729;62
2024-05-25T23:13:08.148;599617317088748362;10237.42;99
2024-05-25T23:13:08.156;599617317096439734;10245.11;106
2024-05-25T23:13:08.163;599617317104131106;10252.802;120
2024-05-25T23:13:08.171;599617317111822478;10260.493;150
2024-05-25T23:13:08.179;599617317119513850;10268.185;155
2024-05-25T23:13:08.186;599617317127205222;10275.876;138
2024-05-25T23:13:08.194;599617317134896594;10283.567;148
2024-05-25T23:13:08.202;599617317142587966;10291.26;171
2024-05-25T23:13:08.209;599617317150279338;10298.95;173
2024-05-25T23:13:08.217;599617317157970710;10306.642;159
2024-05-25T23:13:08.225;599617317165662082;10314.333;152
2024-05-25T23:13:08.233;599617317173353454;10322.024;164
2024-05-25T23:13:08.240;599617317181044826;10329.716;173
2024-05-25T23:13:08.248;599617317188736198;10337.407;180
2024-05-25T23:13:08.256;599617317196427570;10345.099;201
2024-05-25T23:13:08.263;599617317204118942;10352.789;226
2024-05-25T23:13:08.271;599617317211810314;10360.481;219
2024-05-25T23:13:08.279;599617317219501686;10368.173;213
2024-05-25T23:13:08.286;599617317227193058;10375.864;245
2024-05-25T23:13:08.294;599617317234884430;10383.556;273
2024-05-25T23:13:08.302;599617317242575802;10391.247;268
2024-05-25T23:13:08.309;599617317250267174;10398.938;252
2024-05-25T23:13:08.317;599617317257958546;10406.629;199
2024-05-25T23:13:08.325;599617317265649918;10414.32;120
2024-05-25T23:13:08.333;599617317273341290;10422.012;90
2024-05-25T23:13:08.340;599617317281032662;10429.703;108
2024-05-25T23:13:08.348;599617317288724034;10437.3955;125
2024-05-25T23:13:08.356;599617317296415406;10445.087;125
2024-05-25T23:13:08.363;599617317304106778;10452.778;111
2024-05-25T23:13:08.371;599617317311798150;10460.47;104
2024-05-25T23:13:08.379;599617317319489522;10468.16;129
2024-05-25T23:13:08.386;599617317327180894;10475.852;155
2024-05-25T23:13:08.394;599617317334872266;10483.543;155
2024-05-25T23:13:08.402;599617317342563638;10491.234;143
2024-05-25T23:13:08.409;599617317350255010;10498.926;143
2024-05-25T23:13:08.417;599617317357946382;10506.618;152
2024-05-25T23:13:08.425;599617317365637754;10514.31;150
2024-05-25T23:13:08.433;599617317373329126;10522.0;127
2024-05-25T23:13:08.440;599617317381020498;10529.691;108
2024-05-25T23:13:08.448;599617317388711870;10537.383;90
2024-05-25T23:13:08.456;599617317396403242;10545.074;34
2024-05-25T23:13:08.463;599617317404094614;10552.766;-2
2024-05-25T23:13:08.471;599617317411785986;10560.457;20
2024-05-25T23:13:08.479;599617317419477358;10568.148;27
2024-05-25T23:13:08.486;599617317427168730;10575.839;-4
2024-05-25T23:13:08.494;599617317434860102;10583.531;-4
2024-05-25T23:13:08.502;599617317442551474;10591.223;9
2024-05-25T23:13:08.509;599617317450242846;10598.914;11
2024-05-25T23:13:08.517;599617317457934218;10606.605;-13
2024-05-25T23:13:08.525;599617317465625590;10614.297;-101
2024-05-25T23:13:08.532;599617317473316962;10621.988;-169
2024-05-25T23:13:08.540;599617317481008334;10629.679;-94
2024-05-25T23:13:08.548;599617317488699706;10637.37;201
2024-05-25T23:13:08.556;599617317496391078;10645.062;713
2024-05-25T23:13:08.563;599617317504082450;10652.754;995
2024-05-25T23:13:08.571;599617317511773822;10660.445;569
2024-05-25T23:13:08.579;599617317519450154;10668.121;-101
2024-05-25T23:13:08.586;599617317527141735;10675.8125;-254
2024-05-25T23:13:08.594;599617317534833316;10683.505;-97
2024-05-25T23:13:08.602;599617317542524897;10691.196;-134
2024-05-25T23:13:08.609;599617317550216478;10698.887;-206
2024-05-25T23:13:08.617;599617317557908059;10706.579;-131
2024-05-25T23:13:08.625;599617317565599640;10714.2705;-81
2024-05-25T23:13:08.632;599617317573291221;10721.962;-99
2024-05-25T23:13:08.640;599617317580982802;10729.654;-92
2024-05-25T23:13:08.648;599617317588674383;10737.346;-57
2024-05-25T23:13:08.656;599617317596365964;10745.037;-37
2024-05-25T23:13:08.663;599617317604057545;10752.729;-67
2024-05-25T23:13:08.671;599617317611749126;10760.42;-97
2024-05-25T23:13:08.679;599617317619440707;10768.111;-64
2024-05-25T23:13:08.686;599617317627132288;10775.803;-30
2024-05-25T23:13:08.694;599617317634823869;10783.495;-34
2024-05-25T23:13:08.702;599617317642515450;10791.187;-9
2024-05-25T23:13:08.709;599617317650207031;10798.878;50
2024-05-25T23:13:08.717;599617317657898612;10806.57;87
2024-05-25T23:13:08.725;599617317665590193;10814.262;97
2024-05-25T23:13:08.732;599617317673281774;10821.952;104
2024-05-25T23:13:08.740;599617317680973355;10829.645;131
2024-05-25T23:13:08.748;599617317688664936;10837.336;159
2024-05-25T23:13:08.756;599617317696356517;10845.027;173
2024-05-25T23:13:08.763;599617317704048098;10852.719;185
2024-05-25T23:13:08.771;599617317711739679;10860.411;208
2024-05-25T23:13:08.779;599617317719431260;10868.103;208
2024-05-25T23:13:08.786;599617317727122841;10875.793;194
2024-05-25T23:13:08.794;599617317734814422;10883.485;201
2024-05-25T23:13:08.802;599617317742506003;10891.177;215
2024-05-25T23:13:08.809;599617317750197584;10898.868;192
2024-05-25T23:13:08.817;599617317757889165;10906.561;141
2024-05-25T23:13:08.825;599617317765580746;10914.252;125
2024-05-25T23:13:08.832;599617317773272327;10921.943;145
2024-05-25T23:13:08.840;599617317780963908;10929.636;155
2024-05-25T23:13:08.848;599617317788655489;10937.326;155
2024-05-25T23:13:08.856;599617317796347070;10945.018;178
2024-05-25T23:13:08.863;599617317804038651;10952.71;203
2024-05-25T23:13:08.871;599617317811730232;10960.401;194
2024-05-25T23:13:08.879;599617317819421813;10968.093;185
2024-05-25T23:13:08.886;599617317827113394;10975.784;213
2024-05-25T23:13:08.894;599617317834804975;10983.477;245
2024-05-25T23:13:08.902;599617317842496556;10991.168;247
2024-05-25T23:13:08.909;599617317850188137;10998.858;240
2024-05-25T23:13:08.917;599617317857879718;11006.551;243
2024-05-25T23:13:08.925;599617317865571299;11014.242;243
2024-05-25T23:13:08.932;599617317873262880;11021.934;215
2024-05-25T23:13:08.940;599617317880954461;11029.626;182
2024-05-25T23:13:08.948;599617317888646042;11037.317;192
2024-05-25T23:13:08.956;599617317896337623;11045.009;203
2024-05-25T23:13:08.963;599617317904029204;11052.7;173
2024-05-25T23:13:08.971;599617317911720785;11060.392;155
2024-05-25T23:13:08.979;599617317919412366;11068.083;180
2024-05-25T23:13:08.986;599617317927103947;11075.774;199
2024-05-25T23:13:08.994;599617317934795528;11083.467;187
2024-05-25T23:13:09.002;599617317942487109;11091.158;180
2024-05-25T23:13:09.009;599617317950178690;11098.85;182
2024-05-25T23:13:09.017;599617317957870271;11106.542;159
2024-05-25T23:13:09.025;599617317965561852;11114.232;94
2024-05-25T23:13:09.032;599617317973253433;11121.924;46
2024-05-25T23:13:09.040;599617317980945014;11129.616;55
2024-05-25T23:13:09.048;599617317988636595;11137.308;41
2024-05-25T23:13:09.055;599617317996328176;11144.999;-37
2024-05-25T23:13:09.063;599617318004019757;11152.691;-104
2024-05-25T23:13:09.071;599617318011711338;11160.383;-115
2024-05-25T23:13:09.079;599617318019402919;11168.073;-108
2024-05-25T23:13:09.086;599617318027094500;11175.765;-118
2024-05-25T23:13:09.094;599617318034786081;11183.457;-127
2024-05-25T23:13:09.102;599617318042477662;11191.148;-125
2024-05-25T23:13:09.109;599617318050169243;11198.84;-134
2024-05-25T23:13:09.117;599617318057860824;11206.532;-136
2024-05-25T23:13:09.125;599617318065552405;11214.224;-113
2024-05-25T23:13:09.132;599617318073243986;11221.915;-106
2024-05-25T23:13:09.140;599617318080935576;11229.606;-145
2024-05-25T23:13:09.148;599617318088627157;11237.298;-101
2024-05-25T23:13:09.155;599617318096318738;11244.989;245
2024-05-25T23:13:09.163;599617318104010319;11252.682;819
2024-05-25T23:13:09.171;599617318111701900;11260.373;1085
2024-05-25T23:13:09.179;599617318119393481;11268.064;664
2024-05-25T23:13:09.186;599617318127085062;11275.757;25
2024-05-25T23:13:09.194;599617318134776643;11283.448;-155
2024-05-25T23:13:09.202;599617318142468224;11291.139;-78
2024-05-25T23:13:09.209;599617318150159805;11298.83;-178
2024-05-25T23:13:09.217;599617318157851386;11306.522;-238
2024-05-25T23:13:09.225;599617318165542967;11314.214;-148
2024-05-25T23:13:09.232;599617318173234548;11321.905;-136
2024-05-25T23:13:09.240;599617318180926129;11329.598;-171
2024-05-25T23:13:09.248;599617318188617710;11337.289;-125
2024-05-25T23:13:09.255;599617318196309291;11344.9795;-67
2024-05-25T23:13:09.263;599617318204000872;11352.672;-60
2024-05-25T23:13:09.271;599617318211692453;11360.363;-39
2024-05-25T23:13:09.279;599617318219384034;11368.055;2
2024-05-25T23:13:09.286;599617318227075615;11375.747;13
2024-05-25T23:13:09.294;599617318234767196;11383.438;9
2024-05-25T23:13:09.302;599617318242458777;11391.13;4
2024-05-25T23:13:09.309;599617318250150358;11398.821;-2
2024-05-25T23:13:09.317;599617318257841939;11406.513;13
2024-05-25T23:13:09.325;599617318265533520;11414.204;37
2024-05-25T23:13:09.332;599617318273225101;11421.8955;43
2024-05-25T23:13:09.340;599617318280916682;11429.588;71
2024-05-25T23:13:09.348;599617318288608263;11437.279;111
2024-05-25T23:13:09.355;599617318296299844;11444.971;127
2024-05-25T23:13:09.363;599617318303991425;11452.663;141
2024-05-25T23:13:09.371;599617318311683006;11460.3545;166
2024-05-25T23:13:09.379;599617318319374587;11468.045;166
2024-05-25T23:13:09.386;599617318327066168;11475.737;155
2024-05-25T23:13:09.394;599617318334757749;11483.429;173
2024-05-25T23:13:09.402;599617318342449330;11491.12;206
2024-05-25T23:13:09.409;599617318350140911;11498.812;208
2024-05-25T23:13:09.417;599617318357832492;11506.504;187
2024-05-25T23:13:09.425;599617318365524073;11514.195;178
2024-05-25T23:13:09.432;599617318373215654;11521.886;189
2024-05-25T23:13:09.440;599617318380907235;11529.578;201
2024-05-25T23:13:09.448;599617318388598816;11537.27;203
2024-05-25T23:13:09.455;599617318396290397;11544.961;219
2024-05-25T23:13:09.463;599617318403981978;11552.653;240
2024-05-25T23:13:09.471;599617318411673559;11560.345;229
2024-05-25T23:13:09.479;599617318419365140;11568.036;213
2024-05-25T23:13:09.486;599617318427056721;11575.729;238
2024-05-25T23:13:09.494;599617318434748302;11583.419;273
2024-05-25T23:13:09.502;599617318442439883;11591.11;275
2024-05-25T23:13:09.509;599617318450131464;11598.803;263
2024-05-25T23:13:09.517;599617318457823045;11606.494;266
2024-05-25T23:13:09.525;599617318465514626;11614.186;268
2024-05-25T23:13:09.532;599617318473206207;11621.877;226
2024-05-25T23:13:09.540;599617318480897788;11629.569;155
2024-05-25T23:13:09.548;599617318488589369;11637.261;108
2024-05-25T23:13:09.555;599617318496280950;11644.951;50
2024-05-25T23:13:09.563;599617318503972531;11652.644;-18
2024-05-25T23:13:09.571;599617318511664112;11660.335;-18
2024-05-25T23:13:09.579;599617318519355693;11668.026;20
2024-05-25T23:13:09.586;599617318527047274;11675.719;34
2024-05-25T23:13:09.594;599617318534738855;11683.41;30
2024-05-25T23:13:09.602;599617318542430436;11691.102;34
2024-05-25T23:13:09.609;599617318550122017;11698.794;43
2024-05-25T23:13:09.617;599617318557813598;11706.484;50
2024-05-25T23:13:09.625;599617318565505179;11714.176;55
2024-05-25T23:13:09.632;599617318573196760;11721.867;69
2024-05-25T23:13:09.640;599617318580888341;11729.56;92
2024-05-25T23:13:09.648;599617318588579922;11737.251;106
2024-05-25T23:13:09.655;599617318596271503;11744.942;99
2024-05-25T23:13:09.663;599617318603963084;11752.635;92
2024-05-25T23:13:09.671;599617318611654665;11760.325;97
2024-05-25T23:13:09.679;599617318619346246;11768.017;87
2024-05-25T23:13:09.686;599617318627037827;11775.709;39
2024-05-25T23:13:09.694;599617318634729408;11783.4;-16
2024-05-25T23:13:09.702;599617318642436048;11791.107;-30
2024-05-25T23:13:09.709;599617318650127420;11798.798;-27
2024-05-25T23:13:09.717;599617318657818792;11806.489;-34
2024-05-25T23:13:09.725;599617318665510164;11814.181;-25
2024-05-25T23:13:09.732;599617318673201536;11821.872;-18
2024-05-25T23:13:09.740;599617318680892908;11829.563;-62
2024-05-25T23:13:09.748;599617318688584280;11837.256;-69
2024-05-25T23:13:09.755;599617318696275652;11844.947;192
2024-05-25T23:13:09.763;599617318703967024;11852.639;738
2024-05-25T23:13:09.771;599617318711658396;11860.329;1111
2024-05-25T23:13:09.779;599617318719349768;11868.0205;810
2024-05-25T23:13:09.786;599617318727041140;11875.712;115
2024-05-25T23:13:09.794;599617318734732512;11883.403;-238
2024-05-25T23:13:09.802;599617318742423884;11891.095;-194
2024-05-25T23:13:09.809;599617318750115256;11898.786;-192
2024-05-25T23:13:09.817;599617318757806628;11906.479;-238
2024-05-25T23:13:09.825;599617318765498000;11914.169;-185
2024-05-25T23:13:09.832;599617318773189372;11921.86;-155
2024-05-25T23:13:09.840;599617318780880744;11929.552;-178
2024-05-25T23:13:09.848;599617318788572116;11937.243;-145
2024-05-25T23:13:09.855;599617318796263488;11944.935;-90
2024-05-25T23:13:09.863;599617318803954860;11952.626;-71
2024-05-25T23:13:09.871;599617318811646232;11960.317;-55
2024-05-25T23:13:09.879;599617318819337604;11968.008;-16
2024-05-25T23:13:09.886;599617318827028976;11975.7;0
2024-05-25T23:13:09.894;599617318834720348;11983.392;0
2024-05-25T23:13:09.902;599617318842411720;11991.083;27
2024-05-25T23:13:09.909;599617318850103092;11998.774;76
2024-05-25T23:13:09.917;599617318857794464;12006.466;108
2024-05-25T23:13:09.925;599617318865485836;12014.157;115
2024-05-25T23:13:09.932;599617318873177208;12021.848;120
2024-05-25T23:13:09.940;599617318880868580;12029.539;148
2024-05-25T23:13:09.948;599617318888559952;12037.23;182
2024-05-25T23:13:09.955;599617318896251324;12044.922;192
2024-05-25T23:13:09.963;599617318903942696;12052.614;203
2024-05-25T23:13:09.971;599617318911634068;12060.306;224
2024-05-25T23:13:09.978;599617318919325440;12067.997;219
2024-05-25T23:13:09.986;599617318927016812;12075.6875;206
2024-05-25T23:13:09.994;599617318934708184;12083.379;226
2024-05-25T23:13:10.002;599617318942399556;12091.07;254
2024-05-25T23:13:10.009;599617318950090928;12098.762;250
2024-05-25T23:13:10.017;599617318957782300;12106.453;229
2024-05-25T23:13:10.025;599617318965473672;12114.145;219
2024-05-25T23:13:10.032;599617318973165044;12121.837;192
2024-05-25T23:13:10.040;599617318980856416;12129.527;97
2024-05-25T23:13:10.048;599617318988547788;12137.219;9
2024-05-25T23:13:10.055;599617318996239160;12144.91;30
2024-05-25T23:13:10.063;599617319003930532;12152.602;76
2024-05-25T23:13:10.071;599617319011621904;12160.293;60
2024-05-25T23:13:10.078;599617319019313276;12167.984;48
2024-05-25T23:13:10.086;599617319027004648;12175.676;97
2024-05-25T23:13:10.094;599617319034696020;12183.366;136
2024-05-25T23:13:10.102;599617319042387392;12191.058;138
2024-05-25T23:13:10.109;599617319050078764;12198.75;131
2024-05-25T23:13:10.117;599617319057770136;12206.441;141
2024-05-25T23:13:10.125;599617319065461508;12214.133;157
2024-05-25T23:13:10.132;599617319073152880;12221.824;166
2024-05-25T23:13:10.140;599617319080844252;12229.516;171
2024-05-25T23:13:10.148;599617319088535624;12237.206;192
2024-05-25T23:13:10.155;599617319096226996;12244.897;210
2024-05-25T23:13:10.163;599617319103918368;12252.589;192
2024-05-25T23:13:10.171;599617319111609740;12260.28;173
2024-05-25T23:13:10.178;599617319119301112;12267.973;169
2024-05-25T23:13:10.186;599617319126992484;12275.664;150
2024-05-25T23:13:10.194;599617319134683856;12283.355;134
2024-05-25T23:13:10.202;599617319142375228;12291.047;131
2024-05-25T23:13:10.209;599617319150066600;12298.737;131
2024-05-25T23:13:10.217;599617319157757972;12306.429;129
2024-05-25T23:13:10.225;599617319165449344;12314.12;129
2024-05-25T23:13:10.232;599617319173140716;12321.812;134
2024-05-25T23:13:10.240;599617319180832088;12329.503;150
2024-05-25T23:13:10.248;599617319188523460;12337.194;157
2024-05-25T23:13:10.255;599617319196214832;12344.887;141
2024-05-25T23:13:10.263;599617319203906212;12352.577;145
2024-05-25T23:13:10.271;599617319211597584;12360.269;187
2024-05-25T23:13:10.278;599617319219288956;12367.96;226
2024-05-25T23:13:10.286;599617319226980328;12375.651;203
2024-05-25T23:13:10.294;599617319234671700;12383.343;106
2024-05-25T23:13:10.302;599617319242363072;12391.034;27
2024-05-25T23:13:10.309;599617319250054444;12398.726;-16
2024-05-25T23:13:10.317;599617319257745816;12406.416;-101
2024-05-25T23:13:10.325;599617319265437188;12414.108;-148
2024-05-25T23:13:10.332;599617319273128560;12421.8;-111
2024-05-25T23:13:10.340;599617319280819932;12429.491;-129
2024-05-25T23:13:10.348;599617319288511304;12437.183;-206
2024-05-25T23:13:10.355;599617319296202676;12444.874;-134
2024-05-25T23:13:10.363;599617319303894048;12452.565;236
2024-05-25T23:13:10.371;599617319311585420;12460.256;770
2024-05-25T23:13:10.378;599617319319276792;12467.947;1021
2024-05-25T23:13:10.386;599617319326968164;12475.639;634
2024-05-25T23:13:10.394;599617319334659536;12483.33;4
2024-05-25T23:13:10.402;599617319342350908;12491.022;-182
2024-05-25T23:13:10.409;599617319350042280;12498.714;-55
2024-05-25T23:13:10.417;599617319357733652;12506.405;-67
2024-05-25T23:13:10.425;599617319365425024;12514.096;-115
2024-05-25T23:13:10.432;599617319373116396;12521.787;-78
2024-05-25T23:13:10.440;599617319380807768;12529.479;-71
2024-05-25T23:13:10.448;599617319388499140;12537.17;-74
2024-05-25T23:13:10.455;599617319396190512;12544.861;-30
2024-05-25T23:13:10.463;599617319403881884;12552.553;-4
2024-05-25T23:13:10.471;599617319411573256;12560.245;2
2024-05-25T23:13:10.478;599617319419264628;12567.936;32
2024-05-25T23:13:10.486;599617319426956000;12575.627;48
2024-05-25T23:13:10.494;599617319434647372;12583.318;48
2024-05-25T23:13:10.502;599617319442338744;12591.01;71
2024-05-25T23:13:10.509;599617319450030116;12598.701;115
2024-05-25T23:13:10.517;599617319457721488;12606.393;145
2024-05-25T23:13:10.525;599617319465412860;12614.084;145
2024-05-25T23:13:10.532;599617319473104232;12621.774;118
2024-05-25T23:13:10.540;599617319480795604;12629.466;62
2024-05-25T23:13:10.548;599617319488486976;12637.158;32
2024-05-25T23:13:10.555;599617319496178348;12644.85;57
2024-05-25T23:13:10.563;599617319503869720;12652.541;90
2024-05-25T23:13:10.571;599617319511561092;12660.232;106
2024-05-25T23:13:10.578;599617319519252464;12667.924;108
2024-05-25T23:13:10.586;599617319526943836;12675.614;104
2024-05-25T23:13:10.594;599617319534635208;12683.306;122
2024-05-25T23:13:10.601;599617319542326580;12690.997;155
2024-05-25T23:13:10.609;599617319550017952;12698.688;164
2024-05-25T23:13:10.617;599617319557709324;12706.381;148
2024-05-25T23:13:10.625;599617319565400696;12714.072;136
2024-05-25T23:13:10.632;599617319573092068;12721.764;150
2024-05-25T23:13:10.640;599617319580783440;12729.455;157
2024-05-25T23:13:10.648;599617319588474812;12737.1455;157
2024-05-25T23:13:10.655;599617319596166184;12744.837;175
2024-05-25T23:13:10.663;599617319603857556;12752.528;199
2024-05-25T23:13:10.671;599617319611548928;12760.22;185
2024-05-25T23:13:10.678;599617319619240300;12767.911;171
2024-05-25T23:13:10.686;599617319626931672;12775.603;199
2024-05-25T23:13:10.694;599617319634623044;12783.295;236
2024-05-25T23:13:10.701;599617319642314416;12790.985;243
2024-05-25T23:13:10.709;599617319650005788;12798.677;238
2024-05-25T23:13:10.717;599617319657697160;12806.368;238
2024-05-25T23:13:10.725;599617319665388532;12814.06;247
2024-05-25T23:13:10.732;599617319673079904;12821.751;256
2024-05-25T23:13:10.740;599617319680771276;12829.442;259
2024-05-25T23:13:10.748;599617319688462648;12837.134;275
2024-05-25T23:13:10.755;599617319696154020;12844.824;291
2024-05-25T23:13:10.763;599617319703845392;12852.517;273
2024-05-25T23:13:10.771;599617319711536764;12860.208;254
2024-05-25T23:13:10.778;599617319719228136;12867.899;250
2024-05-25T23:13:10.786;599617319726919508;12875.591;217
2024-05-25T23:13:10.794;599617319734610880;12883.282;185
2024-05-25T23:13:10.801;599617319742302252;12890.974;180
2024-05-25T23:13:10.809;599617319749993624;12898.664;157
2024-05-25T23:13:10.817;599617319757684996;12906.355;120
2024-05-25T23:13:10.825;599617319765376376;12914.047;113
2024-05-25T23:13:10.832;599617319773067748;12921.738;120
2024-05-25T23:13:10.840;599617319780759120;12929.431;129
2024-05-25T23:13:10.848;599617319788450492;12937.122;106
2024-05-25T23:13:10.855;599617319796141864;12944.813;25
2024-05-25T23:13:10.863;599617319803833236;12952.504;-16
2024-05-25T23:13:10.871;599617319811524608;12960.195;32
2024-05-25T23:13:10.878;599617319819215980;12967.887;67
2024-05-25T23:13:10.886;599617319826907352;12975.578;69
2024-05-25T23:13:10.894;599617319834598724;12983.27;85
2024-05-25T23:13:10.901;599617319842290096;12990.961;87
2024-05-25T23:13:10.909;599617319849981468;12998.653;76
2024-05-25T23:13:10.917;599617319857672840;13006.344;69
2024-05-25T23:13:10.925;599617319865364212;13014.035;55
2024-05-25T23:13:10.932;599617319873055584;13021.727;37
2024-05-25T23:13:10.940;599617319880746956;13029.418;6
2024-05-25T23:13:10.948;599617319888438328;13037.109;-62
2024-05-25T23:13:10.955;599617319896129700;13044.801;-118
2024-05-25T23:13:10.963;599617319903821072;13052.492;-48
2024-05-25T23:13:10.971;599617319911512444;13060.183;245
2024-05-25T23:13:10.978;599617319919203816;13067.874;743
2024-05-25T23:13:10.986;599617319926895188;13075.566;1055
2024-05-25T23:13:10.994;599617319934586560;13083.258;722
2024-05-25T23:13:11.001;599617319942277932;13090.949;64
2024-05-25T23:13:11.009;599617319949969304;13098.641;-166
2024-05-25T23:13:11.017;599617319957660676;13106.332;-32
2024-05-25T23:13:11.025;599617319965352048;13114.022;-64
2024-05-25T23:13:11.032;599617319973043420;13121.714;-217
2024-05-25T23:13:11.040;599617319980734792;13129.405;-273
2024-05-25T23:13:11.048;599617319988426164;13137.097;-307
2024-05-25T23:13:11.055;599617319996117536;13144.789;-326
2024-05-25T23:13:11.063;599617320003808908;13152.48;-284
2024-05-25T23:13:11.071;599617320011500280;13160.172;-247
2024-05-25T23:13:11.078;599617320019191652;13167.862;-222
2024-05-25T23:13:11.086;599617320026883024;13175.554;-194
2024-05-25T23:13:11.094;599617320034574396;13183.245;-180
2024-05-25T23:13:11.101;599617320042265768;13190.937;-157
2024-05-25T23:13:11.109;599617320049957140;13198.628;-118
2024-05-25T23:13:11.117;599617320057648512;13206.319;-83
2024-05-25T23:13:11.125;599617320065339884;13214.011;-74
2024-05-25T23:13:11.132;599617320073031256;13221.703;-62
2024-05-25T23:13:11.140;599617320080722628;13229.394;-25
2024-05-25T23:13:11.148;599617320088414000;13237.085;18
2024-05-25T23:13:11.155;599617320096105372;13244.776;34
2024-05-25T23:13:11.163;599617320103796744;13252.468;57
2024-05-25T23:13:11.171;599617320111488116;13260.159;97
2024-05-25T23:13:11.178;599617320119179488;13267.851;104
2024-05-25T23:13:11.186;599617320126870860;13275.542;94
2024-05-25T23:13:11.194;599617320134562232;13283.232;115
2024-05-25T23:13:11.201;599617320142253604;13290.925;152
2024-05-25T23:13:11.209;599617320149944976;13298.616;164
2024-05-25T23:13:11.217;599617320157636348;13306.308;152
2024-05-25T23:13:11.224;599617320165327720;13313.999;143
2024-05-25T23:13:11.232;599617320173019092;13321.69;150
2024-05-25T23:13:11.240;599617320180710464;13329.382;157
2024-05-25T23:13:11.248;599617320188401836;13337.072;157
2024-05-25T23:13:11.255;599617320196093208;13344.764;171
2024-05-25T23:13:11.263;599617320203784580;13352.455;187
2024-05-25T23:13:11.271;599617320211475952;13360.146;159
2024-05-25T23:13:11.278;599617320219167324;13367.839;115
2024-05-25T23:13:11.286;599617320226858696;13375.53;125
2024-05-25T23:13:11.294;599617320234550068;13383.222;164
2024-05-25T23:13:11.301;599617320242241440;13390.912;173
2024-05-25T23:13:11.309;599617320249932812;13398.604;171
2024-05-25T23:13:11.317;599617320257624184;13406.295;180
2024-05-25T23:13:11.324;599617320265315556;13413.986;199
2024-05-25T23:13:11.332;599617320273006928;13421.678;208
2024-05-25T23:13:11.340;599617320280698300;13429.369;213
2024-05-25T23:13:11.348;599617320288389672;13437.062;231
2024-05-25T23:13:11.355;599617320296081044;13444.752;247
2024-05-25T23:13:11.363;599617320303772416;13452.443;231
2024-05-25T23:13:11.371;599617320311463788;13460.135;219
2024-05-25T23:13:11.378;599617320319155160;13467.826;245
2024-05-25T23:13:11.386;599617320326816444;13475.487;268
2024-05-25T23:13:11.394;599617320334508234;13483.179;261
2024-05-25T23:13:11.401;599617320342200024;13490.871;254
2024-05-25T23:13:11.409;599617320349891814;13498.5625;256
2024-05-25T23:13:11.417;599617320357583604;13506.255;238
2024-05-25T23:13:11.424;599617320365275394;13513.946;173
2024-05-25T23:13:11.432;599617320372967184;13521.639;94
2024-05-25T23:13:11.440;599617320380658974;13529.33;71
2024-05-25T23:13:11.448;599617320388350764;13537.021;74
2024-05-25T23:13:11.455;599617320396042554;13544.713;43
2024-05-25T23:13:11.463;599617320403734344;13552.405;30
2024-05-25T23:13:11.471;599617320411426134;13560.097;57
2024-05-25T23:13:11.478;599617320419117924;13567.789;71
2024-05-25T23:13:11.486;599617320426809714;13575.48;69
2024-05-25T23:13:11.494;599617320434501504;13583.173;81
2024-05-25T23:13:11.501;599617320442193294;13590.864;99
2024-05-25T23:13:11.509;599617320449885084;13598.557;120
2024-05-25T23:13:11.517;599617320457576874;13606.247;127
2024-05-25T23:13:11.524;599617320465268664;13613.939;87
2024-05-25T23:13:11.532;599617320472960454;13621.631;69
2024-05-25T23:13:11.540;599617320480652244;13629.323;78
2024-05-25T23:13:11.548;599617320488344034;13637.015;0
2024-05-25T23:13:11.555;599617320496035824;13644.707;-106
2024-05-25T23:13:11.563;599617320503727614;13652.399;-113
2024-05-25T23:13:11.571;599617320511419404;13660.091;-138
2024-05-25T23:13:11.578;599617320519111194;13667.782;-217
2024-05-25T23:13:11.586;599617320526802984;13675.474;-134
2024-05-25T23:13:11.594;599617320534494774;13683.166;226
2024-05-25T23:13:11.601;599617320542186564;13690.857;720
2024-05-25T23:13:11.609;599617320549878354;13698.55;902
2024-05-25T23:13:11.617;599617320557570144;13706.241;465
2024-05-25T23:13:11.624;599617320565261934;13713.934;-118
2024-05-25T23:13:11.632;599617320572953724;13721.625;-233
2024-05-25T23:13:11.640;599617320580645514;13729.316;-120
2024-05-25T23:13:11.648;599617320588337304;13737.008;-157
2024-05-25T23:13:11.655;599617320596029094;13744.7;-192
2024-05-25T23:13:11.663;599617320603720884;13752.392;-141
2024-05-25T23:13:11.671;599617320611412674;13760.084;-122
2024-05-25T23:13:11.678;599617320619104464;13767.775;-118
2024-05-25T23:13:11.686;599617320626796254;13775.468;-97
2024-05-25T23:13:11.694;599617320634488044;13783.159;-87
2024-05-25T23:13:11.701;599617320642179834;13790.851;-69
2024-05-25T23:13:11.709;599617320649871624;13798.542;-23
2024-05-25T23:13:11.717;599617320657563414;13806.234;9
2024-05-25T23:13:11.724;599617320665255204;13813.926;9
2024-05-25T23:13:11.732;599617320672946994;13821.618;13
2024-05-25T23:13:11.740;599617320680638784;13829.31;46
2024-05-25T23:13:11.748;599617320688330574;13837.002;81
2024-05-25T23:13:11.755;599617320696022364;13844.693;97
2024-05-25T23:13:11.763;599617320703714154;13852.386;94
2024-05-25T23:13:11.771;599617320711405944;13860.076;74
2024-05-25T23:13:11.778;599617320719097734;13867.769;55
2024-05-25T23:13:11.786;599617320726789524;13875.46;64
2024-05-25T23:13:11.794;599617320734481314;13883.152;97
2024-05-25T23:13:11.801;599617320742173104;13890.844;131
2024-05-25T23:13:11.809;599617320749864894;13898.536;152
2024-05-25T23:13:11.817;599617320757556684;13906.228;150
2024-05-25T23:13:11.824;599617320765248474;13913.92;145
2024-05-25T23:13:11.832;599617320772940264;13921.61;164
2024-05-25T23:13:11.840;599617320780632054;13929.303;175
2024-05-25T23:13:11.847;599617320788323844;13936.995;164
2024-05-25T23:13:11.855;599617320796015634;13944.687;164
2024-05-25T23:13:11.863;599617320803707424;13952.379;175
2024-05-25T23:13:11.871;599617320811399214;13960.07;155
2024-05-25T23:13:11.878;599617320819091004;13967.763;131
2024-05-25T23:13:11.886;599617320826782794;13975.454;155
2024-05-25T23:13:11.894;599617320834474584;13983.1455;185
2024-05-25T23:13:11.901;599617320842166374;13990.837;196
2024-05-25T23:13:11.909;599617320849858164;13998.529;192
2024-05-25T23:13:11.917;599617320857549954;14006.221;192
2024-05-25T23:13:11.924;599617320865241744;14013.913;208
2024-05-25T23:13:11.932;599617320872933534;14021.6045;217
2024-05-25T23:13:11.940;599617320880625324;14029.297;222
2024-05-25T23:13:11.948;599617320888347222;14037.019;245
2024-05-25T23:13:11.955;599617320896038594;14044.71;256
2024-05-25T23:13:11.963;599617320903729966;14052.401;236
2024-05-25T23:13:11.971;599617320911421338;14060.093;224
2024-05-25T23:13:11.978;599617320919112710;14067.783;252
2024-05-25T23:13:11.986;599617320926804082;14075.475;273
2024-05-25T23:13:11.994;599617320934495454;14083.166;263
2024-05-25T23:13:12.001;599617320942186826;14090.857;252
2024-05-25T23:13:12.009;599617320949878198;14098.549;224
2024-05-25T23:13:12.017;599617320957569570;14106.241;155
2024-05-25T23:13:12.024;599617320965260942;14113.933;81
2024-05-25T23:13:12.032;599617320972952314;14121.624;41
2024-05-25T23:13:12.040;599617320980643686;14129.314;25
2024-05-25T23:13:12.048;599617320988335058;14137.006;-50
2024-05-25T23:13:12.055;599617320996026430;14144.697;-164
2024-05-25T23:13:12.063;599617321003717802;14152.389;-185
2024-05-25T23:13:12.071;599617321011409174;14160.08;-127
2024-05-25T23:13:12.078;599617321019100546;14167.771;-108
2024-05-25T23:13:12.086;599617321026791918;14175.462;-118
2024-05-25T23:13:12.094;599617321034483290;14183.154;-104
2024-05-25T23:13:12.101;599617321042174662;14190.846;-78
2024-05-25T23:13:12.109;599617321049866034;14198.537;-74
2024-05-25T23:13:12.117;599617321057557406;14206.229;-64
2024-05-25T23:13:12.124;599617321065248778;14213.92;-20
2024-05-25T23:13:12.132;599617321072940150;14221.611;18
2024-05-25T23:13:12.140;599617321080631522;14229.303;9
2024-05-25T23:13:12.147;599617321088322894;14236.993;-25
2024-05-25T23:13:12.155;599617321096014266;14244.685;-48
2024-05-25T23:13:12.163;599617321103705638;14252.377;-48
2024-05-25T23:13:12.171;599617321111397010;14260.068;-62
2024-05-25T23:13:12.178;599617321119088382;14267.76;-104
2024-05-25T23:13:12.186;599617321126779754;14275.451;-143
2024-05-25T23:13:12.194;599617321134471126;14283.143;-166
2024-05-25T23:13:12.201;599617321142162498;14290.833;-78
2024-05-25T23:13:12.209;599617321149853870;14298.524;282
2024-05-25T23:13:12.217;599617321157545242;14306.216;819
2024-05-25T23:13:12.224;599617321165236614;14313.907;997
2024-05-25T23:13:12.232;599617321172927986;14321.6;493
2024-05-25T23:13:12.240;599617321180619358;14329.291;-120
2024-05-25T23:13:12.247;599617321188310730;14336.982;-194
2024-05-25T23:13:12.255;599617321196002102;14344.673;-67
2024-05-25T23:13:12.263;599617321203693474;14352.364;-175
2024-05-25T23:13:12.271;599617321211384846;14360.056;-252
2024-05-25T23:13:12.278;599617321219076218;14367.747;-164
2024-05-25T23:13:12.286;599617321226767590;14375.438;-145
2024-05-25T23:13:12.294;599617321234458962;14383.13;-178
2024-05-25T23:13:12.301;599617321242150334;14390.821;-134
2024-05-25T23:13:12.309;599617321249841706;14398.513;-74
2024-05-25T23:13:12.317;599617321257533078;14406.204;-55
2024-05-25T23:13:12.324;599617321265224450;14413.8955;-48
2024-05-25T23:13:12.332;599617321272915822;14421.587;-39
2024-05-25T23:13:12.340;599617321280607194;14429.278;-13
2024-05-25T23:13:12.347;599617321288298566;14436.97;23
2024-05-25T23:13:12.355;599617321295989938;14444.661;48
2024-05-25T23:13:12.363;599617321303681310;14452.352;74
2024-05-25T23:13:12.371;599617321311372682;14460.043;108
2024-05-25T23:13:12.378;599617321319064054;14467.735;125
2024-05-25T23:13:12.386;599617321326755426;14475.427;127
2024-05-25T23:13:12.394;599617321334446798;14483.118;155
2024-05-25T23:13:12.401;599617321342138170;14490.81;196
2024-05-25T23:13:12.409;599617321349829542;14498.501;213
2024-05-25T23:13:12.417;599617321357520914;14506.191;208
2024-05-25T23:13:12.424;599617321365212286;14513.883;210
2024-05-25T23:13:12.432;599617321372903658;14521.574;229
2024-05-25T23:13:12.440;599617321380595030;14529.266;247
2024-05-25T23:13:12.447;599617321388286402;14536.957;243
2024-05-25T23:13:12.455;599617321395977774;14544.649;238
2024-05-25T23:13:12.463;599617321403669146;14552.341;243
2024-05-25T23:13:12.471;599617321411360518;14560.032;226
2024-05-25T23:13:12.478;599617321419051890;14567.723;203
2024-05-25T23:13:12.486;599617321426743262;14575.414;217
2024-05-25T23:13:12.494;599617321434434634;14583.105;245
2024-05-25T23:13:12.501;599617321442126006;14590.797;238
2024-05-25T23:13:12.509;599617321449817386;14598.488;192
2024-05-25T23:13:12.517;599617321457508758;14606.18;164
2024-05-25T23:13:12.524;599617321465200130;14613.872;185
2024-05-25T23:13:12.532;599617321472891502;14621.5625;203
2024-05-25T23:13:12.540;599617321480582874;14629.254;201
2024-05-25T23:13:12.547;599617321488274246;14636.945;185
2024-05-25T23:13:12.555;599617321495965618;14644.637;106
2024-05-25T23:13:12.563;599617321503656990;14652.328;-18
2024-05-25T23:13:12.571;599617321511348362;14660.02;-74
2024-05-25T23:13:12.578;599617321519039734;14667.711;-25
2024-05-25T23:13:12.586;599617321526731106;14675.401;18
2024-05-25T23:13:12.594;599617321534422478;14683.093;11
2024-05-25T23:13:12.601;599617321542113850;14690.785;16
2024-05-25T23:13:12.609;599617321549805222;14698.477;41
2024-05-25T23:13:12.617;599617321557496594;14706.168;55
2024-05-25T23:13:12.624;599617321565187966;14713.859;62
2024-05-25T23:13:12.632;599617321572879338;14721.551;81
2024-05-25T23:13:12.640;599617321580570710;14729.241;94
2024-05-25T23:13:12.647;599617321588262082;14736.933;71
2024-05-25T23:13:12.655;599617321595953454;14744.624;27
2024-05-25T23:13:12.663;599617321603644826;14752.315;25
2024-05-25T23:13:12.671;599617321611336198;14760.008;55
2024-05-25T23:13:12.678;599617321619027570;14767.699;71
2024-05-25T23:13:12.686;599617321626718942;14775.391;69
2024-05-25T23:13:12.694;599617321634410314;14783.081;71
2024-05-25T23:13:12.701;599617321642101686;14790.772;74
2024-05-25T23:13:12.709;599617321649793058;14798.464;69
2024-05-25T23:13:12.717;599617321657484430;14806.155;71
2024-05-25T23:13:12.724;599617321665175802;14813.847;94
2024-05-25T23:13:12.732;599617321672867174;14821.538;134
2024-05-25T23:13:12.740;599617321680558546;14829.2295;152
2024-05-25T23:13:12.747;599617321688249918;14836.921;134
2024-05-25T23:13:12.755;599617321695941290;14844.612;99
2024-05-25T23:13:12.763;599617321703632662;14852.304;57
2024-05-25T23:13:12.770;599617321711324034;14859.995;25
2024-05-25T23:13:12.778;599617321719015406;14867.687;-2
2024-05-25T23:13:12.786;599617321726706778;14875.378;-37
2024-05-25T23:13:12.794;599617321734398150;14883.069;-64
2024-05-25T23:13:12.801;599617321742089522;14890.76;-71
2024-05-25T23:13:12.809;599617321749780894;14898.451;-76
2024-05-25T23:13:12.817;599617321757472266;14906.144;-85
2024-05-25T23:13:12.824;599617321765163638;14913.835;-94
2024-05-25T23:13:12.832;599617321772855010;14921.526;-20
2024-05-25T23:13:12.840;599617321780546382;14929.218;298
2024-05-25T23:13:12.847;599617321788237754;14936.909;831
2024-05-25T23:13:12.855;599617321795929126;14944.6;1090
2024-05-25T23:13:12.863;599617321803620498;14952.291;673
2024-05-25T23:13:12.870;599617321811311870;14959.982;46
2024-05-25T23:13:12.878;599617321819003242;14967.674;-101
2024-05-25T23:13:12.886;599617321826694614;14975.365;9
2024-05-25T23:13:12.894;599617321834385986;14983.058;-53
2024-05-25T23:13:12.901;599617321842077358;14990.749;-106
2024-05-25T23:13:12.909;599617321849768730;14998.439;-25
2024-05-25T23:13:12.917;599617321857460102;15006.131;4
2024-05-25T23:13:12.924;599617321865151474;15013.822;-27
2024-05-25T23:13:12.932;599617321872842846;15021.514;-18
2024-05-25T23:13:12.940;599617321880534218;15029.205;20
2024-05-25T23:13:12.947;599617321888225590;15036.896;43
2024-05-25T23:13:12.955;599617321895916962;15044.588;53
2024-05-25T23:13:12.963;599617321903608334;15052.28;76
2024-05-25T23:13:12.970;599617321911299706;15059.971;111
2024-05-25T23:13:12.978;599617321918991078;15067.662;120
2024-05-25T23:13:12.986;599617321926682450;15075.354;120
2024-05-25T23:13:12.994;599617321934373822;15083.045;122
2024-05-25T23:13:13.001;599617321942065194;15090.736;108
2024-05-25T23:13:13.009;599617321949756566;15098.428;101
2024-05-25T23:13:13.017;599617321957447938;15106.119;115
2024-05-25T23:13:13.024;599617321965139310;15113.81;129
2024-05-25T23:13:13.032;599617321972830682;15121.501;152
2024-05-25T23:13:13.040;599617321980522054;15129.193;180
2024-05-25T23:13:13.047;599617321988213426;15136.885;180
2024-05-25T23:13:13.055;599617321995904798;15144.576;145
2024-05-25T23:13:13.063;599617322003596170;15152.268;81
2024-05-25T23:13:13.070;599617322011287550;15159.959;30
2024-05-25T23:13:13.078;599617322018978922;15167.649;41
2024-05-25T23:13:13.086;599617322026670294;15175.341;71
2024-05-25T23:13:13.094;599617322034361666;15183.032;85
2024-05-25T23:13:13.101;599617322042053038;15190.724;85
2024-05-25T23:13:13.109;599617322049744410;15198.416;64
2024-05-25T23:13:13.117;599617322057435782;15206.107;46
2024-05-25T23:13:13.124;599617322065127154;15213.799;60
2024-05-25T23:13:13.132;599617322072818526;15221.489;78
2024-05-25T23:13:13.140;599617322080509898;15229.181;85
2024-05-25T23:13:13.147;599617322088201270;15236.872;111
2024-05-25T23:13:13.155;599617322095892642;15244.563;129
2024-05-25T23:13:13.163;599617322103584014;15252.255;78
2024-05-25T23:13:13.170;599617322111275386;15259.946;16
2024-05-25T23:13:13.178;599617322118966758;15267.638;48
2024-05-25T23:13:13.186;599617322126658130;15275.329;106
2024-05-25T23:13:13.194;599617322134349502;15283.0205;101
2024-05-25T23:13:13.201;599617322142040874;15290.712;92
2024-05-25T23:13:13.209;599617322149732246;15298.403;120
2024-05-25T23:13:13.217;599617322157423618;15306.095;136
2024-05-25T23:13:13.224;599617322165114990;15313.786;138
2024-05-25T23:13:13.232;599617322172806362;15321.478;152
2024-05-25T23:13:13.240;599617322180497734;15329.168;155
2024-05-25T23:13:13.247;599617322188189106;15336.859;81
2024-05-25T23:13:13.255;599617322195880478;15344.552;-4
2024-05-25T23:13:13.263;599617322203571850;15352.243;0
2024-05-25T23:13:13.270;599617322211263222;15359.935;46
2024-05-25T23:13:13.278;599617322218954594;15367.626;53
2024-05-25T23:13:13.286;599617322226645966;15375.317;53
2024-05-25T23:13:13.294;599617322234337338;15383.008;67
2024-05-25T23:13:13.301;599617322242028710;15390.699;71
2024-05-25T23:13:13.309;599617322249720082;15398.391;71
2024-05-25T23:13:13.317;599617322257411454;15406.082;78
2024-05-25T23:13:13.324;599617322265102826;15413.773;94
2024-05-25T23:13:13.332;599617322272794198;15421.466;118
2024-05-25T23:13:13.340;599617322280485570;15429.157;122
2024-05-25T23:13:13.347;599617322288176942;15436.848;99
2024-05-25T23:13:13.355;599617322295868314;15444.539;97
2024-05-25T23:13:13.363;599617322303559686;15452.23;104
2024-05-25T23:13:13.370;599617322311251058;15459.922;78
2024-05-25T23:13:13.378;599617322318942430;15467.613;55
2024-05-25T23:13:13.386;599617322326633802;15475.305;34
2024-05-25T23:13:13.393;599617322334325174;15482.996;-11
2024-05-25T23:13:13.401;599617322342016546;15490.688;-39
2024-05-25T23:13:13.409;599617322349707918;15498.379;-27
2024-05-25T23:13:13.417;599617322357399290;15506.07;-11
2024-05-25T23:13:13.424;599617322365090662;15513.762;-2
2024-05-25T23:13:13.432;599617322372782034;15521.453;-9
2024-05-25T23:13:13.440;599617322380473406;15529.145;-39
2024-05-25T23:13:13.447;599617322388164778;15536.836;-71
2024-05-25T23:13:13.455;599617322395856150;15544.526;-32
2024-05-25T23:13:13.463;599617322403547522;15552.218;201
2024-05-25T23:13:13.470;599617322411238894;15559.909;687
2024-05-25T23:13:13.478;599617322418930266;15567.602;1090
2024-05-25T23:13:13.486;599617322426621638;15575.293;865
2024-05-25T23:13:13.493;599617322434313010;15582.984;185
2024-05-25T23:13:13.501;599617322442004382;15590.676;-148
2024-05-25T23:13:13.509;599617322449695754;15598.367;-23
2024-05-25T23:13:13.517;599617322457387126;15606.058;4
2024-05-25T23:13:13.524;599617322465078498;15613.749;-99
2024-05-25T23:13:13.532;599617322472769870;15621.44;-81
2024-05-25T23:13:13.540;599617322480461242;15629.132;-25
2024-05-25T23:13:13.547;599617322488152614;15636.824;-23
2024-05-25T23:13:13.555;599617322495843986;15644.516;-16
2024-05-25T23:13:13.563;599617322503535358;15652.207;-18
2024-05-25T23:13:13.570;599617322511226730;15659.897;-83
2024-05-25T23:13:13.578;599617322518918102;15667.589;-141
2024-05-25T23:13:13.586;599617322526609474;15675.28;-120
2024-05-25T23:13:13.593;599617322534300846;15682.972;-71
2024-05-25T23:13:13.601;599617322541992218;15690.663;-37
2024-05-25T23:13:13.609;599617322549683590;15698.3545;-4
2024-05-25T23:13:13.617;599617322557374962;15706.047;11
2024-05-25T23:13:13.624;599617322565066334;15713.737;20
2024-05-25T23:13:13.632;599617322572757714;15721.429;55
2024-05-25T23:13:13.640;599617322580449086;15729.12;97
2024-05-25T23:13:13.647;599617322588140458;15736.812;113
2024-05-25T23:13:13.655;599617322595831830;15744.503;141
2024-05-25T23:13:13.663;599617322603523202;15752.194;169
2024-05-25T23:13:13.670;599617322611214574;15759.886;129
2024-05-25T23:13:13.678;599617322618905946;15767.576;55
2024-05-25T23:13:13.686;599617322626597318;15775.268;53
2024-05-25T23:13:13.693;599617322634288690;15782.96;99
2024-05-25T23:13:13.701;599617322641980062;15790.651;106
2024-05-25T23:13:13.709;599617322649671434;15798.343;90
2024-05-25T23:13:13.717;599617322657362806;15806.034;87
2024-05-25T23:13:13.724;599617322665054178;15813.726;94
2024-05-25T23:13:13.732;599617322672745550;15821.416;90
2024-05-25T23:13:13.740;599617322680436922;15829.107;64
2024-05-25T23:13:13.747;599617322688128294;15836.799;62
2024-05-25T23:13:13.755;599617322695819666;15844.49;85
2024-05-25T23:13:13.763;599617322703511038;15852.183;83
2024-05-25T23:13:13.770;599617322711202410;15859.874;74
2024-05-25T23:13:13.778;599617322718893782;15867.565;106
2024-05-25T23:13:13.786;599617322726585154;15875.256;145
2024-05-25T23:13:13.793;599617322734276526;15882.947;157
2024-05-25T23:13:13.801;599617322741967898;15890.639;159
2024-05-25T23:13:13.809;599617322749659270;15898.33;169
2024-05-25T23:13:13.817;599617322757350642;15906.021;180
2024-05-25T23:13:13.824;599617322765042014;15913.713;189
2024-05-25T23:13:13.832;599617322772733386;15921.404;201
2024-05-25T23:13:13.840;599617322780424758;15929.097;231
2024-05-25T23:13:13.847;599617322788116130;15936.787;240
2024-05-25T23:13:13.855;599617322795807502;15944.479;189
2024-05-25T23:13:13.863;599617322803498874;15952.17;152
2024-05-25T23:13:13.870;599617322811190246;15959.861;173
2024-05-25T23:13:13.878;599617322818881618;15967.553;187
2024-05-25T23:13:13.886;599617322826572990;15975.244;173
2024-05-25T23:13:13.893;599617322834264362;15982.935;171
