Phone timestamp;sensor timestamp [ns];timestamp [ms];ecg [uV]
2024-05-25T23:11:13.389;599617202323475782;0.0;-27
2024-05-25T23:11:13.396;599617202331167154;7.691372;233
2024-05-25T23:11:13.404;599617202338858526;15.382744;1764
2024-05-25T23:11:13.412;599617202346549898;23.074116;4246
2024-05-25T23:11:13.419;599617202354241270;30.765488;5582
2024-05-25T23:11:13.427;599617202361932642;38.45686;5998
2024-05-25T23:11:13.435;599617202369624014;46.14823;6890
2024-05-25T23:11:13.442;599617202377315386;53.839603;7714
2024-05-25T23:11:13.450;599617202385006758;61.530975;8149
2024-05-25T23:11:13.458;599617202392698130;69.22235;8716
2024-05-25T23:11:13.465;599617202400389502;76.91372;9309
2024-05-25T23:11:13.473;599617202408080874;84.60509;9751
2024-05-25T23:11:13.481;599617202415772246;92.29646;10249
2024-05-25T23:11:13.488;599617202423463618;99.98784;10664
2024-05-25T23:11:13.496;599617202431154990;107.67921;10925
2024-05-25T23:11:13.504;599617202438846362;115.370575;11249
2024-05-25T23:11:13.512;599617202446537734;123.06195;11592
2024-05-25T23:11:13.519;599617202454229106;130.75333;11928
2024-05-25T23:11:13.527;599617202461920478;138.4447;12275
2024-05-25T23:11:13.535;599617202469611850;146.13606;12548
2024-05-25T23:11:13.542;599617202477303222;153.82744;12833
2024-05-25T23:11:13.550;599617202484994594;161.51881;13194
2024-05-25T23:11:13.558;599617202492685966;169.21017;13484
2024-05-25T23:11:13.565;599617202500377338;176.90155;13623
2024-05-25T23:11:13.573;599617202508068710;184.59293;13755
2024-05-25T23:11:13.581;599617202515760082;192.2843;14011
2024-05-25T23:11:13.588;599617202523451454;199.97568;14275
2024-05-25T23:11:13.596;599617202531142826;207.66704;14405
2024-05-25T23:11:13.604;599617202538834198;215.35841;14574
2024-05-25T23:11:13.612;599617202546525570;223.04979;14850
2024-05-25T23:11:13.619;599617202554216942;230.74115;14924
2024-05-25T23:11:13.627;599617202561908314;238.43253;14889
2024-05-25T23:11:13.635;599617202569599686;246.1239;15088
2024-05-25T23:11:13.642;599617202577291058;253.81528;15299
2024-05-25T23:11:13.650;599617202584982430;261.50665;15271
2024-05-25T23:11:13.658;599617202592673802;269.19803;15255
2024-05-25T23:11:13.665;599617202600365174;276.8894;15415
2024-05-25T23:11:13.673;599617202608056546;284.58078;15563
2024-05-25T23:11:13.681;599617202615747918;292.27213;15611
2024-05-25T23:11:13.688;599617202623439290;299.96353;15611
2024-05-25T23:11:13.696;599617202631130662;307.65488;15625
2024-05-25T23:11:13.704;599617202638822034;315.34625;15688
2024-05-25T23:11:13.712;599617202646513406;323.03763;15718
2024-05-25T23:11:13.719;599617202654204778;330.729;15771
2024-05-25T23:11:13.727;599617202661896150;338.42035;15933
2024-05-25T23:11:13.735;599617202669587522;346.11176;15956
2024-05-25T23:11:13.742;599617202677278894;353.8031;15834
2024-05-25T23:11:13.750;599617202684970266;361.4945;15773
2024-05-25T23:11:13.758;599617202692661638;369.18585;15732
2024-05-25T23:11:13.765;599617202700353010;376.87723;15704
2024-05-25T23:11:13.773;599617202708044382;384.5686;15678
2024-05-25T23:11:13.781;599617202715735754;392.25998;15602
2024-05-25T23:11:13.788;599617202723427126;399.95135;15523
2024-05-25T23:11:13.796;599617202731118498;407.64273;15544
2024-05-25T23:11:13.804;599617202738809870;415.33408;15572
2024-05-25T23:11:13.812;599617202746501242;423.02548;15412
2024-05-25T23:11:13.819;599617202754192614;430.71683;15394
2024-05-25T23:11:13.827;599617202761883986;438.4082;15736
2024-05-25T23:11:13.835;599617202769575358;446.09958;15993
2024-05-25T23:11:13.842;599617202777266730;453.79095;15866
2024-05-25T23:11:13.850;599617202784958102;461.4823;15431
2024-05-25T23:11:13.858;599617202792649474;469.1737;15005
2024-05-25T23:11:13.865;599617202800340846;476.86505;14901
2024-05-25T23:11:13.873;599617202808032218;484.55646;14903
2024-05-25T23:11:13.881;599617202815723590;492.2478;14778
2024-05-25T23:11:13.888;599617202823414962;499.93918;14660
2024-05-25T23:11:13.896;599617202831106334;507.63055;14574
2024-05-25T23:11:13.904;599617202838797706;515.3219;14500
2024-05-25T23:11:13.912;599617202846489078;523.0133;14521
2024-05-25T23:11:13.919;599617202854180450;530.70465;14461
2024-05-25T23:11:13.927;599617202861871822;538.39606;14234
2024-05-25T23:11:13.935;599617202869563194;546.0874;14141
2024-05-25T23:11:13.942;599617202877254566;553.7788;14174
2024-05-25T23:11:13.950;599617202884945946;561.47015;14072
2024-05-25T23:11:13.958;599617202892637318;569.16156;13930
2024-05-25T23:11:13.965;599617202900328690;576.8529;13870
2024-05-25T23:11:13.973;599617202908020062;584.54425;13852
2024-05-25T23:11:13.981;599617202915711434;592.23566;13875
2024-05-25T23:11:13.988;599617202923402806;599.92706;13687
2024-05-25T23:11:13.996;599617202931094178;607.61835;13361
2024-05-25T23:11:14.004;599617202938785550;615.30975;13345
2024-05-25T23:11:14.012;599617202946476922;623.00116;13338
2024-05-25T23:11:14.019;599617202954168294;630.6925;13078
2024-05-25T23:11:14.027;599617202961859666;638.38385;13032
2024-05-25T23:11:14.035;599617202969551038;646.07526;13146
2024-05-25T23:11:14.042;599617202977242410;653.76666;12967
2024-05-25T23:11:14.050;599617202984933782;661.458;12729
2024-05-25T23:11:14.058;599617202992625154;669.14935;12615
2024-05-25T23:11:14.065;599617203000316526;676.84076;12412
2024-05-25T23:11:14.073;599617203008007898;684.5321;12201
2024-05-25T23:11:14.081;599617203015699270;692.2235;12115
2024-05-25T23:11:14.088;599617203023390642;699.91486;12069
2024-05-25T23:11:14.096;599617203031082014;707.6062;12009
2024-05-25T23:11:14.104;599617203038773386;715.2976;11879
2024-05-25T23:11:14.111;599617203046464758;722.989;11696
2024-05-25T23:11:14.119;599617203054156130;730.6803;11611
2024-05-25T23:11:14.127;599617203061847502;738.3717;11562
2024-05-25T23:11:14.135;599617203069538874;746.0631;11414
2024-05-25T23:11:14.142;599617203077230246;753.7545;11307
2024-05-25T23:11:14.150;599617203084921618;761.4458;11291
2024-05-25T23:11:14.158;599617203092612990;769.1372;11166
2024-05-25T23:11:14.165;599617203100304362;776.8286;10988
2024-05-25T23:11:14.173;599617203107995734;784.51996;10907
2024-05-25T23:11:14.181;599617203115687106;792.2113;10877
2024-05-25T23:11:14.188;599617203123378478;799.9027;10840
2024-05-25T23:11:14.196;599617203131069850;807.59406;10733
2024-05-25T23:11:14.204;599617203138761222;815.28546;10515
2024-05-25T23:11:14.211;599617203146452594;822.9768;10363
2024-05-25T23:11:14.219;599617203154143966;830.66815;10295
2024-05-25T23:11:14.227;599617203161835338;838.35956;10159
2024-05-25T23:11:14.235;599617203169526710;846.05096;10055
2024-05-25T23:11:14.242;599617203177218082;853.74225;10008
2024-05-25T23:11:14.250;599617203184909454;861.43365;9856
2024-05-25T23:11:14.258;599617203192600826;869.12506;9687
2024-05-25T23:11:14.265;599617203200292198;876.8164;9636
2024-05-25T23:11:14.273;599617203207983570;884.50775;9592
2024-05-25T23:11:14.281;599617203215674942;892.19916;9481
2024-05-25T23:11:14.288;599617203223366314;899.89056;9381
2024-05-25T23:11:14.296;599617203231057686;907.5819;9305
2024-05-25T23:11:14.304;599617203238749058;915.27325;9177
2024-05-25T23:11:14.311;599617203246440430;922.96466;9006
2024-05-25T23:11:14.319;599617203254131802;930.656;8846
2024-05-25T23:11:14.327;599617203261823174;938.3474;8784
2024-05-25T23:11:14.335;599617203269514546;946.03876;8707
2024-05-25T23:11:14.342;599617203277205918;953.7301;8469
2024-05-25T23:11:14.350;599617203284897290;961.4215;8297
2024-05-25T23:11:14.358;599617203292588662;969.1129;8293
2024-05-25T23:11:14.365;599617203300280034;976.8042;8228
2024-05-25T23:11:14.373;599617203307971406;984.4956;8108
2024-05-25T23:11:14.381;599617203315662778;992.187;8033
2024-05-25T23:11:14.388;599617203323354150;999.8784;7950
2024-05-25T23:11:14.396;599617203331045522;1007.5697;7830
2024-05-25T23:11:14.404;599617203338736894;1015.2611;7719
2024-05-25T23:11:14.411;599617203346428266;1022.9525;7645
2024-05-25T23:11:14.419;599617203354119638;1030.6438;7612
2024-05-25T23:11:14.427;599617203361811010;1038.3352;7531
2024-05-25T23:11:14.435;599617203369502382;1046.0266;7376
2024-05-25T23:11:14.442;599617203377193754;1053.7179;7279
2024-05-25T23:11:14.450;599617203384885126;1061.4093;7258
2024-05-25T23:11:14.458;599617203392576498;1069.1007;7286
2024-05-25T23:11:14.465;599617203400267870;1076.7921;7501
2024-05-25T23:11:14.473;599617203407959242;1084.4834;7855
2024-05-25T23:11:14.481;599617203415650614;1092.1748;7837
2024-05-25T23:11:14.488;599617203423341986;1099.8662;7158
2024-05-25T23:11:14.496;599617203431033358;1107.5576;6519
2024-05-25T23:11:14.504;599617203438724730;1115.2489;6524
2024-05-25T23:11:14.511;599617203446416110;1122.9403;6617
2024-05-25T23:11:14.519;599617203454107482;1130.6317;6408
2024-05-25T23:11:14.527;599617203461798854;1138.3231;6262
2024-05-25T23:11:14.535;599617203469490226;1146.0144;6292
2024-05-25T23:11:14.542;599617203477181598;1153.7058;6265
2024-05-25T23:11:14.550;599617203484872970;1161.3972;6121
2024-05-25T23:11:14.558;599617203492564342;1169.0885;6026
2024-05-25T23:11:14.565;599617203500255714;1176.7799;6024
2024-05-25T23:11:14.573;599617203507947086;1184.4713;5991
2024-05-25T23:11:14.581;599617203515638458;1192.1627;5829
2024-05-25T23:11:14.588;599617203523329830;1199.8541;5656
2024-05-25T23:11:14.596;599617203531021202;1207.5455;5646
2024-05-25T23:11:14.604;599617203538712574;1215.2367;5670
2024-05-25T23:11:14.611;599617203546403946;1222.9281;5563
2024-05-25T23:11:14.619;599617203554095318;1230.6195;5464
2024-05-25T23:11:14.627;599617203561786690;1238.3109;5468
2024-05-25T23:11:14.635;599617203569478062;1246.0023;5457
2024-05-25T23:11:14.642;599617203577169434;1253.6937;5380
2024-05-25T23:11:14.650;599617203584860806;1261.385;5341
2024-05-25T23:11:14.658;599617203592552178;1269.0763;5339
2024-05-25T23:11:14.665;599617203600243550;1276.7677;5278
2024-05-25T23:11:14.673;599617203607934922;1284.4591;5190
2024-05-25T23:11:14.681;599617203615626294;1292.1505;5149
2024-05-25T23:11:14.688;599617203623317666;1299.8419;5139
2024-05-25T23:11:14.696;599617203631009038;1307.5333;5102
2024-05-25T23:11:14.704;599617203638700410;1315.2246;5014
2024-05-25T23:11:14.711;599617203646391782;1322.916;4926
2024-05-25T23:11:14.719;599617203654083154;1330.6073;4887
2024-05-25T23:11:14.727;599617203661774526;1338.2987;4845
2024-05-25T23:11:14.734;599617203669465898;1345.9901;4767
2024-05-25T23:11:14.742;599617203677157270;1353.6815;4720
2024-05-25T23:11:14.750;599617203684848642;1361.3728;4686
2024-05-25T23:11:14.758;599617203692540014;1369.0642;4595
2024-05-25T23:11:14.765;599617203700231386;1376.7556;4512
2024-05-25T23:11:14.773;599617203707922758;1384.447;4496
2024-05-25T23:11:14.781;599617203715614130;1392.1384;4503
2024-05-25T23:11:14.788;599617203723305502;1399.8297;4477
2024-05-25T23:11:14.796;599617203730996874;1407.5211;4357
2024-05-25T23:11:14.804;599617203738688246;1415.2124;4199
2024-05-25T23:11:14.811;599617203746379618;1422.9038;4132
2024-05-25T23:11:14.819;599617203754070990;1430.5952;4107
2024-05-25T23:11:14.827;599617203761762362;1438.2866;4042
2024-05-25T23:11:14.834;599617203769453734;1445.978;4003
2024-05-25T23:11:14.842;599617203777145106;1453.6694;3977
2024-05-25T23:11:14.850;599617203784836478;1461.3606;3894
2024-05-25T23:11:14.858;599617203792527850;1469.052;3827
2024-05-25T23:11:14.865;599617203800219222;1476.7434;3820
2024-05-25T23:11:14.873;599617203807910594;1484.4348;3790
2024-05-25T23:11:14.881;599617203815601966;1492.1262;3729
2024-05-25T23:11:14.888;599617203823293338;1499.8176;3676
2024-05-25T23:11:14.896;599617203830984710;1507.509;3639
2024-05-25T23:11:14.904;599617203838676082;1515.2002;3607
2024-05-25T23:11:14.911;599617203846367454;1522.8916;3549
2024-05-25T23:11:14.919;599617203854058826;1530.583;3461
2024-05-25T23:11:14.927;599617203861750198;1538.2744;3408
2024-05-25T23:11:14.934;599617203869441570;1545.9658;3350
2024-05-25T23:11:14.942;599617203877132942;1553.6572;3229
2024-05-25T23:11:14.950;599617203884824314;1561.3485;3148
2024-05-25T23:11:14.958;599617203892515686;1569.0399;3144
2024-05-25T23:11:14.965;599617203900207058;1576.7313;3116
2024-05-25T23:11:14.973;599617203907898430;1584.4226;3070
2024-05-25T23:11:14.981;599617203915589802;1592.114;3026
2024-05-25T23:11:14.988;599617203923281174;1599.8054;2917
2024-05-25T23:11:14.996;599617203930972546;1607.4967;2780
2024-05-25T23:11:15.004;599617203938663918;1615.1881;2738
2024-05-25T23:11:15.011;599617203946355290;1622.8795;2745
2024-05-25T23:11:15.019;599617203954046662;1630.5709;2727
2024-05-25T23:11:15.027;599617203961738034;1638.2623;2690
2024-05-25T23:11:15.034;599617203969429406;1645.9536;2625
2024-05-25T23:11:15.042;599617203977120778;1653.645;2539
2024-05-25T23:11:15.050;599617203984812150;1661.3363;2486
2024-05-25T23:11:15.058;599617203992503522;1669.0277;2495
2024-05-25T23:11:15.065;599617204000194894;1676.7191;2648
2024-05-25T23:11:15.073;599617204007861218;1684.3854;3012
2024-05-25T23:11:15.081;599617204015552938;1692.0771;3315
2024-05-25T23:11:15.088;599617204023244658;1699.7688;3104
2024-05-25T23:11:15.096;599617204030936378;1707.4606;2556
2024-05-25T23:11:15.104;599617204038628098;1715.1522;2326
2024-05-25T23:11:15.111;599617204046319818;1722.844;2410
2024-05-25T23:11:15.119;599617204054011538;1730.5358;2347
2024-05-25T23:11:15.127;599617204061703258;1738.2274;2224
2024-05-25T23:11:15.134;599617204069394978;1745.9192;2266
2024-05-25T23:11:15.142;599617204077086698;1753.6108;2287
2024-05-25T23:11:15.150;599617204084778418;1761.3026;2180
2024-05-25T23:11:15.157;599617204092470138;1768.9943;2109
2024-05-25T23:11:15.165;599617204100161858;1776.686;2127
2024-05-25T23:11:15.173;599617204107853578;1784.3778;2120
2024-05-25T23:11:15.181;599617204115545298;1792.0695;2086
2024-05-25T23:11:15.188;599617204123237018;1799.7612;2097
2024-05-25T23:11:15.196;599617204130928738;1807.4529;2120
2024-05-25T23:11:15.204;599617204138620458;1815.1447;2109
2024-05-25T23:11:15.211;599617204146312178;1822.8363;2069
2024-05-25T23:11:15.219;599617204154003898;1830.5281;2060
2024-05-25T23:11:15.227;599617204161695618;1838.2197;2088
2024-05-25T23:11:15.234;599617204169387338;1845.9115;2097
2024-05-25T23:11:15.242;599617204177079058;1853.6033;2088
2024-05-25T23:11:15.250;599617204184770778;1861.2949;2095
2024-05-25T23:11:15.257;599617204192462498;1868.9867;2095
2024-05-25T23:11:15.265;599617204200154218;1876.6783;2069
2024-05-25T23:11:15.273;599617204207845938;1884.3701;2049
2024-05-25T23:11:15.281;599617204215537658;1892.0618;2030
2024-05-25T23:11:15.288;599617204223229378;1899.7535;1972
2024-05-25T23:11:15.296;599617204230921098;1907.4454;1912
2024-05-25T23:11:15.304;599617204238612818;1915.1371;1891
2024-05-25T23:11:15.311;599617204246304538;1922.8289;1879
2024-05-25T23:11:15.319;599617204253996258;1930.5205;1873
2024-05-25T23:11:15.327;599617204261687978;1938.2123;1852
2024-05-25T23:11:15.334;599617204269379698;1945.9039;1822
2024-05-25T23:11:15.342;599617204277071418;1953.5957;1812
2024-05-25T23:11:15.350;599617204284763138;1961.2874;1803
2024-05-25T23:11:15.357;599617204292454858;1968.9791;1761
2024-05-25T23:11:15.365;599617204300146578;1976.6709;1734
2024-05-25T23:11:15.373;599617204307838298;1984.3625;1750
2024-05-25T23:11:15.381;599617204315530018;1992.0543;1764
2024-05-25T23:11:15.388;599617204323221738;1999.746;1745
2024-05-25T23:11:15.396;599617204330913458;2007.4377;1724
2024-05-25T23:11:15.404;599617204338605178;2015.1294;1713
2024-05-25T23:11:15.411;599617204346296898;2022.8212;1708
2024-05-25T23:11:15.419;599617204353988618;2030.513;1680
2024-05-25T23:11:15.427;599617204361680338;2038.2046;1632
2024-05-25T23:11:15.434;599617204369372058;2045.8964;1597
2024-05-25T23:11:15.442;599617204377063778;2053.588;1574
2024-05-25T23:11:15.450;599617204384755498;2061.2798;1530
2024-05-25T23:11:15.457;599617204392447218;2068.9714;1504
2024-05-25T23:11:15.465;599617204400138938;2076.663;1521
2024-05-25T23:11:15.473;599617204407830658;2084.3547;1516
2024-05-25T23:11:15.481;599617204415522378;2092.0466;1467
2024-05-25T23:11:15.488;599617204423214098;2099.7383;1377
2024-05-25T23:11:15.496;599617204430905818;2107.43;1282
2024-05-25T23:11:15.504;599617204438597538;2115.1218;1254
2024-05-25T23:11:15.511;599617204446289258;2122.8135;1261
2024-05-25T23:11:15.519;599617204453980978;2130.5051;1252
2024-05-25T23:11:15.527;599617204461672698;2138.1968;1220
2024-05-25T23:11:15.534;599617204469364418;2145.8887;1139
2024-05-25T23:11:15.542;599617204477056138;2153.5803;1048
2024-05-25T23:11:15.550;599617204484747858;2161.272;1027
2024-05-25T23:11:15.557;599617204492439578;2168.9639;1016
2024-05-25T23:11:15.565;599617204500131298;2176.6555;963
2024-05-25T23:11:15.573;599617204507823018;2184.3472;926
2024-05-25T23:11:15.581;599617204515514738;2192.0388;930
2024-05-25T23:11:15.588;599617204523206458;2199.7307;944
2024-05-25T23:11:15.596;599617204530898178;2207.4224;944
2024-05-25T23:11:15.604;599617204538589898;2215.1143;935
2024-05-25T23:11:15.611;599617204546281618;2222.8057;939
2024-05-25T23:11:15.619;599617204553973338;2230.4976;946
2024-05-25T23:11:15.627;599617204561665058;2238.1892;923
2024-05-25T23:11:15.634;599617204569376900;2245.9011;912
2024-05-25T23:11:15.642;599617204577068341;2253.5925;935
2024-05-25T23:11:15.650;599617204584759782;2261.2842;935
2024-05-25T23:11:15.657;599617204592451223;2268.9753;898
2024-05-25T23:11:15.665;599617204600142664;2276.667;935
2024-05-25T23:11:15.673;599617204607834105;2284.3584;1171
2024-05-25T23:11:15.681;599617204615525546;2292.0496;1567
2024-05-25T23:11:15.688;599617204623216987;2299.7412;1724
2024-05-25T23:11:15.696;599617204630908428;2307.4326;1328
2024-05-25T23:11:15.704;599617204638599869;2315.124;838
2024-05-25T23:11:15.711;599617204646291310;2322.8154;761
2024-05-25T23:11:15.719;599617204653982751;2330.507;833
2024-05-25T23:11:15.727;599617204661674192;2338.1985;770
2024-05-25T23:11:15.734;599617204669365633;2345.89;754
2024-05-25T23:11:15.742;599617204677057074;2353.5813;808
2024-05-25T23:11:15.750;599617204684748515;2361.273;801
2024-05-25T23:11:15.757;599617204692439956;2368.964;789
2024-05-25T23:11:15.765;599617204700131397;2376.6555;812
2024-05-25T23:11:15.773;599617204707822838;2384.3472;803
2024-05-25T23:11:15.781;599617204715514279;2392.0383;770
2024-05-25T23:11:15.788;599617204723205720;2399.73;791
2024-05-25T23:11:15.796;599617204730897161;2407.4214;833
2024-05-25T23:11:15.804;599617204738588602;2415.1128;840
2024-05-25T23:11:15.811;599617204746280043;2422.8042;824
2024-05-25T23:11:15.819;599617204753971484;2430.4958;824
2024-05-25T23:11:15.827;599617204761662925;2438.1873;858
2024-05-25T23:11:15.834;599617204769354366;2445.8784;893
2024-05-25T23:11:15.842;599617204777045807;2453.57;900
2024-05-25T23:11:15.850;599617204784737248;2461.2615;909
2024-05-25T23:11:15.857;599617204792428689;2468.953;923
2024-05-25T23:11:15.865;599617204800120130;2476.6443;930
2024-05-25T23:11:15.873;599617204807811571;2484.336;939
2024-05-25T23:11:15.881;599617204815503012;2492.027;949
2024-05-25T23:11:15.888;599617204823194453;2499.7188;970
2024-05-25T23:11:15.896;599617204830885894;2507.4102;972
2024-05-25T23:11:15.904;599617204838577335;2515.1013;944
2024-05-25T23:11:15.911;599617204846268776;2522.793;939
2024-05-25T23:11:15.919;599617204853960217;2530.4844;951
2024-05-25T23:11:15.927;599617204861651658;2538.176;933
2024-05-25T23:11:15.934;599617204869343099;2545.8672;919
2024-05-25T23:11:15.942;599617204877034540;2553.5588;926
2024-05-25T23:11:15.950;599617204884725981;2561.2502;905
2024-05-25T23:11:15.957;599617204892417422;2568.9417;870
2024-05-25T23:11:15.965;599617204900108863;2576.633;870
2024-05-25T23:11:15.973;599617204907800304;2584.3247;896
2024-05-25T23:11:15.981;599617204915491745;2592.0159;902
2024-05-25T23:11:15.988;599617204923183186;2599.7073;879
2024-05-25T23:11:15.996;599617204930874627;2607.399;798
2024-05-25T23:11:16.004;599617204938566068;2615.09;708
2024-05-25T23:11:16.011;599617204946257509;2622.7817;715
2024-05-25T23:11:16.019;599617204953948950;2630.4731;736
2024-05-25T23:11:16.027;599617204961640391;2638.1648;694
2024-05-25T23:11:16.034;599617204969331832;2645.856;676
2024-05-25T23:11:16.042;599617204977023273;2653.5476;696
2024-05-25T23:11:16.050;599617204984714714;2661.239;689
2024-05-25T23:11:16.057;599617204992406155;2668.9304;680
2024-05-25T23:11:16.065;599617205000097596;2676.6218;696
2024-05-25T23:11:16.073;599617205007789037;2684.3132;664
2024-05-25T23:11:16.081;599617205015480478;2692.0046;608
2024-05-25T23:11:16.088;599617205023171919;2699.696;606
2024-05-25T23:11:16.096;599617205030863360;2707.3877;620
2024-05-25T23:11:16.104;599617205038554801;2715.0789;606
2024-05-25T23:11:16.111;599617205046246242;2722.7705;595
2024-05-25T23:11:16.119;599617205053937683;2730.462;601
2024-05-25T23:11:16.127;599617205061629124;2738.1533;604
2024-05-25T23:11:16.134;599617205069320565;2745.8447;590
2024-05-25T23:11:16.142;599617205077012006;2753.5364;578
2024-05-25T23:11:16.150;599617205084703447;2761.2278;597
2024-05-25T23:11:16.157;599617205092394888;2768.919;632
2024-05-25T23:11:16.165;599617205100086329;2776.6106;639
2024-05-25T23:11:16.173;599617205107777770;2784.302;620
2024-05-25T23:11:16.180;599617205115469211;2791.9934;595
2024-05-25T23:11:16.188;599617205123160652;2799.6848;555
2024-05-25T23:11:16.196;599617205130857118;2807.3813;513
2024-05-25T23:11:16.204;599617205138548490;2815.0728;479
2024-05-25T23:11:16.211;599617205146239862;2822.764;451
2024-05-25T23:11:16.219;599617205153931234;2830.4556;407
2024-05-25T23:11:16.227;599617205161622606;2838.1467;296
2024-05-25T23:11:16.234;599617205169313978;2845.8381;233
2024-05-25T23:11:16.242;599617205177005350;2853.5295;458
2024-05-25T23:11:16.250;599617205184696722;2861.221;909
2024-05-25T23:11:16.257;599617205192388094;2868.9124;1169
2024-05-25T23:11:16.265;599617205200079466;2876.6038;886
2024-05-25T23:11:16.273;599617205207770838;2884.2952;338
2024-05-25T23:11:16.280;599617205215462210;2891.9863;134
2024-05-25T23:11:16.288;599617205223153582;2899.6777;231
2024-05-25T23:11:16.296;599617205230844954;2907.3691;219
2024-05-25T23:11:16.304;599617205238536326;2915.0605;185
2024-05-25T23:11:16.311;599617205246227698;2922.752;245
2024-05-25T23:11:16.319;599617205253919070;2930.4434;245
2024-05-25T23:11:16.327;599617205261610442;2938.1348;219
2024-05-25T23:11:16.334;599617205269301814;2945.826;273
2024-05-25T23:11:16.342;599617205276993186;2953.5173;319
2024-05-25T23:11:16.350;599617205284684558;2961.2087;319
2024-05-25T23:11:16.357;599617205292375930;2968.9001;333
2024-05-25T23:11:16.365;599617205300067302;2976.5916;356
2024-05-25T23:11:16.373;599617205307758674;2984.283;365
2024-05-25T23:11:16.380;599617205315450046;2991.974;375
2024-05-25T23:11:16.388;599617205323141418;2999.6658;398
2024-05-25T23:11:16.396;599617205330832790;3007.357;439
2024-05-25T23:11:16.404;599617205338524162;3015.0483;465
2024-05-25T23:11:16.411;599617205346215534;3022.7397;453
2024-05-25T23:11:16.419;599617205353906906;3030.4312;460
2024-05-25T23:11:16.427;599617205361598278;3038.1226;504
2024-05-25T23:11:16.434;599617205369289650;3045.8137;530
2024-05-25T23:11:16.442;599617205376981022;3053.5054;530
2024-05-25T23:11:16.450;599617205384672394;3061.1965;537
2024-05-25T23:11:16.457;599617205392363766;3068.8882;551
2024-05-25T23:11:16.465;599617205400055138;3076.5793;548
2024-05-25T23:11:16.473;599617205407746510;3084.2708;541
2024-05-25T23:11:16.480;599617205415437882;3091.9622;551
2024-05-25T23:11:16.488;599617205423129254;3099.6533;576
2024-05-25T23:11:16.496;599617205430820626;3107.345;581
2024-05-25T23:11:16.504;599617205438511998;3115.0361;502
2024-05-25T23:11:16.511;599617205446203370;3122.7278;372
2024-05-25T23:11:16.519;599617205453894742;3130.419;314
2024-05-25T23:11:16.527;599617205461586114;3138.11;333
2024-05-25T23:11:16.534;599617205469277486;3145.8018;354
2024-05-25T23:11:16.542;599617205476968858;3153.493;370
2024-05-25T23:11:16.550;599617205484660230;3161.1846;372
2024-05-25T23:11:16.557;599617205492351602;3168.8757;356
2024-05-25T23:11:16.565;599617205500042974;3176.5674;379
2024-05-25T23:11:16.573;599617205507734346;3184.2585;432
2024-05-25T23:11:16.580;599617205515425718;3191.9497;460
2024-05-25T23:11:16.588;599617205523117090;3199.6414;446
2024-05-25T23:11:16.596;599617205530808462;3207.3325;435
2024-05-25T23:11:16.604;599617205538499834;3215.0242;456
2024-05-25T23:11:16.611;599617205546191206;3222.7153;481
2024-05-25T23:11:16.619;599617205553882578;3230.407;488
2024-05-25T23:11:16.627;599617205561573950;3238.0981;500
2024-05-25T23:11:16.634;599617205569265322;3245.7896;516
2024-05-25T23:11:16.642;599617205576956694;3253.481;502
2024-05-25T23:11:16.650;599617205584648066;3261.172;486
2024-05-25T23:11:16.657;599617205592339438;3268.8638;507
2024-05-25T23:11:16.665;599617205600030810;3276.555;539
2024-05-25T23:11:16.673;599617205607722182;3284.2466;537
2024-05-25T23:11:16.680;599617205615413554;3291.9377;516
2024-05-25T23:11:16.688;599617205623104926;3299.6292;504
2024-05-25T23:11:16.696;599617205630796298;3307.3206;520
2024-05-25T23:11:16.704;599617205638487670;3315.0117;520
2024-05-25T23:11:16.711;599617205646179042;3322.7034;481
2024-05-25T23:11:16.719;599617205653870414;3330.3945;469
2024-05-25T23:11:16.727;599617205661561786;3338.086;486
2024-05-25T23:11:16.734;599617205669253158;3345.7773;463
2024-05-25T23:11:16.742;599617205676944530;3353.4688;432
2024-05-25T23:11:16.750;599617205684635902;3361.1602;444
2024-05-25T23:11:16.757;599617205692327284;3368.8516;432
2024-05-25T23:11:16.765;599617205700018656;3376.543;361
2024-05-25T23:11:16.773;599617205707710028;3384.2341;319
2024-05-25T23:11:16.780;599617205715401400;3391.9255;321
2024-05-25T23:11:16.788;599617205723092772;3399.617;287
2024-05-25T23:11:16.796;599617205730784144;3407.3083;208
2024-05-25T23:11:16.803;599617205738475516;3414.9998;266
2024-05-25T23:11:16.811;599617205746166888;3422.6912;632
2024-05-25T23:11:16.819;599617205753858260;3430.3826;1034
2024-05-25T23:11:16.827;599617205761549632;3438.074;946
2024-05-25T23:11:16.834;599617205769241004;3445.7651;414
2024-05-25T23:11:16.842;599617205776932376;3453.4565;55
2024-05-25T23:11:16.850;599617205784623748;3461.148;69
2024-05-25T23:11:16.857;599617205792315120;3468.8394;87
2024-05-25T23:11:16.865;599617205800006492;3476.5308;6
2024-05-25T23:11:16.873;599617205807697864;3484.2222;6
2024-05-25T23:11:16.880;599617205815389236;3491.9136;39
2024-05-25T23:11:16.888;599617205823080608;3499.6047;30
2024-05-25T23:11:16.896;599617205830771980;3507.2961;43
2024-05-25T23:11:16.903;599617205838463352;3514.9875;78
2024-05-25T23:11:16.911;599617205846154724;3522.679;83
2024-05-25T23:11:16.919;599617205853846096;3530.3704;74
2024-05-25T23:11:16.927;599617205861537468;3538.0615;90
2024-05-25T23:11:16.934;599617205869228840;3545.7532;125
2024-05-25T23:11:16.942;599617205876920212;3553.4443;148
2024-05-25T23:11:16.950;599617205884611584;3561.136;164
2024-05-25T23:11:16.957;599617205892302956;3568.8271;178
2024-05-25T23:11:16.965;599617205899994328;3576.5186;182
2024-05-25T23:11:16.973;599617205907685700;3584.21;192
2024-05-25T23:11:16.980;599617205915377072;3591.9011;215
2024-05-25T23:11:16.988;599617205923068444;3599.5928;238
2024-05-25T23:11:16.996;599617205930759816;3607.284;268
2024-05-25T23:11:17.003;599617205938451188;3614.9756;268
2024-05-25T23:11:17.011;599617205946142560;3622.6667;201
2024-05-25T23:11:17.019;599617205953833932;3630.3582;159
2024-05-25T23:11:17.027;599617205961525304;3638.0496;201
2024-05-25T23:11:17.034;599617205969216676;3645.7407;224
2024-05-25T23:11:17.042;599617205976908048;3653.4324;213
2024-05-25T23:11:17.050;599617205984599420;3661.1235;233
2024-05-25T23:11:17.057;599617205992290792;3668.8152;254
2024-05-25T23:11:17.065;599617205999982164;3676.5063;240
2024-05-25T23:11:17.073;599617206007673536;3684.1978;238
2024-05-25T23:11:17.080;599617206015364908;3691.8892;268
2024-05-25T23:11:17.088;599617206023056280;3699.5803;291
2024-05-25T23:11:17.096;599617206030747652;3707.272;284
2024-05-25T23:11:17.103;599617206038439024;3714.9631;261
2024-05-25T23:11:17.111;599617206046130396;3722.6548;256
2024-05-25T23:11:17.119;599617206053821768;3730.346;287
2024-05-25T23:11:17.127;599617206061513140;3738.0374;312
2024-05-25T23:11:17.134;599617206069204512;3745.7288;310
2024-05-25T23:11:17.142;599617206076895884;3753.42;321
2024-05-25T23:11:17.150;599617206084587256;3761.1116;338
2024-05-25T23:11:17.157;599617206092278628;3768.8027;333
2024-05-25T23:11:17.165;599617206099970000;3776.4944;328
2024-05-25T23:11:17.173;599617206107661372;3784.1855;358
2024-05-25T23:11:17.180;599617206115352744;3791.877;388
2024-05-25T23:11:17.188;599617206123044116;3799.5684;379
2024-05-25T23:11:17.196;599617206130735488;3807.2598;363
2024-05-25T23:11:17.203;599617206138426860;3814.9512;365
2024-05-25T23:11:17.211;599617206146118232;3822.6423;375
2024-05-25T23:11:17.219;599617206153809604;3830.3337;386
2024-05-25T23:11:17.227;599617206161500976;3838.0251;400
2024-05-25T23:11:17.234;599617206169192348;3845.7166;405
2024-05-25T23:11:17.242;599617206176883720;3853.408;400
2024-05-25T23:11:17.250;599617206184575092;3861.0994;382
2024-05-25T23:11:17.257;599617206192266464;3868.7908;347
2024-05-25T23:11:17.265;599617206199957836;3876.482;340
2024-05-25T23:11:17.273;599617206207649208;3884.1733;368
2024-05-25T23:11:17.280;599617206215340580;3891.8647;368
2024-05-25T23:11:17.288;599617206223031952;3899.5562;363
2024-05-25T23:11:17.296;599617206230723324;3907.2476;393
2024-05-25T23:11:17.303;599617206238414696;3914.939;402
2024-05-25T23:11:17.311;599617206246106068;3922.6304;347
2024-05-25T23:11:17.319;599617206253797448;3930.3218;300
2024-05-25T23:11:17.327;599617206261488820;3938.013;303
2024-05-25T23:11:17.334;599617206269180192;3945.7043;298
2024-05-25T23:11:17.342;599617206276871564;3953.3958;280
2024-05-25T23:11:17.350;599617206284562936;3961.0872;273
2024-05-25T23:11:17.357;599617206292254308;3968.7786;254
2024-05-25T23:11:17.365;599617206299945680;3976.47;254
2024-05-25T23:11:17.373;599617206307637052;3984.1614;391
2024-05-25T23:11:17.380;599617206315328424;3991.8525;738
2024-05-25T23:11:17.388;599617206323019796;3999.544;1081
2024-05-25T23:11:17.396;599617206330711168;4007.2354;946
2024-05-25T23:11:17.403;599617206338402540;4014.9268;384
2024-05-25T23:11:17.411;599617206346093912;4022.6182;85
2024-05-25T23:11:17.419;599617206353785284;4030.3093;175
2024-05-25T23:11:17.427;599617206361476656;4038.001;148
2024-05-25T23:11:17.434;599617206369168028;4045.6921;4
2024-05-25T23:11:17.442;599617206376859400;4053.3838;11
2024-05-25T23:11:17.450;599617206384550772;4061.075;25
2024-05-25T23:11:17.457;599617206392242144;4068.7664;-41
2024-05-25T23:11:17.465;599617206399933516;4076.4578;-50
2024-05-25T23:11:17.473;599617206407624888;4084.149;-16
2024-05-25T23:11:17.480;599617206415316260;4091.8406;-11
2024-05-25T23:11:17.488;599617206423007632;4099.5317;-25
2024-05-25T23:11:17.496;599617206430699004;4107.223;-48
2024-05-25T23:11:17.503;599617206438390376;4114.9146;-81
2024-05-25T23:11:17.511;599617206446081748;4122.606;-138
2024-05-25T23:11:17.519;599617206453773120;4130.2974;-217
2024-05-25T23:11:17.526;599617206461464492;4137.989;-219
2024-05-25T23:11:17.534;599617206469155864;4145.68;-145
2024-05-25T23:11:17.542;599617206476847236;4153.3716;-106
2024-05-25T23:11:17.550;599617206484538608;4161.063;-94
2024-05-25T23:11:17.557;599617206492229980;4168.7544;-67
2024-05-25T23:11:17.565;599617206499921352;4176.446;-32
2024-05-25T23:11:17.573;599617206507612724;4184.1367;-9
2024-05-25T23:11:17.580;599617206515304096;4191.828;-2
2024-05-25T23:11:17.588;599617206522995468;4199.5195;20
2024-05-25T23:11:17.596;599617206530686840;4207.211;71
2024-05-25T23:11:17.603;599617206538378212;4214.9023;85
2024-05-25T23:11:17.611;599617206546069584;4222.5938;74
2024-05-25T23:11:17.619;599617206553760956;4230.285;101
2024-05-25T23:11:17.626;599617206561452328;4237.9766;136
2024-05-25T23:11:17.634;599617206569143700;4245.668;129
2024-05-25T23:11:17.642;599617206576835072;4253.3594;127
2024-05-25T23:11:17.650;599617206584526444;4261.051;148
2024-05-25T23:11:17.657;599617206592217816;4268.742;152
2024-05-25T23:11:17.665;599617206599909188;4276.4336;141
2024-05-25T23:11:17.673;599617206607600560;4284.1245;150
2024-05-25T23:11:17.680;599617206615291932;4291.8164;180
2024-05-25T23:11:17.688;599617206622983304;4299.508;210
2024-05-25T23:11:17.696;599617206630674676;4307.199;222
2024-05-25T23:11:17.703;599617206638366048;4314.89;217
2024-05-25T23:11:17.711;599617206646057420;4322.5815;236
2024-05-25T23:11:17.719;599617206653748792;4330.273;282
2024-05-25T23:11:17.726;599617206661440164;4337.9644;289
2024-05-25T23:11:17.734;599617206669131536;4345.656;275
2024-05-25T23:11:17.742;599617206676822908;4353.347;268
2024-05-25T23:11:17.750;599617206684514280;4361.0386;236
2024-05-25T23:11:17.757;599617206692205652;4368.73;199
2024-05-25T23:11:17.765;599617206699897024;4376.4214;215
2024-05-25T23:11:17.773;599617206707588396;4384.113;254
2024-05-25T23:11:17.780;599617206715279768;4391.8037;275
2024-05-25T23:11:17.788;599617206722971140;4399.495;273
2024-05-25T23:11:17.796;599617206730662512;4407.187;266
2024-05-25T23:11:17.803;599617206738353884;4414.8784;275
2024-05-25T23:11:17.811;599617206746045256;4422.5693;296
2024-05-25T23:11:17.819;599617206753736628;4430.2607;305
2024-05-25T23:11:17.826;599617206761428000;4437.952;317
2024-05-25T23:11:17.834;599617206769119372;4445.6436;338
2024-05-25T23:11:17.842;599617206776810744;4453.335;333
2024-05-25T23:11:17.850;599617206784502116;4461.0264;324
2024-05-25T23:11:17.857;599617206792193488;4468.718;356
2024-05-25T23:11:17.865;599617206799884860;4476.4087;384
2024-05-25T23:11:17.873;599617206807576232;4484.1006;375
2024-05-25T23:11:17.880;599617206815267612;4491.792;363
2024-05-25T23:11:17.888;599617206822958984;4499.483;361
2024-05-25T23:11:17.896;599617206830650356;4507.1743;365
2024-05-25T23:11:17.903;599617206838341728;4514.866;370
2024-05-25T23:11:17.911;599617206846033100;4522.5576;365
2024-05-25T23:11:17.919;599617206853724472;4530.2485;349
2024-05-25T23:11:17.926;599617206861415844;4537.94;331
2024-05-25T23:11:17.934;599617206869107216;4545.6313;372
2024-05-25T23:11:17.942;599617206876798588;4553.323;625
2024-05-25T23:11:17.950;599617206884489960;4561.014;1002
2024-05-25T23:11:17.957;599617206892181332;4568.7056;1021
2024-05-25T23:11:17.965;599617206899872704;4576.397;527
2024-05-25T23:11:17.973;599617206907564076;4584.088;111
2024-05-25T23:11:17.980;599617206915255448;4591.78;118
2024-05-25T23:11:17.988;599617206922946820;4599.471;148
2024-05-25T23:11:17.996;599617206930638192;4607.1626;20
2024-05-25T23:11:18.003;599617206938329564;4614.8535;2
2024-05-25T23:11:18.011;599617206946020936;4622.5454;48
2024-05-25T23:11:18.019;599617206953712308;4630.237;-30
2024-05-25T23:11:18.026;599617206961403680;4637.9277;-129
2024-05-25T23:11:18.034;599617206969095052;4645.619;-101
2024-05-25T23:11:18.042;599617206976786424;4653.3105;-39
2024-05-25T23:11:18.050;599617206984477796;4661.0024;-27
2024-05-25T23:11:18.057;599617206992169168;4668.6934;-16
2024-05-25T23:11:18.065;599617206999860540;4676.385;-9
2024-05-25T23:11:18.073;599617207007551912;4684.076;-37
2024-05-25T23:11:18.080;599617207015243284;4691.767;-55
2024-05-25T23:11:18.088;599617207022934656;4699.459;-71
2024-05-25T23:11:18.096;599617207030626028;4707.1504;-85
2024-05-25T23:11:18.103;599617207038317400;4714.842;-57
2024-05-25T23:11:18.111;599617207046008772;4722.5327;-37
2024-05-25T23:11:18.119;599617207053700144;4730.224;-64
2024-05-25T23:11:18.126;599617207061391516;4737.916;-69
2024-05-25T23:11:18.134;599617207069082888;4745.607;-20
2024-05-25T23:11:18.142;599617207076774260;4753.2983;4
2024-05-25T23:11:18.149;599617207084465632;4760.9897;-4
2024-05-25T23:11:18.157;599617207092157004;4768.6816;6
2024-05-25T23:11:18.165;599617207099848376;4776.3726;41
2024-05-25T23:11:18.173;599617207107539748;4784.064;43
2024-05-25T23:11:18.180;599617207115231120;4791.7554;25
2024-05-25T23:11:18.188;599617207122922492;4799.4463;48
2024-05-25T23:11:18.196;599617207130613864;4807.138;87
2024-05-25T23:11:18.203;599617207138305236;4814.8296;85
2024-05-25T23:11:18.211;599617207145996608;4822.521;67
2024-05-25T23:11:18.219;599617207153687980;4830.212;78
2024-05-25T23:11:18.226;599617207161379352;4837.9033;108
2024-05-25T23:11:18.234;599617207169070724;4845.595;115
2024-05-25T23:11:18.242;599617207176762096;4853.2866;97
2024-05-25T23:11:18.249;599617207184453468;4860.9775;87
2024-05-25T23:11:18.257;599617207192144840;4868.669;99
2024-05-25T23:11:18.265;599617207199836212;4876.3604;120
2024-05-25T23:11:18.273;599617207207527584;4884.052;138
2024-05-25T23:11:18.280;599617207215218956;4891.743;157
2024-05-25T23:11:18.288;599617207222910328;4899.4346;192
2024-05-25T23:11:18.296;599617207230601700;4907.126;210
2024-05-25T23:11:18.303;599617207238293072;4914.8174;189
2024-05-25T23:11:18.311;599617207245984444;4922.509;194
2024-05-25T23:11:18.319;599617207253675816;4930.2;238
2024-05-25T23:11:18.326;599617207261367188;4937.891;254
2024-05-25T23:11:18.334;599617207269058560;4945.5825;247
2024-05-25T23:11:18.342;599617207276749932;4953.2744;261
2024-05-25T23:11:18.349;599617207284441304;4960.966;268
2024-05-25T23:11:18.357;599617207292132676;4968.6567;261
2024-05-25T23:11:18.365;599617207299824048;4976.348;280
2024-05-25T23:11:18.373;599617207307515420;4984.0396;300
2024-05-25T23:11:18.380;599617207315206792;4991.731;300
2024-05-25T23:11:18.388;599617207322898164;4999.4224;300
2024-05-25T23:11:18.396;599617207330589536;5007.114;307
2024-05-25T23:11:18.403;599617207338280908;5014.805;307
2024-05-25T23:11:18.411;599617207345972280;5022.496;317
2024-05-25T23:11:18.419;599617207353663652;5030.188;333
2024-05-25T23:11:18.426;599617207361355024;5037.8794;361
2024-05-25T23:11:18.434;599617207369046396;5045.571;393
2024-05-25T23:11:18.442;599617207376712720;5053.237;377
2024-05-25T23:11:18.449;599617207384404440;5060.9287;347
2024-05-25T23:11:18.457;599617207392096160;5068.62;372
2024-05-25T23:11:18.465;599617207399787880;5076.312;395
2024-05-25T23:11:18.473;599617207407479600;5084.004;395
2024-05-25T23:11:18.480;599617207415171320;5091.696;393
2024-05-25T23:11:18.488;599617207422863040;5099.387;344
2024-05-25T23:11:18.496;599617207430554760;5107.079;273
2024-05-25T23:11:18.503;599617207438246480;5114.771;240
2024-05-25T23:11:18.511;599617207445938200;5122.4624;326
2024-05-25T23:11:18.519;599617207453629920;5130.154;664
2024-05-25T23:11:18.526;599617207461321640;5137.8457;1039
2024-05-25T23:11:18.534;599617207469013360;5145.5376;919
2024-05-25T23:11:18.542;599617207476705080;5153.2295;354
2024-05-25T23:11:18.549;599617207484396800;5160.921;9
2024-05-25T23:11:18.557;599617207492088520;5168.613;53
2024-05-25T23:11:18.565;599617207499780240;5176.3047;50
2024-05-25T23:11:18.572;599617207507471960;5183.9966;-55
2024-05-25T23:11:18.580;599617207515163680;5191.6875;-39
2024-05-25T23:11:18.588;599617207522855400;5199.3794;6
2024-05-25T23:11:18.596;599617207530547120;5207.0713;-4
2024-05-25T23:11:18.603;599617207538238840;5214.763;9
2024-05-25T23:11:18.611;599617207545930560;5222.4546;53
2024-05-25T23:11:18.619;599617207553622280;5230.1465;53
2024-05-25T23:11:18.626;599617207561314000;5237.8384;34
2024-05-25T23:11:18.634;599617207569005720;5245.5303;53
2024-05-25T23:11:18.642;599617207576697440;5253.2217;97
2024-05-25T23:11:18.649;599617207584389160;5260.913;120
2024-05-25T23:11:18.657;599617207592080880;5268.605;122
2024-05-25T23:11:18.665;599617207599772600;5276.297;115
2024-05-25T23:11:18.672;599617207607464320;5283.9883;101
2024-05-25T23:11:18.680;599617207615156040;5291.68;87
2024-05-25T23:11:18.688;599617207622847760;5299.372;60
2024-05-25T23:11:18.696;599617207630539480;5307.064;27
2024-05-25T23:11:18.703;599617207638231200;5314.7554;34
2024-05-25T23:11:18.711;599617207645922920;5322.4473;50
2024-05-25T23:11:18.719;599617207653614640;5330.1387;27
2024-05-25T23:11:18.726;599617207661306360;5337.8306;-6
2024-05-25T23:11:18.734;599617207668998080;5345.522;-32
2024-05-25T23:11:18.742;599617207676689800;5353.214;-50
2024-05-25T23:11:18.749;599617207684381520;5360.906;-39
2024-05-25T23:11:18.757;599617207692073240;5368.5977;-13
2024-05-25T23:11:18.765;599617207699764960;5376.289;-13
2024-05-25T23:11:18.772;599617207707456680;5383.981;-32
2024-05-25T23:11:18.780;599617207715148400;5391.673;-27
2024-05-25T23:11:18.788;599617207722840120;5399.3643;16
2024-05-25T23:11:18.796;599617207730531840;5407.0557;39
2024-05-25T23:11:18.803;599617207738223560;5414.7476;23
2024-05-25T23:11:18.811;599617207745915280;5422.4395;9
2024-05-25T23:11:18.819;599617207753607000;5430.1313;27
2024-05-25T23:11:18.826;599617207761298720;5437.8228;60
2024-05-25T23:11:18.834;599617207768990440;5445.5146;81
2024-05-25T23:11:18.842;599617207776682160;5453.2065;104
2024-05-25T23:11:18.849;599617207784373880;5460.8984;136
2024-05-25T23:11:18.857;599617207792065600;5468.5894;145
2024-05-25T23:11:18.865;599617207799757320;5476.2812;129
2024-05-25T23:11:18.872;599617207807449040;5483.973;138
2024-05-25T23:11:18.880;599617207815140760;5491.665;182
2024-05-25T23:11:18.888;599617207822832480;5499.3564;210
2024-05-25T23:11:18.896;599617207830524200;5507.0483;206
2024-05-25T23:11:18.903;599617207838215920;5514.74;194
2024-05-25T23:11:18.911;599617207845907640;5522.432;206
2024-05-25T23:11:18.919;599617207853599360;5530.1235;238
2024-05-25T23:11:18.926;599617207861291080;5537.8154;245
2024-05-25T23:11:18.934;599617207868982800;5545.507;238
2024-05-25T23:11:18.942;599617207876674520;5553.1987;252
2024-05-25T23:11:18.949;599617207884366240;5560.89;266
2024-05-25T23:11:18.957;599617207892057960;5568.582;256
2024-05-25T23:11:18.965;599617207899749680;5576.274;254
2024-05-25T23:11:18.972;599617207907441400;5583.966;240
2024-05-25T23:11:18.980;599617207915133120;5591.6577;196
2024-05-25T23:11:18.988;599617207922824840;5599.349;178
2024-05-25T23:11:18.996;599617207930516560;5607.041;203
2024-05-25T23:11:19.003;599617207938228402;5614.753;229
2024-05-25T23:11:19.011;599617207945919843;5622.444;254
2024-05-25T23:11:19.019;599617207953611284;5630.1353;263
2024-05-25T23:11:19.026;599617207961302725;5637.827;226
2024-05-25T23:11:19.034;599617207968994166;5645.5186;145
2024-05-25T23:11:19.042;599617207976685607;5653.2095;53
2024-05-25T23:11:19.049;599617207984377048;5660.9014;-4
2024-05-25T23:11:19.057;599617207992068489;5668.593;-6
2024-05-25T23:11:19.065;599617207999759930;5676.2837;16
2024-05-25T23:11:19.072;599617208007451371;5683.9756;27
2024-05-25T23:11:19.080;599617208015142812;5691.667;18
2024-05-25T23:11:19.088;599617208022834253;5699.359;87
2024-05-25T23:11:19.096;599617208030525694;5707.05;370
2024-05-25T23:11:19.103;599617208038217135;5714.741;805
2024-05-25T23:11:19.111;599617208045908576;5722.433;981
2024-05-25T23:11:19.119;599617208053600017;5730.1245;613
2024-05-25T23:11:19.126;599617208061291458;5737.8154;152
2024-05-25T23:11:19.134;599617208068982899;5745.5073;76
2024-05-25T23:11:19.142;599617208076674340;5753.1987;155
2024-05-25T23:11:19.149;599617208084365781;5760.8896;129
2024-05-25T23:11:19.157;599617208092057222;5768.5815;99
2024-05-25T23:11:19.165;599617208099748663;5776.273;83
2024-05-25T23:11:19.172;599617208107440104;5783.9644;53
2024-05-25T23:11:19.180;599617208115131545;5791.656;67
2024-05-25T23:11:19.188;599617208122822986;5799.347;90
2024-05-25T23:11:19.196;599617208130514427;5807.0386;83
2024-05-25T23:11:19.203;599617208138205868;5814.7305;101
2024-05-25T23:11:19.211;599617208145897309;5822.4214;138
2024-05-25T23:11:19.219;599617208153588750;5830.113;120
2024-05-25T23:11:19.226;599617208161280191;5837.8047;53
2024-05-25T23:11:19.234;599617208168971632;5845.4956;39
2024-05-25T23:11:19.242;599617208176663073;5853.187;87
2024-05-25T23:11:19.249;599617208184354514;5860.879;125
2024-05-25T23:11:19.257;599617208192045955;5868.5703;127
2024-05-25T23:11:19.265;599617208199737396;5876.261;131
2024-05-25T23:11:19.272;599617208207428837;5883.953;134
2024-05-25T23:11:19.280;599617208215120278;5891.6445;111
2024-05-25T23:11:19.288;599617208222811719;5899.3364;83
2024-05-25T23:11:19.296;599617208230503160;5907.0273;64
2024-05-25T23:11:19.303;599617208238194601;5914.7188;43
2024-05-25T23:11:19.311;599617208245886042;5922.4106;23
2024-05-25T23:11:19.319;599617208253577483;5930.1016;6
2024-05-25T23:11:19.326;599617208261268924;5937.793;9
2024-05-25T23:11:19.334;599617208268960365;5945.485;25
2024-05-25T23:11:19.342;599617208276651806;5953.1763;39
2024-05-25T23:11:19.349;599617208284343247;5960.867;43
2024-05-25T23:11:19.357;599617208292034688;5968.559;34
2024-05-25T23:11:19.365;599617208299726129;5976.2505;20
2024-05-25T23:11:19.372;599617208307417570;5983.9414;23
2024-05-25T23:11:19.380;599617208315109011;5991.6333;27
2024-05-25T23:11:19.388;599617208322800452;5999.3247;41
2024-05-25T23:11:19.396;599617208330491893;6007.016;76
2024-05-25T23:11:19.403;599617208338183334;6014.7075;87
2024-05-25T23:11:19.411;599617208345874775;6022.399;69
2024-05-25T23:11:19.419;599617208353566216;6030.0903;81
2024-05-25T23:11:19.426;599617208361257657;6037.782;115
2024-05-25T23:11:19.434;599617208368949098;6045.473;127
2024-05-25T23:11:19.442;599617208376640539;6053.1646;131
2024-05-25T23:11:19.449;599617208384331980;6060.8564;143
2024-05-25T23:11:19.457;599617208392023421;6068.5474;150
2024-05-25T23:11:19.465;599617208399714862;6076.239;148
2024-05-25T23:11:19.472;599617208407406303;6083.9307;131
2024-05-25T23:11:19.480;599617208415097744;6091.622;120
2024-05-25T23:11:19.488;599617208422789185;6099.313;138
2024-05-25T23:11:19.496;599617208430480626;6107.005;148
2024-05-25T23:11:19.503;599617208438172067;6114.6963;134
2024-05-25T23:11:19.511;599617208445863508;6122.388;150
2024-05-25T23:11:19.519;599617208453554949;6130.079;182
2024-05-25T23:11:19.526;599617208461246390;6137.7705;180
2024-05-25T23:11:19.534;599617208468937831;6145.4624;115
2024-05-25T23:11:19.542;599617208476629272;6153.1533;39
2024-05-25T23:11:19.549;599617208484320713;6160.8447;23
2024-05-25T23:11:19.557;599617208492012154;6168.5366;46
2024-05-25T23:11:19.565;599617208499708622;6176.233;64
2024-05-25T23:11:19.572;599617208507399994;6183.9243;101
2024-05-25T23:11:19.580;599617208515091366;6191.6157;155
2024-05-25T23:11:19.588;599617208522782738;6199.3066;169
2024-05-25T23:11:19.595;599617208530474110;6206.9985;138
2024-05-25T23:11:19.603;599617208538165482;6214.69;141
2024-05-25T23:11:19.611;599617208545856854;6222.381;145
2024-05-25T23:11:19.619;599617208553548226;6230.0723;99
2024-05-25T23:11:19.626;599617208561239598;6237.7637;74
2024-05-25T23:11:19.634;599617208568930970;6245.4556;108
2024-05-25T23:11:19.642;599617208576622342;6253.1465;99
2024-05-25T23:11:19.649;599617208584313714;6260.838;50
2024-05-25T23:11:19.657;599617208592005086;6268.5293;78
2024-05-25T23:11:19.665;599617208599696458;6276.2207;259
2024-05-25T23:11:19.672;599617208607387830;6283.912;641
2024-05-25T23:11:19.680;599617208615079202;6291.6035;1011
2024-05-25T23:11:19.688;599617208622770574;6299.295;926
2024-05-25T23:11:19.695;599617208630461946;6306.986;442
2024-05-25T23:11:19.703;599617208638153318;6314.6777;162
2024-05-25T23:11:19.711;599617208645844690;6322.369;222
2024-05-25T23:11:19.719;599617208653536062;6330.06;213
2024-05-25T23:11:19.726;599617208661227434;6337.7515;94
2024-05-25T23:11:19.734;599617208668918806;6345.443;64
2024-05-25T23:11:19.742;599617208676610178;6353.135;57
2024-05-25T23:11:19.749;599617208684301550;6360.8257;50
2024-05-25T23:11:19.757;599617208691992922;6368.517;85
2024-05-25T23:11:19.765;599617208699684294;6376.2085;104
2024-05-25T23:11:19.772;599617208707375666;6383.8994;85
2024-05-25T23:11:19.780;599617208715067038;6391.5913;94
2024-05-25T23:11:19.788;599617208722758410;6399.2827;127
2024-05-25T23:11:19.795;599617208730449782;6406.974;127
2024-05-25T23:11:19.803;599617208738141154;6414.665;118
2024-05-25T23:11:19.811;599617208745832526;6422.357;159
2024-05-25T23:11:19.819;599617208753523898;6430.0483;196
2024-05-25T23:11:19.826;599617208761215270;6437.7397;166
2024-05-25T23:11:19.834;599617208768906642;6445.4307;150
2024-05-25T23:11:19.842;599617208776598014;6453.122;175
2024-05-25T23:11:19.849;599617208784289386;6460.814;166
2024-05-25T23:11:19.857;599617208791980758;6468.505;131
2024-05-25T23:11:19.865;599617208799672130;6476.1963;90
2024-05-25T23:11:19.872;599617208807363502;6483.8877;41
2024-05-25T23:11:19.880;599617208815054874;6491.579;20
2024-05-25T23:11:19.888;599617208822746246;6499.2705;34
2024-05-25T23:11:19.895;599617208830437618;6506.962;41
2024-05-25T23:11:19.903;599617208838128990;6514.6533;50
2024-05-25T23:11:19.911;599617208845820362;6522.344;53
2024-05-25T23:11:19.919;599617208853511734;6530.0356;20
2024-05-25T23:11:19.926;599617208861203106;6537.7275;-4
2024-05-25T23:11:19.934;599617208868894478;6545.419;25
2024-05-25T23:11:19.942;599617208876585850;6553.11;50
2024-05-25T23:11:19.949;599617208884277222;6560.8013;30
2024-05-25T23:11:19.957;599617208891968594;6568.493;0
2024-05-25T23:11:19.965;599617208899659966;6576.184;-37
2024-05-25T23:11:19.972;599617208907351338;6583.8755;-71
2024-05-25T23:11:19.980;599617208915042710;6591.567;-64
2024-05-25T23:11:19.988;599617208922734082;6599.2583;-25
2024-05-25T23:11:19.995;599617208930425454;6606.9497;25
2024-05-25T23:11:20.003;599617208938116826;6614.641;48
2024-05-25T23:11:20.011;599617208945808198;6622.3325;34
2024-05-25T23:11:20.019;599617208953499570;6630.0234;34
2024-05-25T23:11:20.026;599617208961190942;6637.715;71
2024-05-25T23:11:20.034;599617208968882314;6645.4067;97
2024-05-25T23:11:20.042;599617208976573686;6653.098;55
2024-05-25T23:11:20.049;599617208984265058;6660.789;-13
2024-05-25T23:11:20.057;599617208991956430;6668.4805;-18
2024-05-25T23:11:20.065;599617208999647802;6676.172;6
2024-05-25T23:11:20.072;599617209007339174;6683.864;23
2024-05-25T23:11:20.080;599617209015030546;6691.5547;57
2024-05-25T23:11:20.088;599617209022721918;6699.246;92
2024-05-25T23:11:20.095;599617209030413290;6706.9375;83
2024-05-25T23:11:20.103;599617209038104662;6714.629;60
2024-05-25T23:11:20.111;599617209045796034;6722.3203;60
2024-05-25T23:11:20.119;599617209053487406;6730.0117;92
2024-05-25T23:11:20.126;599617209061168778;6737.6934;120
2024-05-25T23:11:20.134;599617209068860289;6745.3843;138
2024-05-25T23:11:20.142;599617209076551800;6753.076;164
2024-05-25T23:11:20.149;599617209084243311;6760.7676;162
2024-05-25T23:11:20.157;599617209091934822;6768.4595;85
2024-05-25T23:11:20.165;599617209099626333;6776.1504;20
2024-05-25T23:11:20.172;599617209107317844;6783.8423;71
2024-05-25T23:11:20.180;599617209115009355;6791.5337;125
2024-05-25T23:11:20.188;599617209122700866;6799.2246;92
2024-05-25T23:11:20.195;599617209130392377;6806.9165;71
2024-05-25T23:11:20.203;599617209138083888;6814.608;92
2024-05-25T23:11:20.211;599617209145775399;6822.3;62
2024-05-25T23:11:20.218;599617209153466910;6829.9907;-4
2024-05-25T23:11:20.226;599617209161158421;6837.6826;39
2024-05-25T23:11:20.234;599617209168849932;6845.374;287
2024-05-25T23:11:20.242;599617209176541443;6853.066;703
2024-05-25T23:11:20.249;599617209184232954;6860.757;979
2024-05-25T23:11:20.257;599617209191924465;6868.4487;759
2024-05-25T23:11:20.265;599617209199615976;6876.14;277
2024-05-25T23:11:20.272;599617209207307487;6883.832;101
2024-05-25T23:11:20.280;599617209214998998;6891.523;187
2024-05-25T23:11:20.288;599617209222690509;6899.215;152
2024-05-25T23:11:20.295;599617209230382020;6906.9062;64
2024-05-25T23:11:20.303;599617209238073531;6914.5977;74
2024-05-25T23:11:20.311;599617209245765042;6922.289;71
2024-05-25T23:11:20.318;599617209253456553;6929.981;57
2024-05-25T23:11:20.326;599617209261148064;6937.6724;85
2024-05-25T23:11:20.334;599617209268839575;6945.364;92
2024-05-25T23:11:20.342;599617209276531086;6953.055;74
2024-05-25T23:11:20.349;599617209284222597;6960.747;97
2024-05-25T23:11:20.357;599617209291914108;6968.4385;134
2024-05-25T23:11:20.365;599617209299605619;6976.13;145
2024-05-25T23:11:20.372;599617209307297130;6983.8213;148
2024-05-25T23:11:20.380;599617209314988641;6991.513;150
2024-05-25T23:11:20.388;599617209322680152;6999.2046;155
2024-05-25T23:11:20.395;599617209330371663;7006.896;166
2024-05-25T23:11:20.403;599617209338063174;7014.5874;187
2024-05-25T23:11:20.411;599617209345754685;7022.279;180
2024-05-25T23:11:20.418;599617209353446196;7029.97;136
2024-05-25T23:11:20.426;599617209361137707;7037.6616;90
2024-05-25T23:11:20.434;599617209368829218;7045.3535;55
2024-05-25T23:11:20.442;599617209376520729;7053.045;46
2024-05-25T23:11:20.449;599617209384212240;7060.7363;37
2024-05-25T23:11:20.457;599617209391903751;7068.4277;-9
2024-05-25T23:11:20.465;599617209399595262;7076.1196;-27
2024-05-25T23:11:20.472;599617209407286773;7083.811;-4
2024-05-25T23:11:20.480;599617209414978284;7091.5024;-9
2024-05-25T23:11:20.488;599617209422669795;7099.194;-13
2024-05-25T23:11:20.495;599617209430361306;7106.8857;0
2024-05-25T23:11:20.503;599617209438052817;7114.5767;16
2024-05-25T23:11:20.511;599617209445744328;7122.2686;18
2024-05-25T23:11:20.518;599617209453435839;7129.96;2
2024-05-25T23:11:20.526;599617209461127350;7137.652;0
2024-05-25T23:11:20.534;599617209468818861;7145.343;32
2024-05-25T23:11:20.542;599617209476510372;7153.0347;60
2024-05-25T23:11:20.549;599617209484201883;7160.726;34
2024-05-25T23:11:20.557;599617209491893394;7168.418;-25
2024-05-25T23:11:20.565;599617209499584905;7176.109;-43
2024-05-25T23:11:20.572;599617209507276416;7183.801;-13
2024-05-25T23:11:20.580;599617209514967927;7191.492;6
2024-05-25T23:11:20.588;599617209522659438;7199.184;23
2024-05-25T23:11:20.595;599617209530350949;7206.875;60
2024-05-25T23:11:20.603;599617209538042460;7214.567;81
2024-05-25T23:11:20.611;599617209545733971;7222.2583;62
2024-05-25T23:11:20.618;599617209553425482;7229.95;74
2024-05-25T23:11:20.626;599617209561116993;7237.641;120
2024-05-25T23:11:20.634;599617209568808504;7245.3325;127
2024-05-25T23:11:20.642;599617209576500015;7253.0244;113
2024-05-25T23:11:20.649;599617209584191526;7260.7153;141
2024-05-25T23:11:20.657;599617209591883037;7268.407;169
2024-05-25T23:11:20.665;599617209599574548;7276.0986;152
2024-05-25T23:11:20.672;599617209607266059;7283.7905;145
2024-05-25T23:11:20.680;599617209614957570;7291.4814;187
2024-05-25T23:11:20.688;599617209622639106;7299.163;229
2024-05-25T23:11:20.695;599617209630330756;7306.855;226
2024-05-25T23:11:20.703;599617209638022406;7314.547;196
2024-05-25T23:11:20.711;599617209645714056;7322.2383;185
2024-05-25T23:11:20.718;599617209653405706;7329.9297;196
2024-05-25T23:11:20.726;599617209661097356;7337.6216;194
2024-05-25T23:11:20.734;599617209668789006;7345.3135;201
2024-05-25T23:11:20.742;599617209676480656;7353.005;240
2024-05-25T23:11:20.749;599617209684172306;7360.6963;236
2024-05-25T23:11:20.757;599617209691863956;7368.388;138
2024-05-25T23:11:20.765;599617209699555606;7376.08;64
2024-05-25T23:11:20.772;599617209707247256;7383.7715;87
2024-05-25T23:11:20.780;599617209714938906;7391.463;213
2024-05-25T23:11:20.788;599617209722630556;7399.155;520
2024-05-25T23:11:20.795;599617209730322206;7406.8467;928
2024-05-25T23:11:20.803;599617209738013856;7414.538;995
2024-05-25T23:11:20.811;599617209745705506;7422.2295;560
2024-05-25T23:11:20.818;599617209753397156;7429.9214;166
2024-05-25T23:11:20.826;599617209761088806;7437.6133;199
2024-05-25T23:11:20.834;599617209768780456;7445.3047;275
2024-05-25T23:11:20.841;599617209776472106;7452.996;169
2024-05-25T23:11:20.849;599617209784163756;7460.688;131
2024-05-25T23:11:20.857;599617209791855406;7468.38;192
2024-05-25T23:11:20.865;599617209799547056;7476.0713;175
2024-05-25T23:11:20.872;599617209807238706;7483.7627;125
2024-05-25T23:11:20.880;599617209814930356;7491.4546;122
2024-05-25T23:11:20.888;599617209822622006;7499.146;129
2024-05-25T23:11:20.895;599617209830313656;7506.838;129
2024-05-25T23:11:20.903;599617209838005306;7514.5293;136
2024-05-25T23:11:20.911;599617209845696956;7522.221;134
2024-05-25T23:11:20.918;599617209853388606;7529.9126;145
2024-05-25T23:11:20.926;599617209861080256;7537.6045;182
2024-05-25T23:11:20.934;599617209868771906;7545.296;178
2024-05-25T23:11:20.941;599617209876463556;7552.988;129
2024-05-25T23:11:20.949;599617209884155206;7560.679;97
2024-05-25T23:11:20.957;599617209891846856;7568.371;111
2024-05-25T23:11:20.965;599617209899538506;7576.063;138
2024-05-25T23:11:20.972;599617209907230156;7583.7544;134
2024-05-25T23:11:20.980;599617209914921806;7591.446;94
2024-05-25T23:11:20.988;599617209922613456;7599.1377;69
2024-05-25T23:11:20.995;599617209930305106;7606.8296;62
2024-05-25T23:11:21.003;599617209937996756;7614.521;34
2024-05-25T23:11:21.011;599617209945688406;7622.2124;11
2024-05-25T23:11:21.018;599617209953380056;7629.9043;6
2024-05-25T23:11:21.026;599617209961071706;7637.596;-9
2024-05-25T23:11:21.034;599617209968763356;7645.2876;-16
2024-05-25T23:11:21.041;599617209976455006;7652.979;0
2024-05-25T23:11:21.049;599617209984146656;7660.671;-53
2024-05-25T23:11:21.057;599617209991838306;7668.363;-159
2024-05-25T23:11:21.065;599617209999529956;7676.054;-175
2024-05-25T23:11:21.072;599617210007221606;7683.7456;-143
2024-05-25T23:11:21.080;599617210014913256;7691.4375;-157
2024-05-25T23:11:21.088;599617210022604906;7699.1294;-148
2024-05-25T23:11:21.095;599617210030296556;7706.821;-94
2024-05-25T23:11:21.103;599617210037988206;7714.512;-60
2024-05-25T23:11:21.111;599617210045679856;7722.204;-67
2024-05-25T23:11:21.118;599617210053371506;7729.896;-78
2024-05-25T23:11:21.126;599617210061063156;7737.5874;-50
2024-05-25T23:11:21.134;599617210068754806;7745.279;-6
2024-05-25T23:11:21.141;599617210076446456;7752.9707;6
2024-05-25T23:11:21.149;599617210084138106;7760.6626;11
2024-05-25T23:11:21.157;599617210091829756;7768.354;37
2024-05-25T23:11:21.165;599617210099521406;7776.0454;55
2024-05-25T23:11:21.172;599617210107213056;7783.7373;64
2024-05-25T23:11:21.180;599617210114904706;7791.429;74
2024-05-25T23:11:21.188;599617210122596356;7799.1206;69
2024-05-25T23:11:21.195;599617210130288006;7806.812;39
2024-05-25T23:11:21.203;599617210137979656;7814.504;18
2024-05-25T23:11:21.211;599617210145671306;7822.196;37
2024-05-25T23:11:21.218;599617210153362956;7829.887;64
2024-05-25T23:11:21.226;599617210161054606;7837.5786;101
2024-05-25T23:11:21.234;599617210168746256;7845.2705;141
2024-05-25T23:11:21.241;599617210176437906;7852.9624;150
2024-05-25T23:11:21.249;599617210184149632;7860.674;155
2024-05-25T23:11:21.257;599617210191841004;7868.365;159
2024-05-25T23:11:21.265;599617210199532376;7876.0566;152
2024-05-25T23:11:21.272;599617210207223748;7883.748;159
2024-05-25T23:11:21.280;599617210214915120;7891.439;192
2024-05-25T23:11:21.288;599617210222606492;7899.131;219
2024-05-25T23:11:21.295;599617210230297864;7906.8223;194
2024-05-25T23:11:21.303;599617210237989236;7914.513;138
2024-05-25T23:11:21.311;599617210245680608;7922.2046;201
2024-05-25T23:11:21.318;599617210253371980;7929.8965;509
2024-05-25T23:11:21.326;599617210261063352;7937.588;882
2024-05-25T23:11:21.334;599617210268754724;7945.279;937
2024-05-25T23:11:21.341;599617210276446096;7952.97;574
2024-05-25T23:11:21.349;599617210284137468;7960.6616;175
2024-05-25T23:11:21.357;599617210291828840;7968.3535;106
2024-05-25T23:11:21.365;599617210299520212;7976.0444;173
2024-05-25T23:11:21.372;599617210307211584;7983.736;136
2024-05-25T23:11:21.380;599617210314902956;7991.4272;125
2024-05-25T23:11:21.388;599617210322594328;7999.118;166
2024-05-25T23:11:21.395;599617210330285700;8006.81;162
2024-05-25T23:11:21.403;599617210337977072;8014.5015;164
2024-05-25T23:11:21.411;599617210345668444;8022.193;196
2024-05-25T23:11:21.418;599617210353359816;8029.884;199
2024-05-25T23:11:21.426;599617210361051188;8037.575;189
2024-05-25T23:11:21.434;599617210368742560;8045.267;162
2024-05-25T23:11:21.441;599617210376433932;8052.958;81
2024-05-25T23:11:21.449;599617210384125304;8060.6494;37
2024-05-25T23:11:21.457;599617210391816676;8068.341;81
2024-05-25T23:11:21.465;599617210399508048;8076.0327;118
2024-05-25T23:11:21.472;599617210407199420;8083.7236;120
2024-05-25T23:11:21.480;599617210414890792;8091.415;129
2024-05-25T23:11:21.488;599617210422582164;8099.1064;150
2024-05-25T23:11:21.495;599617210430273536;8106.7974;162
2024-05-25T23:11:21.503;599617210437964908;8114.4893;171
2024-05-25T23:11:21.511;599617210445656280;8122.1807;185
2024-05-25T23:11:21.518;599617210453347652;8129.872;215
2024-05-25T23:11:21.526;599617210461039024;8137.563;240
2024-05-25T23:11:21.534;599617210468730396;8145.2544;224
2024-05-25T23:11:21.541;599617210476421768;8152.9463;169
2024-05-25T23:11:21.549;599617210484113140;8160.637;111
2024-05-25T23:11:21.557;599617210491804512;8168.3286;23
2024-05-25T23:11:21.565;599617210499495884;8176.02;-69
2024-05-25T23:11:21.572;599617210507187256;8183.7114;-101
2024-05-25T23:11:21.580;599617210514878628;8191.403;-92
2024-05-25T23:11:21.588;599617210522570000;8199.095;-99
2024-05-25T23:11:21.595;599617210530261372;8206.785;-101
2024-05-25T23:11:21.603;599617210537952744;8214.477;-76
2024-05-25T23:11:21.611;599617210545644116;8222.169;-48
2024-05-25T23:11:21.618;599617210553335488;8229.859;-34
2024-05-25T23:11:21.626;599617210561026860;8237.551;-37
2024-05-25T23:11:21.634;599617210568718232;8245.242;-41
2024-05-25T23:11:21.641;599617210576409604;8252.934;-6
2024-05-25T23:11:21.649;599617210584100976;8260.625;34
2024-05-25T23:11:21.657;599617210591792348;8268.316;41
2024-05-25T23:11:21.665;599617210599483720;8276.008;46
2024-05-25T23:11:21.672;599617210607175092;8283.699;67
2024-05-25T23:11:21.680;599617210614866464;8291.391;74
2024-05-25T23:11:21.688;599617210622557836;8299.082;53
2024-05-25T23:11:21.695;599617210630249208;8306.773;50
2024-05-25T23:11:21.703;599617210637940580;8314.465;90
2024-05-25T23:11:21.711;599617210645631952;8322.156;113
2024-05-25T23:11:21.718;599617210653323324;8329.848;90
2024-05-25T23:11:21.726;599617210661014696;8337.539;99
2024-05-25T23:11:21.734;599617210668706068;8345.23;159
2024-05-25T23:11:21.741;599617210676397440;8352.922;196
2024-05-25T23:11:21.749;599617210684088812;8360.613;196
2024-05-25T23:11:21.757;599617210691780184;8368.305;215
2024-05-25T23:11:21.764;599617210699471556;8375.996;245
2024-05-25T23:11:21.772;599617210707162928;8383.6875;247
2024-05-25T23:11:21.780;599617210714854300;8391.379;240
2024-05-25T23:11:21.788;599617210722545672;8399.069;254
2024-05-25T23:11:21.795;599617210730237044;8406.762;289
2024-05-25T23:11:21.803;599617210737928416;8414.453;314
2024-05-25T23:11:21.811;599617210745619796;8422.144;287
2024-05-25T23:11:21.818;599617210753311168;8429.835;252
2024-05-25T23:11:21.826;599617210761002540;8437.526;254
2024-05-25T23:11:21.834;599617210768693912;8445.219;289
2024-05-25T23:11:21.841;599617210776385284;8452.909;460
2024-05-25T23:11:21.849;599617210784076656;8460.601;852
2024-05-25T23:11:21.857;599617210791768028;8468.292;1139
2024-05-25T23:11:21.864;599617210799459400;8475.983;886
2024-05-25T23:11:21.872;599617210807150772;8483.675;340
2024-05-25T23:11:21.880;599617210814842144;8491.366;162
2024-05-25T23:11:21.888;599617210822533516;8499.058;296
2024-05-25T23:11:21.895;599617210830224888;8506.749;266
2024-05-25T23:11:21.903;599617210837916260;8514.44;166
2024-05-25T23:11:21.911;599617210845607632;8522.132;215
2024-05-25T23:11:21.918;599617210853299004;8529.823;259
2024-05-25T23:11:21.926;599617210860990376;8537.515;238
2024-05-25T23:11:21.934;599617210868681748;8545.206;231
2024-05-25T23:11:21.941;599617210876373120;8552.897;219
2024-05-25T23:11:21.949;599617210884064492;8560.589;215
2024-05-25T23:11:21.957;599617210891755864;8568.28;224
2024-05-25T23:11:21.964;599617210899447236;8575.972;240
2024-05-25T23:11:21.972;599617210907138608;8583.662;277
2024-05-25T23:11:21.980;599617210914829980;8591.354;312
2024-05-25T23:11:21.988;599617210922521352;8599.045;314
2024-05-25T23:11:21.995;599617210930212724;8606.737;303
2024-05-25T23:11:22.003;599617210937904096;8614.429;282
2024-05-25T23:11:22.011;599617210945595468;8622.12;259
2024-05-25T23:11:22.018;599617210953286840;8629.812;263
2024-05-25T23:11:22.026;599617210960978212;8637.503;289
2024-05-25T23:11:22.034;599617210968669584;8645.193;289
2024-05-25T23:11:22.041;599617210976360956;8652.885;268
2024-05-25T23:11:22.049;599617210984052328;8660.576;252
2024-05-25T23:11:22.057;599617210991743700;8668.268;213
2024-05-25T23:11:22.064;599617210999435072;8675.959;143
2024-05-25T23:11:22.072;599617211007126444;8683.651;129
2024-05-25T23:11:22.080;599617211014817816;8691.343;152
2024-05-25T23:11:22.088;599617211022509188;8699.033;138
2024-05-25T23:11:22.095;599617211030200560;8706.725;125
2024-05-25T23:11:22.103;599617211037891932;8714.416;143
2024-05-25T23:11:22.111;599617211045583304;8722.107;134
2024-05-25T23:11:22.118;599617211053274676;8729.799;97
2024-05-25T23:11:22.126;599617211060966048;8737.49;67
2024-05-25T23:11:22.134;599617211068657420;8745.182;27
2024-05-25T23:11:22.141;599617211076348792;8752.873;-27
2024-05-25T23:11:22.149;599617211084040164;8760.564;-46
2024-05-25T23:11:22.157;599617211091731536;8768.256;-25
2024-05-25T23:11:22.164;599617211099422908;8775.947;-6
2024-05-25T23:11:22.172;599617211107114280;8783.639;-25
2024-05-25T23:11:22.180;599617211114805652;8791.33;-90
2024-05-25T23:11:22.188;599617211122497024;8799.021;-111
2024-05-25T23:11:22.195;599617211130188396;8806.712;-67
2024-05-25T23:11:22.203;599617211137879768;8814.403;-55
2024-05-25T23:11:22.211;599617211145571140;8822.095;-60
2024-05-25T23:11:22.218;599617211153262512;8829.787;-30
2024-05-25T23:11:22.226;599617211160953884;8837.479;-20
2024-05-25T23:11:22.234;599617211168645256;8845.17;-23
2024-05-25T23:11:22.241;599617211176336628;8852.861;2
2024-05-25T23:11:22.249;599617211184028000;8860.552;27
2024-05-25T23:11:22.257;599617211191719372;8868.243;37
2024-05-25T23:11:22.264;599617211199410744;8875.935;48
2024-05-25T23:11:22.272;599617211207102116;8883.626;83
2024-05-25T23:11:22.280;599617211214793488;8891.317;120
2024-05-25T23:11:22.288;599617211222484860;8899.01;118
2024-05-25T23:11:22.295;599617211230176232;8906.701;99
2024-05-25T23:11:22.303;599617211237867604;8914.392;115
2024-05-25T23:11:22.311;599617211245558976;8922.083;159
2024-05-25T23:11:22.318;599617211253250348;8929.774;175
2024-05-25T23:11:22.326;599617211260941720;8937.466;169
2024-05-25T23:11:22.334;599617211268633092;8945.157;182
2024-05-25T23:11:22.341;599617211276324464;8952.849;166
2024-05-25T23:11:22.349;599617211284015836;8960.54;129
2024-05-25T23:11:22.357;599617211291707208;8968.232;270
2024-05-25T23:11:22.364;599617211299398580;8975.923;664
2024-05-25T23:11:22.372;599617211307059864;8983.584;1000
2024-05-25T23:11:22.380;599617211314751654;8991.276;909
2024-05-25T23:11:22.387;599617211322443444;8998.968;474
2024-05-25T23:11:22.395;599617211330135234;9006.659;210
2024-05-25T23:11:22.403;599617211337827024;9014.351;268
2024-05-25T23:11:22.411;599617211345518814;9022.043;289
2024-05-25T23:11:22.418;599617211353210604;9029.734;194
2024-05-25T23:11:22.426;599617211360902394;9037.427;155
2024-05-25T23:11:22.434;599617211368594184;9045.118;108
2024-05-25T23:11:22.441;599617211376285974;9052.811;25
2024-05-25T23:11:22.449;599617211383977764;9060.502;25
2024-05-25T23:11:22.457;599617211391669554;9068.193;74
2024-05-25T23:11:22.464;599617211399361344;9075.885;74
2024-05-25T23:11:22.472;599617211407053134;9083.577;78
2024-05-25T23:11:22.480;599617211414744924;9091.27;120
2024-05-25T23:11:22.487;599617211422436714;9098.961;159
2024-05-25T23:11:22.495;599617211430128504;9106.653;164
2024-05-25T23:11:22.503;599617211437820294;9114.345;159
2024-05-25T23:11:22.511;599617211445512084;9122.037;180
2024-05-25T23:11:22.518;599617211453203874;9129.728;206
2024-05-25T23:11:22.526;599617211460895664;9137.42;224
2024-05-25T23:11:22.534;599617211468587454;9145.111;254
2024-05-25T23:11:22.541;599617211476279244;9152.804;270
2024-05-25T23:11:22.549;599617211483971034;9160.495;273
2024-05-25T23:11:22.557;599617211491662824;9168.1875;287
2024-05-25T23:11:22.564;599617211499354614;9175.879;247
2024-05-25T23:11:22.572;599617211507046404;9183.571;175
2024-05-25T23:11:22.580;599617211514738194;9191.263;159
2024-05-25T23:11:22.587;599617211522429984;9198.954;159
2024-05-25T23:11:22.595;599617211530121774;9206.6455;125
2024-05-25T23:11:22.603;599617211537813564;9214.338;115
2024-05-25T23:11:22.611;599617211545505354;9222.029;131
2024-05-25T23:11:22.618;599617211553197144;9229.722;129
2024-05-25T23:11:22.626;599617211560888934;9237.413;122
2024-05-25T23:11:22.634;599617211568580724;9245.105;145
2024-05-25T23:11:22.641;599617211576272514;9252.797;150
2024-05-25T23:11:22.649;599617211583964304;9260.488;120
2024-05-25T23:11:22.657;599617211591656094;9268.18;115
2024-05-25T23:11:22.664;599617211599347884;9275.872;136
2024-05-25T23:11:22.672;599617211607039674;9283.563;127
2024-05-25T23:11:22.680;599617211614731464;9291.256;87
2024-05-25T23:11:22.687;599617211622423254;9298.947;78
2024-05-25T23:11:22.695;599617211630115044;9306.64;85
2024-05-25T23:11:22.703;599617211637806834;9314.331;60
2024-05-25T23:11:22.711;599617211645498624;9322.022;27
2024-05-25T23:11:22.718;599617211653190414;9329.714;9
2024-05-25T23:11:22.726;599617211660882204;9337.406;-18
2024-05-25T23:11:22.734;599617211668573994;9345.098;-53
2024-05-25T23:11:22.741;599617211676265784;9352.79;-55
2024-05-25T23:11:22.749;599617211683957574;9360.482;-27
2024-05-25T23:11:22.757;599617211691649364;9368.174;-11
2024-05-25T23:11:22.764;599617211699341154;9375.866;-20
2024-05-25T23:11:22.772;599617211707032944;9383.557;-27
2024-05-25T23:11:22.780;599617211714724734;9391.249;-11
2024-05-25T23:11:22.787;599617211722416524;9398.94;18
2024-05-25T23:11:22.795;599617211730108314;9406.633;43
2024-05-25T23:11:22.803;599617211737800104;9414.324;57
2024-05-25T23:11:22.811;599617211745491894;9422.017;74
2024-05-25T23:11:22.818;599617211753183684;9429.708;69
2024-05-25T23:11:22.826;599617211760875474;9437.4;37
2024-05-25T23:11:22.834;599617211768567264;9445.092;30
2024-05-25T23:11:22.841;599617211776259054;9452.783;76
2024-05-25T23:11:22.849;599617211783950844;9460.475;115
2024-05-25T23:11:22.857;599617211791642634;9468.167;92
2024-05-25T23:11:22.864;599617211799334424;9475.858;41
2024-05-25T23:11:22.872;599617211807026214;9483.551;74
2024-05-25T23:11:22.880;599617211814718004;9491.242;305
2024-05-25T23:11:22.887;599617211822409794;9498.935;715
2024-05-25T23:11:22.895;599617211830101584;9506.626;953
2024-05-25T23:11:22.903;599617211837793374;9514.317;689
2024-05-25T23:11:22.911;599617211845485164;9522.009;233
2024-05-25T23:11:22.918;599617211853176954;9529.701;87
2024-05-25T23:11:22.926;599617211860868744;9537.393;145
2024-05-25T23:11:22.934;599617211868590642;9545.114;111
2024-05-25T23:11:22.941;599617211876282014;9552.806;81
2024-05-25T23:11:22.949;599617211883973386;9560.497;122
2024-05-25T23:11:22.957;599617211891664758;9568.189;129
2024-05-25T23:11:22.964;599617211899356130;9575.881;115
2024-05-25T23:11:22.972;599617211907047502;9583.572;101
2024-05-25T23:11:22.980;599617211914738874;9591.264;57
2024-05-25T23:11:22.987;599617211922430246;9598.954;41
2024-05-25T23:11:22.995;599617211930121618;9606.6455;92
2024-05-25T23:11:23.003;599617211937812990;9614.337;125
2024-05-25T23:11:23.011;599617211945504362;9622.028;108
2024-05-25T23:11:23.018;599617211953195734;9629.72;120
2024-05-25T23:11:23.026;599617211960887106;9637.411;164
2024-05-25T23:11:23.034;599617211968578478;9645.104;178
2024-05-25T23:11:23.041;599617211976269850;9652.794;178
2024-05-25T23:11:23.049;599617211983961222;9660.485;215
2024-05-25T23:11:23.057;599617211991652594;9668.177;250
2024-05-25T23:11:23.064;599617211999343966;9675.868;201
2024-05-25T23:11:23.072;599617212007035338;9683.56;129
2024-05-25T23:11:23.080;599617212014726710;9691.251;141
2024-05-25T23:11:23.087;599617212022418082;9698.942;182
2024-05-25T23:11:23.095;599617212030109454;9706.633;173
2024-05-25T23:11:23.103;599617212037800826;9714.325;157
2024-05-25T23:11:23.111;599617212045492198;9722.017;178
2024-05-25T23:11:23.118;599617212053183570;9729.708;196
2024-05-25T23:11:23.126;599617212060874942;9737.399;178
2024-05-25T23:11:23.134;599617212068566314;9745.091;178
2024-05-25T23:11:23.141;599617212076257686;9752.782;222
2024-05-25T23:11:23.149;599617212083949058;9760.473;224
2024-05-25T23:11:23.157;599617212091640430;9768.164;157
2024-05-25T23:11:23.164;599617212099331802;9775.855;83
2024-05-25T23:11:23.172;599617212107023174;9783.548;64
2024-05-25T23:11:23.180;599617212114714546;9791.239;83
2024-05-25T23:11:23.187;599617212122405918;9798.931;76
2024-05-25T23:11:23.195;599617212130097290;9806.622;64
2024-05-25T23:11:23.203;599617212137788662;9814.3125;85
2024-05-25T23:11:23.211;599617212145480034;9822.004;99
2024-05-25T23:11:23.218;599617212153171406;9829.695;94
2024-05-25T23:11:23.226;599617212160862778;9837.387;115
2024-05-25T23:11:23.234;599617212168554150;9845.078;138
2024-05-25T23:11:23.241;599617212176245522;9852.77;134
2024-05-25T23:11:23.249;599617212183936894;9860.462;131
2024-05-25T23:11:23.257;599617212191628266;9868.152;150
2024-05-25T23:11:23.264;599617212199319638;9875.844;166
2024-05-25T23:11:23.272;599617212207011010;9883.535;131
2024-05-25T23:11:23.280;599617212214702382;9891.227;67
2024-05-25T23:11:23.287;599617212222393754;9898.918;34
2024-05-25T23:11:23.295;599617212230085126;9906.609;25
2024-05-25T23:11:23.303;599617212237776498;9914.301;9
2024-05-25T23:11:23.310;599617212245467870;9921.991;11
2024-05-25T23:11:23.318;599617212253159242;9929.684;37
2024-05-25T23:11:23.326;599617212260850614;9937.375;39
2024-05-25T23:11:23.334;599617212268541986;9945.066;-4
2024-05-25T23:11:23.341;599617212276233358;9952.758;-27
2024-05-25T23:11:23.349;599617212283924730;9960.449;2
2024-05-25T23:11:23.357;599617212291616102;9968.141;34
2024-05-25T23:11:23.364;599617212299307474;9975.832;37
2024-05-25T23:11:23.372;599617212306998846;9983.522;13
2024-05-25T23:11:23.380;599617212314690218;9991.214;-23
2024-05-25T23:11:23.387;599617212322381590;9998.905;-50
2024-05-25T23:11:23.395;599617212330072962;10006.598;34
2024-05-25T23:11:23.403;599617212337764334;10014.289;331
2024-05-25T23:11:23.410;599617212345455706;10021.98;701
2024-05-25T23:11:23.418;599617212353147078;10029.672;754
2024-05-25T23:11:23.426;599617212360838450;10037.362;340
2024-05-25T23:11:23.434;599617212368529822;10045.054;-55
2024-05-25T23:11:23.441;599617212376221194;10052.745;-27
2024-05-25T23:11:23.449;599617212383912566;10060.437;74
2024-05-25T23:11:23.457;599617212391603938;10068.128;-16
2024-05-25T23:11:23.464;599617212399295310;10075.82;-41
2024-05-25T23:11:23.472;599617212406986682;10083.512;25
2024-05-25T23:11:23.480;599617212414678054;10091.202;13
2024-05-25T23:11:23.487;599617212422369426;10098.894;2
2024-05-25T23:11:23.495;599617212430060806;10106.585;60
2024-05-25T23:11:23.503;599617212437752178;10114.276;99
2024-05-25T23:11:23.510;599617212445443550;10121.968;69
2024-05-25T23:11:23.518;599617212453134922;10129.659;9
2024-05-25T23:11:23.526;599617212460826294;10137.351;-18
2024-05-25T23:11:23.534;599617212468517666;10145.041;20
2024-05-25T23:11:23.541;599617212476209038;10152.733;62
2024-05-25T23:11:23.549;599617212483900410;10160.425;57
2024-05-25T23:11:23.557;599617212491591782;10168.116;64
2024-05-25T23:11:23.564;599617212499283154;10175.808;97
2024-05-25T23:11:23.572;599617212506974526;10183.499;90
2024-05-25T23:11:23.580;599617212514665898;10191.19;23
2024-05-25T23:11:23.587;599617212522357270;10198.881;0
2024-05-25T23:11:23.595;599617212530048642;10206.572;64
2024-05-25T23:11:23.603;599617212537740014;10214.264;106
2024-05-25T23:11:23.610;599617212545431386;10221.956;69
2024-05-25T23:11:23.618;599617212553122758;10229.647;69
2024-05-25T23:11:23.626;599617212560814130;10237.339;138
2024-05-25T23:11:23.634;599617212568505502;10245.03;169
2024-05-25T23:11:23.641;599617212576196874;10252.721;157
2024-05-25T23:11:23.649;599617212583888246;10260.412;145
2024-05-25T23:11:23.657;599617212591579618;10268.104;99
2024-05-25T23:11:23.664;599617212599270990;10275.795;53
2024-05-25T23:11:23.672;599617212606962362;10283.486;74
2024-05-25T23:11:23.680;599617212614653734;10291.178;113
2024-05-25T23:11:23.687;599617212622345106;10298.87;129
2024-05-25T23:11:23.695;599617212630036478;10306.561;143
2024-05-25T23:11:23.703;599617212637727850;10314.252;148
2024-05-25T23:11:23.710;599617212645419222;10321.943;155
2024-05-25T23:11:23.718;599617212653110594;10329.635;164
2024-05-25T23:11:23.726;599617212660801966;10337.326;150
2024-05-25T23:11:23.734;599617212668493338;10345.018;129
2024-05-25T23:11:23.741;599617212676184710;10352.709;145
2024-05-25T23:11:23.749;599617212683876082;10360.399;152
2024-05-25T23:11:23.757;599617212691567454;10368.092;131
2024-05-25T23:11:23.764;599617212699258826;10375.783;134
2024-05-25T23:11:23.772;599617212706950198;10383.475;166
2024-05-25T23:11:23.780;599617212714641570;10391.166;175
2024-05-25T23:11:23.787;599617212722332942;10398.857;159
2024-05-25T23:11:23.795;599617212730024314;10406.549;141
2024-05-25T23:11:23.803;599617212737715686;10414.239;150
2024-05-25T23:11:23.810;599617212745407058;10421.931;171
2024-05-25T23:11:23.818;599617212753098430;10429.622;175
2024-05-25T23:11:23.826;599617212760789802;10437.313;169
2024-05-25T23:11:23.834;599617212768481174;10445.006;175
2024-05-25T23:11:23.841;599617212776172546;10452.697;169
2024-05-25T23:11:23.849;599617212783863918;10460.389;150
2024-05-25T23:11:23.857;599617212791555290;10468.08;118
2024-05-25T23:11:23.864;599617212799246662;10475.7705;53
2024-05-25T23:11:23.872;599617212806938034;10483.462;25
2024-05-25T23:11:23.880;599617212814629406;10491.153;37
2024-05-25T23:11:23.887;599617212822320778;10498.845;16
2024-05-25T23:11:23.895;599617212830012150;10506.536;-9
2024-05-25T23:11:23.903;599617212837703522;10514.229;-48
2024-05-25T23:11:23.910;599617212845394894;10521.92;-125
2024-05-25T23:11:23.918;599617212853086266;10529.61;-138
2024-05-25T23:11:23.926;599617212860777638;10537.302;20
2024-05-25T23:11:23.933;599617212868469010;10544.993;363
2024-05-25T23:11:23.941;599617212876160382;10552.685;715
2024-05-25T23:11:23.949;599617212883851754;10560.376;710
2024-05-25T23:11:23.957;599617212891543126;10568.067;275
2024-05-25T23:11:23.964;599617212899234498;10575.759;-60
2024-05-25T23:11:23.972;599617212906925870;10583.449;-23
2024-05-25T23:11:23.980;599617212914617242;10591.142;6
2024-05-25T23:11:23.987;599617212922308614;10598.833;-67
2024-05-25T23:11:23.995;599617212929999986;10606.524;-37
2024-05-25T23:11:24.003;599617212937691358;10614.216;-2
2024-05-25T23:11:24.010;599617212945382730;10621.907;-6
2024-05-25T23:11:24.018;599617212953074102;10629.599;30
2024-05-25T23:11:24.026;599617212960765474;10637.289;39
2024-05-25T23:11:24.033;599617212968456846;10644.98;16
2024-05-25T23:11:24.041;599617212976148218;10652.672;53
2024-05-25T23:11:24.049;599617212983839590;10660.364;106
2024-05-25T23:11:24.057;599617212991530970;10668.056;108
2024-05-25T23:11:24.064;599617212999222342;10675.747;104
2024-05-25T23:11:24.072;599617213006913714;10683.438;127
2024-05-25T23:11:24.080;599617213014605086;10691.129;113
2024-05-25T23:11:24.087;599617213022296458;10698.82;41
2024-05-25T23:11:24.095;599617213029987830;10706.512;30
2024-05-25T23:11:24.103;599617213037679202;10714.203;99
2024-05-25T23:11:24.110;599617213045370574;10721.895;90
2024-05-25T23:11:24.118;599617213053061946;10729.586;-18
2024-05-25T23:11:24.126;599617213060753318;10737.278;-64
2024-05-25T23:11:24.133;599617213068444690;10744.969;-9
2024-05-25T23:11:24.141;599617213076136062;10752.66;41
2024-05-25T23:11:24.149;599617213083827434;10760.352;16
2024-05-25T23:11:24.157;599617213091518806;10768.043;-9
2024-05-25T23:11:24.164;599617213099210178;10775.734;20
2024-05-25T23:11:24.172;599617213106901550;10783.426;37
2024-05-25T23:11:24.180;599617213114592922;10791.117;32
2024-05-25T23:11:24.187;599617213122284294;10798.808;48
2024-05-25T23:11:24.195;599617213129975666;10806.5;81
2024-05-25T23:11:24.203;599617213137667038;10814.191;90
2024-05-25T23:11:24.210;599617213145358410;10821.883;69
2024-05-25T23:11:24.218;599617213153049782;10829.574;64
2024-05-25T23:11:24.226;599617213160741154;10837.266;111
2024-05-25T23:11:24.233;599617213168432526;10844.957;145
2024-05-25T23:11:24.241;599617213176123898;10852.647;148
2024-05-25T23:11:24.249;599617213183815270;10860.339;162
2024-05-25T23:11:24.257;599617213191506642;10868.03;180
2024-05-25T23:11:24.264;599617213199198014;10875.722;169
2024-05-25T23:11:24.272;599617213206889386;10883.414;145
2024-05-25T23:11:24.280;599617213214580758;10891.105;141
2024-05-25T23:11:24.287;599617213222272130;10898.797;155
2024-05-25T23:11:24.295;599617213229963502;10906.488;145
2024-05-25T23:11:24.303;599617213237654874;10914.179;113
2024-05-25T23:11:24.310;599617213245346246;10921.87;118
2024-05-25T23:11:24.318;599617213253037618;10929.562;141
2024-05-25T23:11:24.326;599617213260728990;10937.253;131
2024-05-25T23:11:24.333;599617213268420362;10944.944;134
2024-05-25T23:11:24.341;599617213276111734;10952.637;148
2024-05-25T23:11:24.349;599617213283803106;10960.328;143
2024-05-25T23:11:24.357;599617213291494478;10968.019;141
2024-05-25T23:11:24.364;599617213299185850;10975.71;159
2024-05-25T23:11:24.372;599617213306877222;10983.401;196
2024-05-25T23:11:24.380;599617213314568594;10991.093;231
2024-05-25T23:11:24.387;599617213322259966;10998.784;194
2024-05-25T23:11:24.395;599617213329951338;11006.476;85
2024-05-25T23:11:24.403;599617213337642710;11014.167;16
2024-05-25T23:11:24.410;599617213345334082;11021.857;2
2024-05-25T23:11:24.418;599617213353025454;11029.55;-30
2024-05-25T23:11:24.426;599617213360716826;11037.241;-48
2024-05-25T23:11:24.433;599617213368408198;11044.933;-34
2024-05-25T23:11:24.441;599617213376099570;11052.624;-76
2024-05-25T23:11:24.449;599617213383790942;11060.315;-125
2024-05-25T23:11:24.457;599617213391482314;11068.007;9
2024-05-25T23:11:24.464;599617213399173686;11075.697;400
2024-05-25T23:11:24.472;599617213406865058;11083.389;787
2024-05-25T23:11:24.480;599617213414556430;11091.08;729
2024-05-25T23:11:24.487;599617213422247802;11098.772;233
2024-05-25T23:11:24.495;599617213429939174;11106.464;-81
2024-05-25T23:11:24.503;599617213437630546;11114.155;-9
2024-05-25T23:11:24.510;599617213445321918;11121.847;27
2024-05-25T23:11:24.518;599617213453013290;11129.537;-46
2024-05-25T23:11:24.526;599617213460704662;11137.229;-25
2024-05-25T23:11:24.533;599617213468396034;11144.92;0
2024-05-25T23:11:24.541;599617213476087406;11152.611;-20
2024-05-25T23:11:24.549;599617213483778778;11160.303;11
2024-05-25T23:11:24.556;599617213491470150;11167.994;53
2024-05-25T23:11:24.564;599617213499161522;11175.687;53
2024-05-25T23:11:24.572;599617213506852894;11183.377;48
2024-05-25T23:11:24.580;599617213514544266;11191.068;37
2024-05-25T23:11:24.587;599617213522235638;11198.76;-25
2024-05-25T23:11:24.595;599617213529927010;11206.451;-90
2024-05-25T23:11:24.603;599617213537618382;11214.143;-64
2024-05-25T23:11:24.610;599617213545309754;11221.834;4
2024-05-25T23:11:24.618;599617213553001134;11229.525;37
2024-05-25T23:11:24.626;599617213560692506;11237.216;23
2024-05-25T23:11:24.633;599617213568383878;11244.908;9
2024-05-25T23:11:24.641;599617213576075250;11252.6;2
2024-05-25T23:11:24.649;599617213583766622;11260.291;0
2024-05-25T23:11:24.656;599617213591457994;11267.982;18
2024-05-25T23:11:24.664;599617213599149366;11275.674;34
2024-05-25T23:11:24.672;599617213606840738;11283.365;30
2024-05-25T23:11:24.680;599617213614532110;11291.056;25
2024-05-25T23:11:24.687;599617213622223482;11298.747;-2
2024-05-25T23:11:24.695;599617213629914854;11306.438;-37
2024-05-25T23:11:24.703;599617213637606226;11314.131;-16
2024-05-25T23:11:24.710;599617213645297598;11321.822;25
2024-05-25T23:11:24.718;599617213652988970;11329.514;16
2024-05-25T23:11:24.726;599617213660680342;11337.205;4
2024-05-25T23:11:24.733;599617213668371714;11344.896;46
2024-05-25T23:11:24.741;599617213676063086;11352.587;87
2024-05-25T23:11:24.749;599617213683754458;11360.278;87
2024-05-25T23:11:24.756;599617213691445830;11367.97;90
2024-05-25T23:11:24.764;599617213699137202;11375.661;108
2024-05-25T23:11:24.772;599617213706828574;11383.353;108
2024-05-25T23:11:24.780;599617213714519946;11391.045;115
2024-05-25T23:11:24.787;599617213722211318;11398.736;166
2024-05-25T23:11:24.795;599617213729902690;11406.427;206
2024-05-25T23:11:24.803;599617213737594062;11414.118;185
2024-05-25T23:11:24.810;599617213745285434;11421.81;148
2024-05-25T23:11:24.818;599617213752976806;11429.501;145
2024-05-25T23:11:24.826;599617213760668178;11437.192;162
2024-05-25T23:11:24.833;599617213768359550;11444.884;159
2024-05-25T23:11:24.841;599617213776050922;11452.575;152
2024-05-25T23:11:24.849;599617213783742294;11460.267;173
2024-05-25T23:11:24.856;599617213791433666;11467.958;185
2024-05-25T23:11:24.864;599617213799125038;11475.649;159
2024-05-25T23:11:24.872;599617213806816410;11483.341;150
2024-05-25T23:11:24.880;599617213814507782;11491.032;171
2024-05-25T23:11:24.887;599617213822199154;11498.724;150
2024-05-25T23:11:24.895;599617213829890526;11506.415;90
2024-05-25T23:11:24.903;599617213837581898;11514.105;71
2024-05-25T23:11:24.910;599617213845273270;11521.797;101
2024-05-25T23:11:24.918;599617213852964642;11529.488;97
2024-05-25T23:11:24.926;599617213860656014;11537.181;43
2024-05-25T23:11:24.933;599617213868347386;11544.872;23
2024-05-25T23:11:24.941;599617213876038758;11552.563;23
2024-05-25T23:11:24.949;599617213883730130;11560.255;-18
2024-05-25T23:11:24.956;599617213891421502;11567.945;-50
2024-05-25T23:11:24.964;599617213899112874;11575.637;-43
2024-05-25T23:11:24.972;599617213906804246;11583.328;-25
2024-05-25T23:11:24.980;599617213914495618;11591.02;-6
2024-05-25T23:11:24.987;599617213922186990;11598.711;-11
2024-05-25T23:11:24.995;599617213929878362;11606.403;-53
2024-05-25T23:11:25.003;599617213937569734;11614.095;-78
2024-05-25T23:11:25.010;599617213945261106;11621.785;-25
2024-05-25T23:11:25.018;599617213952952478;11629.477;194
2024-05-25T23:11:25.026;599617213960643850;11637.168;620
2024-05-25T23:11:25.033;599617213968335222;11644.859;914
2024-05-25T23:11:25.041;599617213976026594;11652.551;645
2024-05-25T23:11:25.049;599617213983717966;11660.242;108
2024-05-25T23:11:25.056;599617213991409338;11667.934;-46
2024-05-25T23:11:25.064;599617213999100710;11675.624;83
2024-05-25T23:11:25.072;599617214006792082;11683.316;67
2024-05-25T23:11:25.080;599617214014483454;11691.008;-2
2024-05-25T23:11:25.087;599617214022174826;11698.699;6
2024-05-25T23:11:25.095;599617214029866198;11706.391;-43
2024-05-25T23:11:25.103;599617214037557570;11714.082;-127
2024-05-25T23:11:25.110;599617214045248942;11721.773;-122
2024-05-25T23:11:25.118;599617214052940314;11729.464;-78
2024-05-25T23:11:25.126;599617214060631686;11737.155;-62
2024-05-25T23:11:25.133;599617214068323058;11744.847;-87
2024-05-25T23:11:25.141;599617214076014430;11752.539;-97
2024-05-25T23:11:25.149;599617214083705802;11760.23;-48
2024-05-25T23:11:25.156;599617214091397174;11767.922;2
2024-05-25T23:11:25.164;599617214099088546;11775.613;20
2024-05-25T23:11:25.172;599617214106779918;11783.304;20
2024-05-25T23:11:25.179;599617214114441202;11790.966;23
2024-05-25T23:11:25.187;599617214122132992;11798.657;67
2024-05-25T23:11:25.195;599617214129824782;11806.35;113
2024-05-25T23:11:25.203;599617214137516572;11814.041;118
2024-05-25T23:11:25.210;599617214145208362;11821.732;136
2024-05-25T23:11:25.218;599617214152900152;11829.424;157
2024-05-25T23:11:25.226;599617214160591942;11837.116;104
2024-05-25T23:11:25.233;599617214168283732;11844.808;41
2024-05-25T23:11:25.241;599617214175975522;11852.5;71
2024-05-25T23:11:25.249;599617214183667312;11860.191;115
2024-05-25T23:11:25.256;599617214191359102;11867.884;120
2024-05-25T23:11:25.264;599617214199050892;11875.575;127
2024-05-25T23:11:25.272;599617214206742682;11883.267;131
2024-05-25T23:11:25.279;599617214214434472;11890.958;134
2024-05-25T23:11:25.287;599617214222126262;11898.65;145
2024-05-25T23:11:25.295;599617214229818052;11906.342;159
2024-05-25T23:11:25.303;599617214237509842;11914.034;187
2024-05-25T23:11:25.310;599617214245201632;11921.726;206
2024-05-25T23:11:25.318;599617214252893422;11929.418;189
2024-05-25T23:11:25.326;599617214260585212;11937.109;171
2024-05-25T23:11:25.333;599617214268277002;11944.802;166
2024-05-25T23:11:25.341;599617214275968792;11952.492;157
2024-05-25T23:11:25.349;599617214283660582;11960.185;150
2024-05-25T23:11:25.356;599617214291352372;11967.876;159
2024-05-25T23:11:25.364;599617214299044162;11975.568;166
2024-05-25T23:11:25.372;599617214306735952;11983.261;166
2024-05-25T23:11:25.379;599617214314427742;11990.952;141
2024-05-25T23:11:25.387;599617214322119532;11998.645;104
2024-05-25T23:11:25.395;599617214329811322;12006.336;118
2024-05-25T23:11:25.403;599617214337503112;12014.027;138
2024-05-25T23:11:25.410;599617214345194902;12021.719;111
2024-05-25T23:11:25.418;599617214352886692;12029.411;108
2024-05-25T23:11:25.426;599617214360578482;12037.103;150
2024-05-25T23:11:25.433;599617214368270272;12044.795;169
2024-05-25T23:11:25.441;599617214375962062;12052.486;143
2024-05-25T23:11:25.449;599617214383653852;12060.179;104
2024-05-25T23:11:25.456;599617214391345642;12067.87;74
2024-05-25T23:11:25.464;599617214399037432;12075.562;48
2024-05-25T23:11:25.472;599617214406729222;12083.253;2
2024-05-25T23:11:25.479;599617214414421012;12090.945;-9
2024-05-25T23:11:25.487;599617214422112802;12098.637;30
2024-05-25T23:11:25.495;599617214429804592;12106.329;32
2024-05-25T23:11:25.503;599617214437496382;12114.0205;6
2024-05-25T23:11:25.510;599617214445188172;12121.713;27
2024-05-25T23:11:25.518;599617214452879962;12129.404;50
2024-05-25T23:11:25.526;599617214460571752;12137.097;37
2024-05-25T23:11:25.533;599617214468263542;12144.787;39
2024-05-25T23:11:25.541;599617214475955332;12152.4795;57
2024-05-25T23:11:25.549;599617214483647122;12160.171;53
2024-05-25T23:11:25.556;599617214491338912;12167.863;46
2024-05-25T23:11:25.564;599617214499030702;12175.555;48
2024-05-25T23:11:25.572;599617214506722492;12183.247;41
2024-05-25T23:11:25.579;599617214514414282;12190.938;90
2024-05-25T23:11:25.587;599617214522106072;12198.631;333
2024-05-25T23:11:25.595;599617214529797862;12206.321;747
2024-05-25T23:11:25.603;599617214537489652;12214.014;928
2024-05-25T23:11:25.610;599617214545181442;12221.705;537
2024-05-25T23:11:25.618;599617214552873232;12229.397;-16
2024-05-25T23:11:25.626;599617214560565022;12237.089;-166
2024-05-25T23:11:25.633;599617214568256812;12244.781;-99
2024-05-25T23:11:25.641;599617214575948602;12252.473;-143
2024-05-25T23:11:25.649;599617214583640392;12260.165;-175
2024-05-25T23:11:25.656;599617214591332182;12267.856;-108
2024-05-25T23:11:25.664;599617214599023972;12275.548;-74
2024-05-25T23:11:25.672;599617214606715762;12283.24;-69
2024-05-25T23:11:25.679;599617214614407552;12290.932;-43
2024-05-25T23:11:25.687;599617214622099342;12298.624;-27
2024-05-25T23:11:25.695;599617214629791132;12306.315;-9
2024-05-25T23:11:25.703;599617214637482922;12314.008;32
2024-05-25T23:11:25.710;599617214645174712;12321.699;55
2024-05-25T23:11:25.718;599617214652866502;12329.391;69
2024-05-25T23:11:25.726;599617214660558292;12337.082;99
2024-05-25T23:11:25.733;599617214668250082;12344.774;106
2024-05-25T23:11:25.741;599617214675971980;12352.497;106
2024-05-25T23:11:25.749;599617214683663352;12360.1875;143
2024-05-25T23:11:25.756;599617214691354724;12367.879;187
2024-05-25T23:11:25.764;599617214699046096;12375.57;203
2024-05-25T23:11:25.772;599617214706737468;12383.262;203
2024-05-25T23:11:25.779;599617214714428840;12390.953;210
2024-05-25T23:11:25.787;599617214722120212;12398.645;224
2024-05-25T23:11:25.795;599617214729811584;12406.336;185
2024-05-25T23:11:25.803;599617214737502956;12414.026;113
2024-05-25T23:11:25.810;599617214745194328;12421.719;122
2024-05-25T23:11:25.818;599617214752885700;12429.41;169
2024-05-25T23:11:25.826;599617214760577072;12437.102;143
2024-05-25T23:11:25.833;599617214768268444;12444.793;127
2024-05-25T23:11:25.841;599617214775959816;12452.484;159
2024-05-25T23:11:25.849;599617214783651188;12460.176;150
2024-05-25T23:11:25.856;599617214791342560;12467.866;87
2024-05-25T23:11:25.864;599617214799033932;12475.558;62
2024-05-25T23:11:25.872;599617214806725304;12483.249;37
2024-05-25T23:11:25.879;599617214814416676;12490.94;-20
2024-05-25T23:11:25.887;599617214822108048;12498.633;-27
2024-05-25T23:11:25.895;599617214829799420;12506.324;9
2024-05-25T23:11:25.903;599617214837490792;12514.016;34
2024-05-25T23:11:25.910;599617214845182164;12521.706;55
2024-05-25T23:11:25.918;599617214852873536;12529.397;53
2024-05-25T23:11:25.926;599617214860564908;12537.089;55
2024-05-25T23:11:25.933;599617214868256280;12544.78;94
2024-05-25T23:11:25.941;599617214875947652;12552.472;122
2024-05-25T23:11:25.949;599617214883639024;12560.163;120
2024-05-25T23:11:25.956;599617214891330396;12567.855;108
2024-05-25T23:11:25.964;599617214899021768;12575.546;85
2024-05-25T23:11:25.972;599617214906713140;12583.237;53
2024-05-25T23:11:25.979;599617214914404512;12590.929;25
2024-05-25T23:11:25.987;599617214922095884;12598.62;-11
2024-05-25T23:11:25.995;599617214929787256;12606.312;-16
2024-05-25T23:11:26.003;599617214937478628;12614.003;-11
2024-05-25T23:11:26.010;599617214945170000;12621.694;-46
2024-05-25T23:11:26.018;599617214952861372;12629.385;-53
2024-05-25T23:11:26.026;599617214960552744;12637.076;-9
2024-05-25T23:11:26.033;599617214968244116;12644.769;6
2024-05-25T23:11:26.041;599617214975935488;12652.46;-9
2024-05-25T23:11:26.049;599617214983626860;12660.151;-6
2024-05-25T23:11:26.056;599617214991318232;12667.843;4
2024-05-25T23:11:26.064;599617214999009604;12675.534;0
2024-05-25T23:11:26.072;599617215006700976;12683.225;0
2024-05-25T23:11:26.079;599617215014392348;12690.916;23
2024-05-25T23:11:26.087;599617215022083720;12698.607;53
2024-05-25T23:11:26.095;599617215029775092;12706.299;67
2024-05-25T23:11:26.102;599617215037466464;12713.991;55
2024-05-25T23:11:26.110;599617215045157836;12721.683;-11
2024-05-25T23:11:26.118;599617215052849208;12729.374;-129
2024-05-25T23:11:26.126;599617215060540580;12737.065;-194
2024-05-25T23:11:26.133;599617215068231952;12744.756;-155
2024-05-25T23:11:26.141;599617215075923324;12752.447;-104
2024-05-25T23:11:26.149;599617215083614696;12760.139;-106
2024-05-25T23:11:26.156;599617215091306068;12767.83;-115
2024-05-25T23:11:26.164;599617215098997440;12775.521;-104
2024-05-25T23:11:26.172;599617215106688812;12783.213;-87
2024-05-25T23:11:26.179;599617215114380184;12790.905;-18
2024-05-25T23:11:26.187;599617215122071556;12798.596;215
2024-05-25T23:11:26.195;599617215129762928;12806.287;615
2024-05-25T23:11:26.202;599617215137454300;12813.979;877
2024-05-25T23:11:26.210;599617215145145672;12821.67;618
2024-05-25T23:11:26.218;599617215152837044;12829.361;108
2024-05-25T23:11:26.226;599617215160528416;12837.053;-32
2024-05-25T23:11:26.233;599617215168219788;12844.744;111
2024-05-25T23:11:26.241;599617215175911160;12852.435;92
2024-05-25T23:11:26.249;599617215183602532;12860.127;11
2024-05-25T23:11:26.256;599617215191293904;12867.818;64
2024-05-25T23:11:26.264;599617215198985276;12875.51;122
2024-05-25T23:11:26.272;599617215206676648;12883.201;104
2024-05-25T23:11:26.279;599617215214368020;12890.893;99
2024-05-25T23:11:26.287;599617215222059392;12898.584;127
2024-05-25T23:11:26.295;599617215229750764;12906.274;152
2024-05-25T23:11:26.302;599617215237442144;12913.966;159
2024-05-25T23:11:26.310;599617215245133516;12921.657;173
2024-05-25T23:11:26.318;599617215252824888;12929.349;213
2024-05-25T23:11:26.326;599617215260516260;12937.041;231
2024-05-25T23:11:26.333;599617215268207632;12944.732;175
2024-05-25T23:11:26.341;599617215275899004;12952.424;106
2024-05-25T23:11:26.349;599617215283590376;12960.114;129
2024-05-25T23:11:26.356;599617215291281748;12967.806;185
2024-05-25T23:11:26.364;599617215298973120;12975.497;145
2024-05-25T23:11:26.372;599617215306664492;12983.188;60
2024-05-25T23:11:26.379;599617215314355864;12990.88;46
2024-05-25T23:11:26.387;599617215322047236;12998.571;81
2024-05-25T23:11:26.395;599617215329738608;13006.264;78
2024-05-25T23:11:26.402;599617215337429980;13013.954;60
2024-05-25T23:11:26.410;599617215345121352;13021.6455;90
2024-05-25T23:11:26.418;599617215352812724;13029.337;125
2024-05-25T23:11:26.426;599617215360504096;13037.028;104
2024-05-25T23:11:26.433;599617215368195468;13044.72;78
2024-05-25T23:11:26.441;599617215375886840;13052.411;113
2024-05-25T23:11:26.449;599617215383578212;13060.103;141
2024-05-25T23:11:26.456;599617215391269584;13067.793;125
2024-05-25T23:11:26.464;599617215398960956;13075.484;111
2024-05-25T23:11:26.472;599617215406652328;13083.177;106
2024-05-25T23:11:26.479;599617215414343700;13090.868;92
2024-05-25T23:11:26.487;599617215422035072;13098.56;69
2024-05-25T23:11:26.495;599617215429726444;13106.251;53
2024-05-25T23:11:26.502;599617215437417816;13113.942;34
2024-05-25T23:11:26.510;599617215445109188;13121.633;-4
2024-05-25T23:11:26.518;599617215452800560;13129.324;-37
2024-05-25T23:11:26.526;599617215460491932;13137.016;-37
2024-05-25T23:11:26.533;599617215468183304;13144.707;-9
2024-05-25T23:11:26.541;599617215475874676;13152.399;2
2024-05-25T23:11:26.549;599617215483566048;13160.091;-6
2024-05-25T23:11:26.556;599617215491257420;13167.782;-4
2024-05-25T23:11:26.564;599617215498948792;13175.474;0
2024-05-25T23:11:26.572;599617215506640164;13183.164;9
2024-05-25T23:11:26.579;599617215514331536;13190.855;30
2024-05-25T23:11:26.587;599617215522022908;13198.547;37
2024-05-25T23:11:26.595;599617215529714280;13206.238;50
2024-05-25T23:11:26.602;599617215537405652;13213.93;74
2024-05-25T23:11:26.610;599617215545097024;13221.621;30
2024-05-25T23:11:26.618;599617215552788396;13229.313;-76
2024-05-25T23:11:26.626;599617215560479768;13237.004;-134
2024-05-25T23:11:26.633;599617215568171140;13244.695;-120
2024-05-25T23:11:26.641;599617215575862512;13252.387;-113
2024-05-25T23:11:26.649;599617215583553884;13260.078;-99
2024-05-25T23:11:26.656;599617215591245256;13267.77;-57
2024-05-25T23:11:26.664;599617215598936628;13275.461;-30
2024-05-25T23:11:26.672;599617215606628000;13283.152;-27
2024-05-25T23:11:26.679;599617215614319372;13290.843;11
2024-05-25T23:11:26.687;599617215622010744;13298.535;69
2024-05-25T23:11:26.695;599617215629702116;13306.227;78
2024-05-25T23:11:26.702;599617215637393488;13313.918;50
2024-05-25T23:11:26.710;599617215645084860;13321.609;64
2024-05-25T23:11:26.718;599617215652776232;13329.301;111
2024-05-25T23:11:26.725;599617215660467604;13336.992;141
2024-05-25T23:11:26.733;599617215668158976;13344.683;143
2024-05-25T23:11:26.741;599617215675850348;13352.374;115
2024-05-25T23:11:26.749;599617215683541720;13360.065;104
2024-05-25T23:11:26.756;599617215691233092;13367.757;231
2024-05-25T23:11:26.764;599617215698924464;13375.449;595
2024-05-25T23:11:26.772;599617215706615836;13383.141;1023
2024-05-25T23:11:26.779;599617215714307208;13390.832;1034
2024-05-25T23:11:26.787;599617215721998580;13398.522;516
2024-05-25T23:11:26.795;599617215729689952;13406.214;111
2024-05-25T23:11:26.802;599617215737381324;13413.905;180
2024-05-25T23:11:26.810;599617215745072696;13421.597;270
2024-05-25T23:11:26.818;599617215752764068;13429.288;175
2024-05-25T23:11:26.825;599617215760455440;13436.9795;171
2024-05-25T23:11:26.833;599617215768146812;13444.672;231
2024-05-25T23:11:26.841;599617215775838184;13452.362;210
2024-05-25T23:11:26.849;599617215783529556;13460.054;194
2024-05-25T23:11:26.856;599617215791220928;13467.745;199
2024-05-25T23:11:26.864;599617215798912308;13475.437;171
2024-05-25T23:11:26.872;599617215806603680;13483.128;164
2024-05-25T23:11:26.879;599617215814295052;13490.819;173
2024-05-25T23:11:26.887;599617215821986424;13498.511;141
2024-05-25T23:11:26.895;599617215829677796;13506.201;108
2024-05-25T23:11:26.902;599617215837369168;13513.894;83
2024-05-25T23:11:26.910;599617215845060540;13521.585;32
2024-05-25T23:11:26.918;599617215852751912;13529.276;18
2024-05-25T23:11:26.925;599617215860443284;13536.968;48
2024-05-25T23:11:26.933;599617215868134656;13544.659;43
2024-05-25T23:11:26.941;599617215875826028;13552.351;39
2024-05-25T23:11:26.949;599617215883517400;13560.041;71
2024-05-25T23:11:26.956;599617215891208772;13567.732;108
2024-05-25T23:11:26.964;599617215898900144;13575.424;120
2024-05-25T23:11:26.972;599617215906591516;13583.115;108
2024-05-25T23:11:26.979;599617215914282888;13590.808;108
2024-05-25T23:11:26.987;599617215921974260;13598.499;129
2024-05-25T23:11:26.995;599617215929665632;13606.19;136
2024-05-25T23:11:27.002;599617215937357004;13613.881;115
2024-05-25T23:11:27.010;599617215945048376;13621.572;85
2024-05-25T23:11:27.018;599617215952739748;13629.264;62
2024-05-25T23:11:27.025;599617215960431120;13636.955;25
2024-05-25T23:11:27.033;599617215968122492;13644.646;-25
2024-05-25T23:11:27.041;599617215975813864;13652.338;-23
2024-05-25T23:11:27.049;599617215983505236;13660.03;2
2024-05-25T23:11:27.056;599617215991196608;13667.722;0
2024-05-25T23:11:27.064;599617215998887980;13675.412;-4
2024-05-25T23:11:27.072;599617216006579352;13683.104;0
2024-05-25T23:11:27.079;599617216014270724;13690.795;-2
2024-05-25T23:11:27.087;599617216021962096;13698.486;6
2024-05-25T23:11:27.095;599617216029653468;13706.178;30
2024-05-25T23:11:27.102;599617216037344840;13713.869;16
2024-05-25T23:11:27.110;599617216045036212;13721.561;-34
2024-05-25T23:11:27.118;599617216052727584;13729.251;-83
2024-05-25T23:11:27.125;599617216060418956;13736.943;-127
2024-05-25T23:11:27.133;599617216068110328;13744.635;-138
2024-05-25T23:11:27.141;599617216075801700;13752.326;-115
2024-05-25T23:11:27.149;599617216083493072;13760.018;-106
2024-05-25T23:11:27.156;599617216091184444;13767.709;-92
2024-05-25T23:11:27.164;599617216098875816;13775.4;-57
2024-05-25T23:11:27.172;599617216106567188;13783.091;-37
2024-05-25T23:11:27.179;599617216114258560;13790.782;-34
2024-05-25T23:11:27.187;599617216121949932;13798.474;-6
2024-05-25T23:11:27.195;599617216129641304;13806.166;43
2024-05-25T23:11:27.202;599617216137332676;13813.857;46
2024-05-25T23:11:27.210;599617216145024048;13821.549;18
2024-05-25T23:11:27.218;599617216152715420;13829.24;41
2024-05-25T23:11:27.225;599617216160406792;13836.931;92
2024-05-25T23:11:27.233;599617216168098164;13844.622;106
2024-05-25T23:11:27.241;599617216175789536;13852.313;115
2024-05-25T23:11:27.249;599617216183480908;13860.005;141
2024-05-25T23:11:27.256;599617216191172280;13867.696;148
2024-05-25T23:11:27.264;599617216198863652;13875.388;148
2024-05-25T23:11:27.272;599617216206555024;13883.08;171
2024-05-25T23:11:27.279;599617216214246396;13890.7705;206
2024-05-25T23:11:27.287;599617216221937768;13898.462;233
2024-05-25T23:11:27.295;599617216229629140;13906.153;238
2024-05-25T23:11:27.302;599617216237320512;13913.845;233
2024-05-25T23:11:27.310;599617216245011884;13921.536;245
2024-05-25T23:11:27.318;599617216252703256;13929.228;254
2024-05-25T23:11:27.325;599617216260394628;13936.919;261
2024-05-25T23:11:27.333;599617216268086000;13944.609;275
2024-05-25T23:11:27.341;599617216275777372;13952.302;277
2024-05-25T23:11:27.348;599617216283468744;13959.993;217
2024-05-25T23:11:27.356;599617216291160116;13967.685;141
2024-05-25T23:11:27.364;599617216298851488;13975.376;238
2024-05-25T23:11:27.372;599617216306542860;13983.067;608
2024-05-25T23:11:27.379;599617216314234232;13990.759;1030
2024-05-25T23:11:27.387;599617216321925604;13998.449;1067
2024-05-25T23:11:27.395;599617216329616976;14006.141;601
2024-05-25T23:11:27.402;599617216337308348;14013.832;189
2024-05-25T23:11:27.410;599617216344999720;14021.523;213
2024-05-25T23:11:27.418;599617216352691092;14029.216;259
2024-05-25T23:11:27.425;599617216360352376;14036.876;138
2024-05-25T23:11:27.433;599617216368044166;14044.568;120
2024-05-25T23:11:27.441;599617216375735956;14052.26;162
2024-05-25T23:11:27.448;599617216383427746;14059.952;120
2024-05-25T23:11:27.456;599617216391119536;14067.644;113
2024-05-25T23:11:27.464;599617216398811326;14075.336;175
2024-05-25T23:11:27.472;599617216406503116;14083.027;194
2024-05-25T23:11:27.479;599617216414194906;14090.719;166
2024-05-25T23:11:27.487;599617216421886696;14098.41;169
2024-05-25T23:11:27.495;599617216429578486;14106.103;185
2024-05-25T23:11:27.502;599617216437270276;14113.794;157
2024-05-25T23:11:27.510;599617216444962066;14121.486;106
2024-05-25T23:11:27.518;599617216452653856;14129.178;99
2024-05-25T23:11:27.525;599617216460345646;14136.87;122
2024-05-25T23:11:27.533;599617216468037436;14144.562;99
2024-05-25T23:11:27.541;599617216475729226;14152.254;48
2024-05-25T23:11:27.548;599617216483421016;14159.945;34
2024-05-25T23:11:27.556;599617216491112806;14167.637;23
2024-05-25T23:11:27.564;599617216498804596;14175.329;-4
2024-05-25T23:11:27.572;599617216506496386;14183.0205;-16
2024-05-25T23:11:27.579;599617216514188176;14190.713;-13
2024-05-25T23:11:27.587;599617216521879966;14198.404;-9
2024-05-25T23:11:27.595;599617216529571756;14206.097;-34
2024-05-25T23:11:27.602;599617216537263546;14213.788;-67
2024-05-25T23:11:27.610;599617216544955336;14221.4795;-41
2024-05-25T23:11:27.618;599617216552647126;14229.171;-18
2024-05-25T23:11:27.625;599617216560338916;14236.863;-90
2024-05-25T23:11:27.633;599617216568030706;14244.555;-169
2024-05-25T23:11:27.641;599617216575722496;14252.247;-145
2024-05-25T23:11:27.648;599617216583414286;14259.938;-94
2024-05-25T23:11:27.656;599617216591106076;14267.631;-99
2024-05-25T23:11:27.664;599617216598797866;14275.322;-99
2024-05-25T23:11:27.672;599617216606489656;14283.014;-74
2024-05-25T23:11:27.679;599617216614181446;14290.705;-57
2024-05-25T23:11:27.687;599617216621873236;14298.397;-37
2024-05-25T23:11:27.695;599617216629565026;14306.089;2
2024-05-25T23:11:27.702;599617216637256816;14313.781;39
2024-05-25T23:11:27.710;599617216644948606;14321.473;53
2024-05-25T23:11:27.718;599617216652640396;14329.165;46
2024-05-25T23:11:27.725;599617216660332186;14336.856;55
2024-05-25T23:11:27.733;599617216668023976;14344.549;99
2024-05-25T23:11:27.741;599617216675715766;14352.239;134
2024-05-25T23:11:27.748;599617216683407556;14359.932;134
2024-05-25T23:11:27.756;599617216691099346;14367.623;145
2024-05-25T23:11:27.764;599617216698791136;14375.315;171
2024-05-25T23:11:27.772;599617216706482926;14383.007;162
2024-05-25T23:11:27.779;599617216714174716;14390.699;155
2024-05-25T23:11:27.787;599617216721866506;14398.391;187
2024-05-25T23:11:27.795;599617216729558296;14406.083;222
2024-05-25T23:11:27.802;599617216737250086;14413.773;224
2024-05-25T23:11:27.810;599617216744941876;14421.466;206
2024-05-25T23:11:27.818;599617216752633666;14429.157;219
2024-05-25T23:11:27.825;599617216760325456;14436.85;259
2024-05-25T23:11:27.833;599617216768017246;14444.542;261
2024-05-25T23:11:27.841;599617216775709036;14452.233;224
2024-05-25T23:11:27.848;599617216783400826;14459.926;199
2024-05-25T23:11:27.856;599617216791092616;14467.617;199
2024-05-25T23:11:27.864;599617216798784406;14475.309;203
2024-05-25T23:11:27.872;599617216806476196;14483.0;215
2024-05-25T23:11:27.879;599617216814167986;14490.692;247
2024-05-25T23:11:27.887;599617216821859776;14498.384;291
2024-05-25T23:11:27.895;599617216829551566;14506.076;300
2024-05-25T23:11:27.902;599617216837243356;14513.768;273
2024-05-25T23:11:27.910;599617216844935146;14521.46;266
2024-05-25T23:11:27.918;599617216852626936;14529.151;291
2024-05-25T23:11:27.925;599617216860318726;14536.844;296
2024-05-25T23:11:27.933;599617216868010516;14544.534;291
2024-05-25T23:11:27.941;599617216875702306;14552.227;298
2024-05-25T23:11:27.948;599617216883394096;14559.918;261
2024-05-25T23:11:27.956;599617216891085886;14567.61;173
2024-05-25T23:11:27.964;599617216898777676;14575.302;203
2024-05-25T23:11:27.971;599617216906469466;14582.994;476
2024-05-25T23:11:27.979;599617216914161256;14590.686;898
2024-05-25T23:11:27.987;599617216921883154;14598.407;1081
2024-05-25T23:11:27.995;599617216929574526;14606.099;731
2024-05-25T23:11:28.002;599617216937265898;14613.79;226
2024-05-25T23:11:28.010;599617216944957270;14621.482;120
2024-05-25T23:11:28.018;599617216952648642;14629.173;215
2024-05-25T23:11:28.025;599617216960340014;14636.864;171
2024-05-25T23:11:28.033;599617216968031386;14644.556;127
2024-05-25T23:11:28.041;599617216975722758;14652.247;136
2024-05-25T23:11:28.048;599617216983414130;14659.938;60
2024-05-25T23:11:28.056;599617216991105502;14667.63;-9
2024-05-25T23:11:28.064;599617216998796874;14675.321;9
2024-05-25T23:11:28.072;599617217006488246;14683.012;0
2024-05-25T23:11:28.079;599617217014179618;14690.703;-74
2024-05-25T23:11:28.087;599617217021870990;14698.3955;-150
2024-05-25T23:11:28.095;599617217029562362;14706.087;-192
2024-05-25T23:11:28.102;599617217037253734;14713.778;-194
2024-05-25T23:11:28.110;599617217044945106;14721.47;-189
2024-05-25T23:11:28.118;599617217052636478;14729.161;-171
2024-05-25T23:11:28.125;599617217060327850;14736.852;-162
2024-05-25T23:11:28.133;599617217068019222;14744.543;-217
2024-05-25T23:11:28.141;599617217075710594;14752.234;-273
2024-05-25T23:11:28.148;599617217083401966;14759.926;-231
2024-05-25T23:11:28.156;599617217091093338;14767.618;-173
2024-05-25T23:11:28.164;599617217098784710;14775.31;-166
2024-05-25T23:11:28.172;599617217106476082;14783.001;-169
2024-05-25T23:11:28.179;599617217114167454;14790.691;-150
2024-05-25T23:11:28.187;599617217121858826;14798.383;-111
2024-05-25T23:11:28.195;599617217129550198;14806.074;-87
2024-05-25T23:11:28.202;599617217137241570;14813.766;-78
2024-05-25T23:11:28.210;599617217144932942;14821.457;-53
2024-05-25T23:11:28.218;599617217152624314;14829.148;-32
2024-05-25T23:11:28.225;599617217160315686;14836.84;-48
2024-05-25T23:11:28.233;599617217168007058;14844.531;-41
2024-05-25T23:11:28.241;599617217175698430;14852.223;4
2024-05-25T23:11:28.248;599617217183389802;14859.914;30
2024-05-25T23:11:28.256;599617217191081174;14867.605;27
2024-05-25T23:11:28.264;599617217198772546;14875.297;32
2024-05-25T23:11:28.271;599617217206463918;14882.988;43
2024-05-25T23:11:28.279;599617217214155290;14890.68;60
2024-05-25T23:11:28.287;599617217221846662;14898.37;81
2024-05-25T23:11:28.295;599617217229538034;14906.062;99
2024-05-25T23:11:28.302;599617217237229406;14913.754;136
2024-05-25T23:11:28.310;599617217244920778;14921.445;166
2024-05-25T23:11:28.318;599617217252612150;14929.137;145
2024-05-25T23:11:28.325;599617217260303522;14936.828;131
2024-05-25T23:11:28.333;599617217267994894;14944.52;141
2024-05-25T23:11:28.341;599617217275686266;14952.21;118
2024-05-25T23:11:28.348;599617217283377638;14959.901;99
2024-05-25T23:11:28.356;599617217291069010;14967.593;118
2024-05-25T23:11:28.364;599617217298760382;14975.284;138
2024-05-25T23:11:28.371;599617217306451754;14982.976;143
2024-05-25T23:11:28.379;599617217314143126;14990.668;148
2024-05-25T23:11:28.387;599617217321834498;14998.359;164
2024-05-25T23:11:28.395;599617217329525870;15006.051;199
2024-05-25T23:11:28.402;599617217337217242;15013.741;206
2024-05-25T23:11:28.410;599617217344908614;15021.433;175
2024-05-25T23:11:28.418;599617217352599986;15029.124;178
2024-05-25T23:11:28.425;599617217360291358;15036.815;231
2024-05-25T23:11:28.433;599617217367982730;15044.507;259
2024-05-25T23:11:28.441;599617217375674102;15052.198;236
2024-05-25T23:11:28.448;599617217383365474;15059.891;229
2024-05-25T23:11:28.456;599617217391056846;15067.581;250
2024-05-25T23:11:28.464;599617217398748218;15075.272;250
2024-05-25T23:11:28.471;599617217406439590;15082.964;243
2024-05-25T23:11:28.479;599617217414130962;15090.655;256
2024-05-25T23:11:28.487;599617217421822334;15098.347;277
2024-05-25T23:11:28.495;599617217429513706;15106.038;282
2024-05-25T23:11:28.502;599617217437205078;15113.7295;250
2024-05-25T23:11:28.510;599617217444896450;15121.42;210
2024-05-25T23:11:28.518;599617217452587822;15129.111;215
2024-05-25T23:11:28.525;599617217460279194;15136.804;219
2024-05-25T23:11:28.533;599617217467970566;15144.495;201
2024-05-25T23:11:28.541;599617217475661938;15152.187;206
2024-05-25T23:11:28.548;599617217483353318;15159.878;208
2024-05-25T23:11:28.556;599617217491044690;15167.569;182
2024-05-25T23:11:28.564;599617217498736062;15175.26;175
2024-05-25T23:11:28.571;599617217506427434;15182.951;185
2024-05-25T23:11:28.579;599617217514118806;15190.643;148
2024-05-25T23:11:28.587;599617217521810178;15198.334;64
2024-05-25T23:11:28.595;599617217529501550;15206.026;113
2024-05-25T23:11:28.602;599617217537192922;15213.718;449
2024-05-25T23:11:28.610;599617217544884294;15221.409;861
2024-05-25T23:11:28.618;599617217552575666;15229.1;833
2024-05-25T23:11:28.625;599617217560267038;15236.791;275
2024-05-25T23:11:28.633;599617217567958410;15244.482;-199
2024-05-25T23:11:28.641;599617217575649782;15252.174;-291
2024-05-25T23:11:28.648;599617217583341154;15259.865;-326
2024-05-25T23:11:28.656;599617217591032526;15267.557;-388
2024-05-25T23:11:28.664;599617217598723898;15275.248;-351
2024-05-25T23:11:28.671;599617217606415270;15282.939;-307
2024-05-25T23:11:28.679;599617217614106642;15290.631;-328
2024-05-25T23:11:28.687;599617217621798014;15298.322;-328
2024-05-25T23:11:28.695;599617217629489386;15306.014;-280
2024-05-25T23:11:28.702;599617217637180758;15313.705;-252
2024-05-25T23:11:28.710;599617217644872130;15321.396;-247
2024-05-25T23:11:28.718;599617217652563502;15329.088;-215
2024-05-25T23:11:28.725;599617217660254874;15336.778;-173
2024-05-25T23:11:28.733;599617217667946246;15344.47;-175
2024-05-25T23:11:28.741;599617217675637618;15352.162;-173
2024-05-25T23:11:28.748;599617217683328990;15359.854;-125
2024-05-25T23:11:28.756;599617217691020362;15367.545;-71
2024-05-25T23:11:28.764;599617217698711734;15375.236;-55
2024-05-25T23:11:28.771;599617217706403106;15382.928;-46
2024-05-25T23:11:28.779;599617217714094478;15390.618;-27
2024-05-25T23:11:28.787;599617217721785850;15398.31;0
2024-05-25T23:11:28.795;599617217729477222;15406.001;23
2024-05-25T23:11:28.802;599617217737168594;15413.692;39
2024-05-25T23:11:28.810;599617217744859966;15421.384;64
2024-05-25T23:11:28.818;599617217752551338;15429.076;92
2024-05-25T23:11:28.825;599617217760242710;15436.768;71
2024-05-25T23:11:28.833;599617217767934082;15444.458;30
2024-05-25T23:11:28.841;599617217775625454;15452.149;53
2024-05-25T23:11:28.848;599617217783316826;15459.841;92
2024-05-25T23:11:28.856;599617217791008198;15467.532;87
2024-05-25T23:11:28.864;599617217798699570;15475.224;78
2024-05-25T23:11:28.871;599617217806390942;15482.915;87
2024-05-25T23:11:28.879;599617217814082314;15490.606;94
2024-05-25T23:11:28.887;599617217821773686;15498.299;104
2024-05-25T23:11:28.894;599617217829465058;15505.989;120
2024-05-25T23:11:28.902;599617217837156430;15513.681;143
2024-05-25T23:11:28.910;599617217844847802;15521.372;162
2024-05-25T23:11:28.918;599617217852539174;15529.063;152
2024-05-25T23:11:28.925;599617217860230546;15536.755;155
2024-05-25T23:11:28.933;599617217867921918;15544.446;185
2024-05-25T23:11:28.941;599617217875613290;15552.138;206
2024-05-25T23:11:28.948;599617217883304662;15559.828;208
2024-05-25T23:11:28.956;599617217890996034;15567.52;217
2024-05-25T23:11:28.964;599617217898687406;15575.212;229
2024-05-25T23:11:28.971;599617217906378778;15582.903;229
2024-05-25T23:11:28.979;599617217914070150;15590.595;224
2024-05-25T23:11:28.987;599617217921761522;15598.286;240
2024-05-25T23:11:28.994;599617217929452894;15605.978;268
2024-05-25T23:11:29.002;599617217937144266;15613.668;275
2024-05-25T23:11:29.010;599617217944835638;15621.359;254
2024-05-25T23:11:29.018;599617217952527010;15629.051;250
2024-05-25T23:11:29.025;599617217960218382;15636.742;282
2024-05-25T23:11:29.033;599617217967909754;15644.435;294
2024-05-25T23:11:29.041;599617217975601126;15652.126;277
2024-05-25T23:11:29.048;599617217983292498;15659.817;280
2024-05-25T23:11:29.056;599617217990983870;15667.508;287
2024-05-25T23:11:29.064;599617217998675242;15675.199;282
2024-05-25T23:11:29.071;599617218006366614;15682.891;254
2024-05-25T23:11:29.079;599617218014057986;15690.582;199
2024-05-25T23:11:29.087;599617218021749358;15698.273;178
2024-05-25T23:11:29.094;599617218029440730;15705.965;180
2024-05-25T23:11:29.102;599617218037132102;15713.657;166
2024-05-25T23:11:29.110;599617218044823482;15721.348;162
2024-05-25T23:11:29.118;599617218052514854;15729.039;175
2024-05-25T23:11:29.125;599617218060206226;15736.73;169
2024-05-25T23:11:29.133;599617218067897598;15744.422;159
2024-05-25T23:11:29.141;599617218075588970;15752.113;138
2024-05-25T23:11:29.148;599617218083280342;15759.805;41
2024-05-25T23:11:29.156;599617218090971714;15767.496;-97
2024-05-25T23:11:29.164;599617218098663086;15775.187;-173
2024-05-25T23:11:29.171;599617218106354458;15782.878;-164
2024-05-25T23:11:29.179;599617218114045830;15790.57;-57
2024-05-25T23:11:29.187;599617218121737202;15798.262;231
2024-05-25T23:11:29.194;599617218129428574;15805.953;618
2024-05-25T23:11:29.202;599617218137119946;15813.645;710
2024-05-25T23:11:29.210;599617218144811318;15821.336;259
2024-05-25T23:11:29.218;599617218152502690;15829.026;-261
2024-05-25T23:11:29.225;599617218160194062;15836.718;-298
2024-05-25T23:11:29.233;599617218167885434;15844.409;-166
2024-05-25T23:11:29.241;599617218175576806;15852.101;-247
2024-05-25T23:11:29.248;599617218183268178;15859.793;-307
2024-05-25T23:11:29.256;599617218190959550;15867.484;-231
2024-05-25T23:11:29.264;599617218198650922;15875.176;-194
2024-05-25T23:11:29.271;599617218206342294;15882.866;-199
2024-05-25T23:11:29.279;599617218214033666;15890.558;-189
2024-05-25T23:11:29.287;599617218221725038;15898.249;-173
2024-05-25T23:11:29.294;599617218229416410;15905.94;-148
2024-05-25T23:11:29.302;599617218237107782;15913.632;-118
2024-05-25T23:11:29.310;599617218244799154;15921.323;-113
2024-05-25T23:11:29.318;599617218252490526;15929.015;-122
2024-05-25T23:11:29.325;599617218260181898;15936.707;-129
2024-05-25T23:11:29.333;599617218267873270;15944.397;-136
2024-05-25T23:11:29.341;599617218275564642;15952.089;-129
2024-05-25T23:11:29.348;599617218283256014;15959.78;-90
2024-05-25T23:11:29.356;599617218290947386;15967.472;-41
2024-05-25T23:11:29.364;599617218298638758;15975.163;-20
2024-05-25T23:11:29.371;599617218306330130;15982.8545;-13
2024-05-25T23:11:29.379;599617218314021502;15990.545;2
2024-05-25T23:11:29.387;599617218321712874;15998.236;25
2024-05-25T23:11:29.394;599617218329404246;16005.929;43
