Phone timestamp;sensor timestamp [ns];timestamp [ms];ecg [uV]
2024-05-25T22:58:14.816;599616423730426840;0.0;3783
2024-05-25T22:58:14.823;599616423738117933;7.691093;4394
2024-05-25T22:58:14.831;599616423745809026;15.382186;5193
2024-05-25T22:58:14.839;599616423753500119;23.07328;6017
2024-05-25T22:58:14.846;599616423761191212;30.764372;6540
2024-05-25T22:58:14.854;599616423768882305;38.455463;7225
2024-05-25T22:58:14.862;599616423776573398;46.14656;8316
2024-05-25T22:58:14.869;599616423784264491;53.83765;9286
2024-05-25T22:58:14.877;599616423791955584;61.528744;9643
2024-05-25T22:58:14.885;599616423799646677;69.21984;9601
2024-05-25T22:58:14.892;599616423807337770;76.91093;9700
2024-05-25T22:58:14.900;599616423815028863;84.60202;10045
2024-05-25T22:58:14.908;599616423822719956;92.29312;10400
2024-05-25T22:58:14.915;599616423830411049;99.98421;10745
2024-05-25T22:58:14.923;599616423838102142;107.6753;11150
2024-05-25T22:58:14.931;599616423845793235;115.366394;11458
2024-05-25T22:58:14.939;599616423853484328;123.05749;11666
2024-05-25T22:58:14.946;599616423861175421;130.74858;11983
2024-05-25T22:58:14.954;599616423868866514;138.43968;12314
2024-05-25T22:58:14.962;599616423876557607;146.13077;12516
2024-05-25T22:58:14.969;599616423884248700;153.82185;12757
2024-05-25T22:58:14.977;599616423891939793;161.51295;13069
2024-05-25T22:58:14.985;599616423899630886;169.20404;13243
2024-05-25T22:58:14.992;599616423907321979;176.89514;13340
2024-05-25T22:58:15.000;599616423915013072;184.58624;13546
2024-05-25T22:58:15.008;599616423922704165;192.27733;13808
2024-05-25T22:58:15.015;599616423930395258;199.96841;14005
2024-05-25T22:58:15.023;599616423938086351;207.6595;14099
2024-05-25T22:58:15.031;599616423945777444;215.3506;14178
2024-05-25T22:58:15.039;599616423953468537;223.0417;14345
2024-05-25T22:58:15.046;599616423961159630;230.73279;14477
2024-05-25T22:58:15.054;599616423968850723;238.42389;14505
2024-05-25T22:58:15.062;599616423976541816;246.11497;14637
2024-05-25T22:58:15.069;599616423984232909;253.80606;14820
2024-05-25T22:58:15.077;599616423991924002;261.49716;14864
2024-05-25T22:58:15.085;599616423999615095;269.18826;14903
2024-05-25T22:58:15.092;599616424007306188;276.87936;14940
2024-05-25T22:58:15.100;599616424014997281;284.57043;14905
2024-05-25T22:58:15.108;599616424022688374;292.26154;14940
2024-05-25T22:58:15.115;599616424030379467;299.95264;14982
2024-05-25T22:58:15.123;599616424038070560;307.6437;14951
2024-05-25T22:58:15.131;599616424045761653;315.3348;14979
2024-05-25T22:58:15.139;599616424053452746;323.0259;14998
2024-05-25T22:58:15.146;599616424061143839;330.71698;14949
2024-05-25T22:58:15.154;599616424068834932;338.40808;15023
2024-05-25T22:58:15.162;599616424076526025;346.0992;15111
2024-05-25T22:58:15.169;599616424084217118;353.79028;14979
2024-05-25T22:58:15.177;599616424091908211;361.48138;14859
2024-05-25T22:58:15.185;599616424099599304;369.1725;14931
2024-05-25T22:58:15.192;599616424107290397;376.86356;14975
2024-05-25T22:58:15.200;599616424114981490;384.55466;14905
2024-05-25T22:58:15.208;599616424122672583;392.24573;14840
2024-05-25T22:58:15.215;599616424130363676;399.93683;14806
2024-05-25T22:58:15.223;599616424138054769;407.62793;14759
2024-05-25T22:58:15.231;599616424145745862;415.319;14664
2024-05-25T22:58:15.239;599616424153436955;423.0101;14595
2024-05-25T22:58:15.246;599616424161128048;430.7012;14644
2024-05-25T22:58:15.254;599616424168819141;438.39227;14634
2024-05-25T22:58:15.262;599616424176510234;446.0834;14451
2024-05-25T22:58:15.269;599616424184201327;453.7745;14456
2024-05-25T22:58:15.277;599616424191892420;461.46558;14674
2024-05-25T22:58:15.285;599616424199583513;469.15668;14486
2024-05-25T22:58:15.292;599616424207274606;476.84778;14030
2024-05-25T22:58:15.300;599616424214965699;484.53885;13949
2024-05-25T22:58:15.308;599616424222656792;492.22995;13984
2024-05-25T22:58:15.315;599616424230347885;499.92105;13812
2024-05-25T22:58:15.323;599616424238038978;507.61212;13706
2024-05-25T22:58:15.331;599616424245730071;515.3032;13761
2024-05-25T22:58:15.338;599616424253421164;522.9943;13685
2024-05-25T22:58:15.346;599616424261112257;530.6854;13379
2024-05-25T22:58:15.354;599616424268803350;538.3765;13139
2024-05-25T22:58:15.362;599616424276494443;546.06757;13234
2024-05-25T22:58:15.369;599616424284185536;553.7587;13618
2024-05-25T22:58:15.377;599616424291866650;561.4398;13926
2024-05-25T22:58:15.385;599616424299557882;569.13104;13803
2024-05-25T22:58:15.392;599616424307249114;576.82227;13243
2024-05-25T22:58:15.400;599616424314940346;584.51355;12724
2024-05-25T22:58:15.408;599616424322631578;592.2047;12620
2024-05-25T22:58:15.415;599616424330322810;599.896;12516
2024-05-25T22:58:15.423;599616424338014042;607.5872;12254
2024-05-25T22:58:15.431;599616424345705274;615.27844;12199
2024-05-25T22:58:15.438;599616424353396506;622.96967;12138
2024-05-25T22:58:15.446;599616424361087738;630.66095;11881
2024-05-25T22:58:15.454;599616424368778970;638.3521;11826
2024-05-25T22:58:15.462;599616424376470202;646.0434;11909
2024-05-25T22:58:15.469;599616424384161434;653.7346;11678
2024-05-25T22:58:15.477;599616424391852666;661.42584;11386
2024-05-25T22:58:15.485;599616424399543898;669.11707;11374
2024-05-25T22:58:15.492;599616424407235130;676.80835;11321
2024-05-25T22:58:15.500;599616424414926362;684.4995;11108
2024-05-25T22:58:15.508;599616424422617594;692.1908;11004
2024-05-25T22:58:15.515;599616424430308826;699.88196;11013
2024-05-25T22:58:15.523;599616424438000058;707.57324;10972
2024-05-25T22:58:15.531;599616424445691290;715.26447;10830
2024-05-25T22:58:15.538;599616424453382522;722.9557;10680
2024-05-25T22:58:15.546;599616424461073754;730.6469;10624
2024-05-25T22:58:15.554;599616424468764986;738.3382;10578
2024-05-25T22:58:15.562;599616424476456218;746.02936;10444
2024-05-25T22:58:15.569;599616424484147450;753.72064;10388
2024-05-25T22:58:15.577;599616424491838682;761.41187;10402
2024-05-25T22:58:15.585;599616424499529914;769.1031;10201
2024-05-25T22:58:15.592;599616424507221146;776.7943;9902
2024-05-25T22:58:15.600;599616424514912378;784.4856;9830
2024-05-25T22:58:15.608;599616424522603610;792.17676;9839
2024-05-25T22:58:15.615;599616424530294842;799.86804;9738
2024-05-25T22:58:15.623;599616424537986074;807.5592;9594
2024-05-25T22:58:15.631;599616424545677306;815.2505;9487
2024-05-25T22:58:15.638;599616424553368538;822.9417;9437
2024-05-25T22:58:15.646;599616424561059770;830.63293;9362
2024-05-25T22:58:15.654;599616424568751002;838.32416;9244
2024-05-25T22:58:15.662;599616424576442234;846.01544;9193
2024-05-25T22:58:15.669;599616424584133466;853.7066;9159
2024-05-25T22:58:15.677;599616424591824698;861.3979;9004
2024-05-25T22:58:15.685;599616424599515930;869.0891;8848
2024-05-25T22:58:15.692;599616424607207162;876.78033;8807
2024-05-25T22:58:15.700;599616424614898394;884.47156;8770
2024-05-25T22:58:15.708;599616424622589626;892.16284;8670
2024-05-25T22:58:15.715;599616424630280858;899.854;8550
2024-05-25T22:58:15.723;599616424637972090;907.5453;8450
2024-05-25T22:58:15.731;599616424645663322;915.23645;8381
2024-05-25T22:58:15.738;599616424653354554;922.92773;8286
2024-05-25T22:58:15.746;599616424661045786;930.61896;8179
2024-05-25T22:58:15.754;599616424668737018;938.3102;8140
2024-05-25T22:58:15.762;599616424676428250;946.0014;8087
2024-05-25T22:58:15.769;599616424684119482;953.6927;7934
2024-05-25T22:58:15.777;599616424691810714;961.38385;7874
2024-05-25T22:58:15.785;599616424699501946;969.07513;7906
2024-05-25T22:58:15.792;599616424707193178;976.76636;7730
2024-05-25T22:58:15.800;599616424714884410;984.4576;7434
2024-05-25T22:58:15.808;599616424722575642;992.1488;7300
2024-05-25T22:58:15.815;599616424730266874;999.8401;7253
2024-05-25T22:58:15.823;599616424737958106;1007.53125;7181
2024-05-25T22:58:15.831;599616424745649338;1015.22253;7061
2024-05-25T22:58:15.838;599616424753340570;1022.91376;6924
2024-05-25T22:58:15.846;599616424761031802;1030.605;6874
2024-05-25T22:58:15.854;599616424768723034;1038.2961;6797
2024-05-25T22:58:15.861;599616424776414266;1045.9874;6617
2024-05-25T22:58:15.869;599616424784105498;1053.6787;6640
2024-05-25T22:58:15.877;599616424791796730;1061.3699;7029
2024-05-25T22:58:15.885;599616424799487962;1069.0612;7404
2024-05-25T22:58:15.892;599616424807179194;1076.7524;7286
2024-05-25T22:58:15.900;599616424814870426;1084.4436;6723
2024-05-25T22:58:15.908;599616424822561658;1092.1348;6265
2024-05-25T22:58:15.915;599616424830252890;1099.826;6163
2024-05-25T22:58:15.923;599616424837944122;1107.5173;6103
2024-05-25T22:58:15.931;599616424845635354;1115.2086;5954
2024-05-25T22:58:15.938;599616424853316562;1122.8898;5846
2024-05-25T22:58:15.946;599616424861007934;1130.5812;5746
2024-05-25T22:58:15.954;599616424868699306;1138.2725;5626
2024-05-25T22:58:15.961;599616424876390678;1145.9637;5572
2024-05-25T22:58:15.969;599616424884082050;1153.6552;5556
2024-05-25T22:58:15.977;599616424891773422;1161.3466;5480
2024-05-25T22:58:15.985;599616424899464794;1169.038;5406
2024-05-25T22:58:15.992;599616424907156166;1176.7294;5382
2024-05-25T22:58:16.000;599616424914847538;1184.4208;5332
2024-05-25T22:58:16.008;599616424922538910;1192.1122;5186
2024-05-25T22:58:16.015;599616424930230282;1199.8033;5028
2024-05-25T22:58:16.023;599616424937921654;1207.4948;5007
2024-05-25T22:58:16.031;599616424945613026;1215.1862;5028
2024-05-25T22:58:16.038;599616424953304398;1222.8776;4938
2024-05-25T22:58:16.046;599616424960995770;1230.569;4841
2024-05-25T22:58:16.054;599616424968687142;1238.2604;4838
2024-05-25T22:58:16.061;599616424976378514;1245.9517;4848
2024-05-25T22:58:16.069;599616424984069886;1253.6431;4808
2024-05-25T22:58:16.077;599616424991761258;1261.3344;4723
2024-05-25T22:58:16.085;599616424999452630;1269.0258;4625
2024-05-25T22:58:16.092;599616425007144002;1276.7172;4563
2024-05-25T22:58:16.100;599616425014835374;1284.4086;4514
2024-05-25T22:58:16.108;599616425022526746;1292.1;4468
2024-05-25T22:58:16.115;599616425030218118;1299.7913;4452
2024-05-25T22:58:16.123;599616425037909490;1307.4827;4424
2024-05-25T22:58:16.131;599616425045600862;1315.1741;4334
2024-05-25T22:58:16.138;599616425053292234;1322.8654;4260
2024-05-25T22:58:16.146;599616425060983606;1330.5568;4260
2024-05-25T22:58:16.154;599616425068674978;1338.2482;4239
2024-05-25T22:58:16.161;599616425076366350;1345.9395;4174
2024-05-25T22:58:16.169;599616425084057722;1353.6309;4148
2024-05-25T22:58:16.177;599616425091749094;1361.3223;4130
2024-05-25T22:58:16.185;599616425099440466;1369.0137;4060
2024-05-25T22:58:16.192;599616425107131838;1376.7051;4000
2024-05-25T22:58:16.200;599616425114823210;1384.3964;3984
2024-05-25T22:58:16.208;599616425122514582;1392.0876;3970
2024-05-25T22:58:16.215;599616425130205954;1399.779;3931
2024-05-25T22:58:16.223;599616425137897326;1407.4705;3864
2024-05-25T22:58:16.231;599616425145588698;1415.1619;3813
2024-05-25T22:58:16.238;599616425153280070;1422.8533;3794
2024-05-25T22:58:16.246;599616425160971442;1430.5447;3757
2024-05-25T22:58:16.254;599616425168662814;1438.2361;3706
2024-05-25T22:58:16.261;599616425176354186;1445.9272;3685
2024-05-25T22:58:16.269;599616425184045558;1453.6187;3658
2024-05-25T22:58:16.277;599616425191736930;1461.31;3590
2024-05-25T22:58:16.285;599616425199428302;1469.0015;3560
2024-05-25T22:58:16.292;599616425207119674;1476.6929;3549
2024-05-25T22:58:16.300;599616425214811046;1484.3843;3433
2024-05-25T22:58:16.308;599616425222502418;1492.0756;3299
2024-05-25T22:58:16.315;599616425230193790;1499.767;3215
2024-05-25T22:58:16.323;599616425237885162;1507.4583;3097
2024-05-25T22:58:16.331;599616425245576534;1515.1497;3009
2024-05-25T22:58:16.338;599616425253267906;1522.8411;3000
2024-05-25T22:58:16.346;599616425260959278;1530.5325;2986
2024-05-25T22:58:16.354;599616425268650650;1538.2239;2958
2024-05-25T22:58:16.361;599616425276342022;1545.9152;2898
2024-05-25T22:58:16.369;599616425284033394;1553.6066;2810
2024-05-25T22:58:16.377;599616425291724766;1561.298;2905
2024-05-25T22:58:16.384;599616425299416138;1568.9893;3303
2024-05-25T22:58:16.392;599616425307107510;1576.6807;3716
2024-05-25T22:58:16.400;599616425314798882;1584.3721;3658
2024-05-25T22:58:16.408;599616425322490254;1592.0634;3107
2024-05-25T22:58:16.415;599616425330181626;1599.7548;2674
2024-05-25T22:58:16.423;599616425337872998;1607.4462;2664
2024-05-25T22:58:16.431;599616425345564370;1615.1376;2657
2024-05-25T22:58:16.438;599616425353255742;1622.829;2514
2024-05-25T22:58:16.446;599616425360947114;1630.5203;2465
2024-05-25T22:58:16.454;599616425368638486;1638.2115;2417
2024-05-25T22:58:16.461;599616425376329858;1645.903;2310
2024-05-25T22:58:16.469;599616425384021230;1653.5944;2294
2024-05-25T22:58:16.477;599616425391712602;1661.2858;2319
2024-05-25T22:58:16.484;599616425399403974;1668.9772;2285
2024-05-25T22:58:16.492;599616425407095346;1676.6686;2243
2024-05-25T22:58:16.500;599616425414816822;1684.39;2236
2024-05-25T22:58:16.508;599616425422507776;1692.0809;2224
2024-05-25T22:58:16.515;599616425430198730;1699.7719;2201
2024-05-25T22:58:16.523;599616425437889684;1707.4628;2190
2024-05-25T22:58:16.531;599616425445580638;1715.1538;2197
2024-05-25T22:58:16.538;599616425453271592;1722.8448;2204
2024-05-25T22:58:16.546;599616425460962546;1730.5356;2176
2024-05-25T22:58:16.554;599616425468653500;1738.2267;2146
2024-05-25T22:58:16.561;599616425476344454;1745.9176;2136
2024-05-25T22:58:16.569;599616425484035408;1753.6085;2074
2024-05-25T22:58:16.577;599616425491726362;1761.2996;1951
2024-05-25T22:58:16.584;599616425499417316;1768.9905;1889
2024-05-25T22:58:16.592;599616425507108270;1776.6815;1896
2024-05-25T22:58:16.600;599616425514799224;1784.3723;1884
2024-05-25T22:58:16.608;599616425522490178;1792.0634;1856
2024-05-25T22:58:16.615;599616425530181132;1799.7543;1859
2024-05-25T22:58:16.623;599616425537872086;1807.4452;1877
2024-05-25T22:58:16.631;599616425545563040;1815.1362;1868
2024-05-25T22:58:16.638;599616425553253994;1822.8271;1833
2024-05-25T22:58:16.646;599616425560944948;1830.5182;1819
2024-05-25T22:58:16.654;599616425568635902;1838.209;1845
2024-05-25T22:58:16.661;599616425576326856;1845.9;1854
2024-05-25T22:58:16.669;599616425584017810;1853.591;1836
2024-05-25T22:58:16.677;599616425591708764;1861.2819;1836
2024-05-25T22:58:16.684;599616425599399718;1868.9729;1836
2024-05-25T22:58:16.692;599616425607090672;1876.6638;1805
2024-05-25T22:58:16.700;599616425614781626;1884.3549;1785
2024-05-25T22:58:16.708;599616425622472580;1892.0457;1796
2024-05-25T22:58:16.715;599616425630163534;1899.7367;1815
2024-05-25T22:58:16.723;599616425637854488;1907.4276;1801
2024-05-25T22:58:16.731;599616425645545442;1915.1187;1761
2024-05-25T22:58:16.738;599616425653236396;1922.8096;1743
2024-05-25T22:58:16.746;599616425660927350;1930.5005;1754
2024-05-25T22:58:16.754;599616425668618304;1938.1915;1745
2024-05-25T22:58:16.761;599616425676309258;1945.8823;1722
2024-05-25T22:58:16.769;599616425684000212;1953.5734;1717
2024-05-25T22:58:16.777;599616425691691166;1961.2644;1708
2024-05-25T22:58:16.784;599616425699382120;1968.9553;1680
2024-05-25T22:58:16.792;599616425707073074;1976.6462;1669
2024-05-25T22:58:16.800;599616425714764028;1984.3372;1634
2024-05-25T22:58:16.808;599616425722454982;1992.0282;1528
2024-05-25T22:58:16.815;599616425730145936;1999.719;1421
2024-05-25T22:58:16.823;599616425737836890;2007.41;1361
2024-05-25T22:58:16.831;599616425745527844;2015.1011;1333
2024-05-25T22:58:16.838;599616425753218798;2022.792;1331
2024-05-25T22:58:16.846;599616425760909752;2030.4829;1331
2024-05-25T22:58:16.854;599616425768600706;2038.1738;1319
2024-05-25T22:58:16.861;599616425776291660;2045.8649;1315
2024-05-25T22:58:16.869;599616425783982614;2053.5557;1266
2024-05-25T22:58:16.877;599616425791673568;2061.2468;1215
2024-05-25T22:58:16.884;599616425799364522;2068.9377;1375
2024-05-25T22:58:16.892;599616425807055476;2076.6287;1817
2024-05-25T22:58:16.900;599616425814746430;2084.3196;2206
2024-05-25T22:58:16.908;599616425822437384;2092.0105;2072
2024-05-25T22:58:16.915;599616425830128338;2099.7014;1507
2024-05-25T22:58:16.923;599616425837819292;2107.3926;1164
2024-05-25T22:58:16.931;599616425845510246;2115.0835;1222
2024-05-25T22:58:16.938;599616425853201200;2122.7744;1210
2024-05-25T22:58:16.946;599616425860892154;2130.4653;1076
2024-05-25T22:58:16.954;599616425868583108;2138.1562;1055
2024-05-25T22:58:16.961;599616425876274062;2145.8472;1018
2024-05-25T22:58:16.969;599616425883965016;2153.538;930
2024-05-25T22:58:16.977;599616425891655970;2161.229;937
2024-05-25T22:58:16.984;599616425899346924;2168.9202;977
2024-05-25T22:58:16.992;599616425907037878;2176.611;958
2024-05-25T22:58:17.000;599616425914728832;2184.302;935
2024-05-25T22:58:17.007;599616425922419786;2191.993;937
2024-05-25T22:58:17.015;599616425930110740;2199.6838;944
2024-05-25T22:58:17.023;599616425937801694;2207.3748;944
2024-05-25T22:58:17.031;599616425945492648;2215.066;946
2024-05-25T22:58:17.038;599616425953183602;2222.7568;970
2024-05-25T22:58:17.046;599616425960874556;2230.4475;997
2024-05-25T22:58:17.054;599616425968565510;2238.1387;974
2024-05-25T22:58:17.061;599616425976256468;2245.8296;914
2024-05-25T22:58:17.069;599616425983947422;2253.5208;907
2024-05-25T22:58:17.077;599616425991638376;2261.2117;946
2024-05-25T22:58:17.084;599616425999329330;2268.9023;949
2024-05-25T22:58:17.092;599616426007020284;2276.5935;930
2024-05-25T22:58:17.100;599616426014711238;2284.2844;928
2024-05-25T22:58:17.107;599616426022402192;2291.9753;905
2024-05-25T22:58:17.115;599616426030093146;2299.6665;833
2024-05-25T22:58:17.123;599616426037784100;2307.3572;766
2024-05-25T22:58:17.131;599616426045475054;2315.048;777
2024-05-25T22:58:17.138;599616426053166008;2322.7393;801
2024-05-25T22:58:17.146;599616426060856962;2330.4302;761
2024-05-25T22:58:17.154;599616426068547916;2338.1208;743
2024-05-25T22:58:17.161;599616426076238870;2345.812;784
2024-05-25T22:58:17.169;599616426083929824;2353.503;812
2024-05-25T22:58:17.177;599616426091620778;2361.194;803
2024-05-25T22:58:17.184;599616426099311732;2368.885;814
2024-05-25T22:58:17.192;599616426107002686;2376.5757;833
2024-05-25T22:58:17.200;599616426114693640;2384.2668;821
2024-05-25T22:58:17.207;599616426122384594;2391.9578;814
2024-05-25T22:58:17.215;599616426130075548;2399.6487;838
2024-05-25T22:58:17.223;599616426137766502;2407.3398;865
2024-05-25T22:58:17.231;599616426145457456;2415.0305;863
2024-05-25T22:58:17.238;599616426153148410;2422.7214;831
2024-05-25T22:58:17.246;599616426160839364;2430.4126;824
2024-05-25T22:58:17.254;599616426168530318;2438.1035;852
2024-05-25T22:58:17.261;599616426176221272;2445.7942;861
2024-05-25T22:58:17.269;599616426183912226;2453.4854;847
2024-05-25T22:58:17.277;599616426191603180;2461.1763;852
2024-05-25T22:58:17.284;599616426199294134;2468.8674;856
2024-05-25T22:58:17.292;599616426206985088;2476.5583;842
2024-05-25T22:58:17.300;599616426214676042;2484.249;817
2024-05-25T22:58:17.307;599616426222366996;2491.9402;764
2024-05-25T22:58:17.315;599616426230057950;2499.631;703
2024-05-25T22:58:17.323;599616426237748904;2507.322;687
2024-05-25T22:58:17.331;599616426245439858;2515.0132;652
2024-05-25T22:58:17.338;599616426253130812;2522.7039;597
2024-05-25T22:58:17.346;599616426260821766;2530.3948;599
2024-05-25T22:58:17.354;599616426268512720;2538.086;618
2024-05-25T22:58:17.361;599616426276203674;2545.7769;604
2024-05-25T22:58:17.369;599616426283894628;2553.468;576
2024-05-25T22:58:17.377;599616426291585582;2561.1587;530
2024-05-25T22:58:17.384;599616426299276536;2568.8496;571
2024-05-25T22:58:17.392;599616426306967490;2576.5408;898
2024-05-25T22:58:17.400;599616426314658444;2584.2317;1379
2024-05-25T22:58:17.407;599616426322349398;2591.9224;1514
2024-05-25T22:58:17.415;599616426330040352;2599.6135;1076
2024-05-25T22:58:17.423;599616426337731306;2607.3044;562
2024-05-25T22:58:17.430;599616426345422260;2614.9954;504
2024-05-25T22:58:17.438;599616426353113214;2622.6865;618
2024-05-25T22:58:17.446;599616426360804168;2630.3772;527
2024-05-25T22:58:17.454;599616426368495122;2638.068;437
2024-05-25T22:58:17.461;599616426376186076;2645.7593;458
2024-05-25T22:58:17.469;599616426383877030;2653.4502;416
2024-05-25T22:58:17.477;599616426391567984;2661.1414;333
2024-05-25T22:58:17.484;599616426399258938;2668.832;340
2024-05-25T22:58:17.492;599616426406949892;2676.523;370
2024-05-25T22:58:17.500;599616426414640846;2684.214;361
2024-05-25T22:58:17.507;599616426422331800;2691.905;349
2024-05-25T22:58:17.515;599616426430022754;2699.596;354
2024-05-25T22:58:17.523;599616426437713708;2707.2869;365
2024-05-25T22:58:17.530;599616426445404662;2714.9778;370
2024-05-25T22:58:17.538;599616426453095616;2722.6687;368
2024-05-25T22:58:17.546;599616426460786570;2730.3599;368
2024-05-25T22:58:17.554;599616426468477524;2738.0505;344
2024-05-25T22:58:17.561;599616426476168478;2745.7415;310
2024-05-25T22:58:17.569;599616426483859432;2753.4326;310
2024-05-25T22:58:17.577;599616426491550386;2761.1235;347
2024-05-25T22:58:17.584;599616426499241340;2768.8147;375
2024-05-25T22:58:17.592;599616426506932294;2776.5054;377
2024-05-25T22:58:17.600;599616426514623248;2784.1963;368
2024-05-25T22:58:17.607;599616426522314202;2791.8875;377
2024-05-25T22:58:17.615;599616426530005156;2799.5784;395
2024-05-25T22:58:17.623;599616426537691146;2807.2642;395
2024-05-25T22:58:17.630;599616426545382169;2814.9553;393
2024-05-25T22:58:17.638;599616426553073192;2822.6462;414
2024-05-25T22:58:17.646;599616426560764215;2830.3372;414
2024-05-25T22:58:17.654;599616426568455238;2838.0283;340
2024-05-25T22:58:17.661;599616426576146261;2845.7192;280
2024-05-25T22:58:17.669;599616426583837284;2853.4106;312
2024-05-25T22:58:17.677;599616426591528307;2861.1016;356
2024-05-25T22:58:17.684;599616426599219330;2868.7925;354
2024-05-25T22:58:17.692;599616426606910353;2876.4836;354
2024-05-25T22:58:17.700;599616426614601376;2884.1746;370
2024-05-25T22:58:17.707;599616426622292399;2891.8655;372
2024-05-25T22:58:17.715;599616426629983422;2899.5566;375
2024-05-25T22:58:17.723;599616426637674445;2907.2476;393
2024-05-25T22:58:17.730;599616426645365468;2914.9387;423
2024-05-25T22:58:17.738;599616426653056491;2922.6296;435
2024-05-25T22:58:17.746;599616426660747514;2930.3206;416
2024-05-25T22:58:17.754;599616426668438537;2938.0117;414
2024-05-25T22:58:17.761;599616426676129560;2945.7026;444
2024-05-25T22:58:17.769;599616426683820583;2953.3936;463
2024-05-25T22:58:17.777;599616426691511606;2961.0847;453
2024-05-25T22:58:17.784;599616426699202629;2968.7756;456
2024-05-25T22:58:17.792;599616426706893652;2976.4668;449
2024-05-25T22:58:17.800;599616426714584675;2984.158;400
2024-05-25T22:58:17.807;599616426722275698;2991.8489;354
2024-05-25T22:58:17.815;599616426729966721;2999.54;312
2024-05-25T22:58:17.823;599616426737657744;3007.231;282
2024-05-25T22:58:17.830;599616426745348767;3014.9219;284
2024-05-25T22:58:17.838;599616426753039790;3022.613;261
2024-05-25T22:58:17.846;599616426760730813;3030.304;219
2024-05-25T22:58:17.853;599616426768421836;3037.995;226
2024-05-25T22:58:17.861;599616426776112859;3045.686;240
2024-05-25T22:58:17.869;599616426783803882;3053.377;224
2024-05-25T22:58:17.877;599616426791494905;3061.068;187
2024-05-25T22:58:17.884;599616426799185928;3068.759;187
2024-05-25T22:58:17.892;599616426806876951;3076.45;375
2024-05-25T22:58:17.900;599616426814567974;3084.141;821
2024-05-25T22:58:17.907;599616426822258997;3091.832;1210
2024-05-25T22:58:17.915;599616426829950020;3099.5232;1062
2024-05-25T22:58:17.923;599616426837641043;3107.214;486
2024-05-25T22:58:17.930;599616426845332066;3114.9053;159
2024-05-25T22:58:17.938;599616426853023089;3122.5964;259
2024-05-25T22:58:17.946;599616426860714112;3130.2874;305
2024-05-25T22:58:17.953;599616426868405135;3137.9783;194
2024-05-25T22:58:17.961;599616426876096158;3145.6694;164
2024-05-25T22:58:17.969;599616426883787181;3153.3604;175
2024-05-25T22:58:17.977;599616426891478204;3161.0515;115
2024-05-25T22:58:17.984;599616426899169227;3168.7424;48
2024-05-25T22:58:17.992;599616426906860250;3176.4333;53
2024-05-25T22:58:18.000;599616426914551273;3184.1245;87
2024-05-25T22:58:18.007;599616426922242296;3191.8154;94
2024-05-25T22:58:18.015;599616426929933319;3199.5063;83
2024-05-25T22:58:18.023;599616426937624342;3207.1975;78
2024-05-25T22:58:18.030;599616426945315365;3214.8884;99
2024-05-25T22:58:18.038;599616426953006388;3222.5793;104
2024-05-25T22:58:18.046;599616426960697411;3230.2705;81
2024-05-25T22:58:18.053;599616426968388434;3237.9614;87
2024-05-25T22:58:18.061;599616426976079457;3245.6528;131
2024-05-25T22:58:18.069;599616426983770480;3253.3438;136
2024-05-25T22:58:18.077;599616426991461503;3261.0347;122
2024-05-25T22:58:18.084;599616426999152526;3268.7258;155
2024-05-25T22:58:18.092;599616427006843549;3276.4167;194
2024-05-25T22:58:18.100;599616427014534572;3284.1077;203
2024-05-25T22:58:18.107;599616427022225595;3291.7988;192
2024-05-25T22:58:18.115;599616427029916618;3299.4897;192
2024-05-25T22:58:18.123;599616427037607641;3307.181;206
2024-05-25T22:58:18.130;599616427045298664;3314.8718;217
2024-05-25T22:58:18.138;599616427052989687;3322.5627;217
2024-05-25T22:58:18.146;599616427060680710;3330.254;238
2024-05-25T22:58:18.153;599616427068371733;3337.9448;266
2024-05-25T22:58:18.161;599616427076062756;3345.6357;252
2024-05-25T22:58:18.169;599616427083753779;3353.327;243
2024-05-25T22:58:18.177;599616427091444802;3361.0178;282
2024-05-25T22:58:18.184;599616427099115790;3368.689;319
2024-05-25T22:58:18.192;599616427106807092;3376.3801;328
2024-05-25T22:58:18.200;599616427114498394;3384.0718;324
2024-05-25T22:58:18.207;599616427122189696;3391.763;321
2024-05-25T22:58:18.215;599616427129880998;3399.454;317
2024-05-25T22:58:18.223;599616427137572300;3407.1455;273
2024-05-25T22:58:18.230;599616427145263602;3414.8367;208
2024-05-25T22:58:18.238;599616427152954904;3422.528;217
2024-05-25T22:58:18.246;599616427160646206;3430.2192;256
2024-05-25T22:58:18.253;599616427168337508;3437.911;236
2024-05-25T22:58:18.261;599616427176028810;3445.602;213
2024-05-25T22:58:18.269;599616427183720112;3453.2932;256
2024-05-25T22:58:18.276;599616427191411414;3460.9846;296
2024-05-25T22:58:18.284;599616427199102716;3468.6758;284
2024-05-25T22:58:18.292;599616427206794018;3476.3672;252
2024-05-25T22:58:18.300;599616427214485320;3484.0583;243
2024-05-25T22:58:18.307;599616427222176622;3491.75;259
2024-05-25T22:58:18.315;599616427229867924;3499.4412;240
2024-05-25T22:58:18.323;599616427237559226;3507.1323;185
2024-05-25T22:58:18.330;599616427245250528;3514.8237;187
2024-05-25T22:58:18.338;599616427252941830;3522.515;222
2024-05-25T22:58:18.346;599616427260633132;3530.2063;210
2024-05-25T22:58:18.353;599616427268324434;3537.8975;213
2024-05-25T22:58:18.361;599616427276015736;3545.589;268
2024-05-25T22:58:18.369;599616427283707038;3553.2803;291
2024-05-25T22:58:18.376;599616427291398340;3560.9714;259
2024-05-25T22:58:18.384;599616427299089642;3568.6628;229
2024-05-25T22:58:18.392;599616427306780944;3576.354;312
2024-05-25T22:58:18.400;599616427314472246;3584.0454;643
2024-05-25T22:58:18.407;599616427322163548;3591.7368;1118
2024-05-25T22:58:18.415;599616427329854850;3599.428;1291
2024-05-25T22:58:18.423;599616427337546152;3607.1194;896
2024-05-25T22:58:18.430;599616427345237454;3614.8105;372
2024-05-25T22:58:18.438;599616427352928756;3622.502;270
2024-05-25T22:58:18.446;599616427360620058;3630.193;372
2024-05-25T22:58:18.453;599616427368311360;3637.8845;338
2024-05-25T22:58:18.461;599616427376002662;3645.576;300
2024-05-25T22:58:18.469;599616427383693964;3653.267;342
2024-05-25T22:58:18.476;599616427391385266;3660.9585;361
2024-05-25T22:58:18.484;599616427399076568;3668.6497;354
2024-05-25T22:58:18.492;599616427406767870;3676.341;358
2024-05-25T22:58:18.500;599616427414459172;3684.0322;370
2024-05-25T22:58:18.507;599616427422150474;3691.7236;388
2024-05-25T22:58:18.515;599616427429841776;3699.415;416
2024-05-25T22:58:18.523;599616427437533078;3707.1062;419
2024-05-25T22:58:18.530;599616427445224380;3714.7976;375
2024-05-25T22:58:18.538;599616427452915682;3722.4888;331
2024-05-25T22:58:18.546;599616427460606984;3730.1802;338
2024-05-25T22:58:18.553;599616427468298286;3737.8713;361
2024-05-25T22:58:18.561;599616427475989588;3745.5627;370
2024-05-25T22:58:18.569;599616427483680890;3753.2542;393
2024-05-25T22:58:18.576;599616427491372192;3760.9453;405
2024-05-25T22:58:18.584;599616427499063494;3768.6367;391
2024-05-25T22:58:18.592;599616427506754796;3776.328;398
2024-05-25T22:58:18.600;599616427514446098;3784.0193;428
2024-05-25T22:58:18.607;599616427522137400;3791.7104;435
2024-05-25T22:58:18.615;599616427529828702;3799.402;419
2024-05-25T22:58:18.623;599616427537520004;3807.0933;407
2024-05-25T22:58:18.630;599616427545211306;3814.7844;416
2024-05-25T22:58:18.638;599616427552902608;3822.4758;430
2024-05-25T22:58:18.646;599616427560593910;3830.167;426
2024-05-25T22:58:18.653;599616427568285212;3837.8584;430
2024-05-25T22:58:18.661;599616427575976514;3845.5496;446
2024-05-25T22:58:18.669;599616427583667816;3853.241;435
2024-05-25T22:58:18.676;599616427591359118;3860.9324;414
2024-05-25T22:58:18.684;599616427599050420;3868.6235;430
2024-05-25T22:58:18.692;599616427606741722;3876.315;465
2024-05-25T22:58:18.700;599616427614433024;3884.006;472
2024-05-25T22:58:18.707;599616427622124326;3891.6975;456
2024-05-25T22:58:18.715;599616427629815628;3899.3887;444
2024-05-25T22:58:18.723;599616427637506930;3907.08;446
2024-05-25T22:58:18.730;599616427645198232;3914.7715;453
2024-05-25T22:58:18.738;599616427652889534;3922.4626;446
2024-05-25T22:58:18.746;599616427660605924;3930.179;451
2024-05-25T22:58:18.753;599616427668296878;3937.87;463
2024-05-25T22:58:18.761;599616427675987832;3945.561;439
2024-05-25T22:58:18.769;599616427683678786;3953.252;409
2024-05-25T22:58:18.776;599616427691369740;3960.9429;398
2024-05-25T22:58:18.784;599616427699060694;3968.6338;358
2024-05-25T22:58:18.792;599616427706751648;3976.325;310
2024-05-25T22:58:18.800;599616427714442602;3984.0159;310
2024-05-25T22:58:18.807;599616427722133556;3991.7065;310
2024-05-25T22:58:18.815;599616427729824510;3999.3977;243
2024-05-25T22:58:18.823;599616427737515464;4007.0886;118
2024-05-25T22:58:18.830;599616427745206418;4014.7795;43
2024-05-25T22:58:18.838;599616427752897372;4022.4707;76
2024-05-25T22:58:18.846;599616427760588326;4030.1614;106
2024-05-25T22:58:18.853;599616427768279280;4037.8523;69
2024-05-25T22:58:18.861;599616427775970234;4045.5435;27
2024-05-25T22:58:18.869;599616427783661188;4053.2344;32
2024-05-25T22:58:18.876;599616427791352142;4060.9253;48
2024-05-25T22:58:18.884;599616427799043096;4068.6162;18
2024-05-25T22:58:18.892;599616427806734050;4076.3071;-25
2024-05-25T22:58:18.899;599616427814425004;4083.9983;76
2024-05-25T22:58:18.907;599616427822115958;4091.6892;453
2024-05-25T22:58:18.915;599616427829806912;4099.38;921
2024-05-25T22:58:18.923;599616427837497866;4107.071;1007
2024-05-25T22:58:18.930;599616427845188820;4114.762;548
2024-05-25T22:58:18.938;599616427852879774;4122.453;74
2024-05-25T22:58:18.946;599616427860570728;4130.144;32
2024-05-25T22:58:18.953;599616427868261682;4137.835;122
2024-05-25T22:58:18.961;599616427875952636;4145.526;81
2024-05-25T22:58:18.969;599616427883643590;4153.217;60
2024-05-25T22:58:18.976;599616427891334544;4160.9077;67
2024-05-25T22:58:18.984;599616427899025498;4168.5986;20
2024-05-25T22:58:18.992;599616427906716452;4176.2896;-23
2024-05-25T22:58:18.999;599616427914407406;4183.9805;-57
2024-05-25T22:58:19.007;599616427922098360;4191.6714;-78
2024-05-25T22:58:19.015;599616427929789314;4199.363;-64
2024-05-25T22:58:19.023;599616427937480268;4207.053;-69
2024-05-25T22:58:19.030;599616427945171222;4214.744;-129
2024-05-25T22:58:19.038;599616427952862176;4222.4355;-173
2024-05-25T22:58:19.046;599616427960553130;4230.1265;-148
2024-05-25T22:58:19.053;599616427968244084;4237.8174;-101
2024-05-25T22:58:19.061;599616427975935038;4245.5083;-81
2024-05-25T22:58:19.069;599616427983625992;4253.199;-62
2024-05-25T22:58:19.076;599616427991316946;4260.89;-30
2024-05-25T22:58:19.084;599616427999007900;4268.581;-16
2024-05-25T22:58:19.092;599616428006698854;4276.272;-13
2024-05-25T22:58:19.099;599616428014389808;4283.963;2
2024-05-25T22:58:19.107;599616428022080762;4291.654;34
2024-05-25T22:58:19.115;599616428029771716;4299.3447;55
2024-05-25T22:58:19.123;599616428037462670;4307.0356;43
2024-05-25T22:58:19.130;599616428045153624;4314.727;25
2024-05-25T22:58:19.138;599616428052844578;4322.4175;48
2024-05-25T22:58:19.146;599616428060535532;4330.109;83
2024-05-25T22:58:19.153;599616428068226486;4337.8;85
2024-05-25T22:58:19.161;599616428075917440;4345.49;87
2024-05-25T22:58:19.169;599616428083608394;4353.1816;115
2024-05-25T22:58:19.176;599616428091299348;4360.8726;127
2024-05-25T22:58:19.184;599616428098990302;4368.5635;125
2024-05-25T22:58:19.192;599616428106681256;4376.2544;148
2024-05-25T22:58:19.199;599616428114372210;4383.9453;189
2024-05-25T22:58:19.207;599616428122063164;4391.6367;215
2024-05-25T22:58:19.215;599616428129754118;4399.327;210
2024-05-25T22:58:19.223;599616428137445072;4407.018;203
2024-05-25T22:58:19.230;599616428145136026;4414.7095;217
2024-05-25T22:58:19.238;599616428152826980;4422.4;238
2024-05-25T22:58:19.246;599616428160517934;4430.0913;245
2024-05-25T22:58:19.253;599616428168208888;4437.782;256
2024-05-25T22:58:19.261;599616428175899842;4445.4727;275
2024-05-25T22:58:19.269;599616428183590796;4453.164;259
2024-05-25T22:58:19.276;599616428191281750;4460.855;210
2024-05-25T22:58:19.284;599616428198972704;4468.546;208
2024-05-25T22:58:19.292;599616428206663658;4476.237;247
2024-05-25T22:58:19.299;599616428214354612;4483.9277;256
2024-05-25T22:58:19.307;599616428222015474;4491.5884;245
2024-05-25T22:58:19.315;599616428229706846;4499.28;243
2024-05-25T22:58:19.322;599616428237398218;4506.971;206
2024-05-25T22:58:19.330;599616428245089590;4514.663;131
2024-05-25T22:58:19.338;599616428252780962;4522.354;108
2024-05-25T22:58:19.346;599616428260472334;4530.0454;148
2024-05-25T22:58:19.353;599616428268163706;4537.737;166
2024-05-25T22:58:19.361;599616428275855078;4545.4287;90
2024-05-25T22:58:19.369;599616428283546450;4553.1196;-30
2024-05-25T22:58:19.376;599616428291237822;4560.811;-53
2024-05-25T22:58:19.384;599616428298929194;4568.5024;-11
2024-05-25T22:58:19.392;599616428306620566;4576.1934;-46
2024-05-25T22:58:19.399;599616428314311938;4583.8853;-106
2024-05-25T22:58:19.407;599616428322003310;4591.5767;-4
2024-05-25T22:58:19.415;599616428329694682;4599.268;361
2024-05-25T22:58:19.422;599616428337386054;4606.959;817
2024-05-25T22:58:19.430;599616428345077426;4614.6504;914
2024-05-25T22:58:19.438;599616428352768798;4622.3423;490
2024-05-25T22:58:19.446;599616428360460170;4630.033;37
2024-05-25T22:58:19.453;599616428368151542;4637.7246;-6
2024-05-25T22:58:19.461;599616428375842914;4645.416;83
2024-05-25T22:58:19.469;599616428383534286;4653.1074;46
2024-05-25T22:58:19.476;599616428391225658;4660.799;23
2024-05-25T22:58:19.484;599616428398917030;4668.49;27
2024-05-25T22:58:19.492;599616428406608402;4676.1816;-11
2024-05-25T22:58:19.499;599616428414299774;4683.8726;-46
2024-05-25T22:58:19.507;599616428421991146;4691.5645;-64
2024-05-25T22:58:19.515;599616428429682518;4699.256;-87
2024-05-25T22:58:19.522;599616428437373890;4706.9473;-115
2024-05-25T22:58:19.530;599616428445065262;4714.638;-120
2024-05-25T22:58:19.538;599616428452756634;4722.3296;-104
2024-05-25T22:58:19.546;599616428460448006;4730.0215;-108
2024-05-25T22:58:19.553;599616428468139378;4737.7124;-97
2024-05-25T22:58:19.561;599616428475830750;4745.404;-46
2024-05-25T22:58:19.569;599616428483522122;4753.095;-13
2024-05-25T22:58:19.576;599616428491213494;4760.7866;-4
2024-05-25T22:58:19.584;599616428498904866;4768.478;18
2024-05-25T22:58:19.592;599616428506596238;4776.1694;46
2024-05-25T22:58:19.599;599616428514287610;4783.861;53
2024-05-25T22:58:19.607;599616428521978982;4791.552;57
2024-05-25T22:58:19.615;599616428529670354;4799.243;90
2024-05-25T22:58:19.622;599616428537361726;4806.935;127
2024-05-25T22:58:19.630;599616428545053098;4814.6265;127
2024-05-25T22:58:19.638;599616428552744470;4822.3174;106
2024-05-25T22:58:19.646;599616428560435842;4830.009;115
2024-05-25T22:58:19.653;599616428568127214;4837.7007;150
2024-05-25T22:58:19.661;599616428575818586;4845.392;159
2024-05-25T22:58:19.669;599616428583509958;4853.083;155
2024-05-25T22:58:19.676;599616428591201330;4860.7744;171
2024-05-25T22:58:19.684;599616428598892702;4868.466;189
2024-05-25T22:58:19.692;599616428606584074;4876.157;189
2024-05-25T22:58:19.699;599616428614275446;4883.8486;201
2024-05-25T22:58:19.707;599616428621966818;4891.54;240
2024-05-25T22:58:19.715;599616428629658190;4899.2314;273
2024-05-25T22:58:19.722;599616428637349562;4906.9224;268
2024-05-25T22:58:19.730;599616428645040934;4914.6143;247
2024-05-25T22:58:19.738;599616428652732306;4922.3057;250
2024-05-25T22:58:19.745;599616428660423678;4929.9966;282
2024-05-25T22:58:19.753;599616428668115050;4937.688;289
2024-05-25T22:58:19.761;599616428675806422;4945.3794;266
2024-05-25T22:58:19.769;599616428683497794;4953.0713;229
2024-05-25T22:58:19.776;599616428691189166;4960.762;196
2024-05-25T22:58:19.784;599616428698880538;4968.4536;189
2024-05-25T22:58:19.792;599616428706571910;4976.145;206
2024-05-25T22:58:19.799;599616428714263282;4983.837;236
2024-05-25T22:58:19.807;599616428721954654;4991.528;256
2024-05-25T22:58:19.815;599616428729646026;4999.219;254
2024-05-25T22:58:19.822;599616428737337398;5006.9106;245
2024-05-25T22:58:19.830;599616428745028770;5014.6016;210
2024-05-25T22:58:19.838;599616428752720142;5022.2935;143
2024-05-25T22:58:19.845;599616428760411514;5029.985;120
2024-05-25T22:58:19.853;599616428768102886;5037.6763;155
2024-05-25T22:58:19.861;599616428775794258;5045.367;175
2024-05-25T22:58:19.869;599616428783515734;5053.089;152
2024-05-25T22:58:19.876;599616428791206688;5060.7803;113
2024-05-25T22:58:19.884;599616428798897642;5068.4707;111
2024-05-25T22:58:19.892;599616428806588596;5076.1616;143
2024-05-25T22:58:19.899;599616428814279550;5083.853;138
2024-05-25T22:58:19.907;599616428821970504;5091.5435;76
2024-05-25T22:58:19.915;599616428829661458;5099.235;69
2024-05-25T22:58:19.922;599616428837352412;5106.926;291
2024-05-25T22:58:19.930;599616428845043366;5114.616;717
2024-05-25T22:58:19.938;599616428852734320;5122.3076;986
2024-05-25T22:58:19.945;599616428860425274;5129.9985;757
2024-05-25T22:58:19.953;599616428868116228;5137.6895;229
2024-05-25T22:58:19.961;599616428875807182;5145.3804;-43
2024-05-25T22:58:19.969;599616428883498136;5153.0713;34
2024-05-25T22:58:19.976;599616428891189090;5160.762;83
2024-05-25T22:58:19.984;599616428898880044;5168.453;20
2024-05-25T22:58:19.992;599616428906570998;5176.1445;-2
2024-05-25T22:58:19.999;599616428914261952;5183.835;-18
2024-05-25T22:58:20.007;599616428921952906;5191.526;-92
2024-05-25T22:58:20.015;599616428929643860;5199.2173;-178
2024-05-25T22:58:20.022;599616428937334814;5206.9077;-203
2024-05-25T22:58:20.030;599616428945025768;5214.599;-178
2024-05-25T22:58:20.038;599616428952716722;5222.29;-152
2024-05-25T22:58:20.045;599616428960407676;5229.9805;-141
2024-05-25T22:58:20.053;599616428968098630;5237.672;-141
2024-05-25T22:58:20.061;599616428975789584;5245.363;-127
2024-05-25T22:58:20.069;599616428983480538;5253.0537;-81
2024-05-25T22:58:20.076;599616428991171492;5260.7446;-41
2024-05-25T22:58:20.084;599616428998862446;5268.4355;-25
2024-05-25T22:58:20.092;599616429006553400;5276.127;-6
2024-05-25T22:58:20.099;599616429014244354;5283.8174;18
2024-05-25T22:58:20.107;599616429021935308;5291.5083;34
2024-05-25T22:58:20.115;599616429029626262;5299.1997;41
2024-05-25T22:58:20.122;599616429037317216;5306.89;57
2024-05-25T22:58:20.130;599616429045008170;5314.5815;85
2024-05-25T22:58:20.138;599616429052699124;5322.2725;101
2024-05-25T22:58:20.145;599616429060390078;5329.963;87
2024-05-25T22:58:20.153;599616429068081032;5337.6543;94
2024-05-25T22:58:20.161;599616429075771986;5345.345;134
2024-05-25T22:58:20.169;599616429083462940;5353.036;152
2024-05-25T22:58:20.176;599616429091153894;5360.727;148
2024-05-25T22:58:20.184;599616429098844848;5368.418;155
2024-05-25T22:58:20.192;599616429106535802;5376.109;171
2024-05-25T22:58:20.199;599616429114226756;5383.8;182
2024-05-25T22:58:20.207;599616429121917710;5391.491;196
2024-05-25T22:58:20.215;599616429129608664;5399.1816;222
2024-05-25T22:58:20.222;599616429137299618;5406.8726;259
2024-05-25T22:58:20.230;599616429144990572;5414.564;268
2024-05-25T22:58:20.238;599616429152681526;5422.2544;245
2024-05-25T22:58:20.245;599616429160372480;5429.946;245
2024-05-25T22:58:20.253;599616429168063434;5437.6367;259
2024-05-25T22:58:20.261;599616429175754388;5445.327;219
2024-05-25T22:58:20.269;599616429183445342;5453.0186;180
2024-05-25T22:58:20.276;599616429191136296;5460.7095;206
2024-05-25T22:58:20.284;599616429198827250;5468.401;224
2024-05-25T22:58:20.292;599616429206518204;5476.0913;210
2024-05-25T22:58:20.299;599616429214209158;5483.782;219
2024-05-25T22:58:20.307;599616429221900112;5491.4736;256
2024-05-25T22:58:20.315;599616429229591066;5499.164;277
2024-05-25T22:58:20.322;599616429237282020;5506.8555;266
2024-05-25T22:58:20.330;599616429244972974;5514.5464;213
2024-05-25T22:58:20.338;599616429252663928;5522.237;134
2024-05-25T22:58:20.345;599616429260354882;5529.928;106
2024-05-25T22:58:20.353;599616429268045836;5537.619;141
2024-05-25T22:58:20.361;599616429275736790;5545.3096;171
2024-05-25T22:58:20.369;599616429283427744;5553.001;194
2024-05-25T22:58:20.376;599616429291118698;5560.692;187
2024-05-25T22:58:20.384;599616429298809652;5568.383;134
2024-05-25T22:58:20.392;599616429306500606;5576.0737;118
2024-05-25T22:58:20.399;599616429314191560;5583.7646;152
2024-05-25T22:58:20.407;599616429321882514;5591.4556;178
2024-05-25T22:58:20.415;599616429329573468;5599.1465;171
2024-05-25T22:58:20.422;599616429337264422;5606.838;141
2024-05-25T22:58:20.430;599616429344925284;5614.4985;108
2024-05-25T22:58:20.438;599616429352616656;5622.1895;145
2024-05-25T22:58:20.445;599616429360308028;5629.8813;379
2024-05-25T22:58:20.453;599616429367999400;5637.5728;833
2024-05-25T22:58:20.461;599616429375690772;5645.2637;1162
2024-05-25T22:58:20.468;599616429383382144;5652.955;882
2024-05-25T22:58:20.476;599616429391073516;5660.647;208
2024-05-25T22:58:20.484;599616429398764888;5668.3384;-78
2024-05-25T22:58:20.492;599616429406456260;5676.0293;53
2024-05-25T22:58:20.499;599616429414147632;5683.7207;16
2024-05-25T22:58:20.507;599616429421839004;5691.412;-157
2024-05-25T22:58:20.515;599616429429530376;5699.1035;-194
2024-05-25T22:58:20.522;599616429437221748;5706.795;-182
2024-05-25T22:58:20.530;599616429444913120;5714.4863;-206
2024-05-25T22:58:20.538;599616429452604492;5722.1777;-203
2024-05-25T22:58:20.545;599616429460295864;5729.8687;-162
2024-05-25T22:58:20.553;599616429467987236;5737.5605;-136
2024-05-25T22:58:20.561;599616429475678608;5745.252;-152
2024-05-25T22:58:20.568;599616429483369980;5752.943;-148
2024-05-25T22:58:20.576;599616429491061352;5760.6343;-101
2024-05-25T22:58:20.584;599616429498752724;5768.3257;-62
2024-05-25T22:58:20.592;599616429506444096;5776.0176;-46
2024-05-25T22:58:20.599;599616429514135468;5783.7085;-34
2024-05-25T22:58:20.607;599616429521826840;5791.4;-11
2024-05-25T22:58:20.615;599616429529518212;5799.0913;23
2024-05-25T22:58:20.622;599616429537209584;5806.783;55
2024-05-25T22:58:20.630;599616429544900956;5814.474;71
2024-05-25T22:58:20.638;599616429552592328;5822.1655;99
2024-05-25T22:58:20.645;599616429560283700;5829.857;129
2024-05-25T22:58:20.653;599616429567975072;5837.548;122
2024-05-25T22:58:20.661;599616429575666444;5845.2397;120
2024-05-25T22:58:20.668;599616429583357816;5852.931;171
2024-05-25T22:58:20.676;599616429591049188;5860.6226;208
2024-05-25T22:58:20.684;599616429598740560;5868.3135;192
2024-05-25T22:58:20.692;599616429606431932;5876.005;185
2024-05-25T22:58:20.699;599616429614123304;5883.697;206
2024-05-25T22:58:20.707;599616429621814676;5891.3877;224
2024-05-25T22:58:20.715;599616429629506048;5899.079;238
2024-05-25T22:58:20.722;599616429637197420;5906.7705;259
2024-05-25T22:58:20.730;599616429644888792;5914.4624;289
2024-05-25T22:58:20.738;599616429652580164;5922.1533;307
2024-05-25T22:58:20.745;599616429660271536;5929.8447;298
2024-05-25T22:58:20.753;599616429667962908;5937.536;273
2024-05-25T22:58:20.761;599616429675654280;5945.227;270
2024-05-25T22:58:20.768;599616429683345652;5952.919;284
2024-05-25T22:58:20.776;599616429691037024;5960.6104;284
2024-05-25T22:58:20.784;599616429698728396;5968.302;287
2024-05-25T22:58:20.791;599616429706419768;5975.9927;305
2024-05-25T22:58:20.799;599616429714111140;5983.684;319
2024-05-25T22:58:20.807;599616429721802512;5991.376;317
2024-05-25T22:58:20.815;599616429729493884;5999.067;328
2024-05-25T22:58:20.822;599616429737185256;6006.7583;354
2024-05-25T22:58:20.830;599616429744876628;6014.4497;356
2024-05-25T22:58:20.838;599616429752568000;6022.141;277
2024-05-25T22:58:20.845;599616429760259372;6029.8325;201
2024-05-25T22:58:20.853;599616429767950744;6037.524;226
2024-05-25T22:58:20.861;599616429775642116;6045.2153;268
2024-05-25T22:58:20.868;599616429783333488;6052.9067;259
2024-05-25T22:58:20.876;599616429791024860;6060.598;252
2024-05-25T22:58:20.884;599616429798716232;6068.2896;236
2024-05-25T22:58:20.891;599616429806407604;6075.981;213
2024-05-25T22:58:20.899;599616429814098976;6083.672;222
2024-05-25T22:58:20.907;599616429821790348;6091.3633;245
2024-05-25T22:58:20.915;599616429829481720;6099.055;254
2024-05-25T22:58:20.922;599616429837173092;6106.7466;243
2024-05-25T22:58:20.930;599616429844864464;6114.4375;222
2024-05-25T22:58:20.938;599616429852555836;6122.129;233
2024-05-25T22:58:20.945;599616429860247208;6129.8203;254
2024-05-25T22:58:20.953;599616429867938580;6137.5117;233
2024-05-25T22:58:20.961;599616429875629952;6145.203;208
2024-05-25T22:58:20.968;599616429883321324;6152.8945;314
2024-05-25T22:58:20.976;599616429891012696;6160.586;645
2024-05-25T22:58:20.984;599616429898704068;6168.277;1051
2024-05-25T22:58:20.991;599616429906425544;6175.9985;1106
2024-05-25T22:58:20.999;599616429914116498;6183.69;597
2024-05-25T22:58:21.007;599616429921807452;6191.3804;62
2024-05-25T22:58:21.015;599616429929498406;6199.072;-2
2024-05-25T22:58:21.022;599616429937189360;6206.7627;39
2024-05-25T22:58:21.030;599616429944880314;6214.453;-69
2024-05-25T22:58:21.038;599616429952571268;6222.1445;-113
2024-05-25T22:58:21.045;599616429960262222;6229.8354;-113
2024-05-25T22:58:21.053;599616429967953176;6237.5264;-148
2024-05-25T22:58:21.061;599616429975644130;6245.2173;-141
2024-05-25T22:58:21.068;599616429983335084;6252.908;-122
2024-05-25T22:58:21.076;599616429991026038;6260.599;-131
2024-05-25T22:58:21.084;599616429998716992;6268.29;-104
2024-05-25T22:58:21.091;599616430006407946;6275.9814;-50
2024-05-25T22:58:21.099;599616430014098900;6283.672;-27
2024-05-25T22:58:21.107;599616430021789854;6291.363;-23
2024-05-25T22:58:21.115;599616430029480808;6299.054;-16
2024-05-25T22:58:21.122;599616430037171762;6306.7446;11
2024-05-25T22:58:21.130;599616430044862716;6314.436;43
2024-05-25T22:58:21.138;599616430052553670;6322.127;55
2024-05-25T22:58:21.145;599616430060244624;6329.8174;85
2024-05-25T22:58:21.153;599616430067935578;6337.509;134
2024-05-25T22:58:21.161;599616430075626532;6345.1997;134
2024-05-25T22:58:21.168;599616430083317486;6352.891;111
2024-05-25T22:58:21.176;599616430091008440;6360.5815;138
2024-05-25T22:58:21.184;599616430098699394;6368.2725;187
2024-05-25T22:58:21.191;599616430106390348;6375.964;201
2024-05-25T22:58:21.199;599616430114081302;6383.6543;203
2024-05-25T22:58:21.207;599616430121772256;6391.3457;210
2024-05-25T22:58:21.215;599616430129463210;6399.0366;213
2024-05-25T22:58:21.222;599616430137154164;6406.727;213
2024-05-25T22:58:21.230;599616430144845118;6414.4185;224
2024-05-25T22:58:21.238;599616430152536072;6422.1094;236
2024-05-25T22:58:21.245;599616430160227026;6429.8;199
2024-05-25T22:58:21.253;599616430167917980;6437.491;138
2024-05-25T22:58:21.261;599616430175608934;6445.182;141
2024-05-25T22:58:21.268;599616430183299888;6452.873;192
2024-05-25T22:58:21.276;599616430190990842;6460.564;224
2024-05-25T22:58:21.284;599616430198681796;6468.255;236
2024-05-25T22:58:21.291;599616430206372750;6475.946;240
2024-05-25T22:58:21.299;599616430214063704;6483.6367;250
2024-05-25T22:58:21.307;599616430221754658;6491.328;270
2024-05-25T22:58:21.315;599616430229445612;6499.0186;277
2024-05-25T22:58:21.322;599616430237136566;6506.7095;280
2024-05-25T22:58:21.330;599616430244827520;6514.401;294
2024-05-25T22:58:21.338;599616430252518474;6522.0913;229
2024-05-25T22:58:21.345;599616430260209428;6529.7827;115
2024-05-25T22:58:21.353;599616430267900382;6537.4736;118
2024-05-25T22:58:21.361;599616430275591336;6545.164;192
2024-05-25T22:58:21.368;599616430283282290;6552.8555;206
2024-05-25T22:58:21.376;599616430290973244;6560.5464;189
2024-05-25T22:58:21.384;599616430298664198;6568.238;178
2024-05-25T22:58:21.391;599616430306355152;6575.928;150
2024-05-25T22:58:21.399;599616430314046106;6583.619;127
2024-05-25T22:58:21.407;599616430321737060;6591.3105;141
2024-05-25T22:58:21.415;599616430329428014;6599.001;173
2024-05-25T22:58:21.422;599616430337118968;6606.6924;213
2024-05-25T22:58:21.430;599616430344809922;6614.3833;219
2024-05-25T22:58:21.438;599616430352500876;6622.0737;187
2024-05-25T22:58:21.445;599616430360191830;6629.765;182
2024-05-25T22:58:21.453;599616430367882784;6637.456;217
2024-05-25T22:58:21.461;599616430375573738;6645.147;238
2024-05-25T22:58:21.468;599616430383264692;6652.838;238
2024-05-25T22:58:21.476;599616430390955646;6660.529;238
2024-05-25T22:58:21.484;599616430398646600;6668.2197;194
2024-05-25T22:58:21.491;599616430406337554;6675.9106;120
2024-05-25T22:58:21.499;599616430414028508;6683.602;210
2024-05-25T22:58:21.507;599616430421719462;6691.2925;592
2024-05-25T22:58:21.514;599616430429410416;6698.9834;965
2024-05-25T22:58:21.522;599616430437101370;6706.675;805
2024-05-25T22:58:21.530;599616430444792324;6714.365;194
2024-05-25T22:58:21.538;599616430452483278;6722.056;-141
2024-05-25T22:58:21.545;599616430460174232;6729.7476;-32
2024-05-25T22:58:21.553;599616430467865190;6737.438;0
2024-05-25T22:58:21.561;599616430475556144;6745.1294;-94
2024-05-25T22:58:21.568;599616430483247098;6752.8203;-67
2024-05-25T22:58:21.576;599616430490938052;6760.5107;-57
2024-05-25T22:58:21.584;599616430498629006;6768.202;-157
2024-05-25T22:58:21.591;599616430506319960;6775.893;-199
2024-05-25T22:58:21.599;599616430514010914;6783.5845;-141
2024-05-25T22:58:21.607;599616430521701868;6791.275;-101
2024-05-25T22:58:21.614;599616430529392822;6798.966;-106
2024-05-25T22:58:21.622;599616430537083776;6806.657;-104
2024-05-25T22:58:21.630;599616430544774730;6814.3477;-69
2024-05-25T22:58:21.638;599616430552465684;6822.039;-25
2024-05-25T22:58:21.645;599616430560156638;6829.73;2
2024-05-25T22:58:21.653;599616430567847592;6837.4204;30
2024-05-25T22:58:21.661;599616430575538546;6845.112;76
2024-05-25T22:58:21.668;599616430583229500;6852.8027;101
2024-05-25T22:58:21.676;599616430590920454;6860.4937;101
2024-05-25T22:58:21.684;599616430598611408;6868.1846;127
2024-05-25T22:58:21.691;599616430606302362;6875.8755;173
2024-05-25T22:58:21.699;599616430613993316;6883.5664;201
2024-05-25T22:58:21.707;599616430621684270;6891.2573;196
2024-05-25T22:58:21.714;599616430629375224;6898.9487;192
2024-05-25T22:58:21.722;599616430637066178;6906.639;213
2024-05-25T22:58:21.730;599616430644757132;6914.33;233
2024-05-25T22:58:21.738;599616430652448086;6922.0215;210
2024-05-25T22:58:21.745;599616430660139040;6929.712;182
2024-05-25T22:58:21.753;599616430667829994;6937.4033;199
2024-05-25T22:58:21.761;599616430675520948;6945.094;206
2024-05-25T22:58:21.768;599616430683211902;6952.7847;194
2024-05-25T22:58:21.776;599616430690902856;6960.476;219
2024-05-25T22:58:21.784;599616430698593810;6968.167;266
2024-05-25T22:58:21.791;599616430706284764;6975.8584;287
2024-05-25T22:58:21.799;599616430713975718;6983.549;280
2024-05-25T22:58:21.807;599616430721666672;6991.2397;277
2024-05-25T22:58:21.814;599616430729357626;6998.931;289
2024-05-25T22:58:21.822;599616430737048580;7006.6216;305
2024-05-25T22:58:21.830;599616430744739534;7014.3125;321
2024-05-25T22:58:21.838;599616430752430488;7022.004;328
2024-05-25T22:58:21.845;599616430760121442;7029.6943;268
2024-05-25T22:58:21.853;599616430767812396;7037.3857;155
2024-05-25T22:58:21.861;599616430775503350;7045.0767;129
2024-05-25T22:58:21.868;599616430783194304;7052.767;187
2024-05-25T22:58:21.876;599616430790885258;7060.4585;210
2024-05-25T22:58:21.884;599616430798576212;7068.1494;199
2024-05-25T22:58:21.891;599616430806267166;7075.8403;171
2024-05-25T22:58:21.899;599616430813958120;7083.5312;125
2024-05-25T22:58:21.907;599616430821649074;7091.222;113
2024-05-25T22:58:21.914;599616430829340028;7098.913;129
2024-05-25T22:58:21.922;599616430837030982;7106.604;138
2024-05-25T22:58:21.930;599616430844721936;7114.2954;164
2024-05-25T22:58:21.937;599616430852412890;7121.986;182
2024-05-25T22:58:21.945;599616430860103844;7129.677;171
2024-05-25T22:58:21.953;599616430867794798;7137.368;178
2024-05-25T22:58:21.961;599616430875485752;7145.0586;217
2024-05-25T22:58:21.968;599616430883176706;7152.75;243
2024-05-25T22:58:21.976;599616430890867660;7160.441;240
2024-05-25T22:58:21.984;599616430898558614;7168.1313;208
2024-05-25T22:58:21.991;599616430906249568;7175.8228;166
2024-05-25T22:58:21.999;599616430913940522;7183.5137;152
2024-05-25T22:58:22.007;599616430921631476;7191.205;122
2024-05-25T22:58:22.014;599616430929322430;7198.8955;57
2024-05-25T22:58:22.022;599616430937013384;7206.5864;39
2024-05-25T22:58:22.030;599616430944704338;7214.278;169
2024-05-25T22:58:22.037;599616430952395292;7221.9683;516
2024-05-25T22:58:22.045;599616430960086246;7229.6597;865
2024-05-25T22:58:22.053;599616430967777200;7237.3506;745
2024-05-25T22:58:22.061;599616430975468154;7245.041;192
2024-05-25T22:58:22.068;599616430983159108;7252.7324;-118
2024-05-25T22:58:22.076;599616430990850062;7260.4233;-16
2024-05-25T22:58:22.084;599616430998541016;7268.1143;11
2024-05-25T22:58:22.091;599616431006231970;7275.805;-90
2024-05-25T22:58:22.099;599616431013922924;7283.496;-69
2024-05-25T22:58:22.107;599616431021613878;7291.187;-9
2024-05-25T22:58:22.114;599616431029304836;7298.878;-2
2024-05-25T22:58:22.122;599616431036995790;7306.569;-4
2024-05-25T22:58:22.130;599616431044686744;7314.26;-11
2024-05-25T22:58:22.137;599616431052377698;7321.9507;0
2024-05-25T22:58:22.145;599616431060068652;7329.642;32
2024-05-25T22:58:22.153;599616431067759606;7337.3325;50
2024-05-25T22:58:22.161;599616431075450560;7345.0234;69
2024-05-25T22:58:22.168;599616431083141514;7352.715;101
2024-05-25T22:58:22.176;599616431090832468;7360.4053;99
2024-05-25T22:58:22.184;599616431098523422;7368.0967;48
2024-05-25T22:58:22.191;599616431106214376;7375.7876;20
2024-05-25T22:58:22.199;599616431113905330;7383.4785;64
2024-05-25T22:58:22.207;599616431121596284;7391.1694;111
2024-05-25T22:58:22.214;599616431129287238;7398.8604;111
2024-05-25T22:58:22.222;599616431136978192;7406.552;92
2024-05-25T22:58:22.230;599616431144669146;7414.242;62
2024-05-25T22:58:22.237;599616431152360100;7421.933;41
2024-05-25T22:58:22.245;599616431160051054;7429.6245;64
2024-05-25T22:58:22.253;599616431167742008;7437.315;99
2024-05-25T22:58:22.261;599616431175432962;7445.0063;113
2024-05-25T22:58:22.268;599616431183123916;7452.6973;113
2024-05-25T22:58:22.276;599616431190814870;7460.3877;113
2024-05-25T22:58:22.284;599616431198505824;7468.079;134
2024-05-25T22:58:22.291;599616431206196778;7475.77;171
2024-05-25T22:58:22.299;599616431213887732;7483.461;192
2024-05-25T22:58:22.307;599616431221578686;7491.152;192
2024-05-25T22:58:22.314;599616431229269640;7498.843;194
2024-05-25T22:58:22.322;599616431236960594;7506.5337;222
2024-05-25T22:58:22.330;599616431244651548;7514.2246;247
2024-05-25T22:58:22.337;599616431252342502;7521.916;247
2024-05-25T22:58:22.345;599616431260033456;7529.6064;256
2024-05-25T22:58:22.353;599616431267724410;7537.2974;222
2024-05-25T22:58:22.360;599616431275415364;7544.989;113
2024-05-25T22:58:22.368;599616431283106318;7552.679;78
2024-05-25T22:58:22.376;599616431290797272;7560.37;134
2024-05-25T22:58:22.384;599616431298488226;7568.0615;166
2024-05-25T22:58:22.391;599616431306179180;7575.752;157
2024-05-25T22:58:22.399;599616431313870134;7583.4434;120
2024-05-25T22:58:22.407;599616431321561088;7591.1343;78
2024-05-25T22:58:22.414;599616431329252042;7598.825;90
2024-05-25T22:58:22.422;599616431336942996;7606.516;104
2024-05-25T22:58:22.430;599616431344633950;7614.207;94
2024-05-25T22:58:22.437;599616431352324904;7621.8984;106
2024-05-25T22:58:22.445;599616431360015858;7629.589;129
2024-05-25T22:58:22.453;599616431367706812;7637.28;127
2024-05-25T22:58:22.460;599616431375397766;7644.971;122
2024-05-25T22:58:22.468;599616431383088720;7652.6616;141
2024-05-25T22:58:22.476;599616431390779674;7660.353;134
2024-05-25T22:58:22.484;599616431398470628;7668.044;94
2024-05-25T22:58:22.491;599616431406161582;7675.7344;85
2024-05-25T22:58:22.499;599616431413852536;7683.426;108
2024-05-25T22:58:22.507;599616431421543490;7691.1167;104
2024-05-25T22:58:22.514;599616431429234444;7698.8076;71
2024-05-25T22:58:22.522;599616431436925398;7706.4985;53
2024-05-25T22:58:22.530;599616431444616352;7714.1895;43
2024-05-25T22:58:22.537;599616431452307306;7721.8804;-27
2024-05-25T22:58:22.545;599616431459998260;7729.5713;-94
2024-05-25T22:58:22.553;599616431467689214;7737.2627;55
2024-05-25T22:58:22.560;599616431475380168;7744.953;483
2024-05-25T22:58:22.568;599616431483071122;7752.644;868
2024-05-25T22:58:22.576;599616431490762076;7760.3354;757
2024-05-25T22:58:22.584;599616431498453030;7768.026;229
2024-05-25T22:58:22.591;599616431506143984;7775.7173;-99
2024-05-25T22:58:22.599;599616431513834938;7783.408;-32
2024-05-25T22:58:22.607;599616431521525892;7791.099;13
2024-05-25T22:58:22.614;599616431529216846;7798.79;-50
2024-05-25T22:58:22.622;599616431536907800;7806.481;-13
2024-05-25T22:58:22.630;599616431544598754;7814.1724;30
2024-05-25T22:58:22.637;599616431552289708;7821.863;-6
2024-05-25T22:58:22.645;599616431559980662;7829.5537;2
2024-05-25T22:58:22.653;599616431567671616;7837.245;64
2024-05-25T22:58:22.660;599616431575362570;7844.9355;83
2024-05-25T22:58:22.668;599616431583053524;7852.6265;83
2024-05-25T22:58:22.676;599616431590714386;7860.2876;111
2024-05-25T22:58:22.683;599616431598405758;7867.9785;134
2024-05-25T22:58:22.691;599616431606097130;7875.6704;136
2024-05-25T22:58:22.699;599616431613788502;7883.362;150
2024-05-25T22:58:22.707;599616431621479874;7891.053;189
2024-05-25T22:58:22.714;599616431629171246;7898.744;217
2024-05-25T22:58:22.722;599616431636862618;7906.4355;196
2024-05-25T22:58:22.730;599616431644553990;7914.1274;159
2024-05-25T22:58:22.737;599616431652245362;7921.819;178
2024-05-25T22:58:22.745;599616431659936734;7929.51;215
2024-05-25T22:58:22.753;599616431667628106;7937.201;169
2024-05-25T22:58:22.760;599616431675319478;7944.8926;97
2024-05-25T22:58:22.768;599616431683010850;7952.584;111
2024-05-25T22:58:22.776;599616431690702222;7960.2754;145
2024-05-25T22:58:22.783;599616431698393594;7967.967;131
2024-05-25T22:58:22.791;599616431706084966;7975.658;134
2024-05-25T22:58:22.799;599616431713776338;7983.349;171
2024-05-25T22:58:22.807;599616431721467710;7991.041;192
2024-05-25T22:58:22.814;599616431729159082;7998.7324;185
2024-05-25T22:58:22.822;599616431736850454;8006.4233;182
2024-05-25T22:58:22.830;599616431744541826;8014.1147;210
2024-05-25T22:58:22.837;599616431752233198;8021.8066;245
2024-05-25T22:58:22.845;599616431759924570;8029.498;254
2024-05-25T22:58:22.853;599616431767615942;8037.189;226
2024-05-25T22:58:22.860;599616431775307314;8044.8804;157
2024-05-25T22:58:22.868;599616431782998686;8052.572;90
2024-05-25T22:58:22.876;599616431790690058;8060.263;90
2024-05-25T22:58:22.883;599616431798381430;8067.9546;125
2024-05-25T22:58:22.891;599616431806072802;8075.646;155
2024-05-25T22:58:22.899;599616431813764174;8083.3374;169
2024-05-25T22:58:22.907;599616431821455546;8091.0283;141
2024-05-25T22:58:22.914;599616431829146918;8098.72;94
2024-05-25T22:58:22.922;599616431836838290;8106.4116;97
2024-05-25T22:58:22.930;599616431844529662;8114.103;108
2024-05-25T22:58:22.937;599616431852221034;8121.794;99
2024-05-25T22:58:22.945;599616431859912406;8129.4854;115
2024-05-25T22:58:22.953;599616431867603778;8137.1772;141
2024-05-25T22:58:22.960;599616431875295150;8144.868;122
2024-05-25T22:58:22.968;599616431882986522;8152.5596;87
2024-05-25T22:58:22.976;599616431890677894;8160.251;92
2024-05-25T22:58:22.983;599616431898369266;8167.943;122
2024-05-25T22:58:22.991;599616431906060638;8175.634;141
2024-05-25T22:58:22.999;599616431913752010;8183.325;143
2024-05-25T22:58:23.007;599616431921443382;8191.0166;148
2024-05-25T22:58:23.014;599616431929134754;8198.708;145
2024-05-25T22:58:23.022;599616431936826126;8206.399;122
2024-05-25T22:58:23.030;599616431944517498;8214.091;94
2024-05-25T22:58:23.037;599616431952208870;8221.782;83
2024-05-25T22:58:23.045;599616431959900242;8229.474;46
2024-05-25T22:58:23.053;599616431967591614;8237.164;-25
2024-05-25T22:58:23.060;599616431975282986;8244.856;-74
2024-05-25T22:58:23.068;599616431982974358;8252.548;-13
2024-05-25T22:58:23.076;599616431990665730;8260.239;252
2024-05-25T22:58:23.083;599616431998357102;8267.93;692
2024-05-25T22:58:23.091;599616432006048474;8275.622;937
2024-05-25T22:58:23.099;599616432013739846;8283.313;627
2024-05-25T22:58:23.107;599616432021431218;8291.005;81
2024-05-25T22:58:23.114;599616432029122590;8298.695;-85
2024-05-25T22:58:23.122;599616432036813962;8306.387;34
2024-05-25T22:58:23.130;599616432044505334;8314.079;37
2024-05-25T22:58:23.137;599616432052196706;8321.77;-23
2024-05-25T22:58:23.145;599616432059888078;8329.461;-6
2024-05-25T22:58:23.153;599616432067579450;8337.152;16
2024-05-25T22:58:23.160;599616432075270822;8344.844;39
2024-05-25T22:58:23.168;599616432082962194;8352.535;71
2024-05-25T22:58:23.176;599616432090653566;8360.227;83
2024-05-25T22:58:23.183;599616432098344938;8367.918;92
2024-05-25T22:58:23.191;599616432106036310;8375.609;115
2024-05-25T22:58:23.199;599616432113727682;8383.301;129
2024-05-25T22:58:23.206;599616432121419054;8390.992;122
2024-05-25T22:58:23.214;599616432129110426;8398.684;104
2024-05-25T22:58:23.222;599616432136801798;8406.375;101
2024-05-25T22:58:23.230;599616432144493170;8414.066;120
2024-05-25T22:58:23.237;599616432152214646;8421.788;122
2024-05-25T22:58:23.245;599616432159905600;8429.479;138
2024-05-25T22:58:23.253;599616432167596554;8437.17;194
2024-05-25T22:58:23.260;599616432175287508;8444.86;233
2024-05-25T22:58:23.268;599616432182978462;8452.552;236
2024-05-25T22:58:23.276;599616432190669416;8460.242;243
2024-05-25T22:58:23.283;599616432198360370;8467.934;250
2024-05-25T22:58:23.291;599616432206051324;8475.624;210
2024-05-25T22:58:23.299;599616432213742278;8483.315;152
2024-05-25T22:58:23.307;599616432221433232;8491.007;162
2024-05-25T22:58:23.314;599616432229124186;8498.697;206
2024-05-25T22:58:23.322;599616432236815140;8506.389;199
2024-05-25T22:58:23.330;599616432244506094;8514.079;171
2024-05-25T22:58:23.337;599616432252197048;8521.77;187
2024-05-25T22:58:23.345;599616432259888002;8529.461;226
2024-05-25T22:58:23.353;599616432267578956;8537.152;240
2024-05-25T22:58:23.360;599616432275269910;8544.844;217
2024-05-25T22:58:23.368;599616432282960864;8552.534;145
2024-05-25T22:58:23.376;599616432290651818;8560.225;81
2024-05-25T22:58:23.383;599616432298342772;8567.916;85
2024-05-25T22:58:23.391;599616432306033726;8575.606;125
2024-05-25T22:58:23.399;599616432313724680;8583.298;157
2024-05-25T22:58:23.406;599616432321415634;8590.988;185
2024-05-25T22:58:23.414;599616432329106588;8598.68;166
2024-05-25T22:58:23.422;599616432336797542;8606.371;108
2024-05-25T22:58:23.430;599616432344488496;8614.0625;101
2024-05-25T22:58:23.437;599616432352179450;8621.752;127
2024-05-25T22:58:23.445;599616432359870404;8629.443;131
2024-05-25T22:58:23.453;599616432367561358;8637.135;122
2024-05-25T22:58:23.460;599616432375252312;8644.825;90
2024-05-25T22:58:23.468;599616432382943266;8652.517;30
2024-05-25T22:58:23.476;599616432390634220;8660.208;9
2024-05-25T22:58:23.483;599616432398325174;8667.897;46
2024-05-25T22:58:23.491;599616432406016128;8675.589;90
2024-05-25T22:58:23.499;599616432413707082;8683.28;113
2024-05-25T22:58:23.506;599616432421398036;8690.972;120
2024-05-25T22:58:23.514;599616432429088990;8698.662;134
2024-05-25T22:58:23.522;599616432436779944;8706.354;155
2024-05-25T22:58:23.530;599616432444470898;8714.044;148
2024-05-25T22:58:23.537;599616432452161852;8721.734;113
2024-05-25T22:58:23.545;599616432459852806;8729.426;94
2024-05-25T22:58:23.553;599616432467543760;8737.117;74
2024-05-25T22:58:23.560;599616432475234714;8744.808;18
2024-05-25T22:58:23.568;599616432482925668;8752.499;-11
2024-05-25T22:58:23.576;599616432490616622;8760.19;-16
2024-05-25T22:58:23.583;599616432498307576;8767.881;-18
2024-05-25T22:58:23.591;599616432505998530;8775.571;104
2024-05-25T22:58:23.599;599616432513689484;8783.263;479
2024-05-25T22:58:23.606;599616432521380438;8790.954;907
2024-05-25T22:58:23.614;599616432529071392;8798.645;909
2024-05-25T22:58:23.622;599616432536762346;8806.336;402
2024-05-25T22:58:23.630;599616432544453300;8814.026;-23
2024-05-25T22:58:23.637;599616432552144254;8821.717;16
2024-05-25T22:58:23.645;599616432559835208;8829.408;104
2024-05-25T22:58:23.653;599616432567526162;8837.1;9
2024-05-25T22:58:23.660;599616432575217116;8844.791;-11
2024-05-25T22:58:23.668;599616432582908070;8852.481;67
2024-05-25T22:58:23.676;599616432590599024;8860.172;90
2024-05-25T22:58:23.683;599616432598289978;8867.863;85
2024-05-25T22:58:23.691;599616432605980932;8875.554;101
2024-05-25T22:58:23.699;599616432613671886;8883.245;99
2024-05-25T22:58:23.706;599616432621362840;8890.937;67
2024-05-25T22:58:23.714;599616432629053794;8898.627;34
2024-05-25T22:58:23.722;599616432636744748;8906.317;50
2024-05-25T22:58:23.730;599616432644435702;8914.009;99
2024-05-25T22:58:23.737;599616432652126656;8921.699;131
2024-05-25T22:58:23.745;599616432659817610;8929.391;134
2024-05-25T22:58:23.753;599616432667508564;8937.082;148
2024-05-25T22:58:23.760;599616432675199518;8944.773;196
2024-05-25T22:58:23.768;599616432682890472;8952.463;233
2024-05-25T22:58:23.776;599616432690581426;8960.154;245
2024-05-25T22:58:23.783;599616432698272380;8967.846;261
2024-05-25T22:58:23.791;599616432705963334;8975.536;275
2024-05-25T22:58:23.799;599616432713654292;8983.228;268
2024-05-25T22:58:23.806;599616432721345246;8990.919;268
2024-05-25T22:58:23.814;599616432729036200;8998.609;296
2024-05-25T22:58:23.822;599616432736727154;9006.3;331
2024-05-25T22:58:23.829;599616432744418108;9013.991;333
2024-05-25T22:58:23.837;599616432752109062;9021.683;307
2024-05-25T22:58:23.845;599616432759800016;9029.373;305
2024-05-25T22:58:23.853;599616432767490970;9037.064;333
2024-05-25T22:58:23.860;599616432775181924;9044.756;303
2024-05-25T22:58:23.868;599616432782872878;9052.445;192
2024-05-25T22:58:23.876;599616432790563832;9060.137;81
2024-05-25T22:58:23.883;599616432798254786;9067.828;37
2024-05-25T22:58:23.891;599616432805945740;9075.519;43
2024-05-25T22:58:23.899;599616432813636694;9083.21;62
2024-05-25T22:58:23.906;599616432821327648;9090.901;99
2024-05-25T22:58:23.914;599616432829018602;9098.592;143
2024-05-25T22:58:23.922;599616432836709556;9106.282;152
2024-05-25T22:58:23.929;599616432844400510;9113.974;136
2024-05-25T22:58:23.937;599616432852091464;9121.665;129
2024-05-25T22:58:23.945;599616432859782418;9129.355;108
2024-05-25T22:58:23.953;599616432867473372;9137.047;62
2024-05-25T22:58:23.960;599616432875164326;9144.737;39
2024-05-25T22:58:23.968;599616432882855280;9152.428;57
2024-05-25T22:58:23.976;599616432890546234;9160.119;62
2024-05-25T22:58:23.983;599616432898237188;9167.811;48
2024-05-25T22:58:23.991;599616432905928142;9175.501;60
2024-05-25T22:58:23.999;599616432913619096;9183.192;92
2024-05-25T22:58:24.006;599616432921310050;9190.884;113
2024-05-25T22:58:24.014;599616432929001004;9198.574;122
2024-05-25T22:58:24.022;599616432936691958;9206.265;129
2024-05-25T22:58:24.029;599616432944382912;9213.956;157
2024-05-25T22:58:24.037;599616432952073866;9221.647;194
2024-05-25T22:58:24.045;599616432959764820;9229.338;192
2024-05-25T22:58:24.053;599616432967455774;9237.029;166
2024-05-25T22:58:24.060;599616432975146728;9244.72;143
2024-05-25T22:58:24.068;599616432982837682;9252.41;113
2024-05-25T22:58:24.076;599616432990528636;9260.102;62
2024-05-25T22:58:24.083;599616432998219590;9267.793;30
2024-05-25T22:58:24.091;599616433005910544;9275.484;30
2024-05-25T22:58:24.099;599616433013601498;9283.175;0
2024-05-25T22:58:24.106;599616433021292452;9290.865;-11
2024-05-25T22:58:24.114;599616433028983406;9298.557;201
2024-05-25T22:58:24.122;599616433036674360;9306.247;664
2024-05-25T22:58:24.129;599616433044365314;9313.938;981
2024-05-25T22:58:24.137;599616433052056268;9321.63;731
2024-05-25T22:58:24.145;599616433059747222;9329.32;166
2024-05-25T22:58:24.153;599616433067438176;9337.011;-60
2024-05-25T22:58:24.160;599616433075129130;9344.702;30
2024-05-25T22:58:24.168;599616433082820084;9352.394;9
2024-05-25T22:58:24.176;599616433090511038;9360.084;-46
2024-05-25T22:58:24.183;599616433098201992;9367.775;18
2024-05-25T22:58:24.191;599616433105892946;9375.467;60
2024-05-25T22:58:24.199;599616433113583900;9383.156;11
2024-05-25T22:58:24.206;599616433121274854;9390.848;-23
2024-05-25T22:58:24.214;599616433128965808;9398.539;4
2024-05-25T22:58:24.222;599616433136656762;9406.2295;32
2024-05-25T22:58:24.229;599616433144347716;9413.921;41
2024-05-25T22:58:24.237;599616433152038670;9421.612;81
2024-05-25T22:58:24.245;599616433159729624;9429.304;120
2024-05-25T22:58:24.252;599616433167420578;9436.993;111
2024-05-25T22:58:24.260;599616433175111532;9444.685;113
2024-05-25T22:58:24.268;599616433182802486;9452.376;164
2024-05-25T22:58:24.276;599616433190493440;9460.066;210
2024-05-25T22:58:24.283;599616433198184394;9467.758;224
2024-05-25T22:58:24.291;599616433205875348;9475.449;238
2024-05-25T22:58:24.299;599616433213566302;9483.139;252
2024-05-25T22:58:24.306;599616433221257256;9490.83;261
2024-05-25T22:58:24.314;599616433228948210;9498.521;266
2024-05-25T22:58:24.322;599616433236639164;9506.212;277
2024-05-25T22:58:24.329;599616433244330118;9513.903;303
2024-05-25T22:58:24.337;599616433252021072;9521.595;317
2024-05-25T22:58:24.345;599616433259712026;9529.285;300
2024-05-25T22:58:24.352;599616433267402980;9536.976;294
2024-05-25T22:58:24.360;599616433275093938;9544.667;326
2024-05-25T22:58:24.368;599616433282784892;9552.358;340
2024-05-25T22:58:24.376;599616433290475846;9560.049;282
2024-05-25T22:58:24.383;599616433298166800;9567.74;203
2024-05-25T22:58:24.391;599616433305857754;9575.432;192
2024-05-25T22:58:24.399;599616433313548708;9583.121;192
2024-05-25T22:58:24.406;599616433321239662;9590.8125;136
2024-05-25T22:58:24.414;599616433328930616;9598.504;113
2024-05-25T22:58:24.422;599616433336621570;9606.195;162
2024-05-25T22:58:24.429;599616433344312524;9613.886;178
2024-05-25T22:58:24.437;599616433352003478;9621.577;131
2024-05-25T22:58:24.445;599616433359694432;9629.268;87
2024-05-25T22:58:24.452;599616433367385386;9636.958;81
2024-05-25T22:58:24.460;599616433375076340;9644.649;81
2024-05-25T22:58:24.468;599616433382767294;9652.341;55
2024-05-25T22:58:24.476;599616433390458248;9660.031;25
2024-05-25T22:58:24.483;599616433398149202;9667.723;25
2024-05-25T22:58:24.491;599616433405840156;9675.413;25
2024-05-25T22:58:24.499;599616433413531110;9683.1045;25
2024-05-25T22:58:24.506;599616433421222064;9690.795;48
2024-05-25T22:58:24.514;599616433428913018;9698.486;76
2024-05-25T22:58:24.522;599616433436603972;9706.178;69
2024-05-25T22:58:24.529;599616433444294926;9713.868;60
2024-05-25T22:58:24.537;599616433451985880;9721.559;85
2024-05-25T22:58:24.545;599616433459676834;9729.25;127
2024-05-25T22:58:24.552;599616433467367788;9736.94;150
2024-05-25T22:58:24.560;599616433475058742;9744.632;159
2024-05-25T22:58:24.568;599616433482749696;9752.323;173
2024-05-25T22:58:24.576;599616433490440650;9760.014;169
2024-05-25T22:58:24.583;599616433498131604;9767.704;125
2024-05-25T22:58:24.591;599616433505822558;9775.3955;90
2024-05-25T22:58:24.599;599616433513513512;9783.087;87
2024-05-25T22:58:24.606;599616433521204466;9790.777;55
2024-05-25T22:58:24.614;599616433528895420;9798.469;-25
2024-05-25T22:58:24.622;599616433536586374;9806.16;-83
2024-05-25T22:58:24.629;599616433544277328;9813.851;23
2024-05-25T22:58:24.637;599616433551968282;9821.541;388
2024-05-25T22:58:24.645;599616433559659236;9829.232;833
2024-05-25T22:58:24.652;599616433567350190;9836.923;902
2024-05-25T22:58:24.660;599616433575041144;9844.614;442
2024-05-25T22:58:24.668;599616433582732098;9852.306;-34
2024-05-25T22:58:24.675;599616433590423052;9859.997;-74
2024-05-25T22:58:24.683;599616433598114006;9867.687;16
2024-05-25T22:58:24.691;599616433605804960;9875.378;-74
2024-05-25T22:58:24.699;599616433613495914;9883.069;-145
2024-05-25T22:58:24.706;599616433621186868;9890.76;-108
2024-05-25T22:58:24.714;599616433628877822;9898.451;-94
2024-05-25T22:58:24.722;599616433636568776;9906.143;-92
2024-05-25T22:58:24.729;599616433644259730;9913.832;-53
2024-05-25T22:58:24.737;599616433651950684;9921.523;-27
2024-05-25T22:58:24.745;599616433659641638;9929.215;-9
2024-05-25T22:58:24.752;599616433667332592;9936.906;25
2024-05-25T22:58:24.760;599616433675023546;9944.597;34
2024-05-25T22:58:24.768;599616433682714500;9952.288;27
2024-05-25T22:58:24.775;599616433690405454;9959.9795;62
2024-05-25T22:58:24.783;599616433698096408;9967.669;115
2024-05-25T22:58:24.791;599616433705787362;9975.36;141
2024-05-25T22:58:24.799;599616433713478316;9983.052;150
2024-05-25T22:58:24.806;599616433721169270;9990.742;166
2024-05-25T22:58:24.814;599616433728860224;9998.434;192
2024-05-25T22:58:24.822;599616433736551178;10006.125;208
2024-05-25T22:58:24.829;599616433744242132;10013.814;215
2024-05-25T22:58:24.837;599616433751933086;10021.506;236
2024-05-25T22:58:24.845;599616433759624040;10029.197;254
2024-05-25T22:58:24.852;599616433767314994;10036.889;238
2024-05-25T22:58:24.860;599616433775005948;10044.579;224
2024-05-25T22:58:24.868;599616433782696902;10052.2705;254
2024-05-25T22:58:24.875;599616433790387856;10059.961;273
2024-05-25T22:58:24.883;599616433798078810;10067.651;215
2024-05-25T22:58:24.891;599616433805769764;10075.343;129
2024-05-25T22:58:24.899;599616433813460718;10083.034;115
2024-05-25T22:58:24.906;599616433821151672;10090.725;148
2024-05-25T22:58:24.914;599616433828842626;10098.416;155
2024-05-25T22:58:24.922;599616433836533584;10106.106;171
2024-05-25T22:58:24.929;599616433844224538;10113.798;206
2024-05-25T22:58:24.937;599616433851915492;10121.488;155
2024-05-25T22:58:24.945;599616433859606446;10129.18;11
2024-05-25T22:58:24.952;599616433867297400;10136.871;-55
2024-05-25T22:58:24.960;599616433874988354;10144.562;4
2024-05-25T22:58:24.968;599616433882679308;10152.252;46
2024-05-25T22:58:24.975;599616433890370262;10159.943;34
2024-05-25T22:58:24.983;599616433898061216;10167.634;48
2024-05-25T22:58:24.991;599616433905752170;10175.325;53
2024-05-25T22:58:24.999;599616433913443124;10183.017;6
2024-05-25T22:58:25.006;599616433921134078;10190.708;-20
2024-05-25T22:58:25.014;599616433928825032;10198.398;4
2024-05-25T22:58:25.022;599616433936515986;10206.089;30
2024-05-25T22:58:25.029;599616433944206940;10213.78;25
2024-05-25T22:58:25.037;599616433951897894;10221.471;6
2024-05-25T22:58:25.045;599616433959588848;10229.162;18
2024-05-25T22:58:25.052;599616433967279802;10236.854;62
2024-05-25T22:58:25.060;599616433974970756;10244.544;81
2024-05-25T22:58:25.068;599616433982661710;10252.234;87
2024-05-25T22:58:25.075;599616433990352664;10259.926;115
2024-05-25T22:58:25.083;599616433998043618;10267.617;127
2024-05-25T22:58:25.091;599616434005734572;10275.308;111
2024-05-25T22:58:25.098;599616434013425526;10282.999;115
2024-05-25T22:58:25.106;599616434021116480;10290.69;125
2024-05-25T22:58:25.114;599616434028807434;10298.38;99
2024-05-25T22:58:25.122;599616434036498388;10306.071;43
2024-05-25T22:58:25.129;599616434044189342;10313.763;-41
2024-05-25T22:58:25.137;599616434051880296;10321.453;-129
2024-05-25T22:58:25.145;599616434059571250;10329.145;-111
2024-05-25T22:58:25.152;599616434067262204;10336.836;122
2024-05-25T22:58:25.160;599616434074953158;10344.525;551
2024-05-25T22:58:25.168;599616434082644112;10352.217;842
2024-05-25T22:58:25.175;599616434090335066;10359.908;581
2024-05-25T22:58:25.183;599616434098026020;10367.6;-9
2024-05-25T22:58:25.191;599616434105716974;10375.29;-252
2024-05-25T22:58:25.198;599616434113407928;10382.981;-125
2024-05-25T22:58:25.206;599616434121098882;10390.673;-108
2024-05-25T22:58:25.214;599616434128789836;10398.362;-194
2024-05-25T22:58:25.222;599616434136480790;10406.054;-171
2024-05-25T22:58:25.229;599616434144171744;10413.745;-118
2024-05-25T22:58:25.237;599616434151862698;10421.436;-106
2024-05-25T22:58:25.245;599616434159553652;10429.127;-92
2024-05-25T22:58:25.252;599616434167244606;10436.818;-60
2024-05-25T22:58:25.260;599616434174935560;10444.509;-32
2024-05-25T22:58:25.268;599616434182626514;10452.199;-25
2024-05-25T22:58:25.275;599616434190317468;10459.891;-20
2024-05-25T22:58:25.283;599616434198008422;10467.582;13
2024-05-25T22:58:25.291;599616434205699376;10475.272;64
2024-05-25T22:58:25.298;599616434213390330;10482.964;90
2024-05-25T22:58:25.306;599616434221081284;10490.654;94
2024-05-25T22:58:25.314;599616434228772238;10498.345;104
2024-05-25T22:58:25.322;599616434236463192;10506.036;136
2024-05-25T22:58:25.329;599616434244154146;10513.728;166
2024-05-25T22:58:25.337;599616434251845100;10521.419;175
2024-05-25T22:58:25.345;599616434259536054;10529.109;196
2024-05-25T22:58:25.352;599616434267227008;10536.8;222
2024-05-25T22:58:25.360;599616434274917962;10544.491;208
2024-05-25T22:58:25.368;599616434282608916;10552.182;194
2024-05-25T22:58:25.375;599616434290299870;10559.873;224
2024-05-25T22:58:25.383;599616434297990824;10567.564;252
2024-05-25T22:58:25.391;599616434305681778;10575.255;206
2024-05-25T22:58:25.398;599616434313372732;10582.945;113
2024-05-25T22:58:25.406;599616434321063686;10590.637;85
2024-05-25T22:58:25.414;599616434328754640;10598.327;122
2024-05-25T22:58:25.422;599616434336445594;10606.019;145
2024-05-25T22:58:25.429;599616434344136548;10613.71;127
2024-05-25T22:58:25.437;599616434351827502;10621.401;111
2024-05-25T22:58:25.445;599616434359518456;10629.092;122
2024-05-25T22:58:25.452;599616434367209410;10636.782;120
2024-05-25T22:58:25.460;599616434374900364;10644.474;111
2024-05-25T22:58:25.468;599616434382591318;10652.164;145
2024-05-25T22:58:25.475;599616434390282272;10659.855;187
2024-05-25T22:58:25.483;599616434397973230;10667.547;194
2024-05-25T22:58:25.491;599616434405664184;10675.237;187
2024-05-25T22:58:25.498;599616434413355138;10682.928;196
2024-05-25T22:58:25.506;599616434421046092;10690.619;213
2024-05-25T22:58:25.514;599616434428737046;10698.311;219
2024-05-25T22:58:25.522;599616434436428000;10706.001;213
2024-05-25T22:58:25.529;599616434444118954;10713.692;185
2024-05-25T22:58:25.537;599616434451809908;10721.384;136
2024-05-25T22:58:25.545;599616434459500862;10729.073;48
2024-05-25T22:58:25.552;599616434467191816;10736.765;-13
2024-05-25T22:58:25.560;599616434474882770;10744.456;13
2024-05-25T22:58:25.568;599616434482573724;10752.146;55
2024-05-25T22:58:25.575;599616434490264678;10759.838;46
2024-05-25T22:58:25.583;599616434497955632;10767.529;53
2024-05-25T22:58:25.591;599616434505646586;10775.221;83
2024-05-25T22:58:25.598;599616434513337540;10782.91;85
2024-05-25T22:58:25.606;599616434521028494;10790.602;78
2024-05-25T22:58:25.614;599616434528719448;10798.293;106
2024-05-25T22:58:25.621;599616434536410402;10805.983;143
2024-05-25T22:58:25.629;599616434544101356;10813.675;145
2024-05-25T22:58:25.637;599616434551792310;10821.366;106
2024-05-25T22:58:25.645;599616434559483264;10829.056;48
2024-05-25T22:58:25.652;599616434567174218;10836.747;-4
2024-05-25T22:58:25.660;599616434574865172;10844.438;-6
2024-05-25T22:58:25.668;599616434582556126;10852.13;166
2024-05-25T22:58:25.675;599616434590247080;10859.82;555
2024-05-25T22:58:25.683;599616434597938034;10867.512;780
2024-05-25T22:58:25.691;599616434605628988;10875.202;465
2024-05-25T22:58:25.698;599616434613319942;10882.893;-81
2024-05-25T22:58:25.706;599616434621010896;10890.584;-250
2024-05-25T22:58:25.714;599616434628701850;10898.275;-120
2024-05-25T22:58:25.721;599616434636392804;10905.966;-134
2024-05-25T22:58:25.729;599616434644083758;10913.657;-222
2024-05-25T22:58:25.737;599616434651774712;10921.348;-173
2024-05-25T22:58:25.745;599616434659465666;10929.038;-113
2024-05-25T22:58:25.752;599616434667156620;10936.7295;-122
2024-05-25T22:58:25.760;599616434674847574;10944.421;-108
2024-05-25T22:58:25.768;599616434682538528;10952.112;-67
2024-05-25T22:58:25.775;599616434690229482;10959.803;-55
2024-05-25T22:58:25.783;599616434697920436;10967.493;-57
2024-05-25T22:58:25.791;599616434705611390;10975.185;-27
2024-05-25T22:58:25.798;599616434713302344;10982.875;18
2024-05-25T22:58:25.806;599616434720993298;10990.566;50
2024-05-25T22:58:25.814;599616434728684252;10998.258;57
2024-05-25T22:58:25.821;599616434736375206;11005.948;60
2024-05-25T22:58:25.829;599616434744066160;11013.64;92
2024-05-25T22:58:25.837;599616434751757114;11021.33;136
2024-05-25T22:58:25.845;599616434759448068;11029.021;155
2024-05-25T22:58:25.852;599616434767139022;11036.712;171
2024-05-25T22:58:25.860;599616434774829976;11044.403;199
2024-05-25T22:58:25.868;599616434782520930;11052.095;201
2024-05-25T22:58:25.875;599616434790211884;11059.785;182
2024-05-25T22:58:25.883;599616434797902838;11067.476;199
2024-05-25T22:58:25.891;599616434805593792;11075.167;236
2024-05-25T22:58:25.898;599616434813284746;11082.857;213
2024-05-25T22:58:25.906;599616434820975700;11090.549;115
2024-05-25T22:58:25.914;599616434828666654;11098.24;57
2024-05-25T22:58:25.921;599616434836357608;11105.932;48
2024-05-25T22:58:25.929;599616434844048562;11113.621;13
2024-05-25T22:58:25.937;599616434851739516;11121.3125;-13
2024-05-25T22:58:25.945;599616434859430470;11129.004;18
2024-05-25T22:58:25.952;599616434867121424;11136.694;57
2024-05-25T22:58:25.960;599616434874812378;11144.386;50
2024-05-25T22:58:25.968;599616434882503332;11152.077;46
2024-05-25T22:58:25.975;599616434890194286;11159.767;85
2024-05-25T22:58:25.983;599616434897885240;11167.458;134
2024-05-25T22:58:25.991;599616434905576194;11175.149;150
2024-05-25T22:58:25.998;599616434913267148;11182.84;148
2024-05-25T22:58:26.006;599616434920958102;11190.531;152
2024-05-25T22:58:26.014;599616434928649056;11198.223;173
2024-05-25T22:58:26.021;599616434936340010;11205.914;192
2024-05-25T22:58:26.029;599616434944030964;11213.604;201
2024-05-25T22:58:26.037;599616434951721918;11221.295;222
2024-05-25T22:58:26.044;599616434959392860;11228.966;231
2024-05-25T22:58:26.052;599616434967084092;11236.657;185
2024-05-25T22:58:26.060;599616434974775324;11244.349;138
2024-05-25T22:58:26.068;599616434982466556;11252.04;157
2024-05-25T22:58:26.075;599616434990157788;11259.73;187
2024-05-25T22:58:26.083;599616434997849020;11267.422;182
2024-05-25T22:58:26.091;599616435005540252;11275.113;173
2024-05-25T22:58:26.098;599616435013231484;11282.805;187
2024-05-25T22:58:26.106;599616435020922716;11290.496;185
2024-05-25T22:58:26.114;599616435028613948;11298.1875;115
2024-05-25T22:58:26.121;599616435036305180;11305.879;43
2024-05-25T22:58:26.129;599616435043996412;11313.569;64
2024-05-25T22:58:26.137;599616435051687644;11321.261;97
2024-05-25T22:58:26.144;599616435059378876;11328.952;74
2024-05-25T22:58:26.152;599616435067070108;11336.644;67
2024-05-25T22:58:26.160;599616435074761340;11344.335;64
2024-05-25T22:58:26.168;599616435082452572;11352.026;-39
2024-05-25T22:58:26.175;599616435090143804;11359.718;-111
2024-05-25T22:58:26.183;599616435097835036;11367.408;113
2024-05-25T22:58:26.191;599616435105526268;11375.1;551
2024-05-25T22:58:26.198;599616435113217500;11382.791;777
2024-05-25T22:58:26.206;599616435120908732;11390.481;467
2024-05-25T22:58:26.214;599616435128599964;11398.173;-74
2024-05-25T22:58:26.221;599616435136291196;11405.864;-231
2024-05-25T22:58:26.229;599616435143982428;11413.556;-108
2024-05-25T22:58:26.237;599616435151673660;11421.246;-150
2024-05-25T22:58:26.244;599616435159364892;11428.9375;-215
2024-05-25T22:58:26.252;599616435167056124;11436.629;-138
2024-05-25T22:58:26.260;599616435174747356;11444.32;-104
2024-05-25T22:58:26.268;599616435182438588;11452.012;-120
2024-05-25T22:58:26.275;599616435190129820;11459.703;-87
2024-05-25T22:58:26.283;599616435197821052;11467.395;-55
2024-05-25T22:58:26.291;599616435205512284;11475.085;-62
2024-05-25T22:58:26.298;599616435213203516;11482.776;-46
2024-05-25T22:58:26.306;599616435220894748;11490.468;0
2024-05-25T22:58:26.314;599616435228585980;11498.159;37
2024-05-25T22:58:26.321;599616435236277212;11505.851;50
2024-05-25T22:58:26.329;599616435243968444;11513.542;50
2024-05-25T22:58:26.337;599616435251659676;11521.232;76
2024-05-25T22:58:26.344;599616435259350908;11528.924;122
2024-05-25T22:58:26.352;599616435267042140;11536.615;150
2024-05-25T22:58:26.360;599616435274733372;11544.307;162
2024-05-25T22:58:26.367;599616435282424604;11551.998;189
2024-05-25T22:58:26.375;599616435290115836;11559.689;206
2024-05-25T22:58:26.383;599616435297807068;11567.381;194
2024-05-25T22:58:26.391;599616435305498300;11575.071;194
2024-05-25T22:58:26.398;599616435313189532;11582.763;185
2024-05-25T22:58:26.406;599616435320880764;11590.454;115
2024-05-25T22:58:26.414;599616435328571996;11598.1455;32
2024-05-25T22:58:26.421;599616435336263228;11605.837;0
2024-05-25T22:58:26.429;599616435343954460;11613.528;11
2024-05-25T22:58:26.437;599616435351645692;11621.22;43
2024-05-25T22:58:26.444;599616435359336924;11628.91;64
2024-05-25T22:58:26.452;599616435367028156;11636.601;81
2024-05-25T22:58:26.460;599616435374719388;11644.292;111
2024-05-25T22:58:26.467;599616435382410620;11651.983;122
2024-05-25T22:58:26.475;599616435390101852;11659.675;118
2024-05-25T22:58:26.483;599616435397793084;11667.366;143
2024-05-25T22:58:26.491;599616435405484316;11675.058;187
2024-05-25T22:58:26.498;599616435413175548;11682.748;208
2024-05-25T22:58:26.506;599616435420866780;11690.439;203
2024-05-25T22:58:26.514;599616435428558012;11698.131;201
2024-05-25T22:58:26.521;599616435436249244;11705.822;219
2024-05-25T22:58:26.529;599616435443940476;11713.514;240
2024-05-25T22:58:26.537;599616435451631708;11721.205;243
2024-05-25T22:58:26.544;599616435459322940;11728.896;252
2024-05-25T22:58:26.552;599616435467014172;11736.587;277
2024-05-25T22:58:26.560;599616435474705404;11744.278;270
2024-05-25T22:58:26.567;599616435482396636;11751.97;226
2024-05-25T22:58:26.575;599616435490087868;11759.661;192
2024-05-25T22:58:26.583;599616435497779100;11767.353;187
2024-05-25T22:58:26.591;599616435505470332;11775.044;189
2024-05-25T22:58:26.598;599616435513161564;11782.734;178
2024-05-25T22:58:26.606;599616435520862858;11790.437;173
2024-05-25T22:58:26.614;599616435528553951;11798.128;194
2024-05-25T22:58:26.621;599616435536245044;11805.817;213
2024-05-25T22:58:26.629;599616435543936137;11813.509;206
2024-05-25T22:58:26.637;599616435551627230;11821.2;213
2024-05-25T22:58:26.644;599616435559318323;11828.892;236
2024-05-25T22:58:26.652;599616435567009416;11836.583;226
2024-05-25T22:58:26.660;599616435574700509;11844.274;185
2024-05-25T22:58:26.667;599616435582391602;11851.965;148
2024-05-25T22:58:26.675;599616435590082695;11859.655;120
2024-05-25T22:58:26.683;599616435597773788;11867.347;25
2024-05-25T22:58:26.691;599616435605464881;11875.038;-67
2024-05-25T22:58:26.698;599616435613155974;11882.7295;127
2024-05-25T22:58:26.706;599616435620847067;11890.421;569
2024-05-25T22:58:26.714;599616435628538160;11898.111;801
2024-05-25T22:58:26.721;599616435636229253;11905.802;497
2024-05-25T22:58:26.729;599616435643920346;11913.493;-32
2024-05-25T22:58:26.737;599616435651611439;11921.185;-231
2024-05-25T22:58:26.744;599616435659302532;11928.876;-155
2024-05-25T22:58:26.752;599616435666993625;11936.567;-180
2024-05-25T22:58:26.760;599616435674684718;11944.258;-222
2024-05-25T22:58:26.767;599616435682375811;11951.949;-162
2024-05-25T22:58:26.775;599616435690066904;11959.64;-134
2024-05-25T22:58:26.783;599616435697757997;11967.331;-150
2024-05-25T22:58:26.791;599616435705449090;11975.022;-131
2024-05-25T22:58:26.798;599616435713140183;11982.713;-104
2024-05-25T22:58:26.806;599616435720831276;11990.404;-90
2024-05-25T22:58:26.814;599616435728522369;11998.096;-62
2024-05-25T22:58:26.821;599616435736213462;12005.787;-23
2024-05-25T22:58:26.829;599616435743904555;12013.478;-9
2024-05-25T22:58:26.837;599616435751595648;12021.169;-13
2024-05-25T22:58:26.844;599616435759286741;12028.859;6
2024-05-25T22:58:26.852;599616435766977834;12036.551;57
2024-05-25T22:58:26.860;599616435774668927;12044.242;90
2024-05-25T22:58:26.867;599616435782360020;12051.934;104
2024-05-25T22:58:26.875;599616435790051113;12059.624;129
2024-05-25T22:58:26.883;599616435797742206;12067.315;152
2024-05-25T22:58:26.891;599616435805433299;12075.006;152
2024-05-25T22:58:26.898;599616435813124392;12082.697;136
2024-05-25T22:58:26.906;599616435820815485;12090.389;81
2024-05-25T22:58:26.914;599616435828506578;12098.08;16
2024-05-25T22:58:26.921;599616435836197671;12105.771;11
2024-05-25T22:58:26.929;599616435843888764;12113.462;23
2024-05-25T22:58:26.937;599616435851579857;12121.152;27
2024-05-25T22:58:26.944;599616435859270950;12128.844;62
2024-05-25T22:58:26.952;599616435866962043;12136.535;85
2024-05-25T22:58:26.960;599616435874653136;12144.227;85
2024-05-25T22:58:26.967;599616435882344229;12151.918;111
2024-05-25T22:58:26.975;599616435890035322;12159.608;129
2024-05-25T22:58:26.983;599616435897726415;12167.299;122
2024-05-25T22:58:26.990;599616435905417508;12174.99;136
2024-05-25T22:58:26.998;599616435913108601;12182.682;178
2024-05-25T22:58:27.006;599616435920799694;12190.373;208
2024-05-25T22:58:27.014;599616435928490787;12198.064;206
2024-05-25T22:58:27.021;599616435936181880;12205.756;196
2024-05-25T22:58:27.029;599616435943872973;12213.445;210
2024-05-25T22:58:27.037;599616435951564066;12221.137;238
2024-05-25T22:58:27.044;599616435959255159;12228.828;250
2024-05-25T22:58:27.052;599616435966946252;12236.52;252
2024-05-25T22:58:27.060;599616435974637345;12244.211;261
2024-05-25T22:58:27.067;599616435982328438;12251.902;263
2024-05-25T22:58:27.075;599616435990019531;12259.592;252
2024-05-25T22:58:27.083;599616435997710624;12267.283;252
2024-05-25T22:58:27.090;599616436005401717;12274.975;238
2024-05-25T22:58:27.098;599616436013092810;12282.666;199
2024-05-25T22:58:27.106;599616436020783903;12290.357;169
2024-05-25T22:58:27.114;599616436028474996;12298.049;159
2024-05-25T22:58:27.121;599616436036166089;12305.738;162
2024-05-25T22:58:27.129;599616436043857182;12313.43;175
2024-05-25T22:58:27.137;599616436051548275;12321.121;175
2024-05-25T22:58:27.144;599616436059239368;12328.8125;166
2024-05-25T22:58:27.152;599616436066930461;12336.504;138
2024-05-25T22:58:27.160;599616436074621554;12344.195;74
2024-05-25T22:58:27.167;599616436082322686;12351.8955;34
2024-05-25T22:58:27.175;599616436090013640;12359.587;64
2024-05-25T22:58:27.183;599616436097704594;12367.278;92
2024-05-25T22:58:27.190;599616436105395548;12374.969;67
2024-05-25T22:58:27.198;599616436113086502;12382.659;23
2024-05-25T22:58:27.206;599616436120777456;12390.351;92
2024-05-25T22:58:27.214;599616436128468410;12398.041;428
2024-05-25T22:58:27.221;599616436136159364;12405.732;817
2024-05-25T22:58:27.229;599616436143850318;12413.424;731
2024-05-25T22:58:27.237;599616436151541272;12421.115;155
2024-05-25T22:58:27.244;599616436159232226;12428.805;-268
2024-05-25T22:58:27.252;599616436166923180;12436.496;-259
2024-05-25T22:58:27.260;599616436174614134;12444.1875;-206
2024-05-25T22:58:27.267;599616436182305088;12451.878;-263
2024-05-25T22:58:27.275;599616436189996042;12459.569;-245
2024-05-25T22:58:27.283;599616436197686996;12467.261;-196
2024-05-25T22:58:27.290;599616436205377950;12474.95;-213
2024-05-25T22:58:27.298;599616436213068904;12482.642;-206
2024-05-25T22:58:27.306;599616436220759858;12490.333;-159
2024-05-25T22:58:27.314;599616436228450812;12498.024;-141
2024-05-25T22:58:27.321;599616436236141766;12505.715;-131
2024-05-25T22:58:27.329;599616436243832720;12513.406;-87
2024-05-25T22:58:27.337;599616436251523674;12521.098;-55
2024-05-25T22:58:27.344;599616436259214628;12528.787;-62
2024-05-25T22:58:27.352;599616436266905582;12536.479;-53
2024-05-25T22:58:27.360;599616436274596536;12544.17;2
2024-05-25T22:58:27.367;599616436282287490;12551.86;43
2024-05-25T22:58:27.375;599616436289978444;12559.552;55
2024-05-25T22:58:27.383;599616436297669398;12567.243;74
2024-05-25T22:58:27.390;599616436305360352;12574.934;94
2024-05-25T22:58:27.398;599616436313051306;12582.624;78
2024-05-25T22:58:27.406;599616436320742260;12590.315;25
2024-05-25T22:58:27.414;599616436328433214;12598.007;-43
2024-05-25T22:58:27.421;599616436336124168;12605.697;-85
2024-05-25T22:58:27.429;599616436343815122;12613.389;-76
2024-05-25T22:58:27.437;599616436351506076;12621.079;-71
2024-05-25T22:58:27.444;599616436359197030;12628.77;-69
2024-05-25T22:58:27.452;599616436366887984;12636.461;-25
2024-05-25T22:58:27.460;599616436374578938;12644.152;9
2024-05-25T22:58:27.467;599616436382269892;12651.843;11
2024-05-25T22:58:27.475;599616436389960846;12659.534;27
2024-05-25T22:58:27.483;599616436397651800;12667.225;53
2024-05-25T22:58:27.490;599616436405342754;12674.916;64
2024-05-25T22:58:27.498;599616436413033708;12682.606;85
2024-05-25T22:58:27.506;599616436420724662;12690.298;127
2024-05-25T22:58:27.513;599616436428415616;12697.989;164
2024-05-25T22:58:27.521;599616436436106570;12705.68;169
2024-05-25T22:58:27.529;599616436443797524;12713.371;148
2024-05-25T22:58:27.537;599616436451488478;12721.062;157
2024-05-25T22:58:27.544;599616436459179432;12728.752;192
2024-05-25T22:58:27.552;599616436466870386;12736.443;203
2024-05-25T22:58:27.560;599616436474561340;12744.135;203
2024-05-25T22:58:27.567;599616436482252294;12751.826;219
2024-05-25T22:58:27.575;599616436489943248;12759.517;226
2024-05-25T22:58:27.583;599616436497634202;12767.207;213
2024-05-25T22:58:27.590;599616436505325156;12774.898;217
2024-05-25T22:58:27.598;599616436513016110;12782.589;245
2024-05-25T22:58:27.606;599616436520707064;12790.28;240
2024-05-25T22:58:27.613;599616436528398018;12797.972;180
2024-05-25T22:58:27.621;599616436536088972;12805.662;131
2024-05-25T22:58:27.629;599616436543779926;12813.353;148
2024-05-25T22:58:27.637;599616436551470880;12821.044;175
2024-05-25T22:58:27.644;599616436559161834;12828.735;162
2024-05-25T22:58:27.652;599616436566852788;12836.426;131
2024-05-25T22:58:27.660;599616436574543742;12844.117;120
2024-05-25T22:58:27.667;599616436582234696;12851.809;115
2024-05-25T22:58:27.675;599616436589925650;12859.498;99
2024-05-25T22:58:27.683;599616436597616604;12867.189;113
2024-05-25T22:58:27.690;599616436605307558;12874.881;150
2024-05-25T22:58:27.698;599616436612998512;12882.571;166
2024-05-25T22:58:27.706;599616436620689466;12890.263;125
2024-05-25T22:58:27.713;599616436628380420;12897.954;69
2024-05-25T22:58:27.721;599616436636071374;12905.644;120
2024-05-25T22:58:27.729;599616436643732236;12913.306;402
2024-05-25T22:58:27.736;599616436651423608;12920.997;833
2024-05-25T22:58:27.744;599616436659114980;12928.688;974
2024-05-25T22:58:27.752;599616436666806352;12936.379;516
2024-05-25T22:58:27.760;599616436674497724;12944.07;-118
2024-05-25T22:58:27.767;599616436682189096;12951.762;-305
2024-05-25T22:58:27.775;599616436689880468;12959.453;-208
2024-05-25T22:58:27.783;599616436697571840;12967.1455;-229
2024-05-25T22:58:27.790;599616436705263212;12974.837;-280
2024-05-25T22:58:27.798;599616436712954584;12982.528;-250
2024-05-25T22:58:27.806;599616436720645956;12990.22;-238
2024-05-25T22:58:27.813;599616436728337328;12997.91;-236
2024-05-25T22:58:27.821;599616436736028700;13005.602;-206
2024-05-25T22:58:27.829;599616436743720072;13013.293;-185
2024-05-25T22:58:27.836;599616436751411444;13020.984;-164
2024-05-25T22:58:27.844;599616436759102816;13028.676;-134
2024-05-25T22:58:27.852;599616436766794188;13036.367;-134
2024-05-25T22:58:27.860;599616436774485560;13044.06;-131
2024-05-25T22:58:27.867;599616436782176932;13051.75;-85
2024-05-25T22:58:27.875;599616436789868304;13059.441;-37
2024-05-25T22:58:27.883;599616436797559676;13067.133;-32
2024-05-25T22:58:27.890;599616436805251048;13074.824;-60
2024-05-25T22:58:27.898;599616436812942420;13082.516;-92
2024-05-25T22:58:27.906;599616436820633792;13090.207;-83
2024-05-25T22:58:27.913;599616436828325164;13097.898;-74
2024-05-25T22:58:27.921;599616436836016536;13105.589;-131
2024-05-25T22:58:27.929;599616436843707908;13113.281;-166
2024-05-25T22:58:27.936;599616436851399280;13120.973;-129
2024-05-25T22:58:27.944;599616436859090652;13128.664;-115
2024-05-25T22:58:27.952;599616436866782024;13136.355;-118
2024-05-25T22:58:27.960;599616436874473396;13144.047;-71
2024-05-25T22:58:27.967;599616436882164768;13151.738;-27
2024-05-25T22:58:27.975;599616436889856140;13159.429;-23
2024-05-25T22:58:27.983;599616436897547512;13167.12;-9
2024-05-25T22:58:27.990;599616436905238884;13174.812;18
2024-05-25T22:58:27.998;599616436912930256;13182.503;32
2024-05-25T22:58:28.006;599616436920621628;13190.195;43
2024-05-25T22:58:28.013;599616436928313000;13197.887;74
2024-05-25T22:58:28.021;599616436936004372;13205.578;115
2024-05-25T22:58:28.029;599616436943695744;13213.269;134
2024-05-25T22:58:28.036;599616436951387116;13220.96;118
2024-05-25T22:58:28.044;599616436959078488;13228.651;118
2024-05-25T22:58:28.052;599616436966769860;13236.343;157
2024-05-25T22:58:28.060;599616436974461232;13244.034;178
2024-05-25T22:58:28.067;599616436982152604;13251.726;173
2024-05-25T22:58:28.075;599616436989843976;13259.418;187
2024-05-25T22:58:28.083;599616436997535348;13267.108;196
2024-05-25T22:58:28.090;599616437005226720;13274.8;187
2024-05-25T22:58:28.098;599616437012918092;13282.491;187
2024-05-25T22:58:28.106;599616437020609464;13290.183;215
2024-05-25T22:58:28.113;599616437028300836;13297.874;233
2024-05-25T22:58:28.121;599616437035992208;13305.565;208
2024-05-25T22:58:28.129;599616437043683580;13313.257;131
2024-05-25T22:58:28.136;599616437051374952;13320.947;53
2024-05-25T22:58:28.144;599616437059066324;13328.639;11
2024-05-25T22:58:28.152;599616437066757696;13336.331;-2
2024-05-25T22:58:28.160;599616437074449068;13344.022;9
2024-05-25T22:58:28.167;599616437082140440;13351.714;37
2024-05-25T22:58:28.175;599616437089831812;13359.405;39
2024-05-25T22:58:28.183;599616437097523184;13367.097;16
2024-05-25T22:58:28.190;599616437105214556;13374.787;25
2024-05-25T22:58:28.198;599616437112905928;13382.479;67
2024-05-25T22:58:28.206;599616437120597300;13390.17;90
2024-05-25T22:58:28.213;599616437128288672;13397.861;81
2024-05-25T22:58:28.221;599616437135980044;13405.554;55
2024-05-25T22:58:28.229;599616437143671416;13413.245;32
2024-05-25T22:58:28.236;599616437151362788;13420.937;48
2024-05-25T22:58:28.244;599616437159054160;13428.628;219
2024-05-25T22:58:28.252;599616437166745532;13436.318;625
2024-05-25T22:58:28.260;599616437174436904;13444.01;974
2024-05-25T22:58:28.267;599616437182128276;13451.701;750
2024-05-25T22:58:28.275;599616437189819648;13459.393;94
2024-05-25T22:58:28.283;599616437197511020;13467.084;-222
2024-05-25T22:58:28.290;599616437205232496;13474.806;-108
2024-05-25T22:58:28.298;599616437212923450;13482.497;-90
2024-05-25T22:58:28.306;599616437220614404;13490.1875;-201
2024-05-25T22:58:28.313;599616437228305358;13497.879;-201
2024-05-25T22:58:28.321;599616437235996312;13505.569;-162
2024-05-25T22:58:28.329;599616437243687266;13513.26;-194
2024-05-25T22:58:28.336;599616437251378220;13520.951;-261
2024-05-25T22:58:28.344;599616437259069174;13528.643;-268
2024-05-25T22:58:28.352;599616437266760128;13536.333;-229
2024-05-25T22:58:28.360;599616437274451082;13544.024;-229
2024-05-25T22:58:28.367;599616437282142036;13551.715;-238
2024-05-25T22:58:28.375;599616437289832990;13559.406;-199
2024-05-25T22:58:28.383;599616437297523944;13567.097;-185
2024-05-25T22:58:28.390;599616437305214898;13574.788;-226
2024-05-25T22:58:28.398;599616437312905852;13582.4795;-240
2024-05-25T22:58:28.406;599616437320596806;13590.17;-201
2024-05-25T22:58:28.413;599616437328287760;13597.861;-166
2024-05-25T22:58:28.421;599616437335978714;13605.552;-162
2024-05-25T22:58:28.429;599616437343669668;13613.242;-208
2024-05-25T22:58:28.436;599616437351360622;13620.934;-231
2024-05-25T22:58:28.444;599616437359051576;13628.625;-196
2024-05-25T22:58:28.452;599616437366742530;13636.316;-187
2024-05-25T22:58:28.460;599616437374433484;13644.007;-196
2024-05-25T22:58:28.467;599616437382124438;13651.697;-145
2024-05-25T22:58:28.475;599616437389815392;13659.389;-90
2024-05-25T22:58:28.483;599616437397506346;13667.079;-78
2024-05-25T22:58:28.490;599616437405197300;13674.7705;-71
2024-05-25T22:58:28.498;599616437412888254;13682.462;-50
2024-05-25T22:58:28.506;599616437420579208;13690.152;-27
2024-05-25T22:58:28.513;599616437428270162;13697.843;-6
2024-05-25T22:58:28.521;599616437435961116;13705.534;18
2024-05-25T22:58:28.529;599616437443652070;13713.226;57
2024-05-25T22:58:28.536;599616437451343024;13720.916;83
2024-05-25T22:58:28.544;599616437459033978;13728.607;69
2024-05-25T22:58:28.552;599616437466724932;13736.299;71
2024-05-25T22:58:28.559;599616437474415886;13743.988;118
2024-05-25T22:58:28.567;599616437482106840;13751.68;145
2024-05-25T22:58:28.575;599616437489797794;13759.371;143
2024-05-25T22:58:28.583;599616437497488748;13767.062;155
2024-05-25T22:58:28.590;599616437505179702;13774.753;169
2024-05-25T22:58:28.598;599616437512870656;13782.444;169
2024-05-25T22:58:28.606;599616437520561610;13790.134;166
2024-05-25T22:58:28.613;599616437528252564;13797.825;175
2024-05-25T22:58:28.621;599616437535943518;13805.517;199
2024-05-25T22:58:28.629;599616437543634472;13813.208;189
2024-05-25T22:58:28.636;599616437551325426;13820.898;134
2024-05-25T22:58:28.644;599616437559016380;13828.59;94
2024-05-25T22:58:28.652;599616437566707334;13836.281;85
2024-05-25T22:58:28.659;599616437574398288;13843.971;76
2024-05-25T22:58:28.667;599616437582089242;13851.662;71
2024-05-25T22:58:28.675;599616437589780196;13859.354;76
2024-05-25T22:58:28.683;599616437597471150;13867.044;87
2024-05-25T22:58:28.690;599616437605162104;13874.735;90
2024-05-25T22:58:28.698;599616437612853058;13882.427;85
2024-05-25T22:58:28.706;599616437620544012;13890.117;99
2024-05-25T22:58:28.713;599616437628234966;13897.808;125
2024-05-25T22:58:28.721;599616437635925920;13905.499;131
2024-05-25T22:58:28.729;599616437643616874;13913.19;115
2024-05-25T22:58:28.736;599616437651307828;13920.881;118
2024-05-25T22:58:28.744;599616437658998782;13928.572;118
2024-05-25T22:58:28.752;599616437666689736;13936.263;85
2024-05-25T22:58:28.759;599616437674380690;13943.953;134
2024-05-25T22:58:28.767;599616437682071644;13951.645;439
2024-05-25T22:58:28.775;599616437689762598;13959.336;870
2024-05-25T22:58:28.783;599616437697453552;13967.027;939
2024-05-25T22:58:28.790;599616437705144506;13974.718;428
2024-05-25T22:58:28.798;599616437712835460;13982.409;-92
2024-05-25T22:58:28.806;599616437720526414;13990.1;-125
2024-05-25T22:58:28.813;599616437728217368;13997.79;-43
2024-05-25T22:58:28.821;599616437735908322;14005.481;-145
2024-05-25T22:58:28.829;599616437743599276;14013.173;-171
2024-05-25T22:58:28.836;599616437751290230;14020.863;-101
2024-05-25T22:58:28.844;599616437758981184;14028.555;-106
2024-05-25T22:58:28.852;599616437766672142;14036.245;-115
2024-05-25T22:58:28.859;599616437774363096;14043.937;-74
2024-05-25T22:58:28.867;599616437782054050;14051.627;-64
2024-05-25T22:58:28.875;599616437789745004;14059.318;-92
2024-05-25T22:58:28.883;599616437797435958;14067.01;-106
2024-05-25T22:58:28.890;599616437805126912;14074.7;-85
2024-05-25T22:58:28.898;599616437812817866;14082.391;-55
2024-05-25T22:58:28.906;599616437820508820;14090.082;-50
2024-05-25T22:58:28.913;599616437828199774;14097.772;-55
2024-05-25T22:58:28.921;599616437835890728;14105.464;-55
2024-05-25T22:58:28.929;599616437843581682;14113.155;-141
2024-05-25T22:58:28.936;599616437851272636;14120.846;-263
2024-05-25T22:58:28.944;599616437858963590;14128.536;-254
2024-05-25T22:58:28.952;599616437866654544;14136.228;-180
2024-05-25T22:58:28.959;599616437874345498;14143.919;-189
2024-05-25T22:58:28.967;599616437882036452;14151.609;-201
2024-05-25T22:58:28.975;599616437889727406;14159.301;-145
2024-05-25T22:58:28.982;599616437897418360;14166.992;-90
2024-05-25T22:58:28.990;599616437905109314;14174.682;-74
2024-05-25T22:58:28.998;599616437912800268;14182.373;-67
2024-05-25T22:58:29.006;599616437920491222;14190.064;-48
2024-05-25T22:58:29.013;599616437928182176;14197.755;-25
2024-05-25T22:58:29.021;599616437935873130;14205.446;-6
2024-05-25T22:58:29.029;599616437943564084;14213.138;13
2024-05-25T22:58:29.036;599616437951255038;14220.829;50
2024-05-25T22:58:29.044;599616437958945992;14228.519;83
2024-05-25T22:58:29.052;599616437966636946;14236.21;76
2024-05-25T22:58:29.059;599616437974327900;14243.901;71
2024-05-25T22:58:29.067;599616437982018854;14251.592;118
2024-05-25T22:58:29.075;599616437989709808;14259.283;162
2024-05-25T22:58:29.082;599616437997400762;14266.975;166
2024-05-25T22:58:29.090;599616438005091716;14274.664;162
2024-05-25T22:58:29.098;599616438012782670;14282.355;171
2024-05-25T22:58:29.106;599616438020473624;14290.047;185
2024-05-25T22:58:29.113;599616438028164578;14297.738;185
2024-05-25T22:58:29.121;599616438035855532;14305.429;159
2024-05-25T22:58:29.129;599616438043546486;14313.12;122
2024-05-25T22:58:29.136;599616438051237440;14320.811;113
2024-05-25T22:58:29.144;599616438058928394;14328.501;106
2024-05-25T22:58:29.152;599616438066619348;14336.192;97
2024-05-25T22:58:29.159;599616438074310302;14343.884;99
2024-05-25T22:58:29.167;599616438082001256;14351.574;76
2024-05-25T22:58:29.175;599616438089692210;14359.266;43
2024-05-25T22:58:29.182;599616438097383164;14366.957;50
2024-05-25T22:58:29.190;599616438105074118;14374.646;67
2024-05-25T22:58:29.198;599616438112765072;14382.338;67
2024-05-25T22:58:29.206;599616438120456026;14390.029;81
2024-05-25T22:58:29.213;599616438128146980;14397.721;111
2024-05-25T22:58:29.221;599616438135837934;14405.411;134
2024-05-25T22:58:29.229;599616438143528888;14413.103;136
2024-05-25T22:58:29.236;599616438151219842;14420.793;122
2024-05-25T22:58:29.244;599616438158910796;14428.483;129
2024-05-25T22:58:29.252;599616438166601750;14436.175;166
2024-05-25T22:58:29.259;599616438174292704;14443.866;178
2024-05-25T22:58:29.267;599616438181983658;14451.557;148
2024-05-25T22:58:29.275;599616438189674612;14459.248;92
2024-05-25T22:58:29.282;599616438197365566;14466.938;118
2024-05-25T22:58:29.290;599616438205056520;14474.63;395
2024-05-25T22:58:29.298;599616438212747474;14482.32;821
2024-05-25T22:58:29.306;599616438220438428;14490.012;942
2024-05-25T22:58:29.313;599616438228129382;14497.703;516
2024-05-25T22:58:29.321;599616438235820336;14505.394;-20
2024-05-25T22:58:29.329;599616438243511290;14513.084;-138
2024-05-25T22:58:29.336;599616438251202244;14520.775;-30
2024-05-25T22:58:29.344;599616438258893198;14528.466;-57
2024-05-25T22:58:29.352;599616438266584152;14536.157;-104
2024-05-25T22:58:29.359;599616438274275106;14543.849;-71
2024-05-25T22:58:29.367;599616438281966060;14551.54;-81
2024-05-25T22:58:29.375;599616438289657014;14559.2295;-138
2024-05-25T22:58:29.382;599616438297347968;14566.921;-152
2024-05-25T22:58:29.390;599616438305038922;14574.612;-120
2024-05-25T22:58:29.398;599616438312729876;14582.303;-87
2024-05-25T22:58:29.405;599616438320420830;14589.994;-55
2024-05-25T22:58:29.413;599616438328111788;14597.686;-41
2024-05-25T22:58:29.421;599616438335802742;14605.375;-43
2024-05-25T22:58:29.429;599616438343493696;14613.066;-60
2024-05-25T22:58:29.436;599616438351184650;14620.758;-115
2024-05-25T22:58:29.444;599616438358875604;14628.448;-150
2024-05-25T22:58:29.452;599616438366566558;14636.14;-106
2024-05-25T22:58:29.459;599616438374257512;14643.831;-55
2024-05-25T22:58:29.467;599616438381948466;14651.522;-76
2024-05-25T22:58:29.475;599616438389639420;14659.212;-141
2024-05-25T22:58:29.482;599616438397330374;14666.903;-159
2024-05-25T22:58:29.490;599616438405021328;14674.595;-108
2024-05-25T22:58:29.498;599616438412712282;14682.285;-71
2024-05-25T22:58:29.505;599616438420403236;14689.977;-78
2024-05-25T22:58:29.513;599616438428094190;14697.668;-67
2024-05-25T22:58:29.521;599616438435785144;14705.357;-25
2024-05-25T22:58:29.529;599616438443476098;14713.049;6
2024-05-25T22:58:29.536;599616438451167052;14720.74;18
2024-05-25T22:58:29.544;599616438458858006;14728.432;48
2024-05-25T22:58:29.552;599616438466548960;14736.122;83
2024-05-25T22:58:29.559;599616438474239914;14743.813;85
2024-05-25T22:58:29.567;599616438481930868;14751.504;85
2024-05-25T22:58:29.575;599616438489621822;14759.194;127
2024-05-25T22:58:29.582;599616438497312776;14766.886;175
2024-05-25T22:58:29.590;599616438505003730;14774.577;196
2024-05-25T22:58:29.598;599616438512694684;14782.268;196
2024-05-25T22:58:29.605;599616438520385638;14789.959;199
2024-05-25T22:58:29.613;599616438528076592;14797.65;187
2024-05-25T22:58:29.621;599616438535767546;14805.341;143
2024-05-25T22:58:29.629;599616438543458500;14813.031;120
2024-05-25T22:58:29.636;599616438551149454;14820.723;157
2024-05-25T22:58:29.644;599616438558840408;14828.414;187
2024-05-25T22:58:29.652;599616438566531362;14836.1045;171
2024-05-25T22:58:29.659;599616438574222316;14843.796;169
2024-05-25T22:58:29.667;599616438581913270;14851.486;199
2024-05-25T22:58:29.675;599616438589604224;14859.177;203
2024-05-25T22:58:29.682;599616438597295178;14866.868;157
2024-05-25T22:58:29.690;599616438604986132;14874.56;122
2024-05-25T22:58:29.698;599616438612677086;14882.251;127
2024-05-25T22:58:29.705;599616438620368040;14889.941;143
2024-05-25T22:58:29.713;599616438628058994;14897.632;148
2024-05-25T22:58:29.721;599616438635749948;14905.323;159
2024-05-25T22:58:29.729;599616438643440902;14913.014;199
2024-05-25T22:58:29.736;599616438651131856;14920.705;222
2024-05-25T22:58:29.744;599616438658822810;14928.396;192
2024-05-25T22:58:29.752;599616438666513764;14936.087;178
2024-05-25T22:58:29.759;599616438674204718;14943.777;219
2024-05-25T22:58:29.767;599616438681895672;14951.469;250
2024-05-25T22:58:29.775;599616438689586626;14959.159;243
2024-05-25T22:58:29.782;599616438697277580;14966.851;229
2024-05-25T22:58:29.790;599616438704968534;14974.542;180
2024-05-25T22:58:29.798;599616438712659488;14982.233;104
2024-05-25T22:58:29.805;599616438720350442;14989.923;171
2024-05-25T22:58:29.813;599616438728041396;14997.614;511
2024-05-25T22:58:29.821;599616438735732350;15005.306;923
2024-05-25T22:58:29.828;599616438743423304;15012.996;933
2024-05-25T22:58:29.836;599616438751114258;15020.6875;405
2024-05-25T22:58:29.844;599616438758805212;15028.379;-62
2024-05-25T22:58:29.852;599616438766496166;15036.069;-34
2024-05-25T22:58:29.859;599616438774187120;15043.76;43
2024-05-25T22:58:29.867;599616438781878074;15051.451;-90
2024-05-25T22:58:29.875;599616438789569028;15059.143;-129
2024-05-25T22:58:29.882;599616438797259982;15066.833;-67
2024-05-25T22:58:29.890;599616438804950936;15074.524;-76
2024-05-25T22:58:29.898;599616438812641890;15082.216;-83
2024-05-25T22:58:29.905;599616438820332844;15089.905;-30
2024-05-25T22:58:29.913;599616438828023798;15097.597;9
2024-05-25T22:58:29.921;599616438835714752;15105.288;11
2024-05-25T22:58:29.928;599616438843405706;15112.979;-4
2024-05-25T22:58:29.936;599616438851096660;15120.67;-46
2024-05-25T22:58:29.944;599616438858787614;15128.361;-101
2024-05-25T22:58:29.952;599616438866478568;15136.052;-111
2024-05-25T22:58:29.959;599616438874169522;15143.742;-71
2024-05-25T22:58:29.967;599616438881860476;15151.434;-27
2024-05-25T22:58:29.975;599616438889521338;15159.095;-6
2024-05-25T22:58:29.982;599616438897212710;15166.785;9
2024-05-25T22:58:29.990;599616438904904082;15174.477;34
2024-05-25T22:58:29.998;599616438912595454;15182.169;76
2024-05-25T22:58:30.005;599616438920286826;15189.86;111
2024-05-25T22:58:30.013;599616438927978198;15197.552;113
2024-05-25T22:58:30.021;599616438935669570;15205.243;101
2024-05-25T22:58:30.028;599616438943360942;15212.935;125
2024-05-25T22:58:30.036;599616438951052314;15220.625;150
2024-05-25T22:58:30.044;599616438958743686;15228.316;99
2024-05-25T22:58:30.052;599616438966435058;15236.008;46
2024-05-25T22:58:30.059;599616438974126430;15243.699;76
2024-05-25T22:58:30.067;599616438981817802;15251.391;94
2024-05-25T22:58:30.075;599616438989509174;15259.083;71
2024-05-25T22:58:30.082;599616438997200546;15266.774;90
2024-05-25T22:58:30.090;599616439004891918;15274.465;148
2024-05-25T22:58:30.098;599616439012583290;15282.156;192
2024-05-25T22:58:30.105;599616439020274662;15289.848;187
2024-05-25T22:58:30.113;599616439027966034;15297.539;141
2024-05-25T22:58:30.121;599616439035657406;15305.23;122
2024-05-25T22:58:30.128;599616439043348778;15312.922;148
2024-05-25T22:58:30.136;599616439051040150;15320.613;159
2024-05-25T22:58:30.144;599616439058731522;15328.305;169
2024-05-25T22:58:30.151;599616439066422894;15335.996;201
2024-05-25T22:58:30.159;599616439074114266;15343.6875;203
2024-05-25T22:58:30.167;599616439081805638;15351.379;185
2024-05-25T22:58:30.175;599616439089497010;15359.07;208
2024-05-25T22:58:30.182;599616439097188382;15366.762;247
2024-05-25T22:58:30.190;599616439104879754;15374.453;233
2024-05-25T22:58:30.198;599616439112571126;15382.144;180
2024-05-25T22:58:30.205;599616439120262498;15389.835;157
2024-05-25T22:58:30.213;599616439127953870;15397.526;169
2024-05-25T22:58:30.221;599616439135645242;15405.219;178
2024-05-25T22:58:30.228;599616439143336614;15412.91;180
2024-05-25T22:58:30.236;599616439151027986;15420.602;203
2024-05-25T22:58:30.244;599616439158719358;15428.293;229
2024-05-25T22:58:30.251;599616439166410730;15435.983;222
2024-05-25T22:58:30.259;599616439174102102;15443.675;206
2024-05-25T22:58:30.267;599616439181793474;15451.366;226
2024-05-25T22:58:30.275;599616439189484846;15459.058;259
2024-05-25T22:58:30.282;599616439197176218;15466.749;261
2024-05-25T22:58:30.290;599616439204867590;15474.441;254
2024-05-25T22:58:30.298;599616439212558962;15482.133;252
2024-05-25T22:58:30.305;599616439220250334;15489.824;219
2024-05-25T22:58:30.313;599616439227941706;15497.515;131
2024-05-25T22:58:30.321;599616439235633078;15505.206;106
2024-05-25T22:58:30.328;599616439243324450;15512.897;319
2024-05-25T22:58:30.336;599616439251015822;15520.589;729
2024-05-25T22:58:30.344;599616439258707194;15528.28;958
2024-05-25T22:58:30.351;599616439266398566;15535.972;629
2024-05-25T22:58:30.359;599616439274089938;15543.662;30
2024-05-25T22:58:30.367;599616439281781310;15551.3545;-180
2024-05-25T22:58:30.375;599616439289472682;15559.046;-64
2024-05-25T22:58:30.382;599616439297164054;15566.737;-81
2024-05-25T22:58:30.390;599616439304855426;15574.429;-159
2024-05-25T22:58:30.398;599616439312546798;15582.12;-118
2024-05-25T22:58:30.405;599616439320238170;15589.812;-83
2024-05-25T22:58:30.413;599616439327929542;15597.503;-90
2024-05-25T22:58:30.421;599616439335620914;15605.193;-46
2024-05-25T22:58:30.428;599616439343312286;15612.885;-9
2024-05-25T22:58:30.436;599616439351003658;15620.577;-48
2024-05-25T22:58:30.444;599616439358695030;15628.269;-125
2024-05-25T22:58:30.451;599616439366386402;15635.96;-162
2024-05-25T22:58:30.459;599616439374077774;15643.651;-136
2024-05-25T22:58:30.467;599616439381769146;15651.343;-101
2024-05-25T22:58:30.475;599616439389460518;15659.033;-76
2024-05-25T22:58:30.482;599616439397151890;15666.725;-46
2024-05-25T22:58:30.490;599616439404843262;15674.416;-23
2024-05-25T22:58:30.498;599616439412534634;15682.107;0
2024-05-25T22:58:30.505;599616439420226006;15689.799;43
2024-05-25T22:58:30.513;599616439427917378;15697.491;92
2024-05-25T22:58:30.521;599616439435608750;15705.183;106
2024-05-25T22:58:30.528;599616439443300122;15712.873;94
2024-05-25T22:58:30.536;599616439451021598;15720.595;111
2024-05-25T22:58:30.544;599616439458712552;15728.286;155
2024-05-25T22:58:30.551;599616439466403506;15735.977;173
2024-05-25T22:58:30.559;599616439474094460;15743.667;171
2024-05-25T22:58:30.567;599616439481785414;15751.358;187
2024-05-25T22:58:30.575;599616439489476368;15759.05;185
2024-05-25T22:58:30.582;599616439497167322;15766.741;115
2024-05-25T22:58:30.590;599616439504858276;15774.432;43
2024-05-25T22:58:30.598;599616439512549230;15782.122;34
2024-05-25T22:58:30.605;599616439520240184;15789.813;30
2024-05-25T22:58:30.613;599616439527931138;15797.504;-2
2024-05-25T22:58:30.621;599616439535622092;15805.195;-9
2024-05-25T22:58:30.628;599616439543313046;15812.887;27
2024-05-25T22:58:30.636;599616439551004000;15820.577;67
2024-05-25T22:58:30.644;599616439558694954;15828.268;85
2024-05-25T22:58:30.651;599616439566385908;15835.959;101
2024-05-25T22:58:30.659;599616439574076862;15843.649;129
2024-05-25T22:58:30.667;599616439581767816;15851.341;141
2024-05-25T22:58:30.675;599616439589458770;15859.032;138
2024-05-25T22:58:30.682;599616439597149724;15866.724;157
2024-05-25T22:58:30.690;599616439604840678;15874.413;192
2024-05-25T22:58:30.698;599616439612531632;15882.1045;203
2024-05-25T22:58:30.705;599616439620222586;15889.796;159
2024-05-25T22:58:30.713;599616439627913540;15897.486;108
2024-05-25T22:58:30.721;599616439635604494;15905.178;118
2024-05-25T22:58:30.728;599616439643295448;15912.869;141
2024-05-25T22:58:30.736;599616439650986402;15920.56;131
2024-05-25T22:58:30.744;599616439658677356;15928.25;141
2024-05-25T22:58:30.751;599616439666368310;15935.941;173
2024-05-25T22:58:30.759;599616439674059264;15943.633;171
2024-05-25T22:58:30.767;599616439681750218;15951.323;162
2024-05-25T22:58:30.775;599616439689441172;15959.015;185
2024-05-25T22:58:30.782;599616439697132126;15966.706;213
2024-05-25T22:58:30.790;599616439704823080;15974.3955;217
