Phone timestamp;sensor timestamp [ns];timestamp [ms];ecg [uV]
2024-05-26T22:20:09.667;599616782799844094;0.0;74
2024-05-26T22:20:09.674;599616782807535605;7.691511;399
2024-05-26T22:20:09.682;599616782815227116;15.383022;1660
2024-05-26T22:20:09.690;599616782822918627;23.074532;3473
2024-05-26T22:20:09.697;599616782830610138;30.766045;4699
2024-05-26T22:20:09.705;599616782838301649;38.457558;5470
2024-05-26T22:20:09.713;599616782845993160;46.149063;6373
2024-05-26T22:20:09.720;599616782853684671;53.840576;7207
2024-05-26T22:20:09.728;599616782861376182;61.53209;7938
2024-05-26T22:20:09.736;599616782869067693;69.2236;8595
2024-05-26T22:20:09.743;599616782876759204;76.915115;9003
2024-05-26T22:20:09.751;599616782884450715;84.60662;9405
2024-05-26T22:20:09.759;599616782892142226;92.29813;9966
2024-05-26T22:20:09.766;599616782899833737;99.98964;10479
2024-05-26T22:20:09.774;599616782907525248;107.68115;10902
2024-05-26T22:20:09.782;599616782915216759;115.372665;11278
2024-05-26T22:20:09.790;599616782922908270;123.06418;11607
2024-05-26T22:20:09.797;599616782930599781;130.75569;11963
2024-05-26T22:20:09.805;599616782938291292;138.4472;12296
2024-05-26T22:20:09.813;599616782945982803;146.1387;12558
2024-05-26T22:20:09.820;599616782953674314;153.83023;12885
2024-05-26T22:20:09.828;599616782961365825;161.52173;13231
2024-05-26T22:20:09.836;599616782969057336;169.21324;13404
2024-05-26T22:20:09.843;599616782976748847;176.90475;13541
2024-05-26T22:20:09.851;599616782984440358;184.59625;13817
2024-05-26T22:20:09.859;599616782992131869;192.28778;14121
2024-05-26T22:20:09.866;599616782999823380;199.97928;14368
2024-05-26T22:20:09.874;599616783007514891;207.6708;14490
2024-05-26T22:20:09.882;599616783015206402;215.3623;14539
2024-05-26T22:20:09.890;599616783022897913;223.05382;14686
2024-05-26T22:20:09.897;599616783030589424;230.74533;14833
2024-05-26T22:20:09.905;599616783038280935;238.43684;14903
2024-05-26T22:20:09.913;599616783045972446;246.12836;15078
2024-05-26T22:20:09.920;599616783053663957;253.81985;15253
2024-05-26T22:20:09.928;599616783061355468;261.51138;15221
2024-05-26T22:20:09.936;599616783069046979;269.20288;15279
2024-05-26T22:20:09.943;599616783076738490;276.8944;15566
2024-05-26T22:20:09.951;599616783084430001;284.5859;15613
2024-05-26T22:20:09.959;599616783092121512;292.2774;15433
2024-05-26T22:20:09.966;599616783099813023;299.96893;15468
2024-05-26T22:20:09.974;599616783107504534;307.66046;15580
2024-05-26T22:20:09.982;599616783115196045;315.35193;15615
2024-05-26T22:20:09.990;599616783122887556;323.04346;15634
2024-05-26T22:20:09.997;599616783130579067;330.735;15608
2024-05-26T22:20:10.005;599616783138270578;338.42648;15840
2024-05-26T22:20:10.013;599616783145962089;346.11798;16325
2024-05-26T22:20:10.020;599616783153653600;353.8095;16484
2024-05-26T22:20:10.028;599616783161345111;361.50104;16197
2024-05-26T22:20:10.036;599616783169036622;369.1925;15716
2024-05-26T22:20:10.043;599616783176728133;376.88403;15363
2024-05-26T22:20:10.051;599616783184419644;384.57556;15377
2024-05-26T22:20:10.059;599616783192111155;392.26706;15450
2024-05-26T22:20:10.066;599616783199802666;399.95856;15335
2024-05-26T22:20:10.074;599616783207494177;407.6501;15235
2024-05-26T22:20:10.082;599616783215185688;415.3416;15200
2024-05-26T22:20:10.090;599616783222877199;423.0331;15179
2024-05-26T22:20:10.097;599616783230568710;430.7246;15225
2024-05-26T22:20:10.105;599616783238260221;438.41614;15193
2024-05-26T22:20:10.113;599616783245951732;446.10764;14999
2024-05-26T22:20:10.120;599616783253643243;453.79913;14924
2024-05-26T22:20:10.128;599616783261334754;461.49066;14987
2024-05-26T22:20:10.136;599616783269026265;469.1822;14917
2024-05-26T22:20:10.143;599616783276717776;476.8737;14805
2024-05-26T22:20:10.151;599616783284409287;484.5652;14810
2024-05-26T22:20:10.159;599616783292100798;492.2567;14763
2024-05-26T22:20:10.166;599616783299792309;499.9482;14606
2024-05-26T22:20:10.174;599616783307483820;507.6397;14492
2024-05-26T22:20:10.182;599616783315175331;515.33124;14515
2024-05-26T22:20:10.190;599616783322866842;523.02277;14581
2024-05-26T22:20:10.197;599616783330558353;530.7143;14406
2024-05-26T22:20:10.205;599616783338249864;538.40576;14086
2024-05-26T22:20:10.213;599616783345941375;546.0973;14020
2024-05-26T22:20:10.220;599616783353632886;553.7888;14053
2024-05-26T22:20:10.228;599616783361314422;561.47034;13938
2024-05-26T22:20:10.236;599616783369006072;569.162;13978
2024-05-26T22:20:10.243;599616783376697722;576.85364;13992
2024-05-26T22:20:10.251;599616783384389372;584.5453;13562
2024-05-26T22:20:10.259;599616783392081022;592.23694;13231
2024-05-26T22:20:10.266;599616783399772672;599.9286;13270
2024-05-26T22:20:10.274;599616783407464322;607.62024;13273
2024-05-26T22:20:10.282;599616783415155972;615.3119;13186
2024-05-26T22:20:10.290;599616783422847622;623.00354;13058
2024-05-26T22:20:10.297;599616783430539272;630.6952;12897
2024-05-26T22:20:10.305;599616783438230922;638.38684;12913
2024-05-26T22:20:10.313;599616783445922572;646.0785;12906
2024-05-26T22:20:10.320;599616783453614222;653.77014;12584
2024-05-26T22:20:10.328;599616783461305872;661.46173;12395
2024-05-26T22:20:10.336;599616783468997522;669.1534;12451
2024-05-26T22:20:10.343;599616783476689172;676.84503;12304
2024-05-26T22:20:10.351;599616783484380822;684.5367;12065
2024-05-26T22:20:10.359;599616783492072472;692.22833;12026
2024-05-26T22:20:10.366;599616783499764122;699.92;12026
2024-05-26T22:20:10.374;599616783507455772;707.61163;11916
2024-05-26T22:20:10.382;599616783515147422;715.3033;11762
2024-05-26T22:20:10.389;599616783522839072;722.995;11645
2024-05-26T22:20:10.397;599616783530530722;730.68665;11589
2024-05-26T22:20:10.405;599616783538222372;738.3783;11493
2024-05-26T22:20:10.413;599616783545914022;746.06995;11348
2024-05-26T22:20:10.420;599616783553605672;753.7616;11320
2024-05-26T22:20:10.428;599616783561297322;761.45325;11353
2024-05-26T22:20:10.436;599616783568988972;769.1449;11199
2024-05-26T22:20:10.443;599616783576680622;776.83655;10888
2024-05-26T22:20:10.451;599616783584372272;784.5282;10711
2024-05-26T22:20:10.459;599616783592063922;792.21985;10678
2024-05-26T22:20:10.466;599616783599755572;799.9115;10573
2024-05-26T22:20:10.474;599616783607447222;807.60315;10400
2024-05-26T22:20:10.482;599616783615138872;815.2948;10295
2024-05-26T22:20:10.489;599616783622830522;822.98645;10234
2024-05-26T22:20:10.497;599616783630522172;830.6781;10115
2024-05-26T22:20:10.505;599616783638213822;838.36975;9991
2024-05-26T22:20:10.513;599616783645905472;846.0614;9970
2024-05-26T22:20:10.520;599616783653597122;853.75305;9914
2024-05-26T22:20:10.528;599616783661288772;861.4447;9709
2024-05-26T22:20:10.536;599616783668980422;869.1363;9571
2024-05-26T22:20:10.543;599616783676672072;876.82794;9592
2024-05-26T22:20:10.551;599616783684363722;884.5196;9540
2024-05-26T22:20:10.559;599616783692055372;892.21124;9354
2024-05-26T22:20:10.566;599616783699747022;899.9029;9213
2024-05-26T22:20:10.574;599616783707438672;907.59454;9064
2024-05-26T22:20:10.582;599616783715130322;915.2862;8901
2024-05-26T22:20:10.589;599616783722821972;922.97784;9010
2024-05-26T22:20:10.597;599616783730513622;930.6695;9421
2024-05-26T22:20:10.605;599616783738205272;938.36115;9657
2024-05-26T22:20:10.613;599616783745896922;946.0528;9213
2024-05-26T22:20:10.620;599616783753588572;953.74445;8403
2024-05-26T22:20:10.628;599616783761280222;961.43616;8097
2024-05-26T22:20:10.636;599616783768971872;969.1278;8219
2024-05-26T22:20:10.643;599616783776663522;976.81946;8120
2024-05-26T22:20:10.651;599616783784355172;984.5111;7917
2024-05-26T22:20:10.659;599616783792046822;992.20276;7873
2024-05-26T22:20:10.666;599616783799738472;999.8944;7817
2024-05-26T22:20:10.674;599616783807430122;1007.58606;7712
2024-05-26T22:20:10.682;599616783815121772;1015.2777;7642
2024-05-26T22:20:10.689;599616783822813422;1022.96936;7523
2024-05-26T22:20:10.697;599616783830505072;1030.661;7399
2024-05-26T22:20:10.705;599616783838196722;1038.3527;7324
2024-05-26T22:20:10.713;599616783845888372;1046.0443;7210
2024-05-26T22:20:10.720;599616783853580022;1053.736;7135
2024-05-26T22:20:10.728;599616783861271672;1061.4276;7142
2024-05-26T22:20:10.736;599616783868963322;1069.1193;7135
2024-05-26T22:20:10.743;599616783876654972;1076.8109;7046
2024-05-26T22:20:10.751;599616783884346622;1084.5026;6831
2024-05-26T22:20:10.759;599616783892038272;1092.1942;6649
2024-05-26T22:20:10.766;599616783899729922;1099.8859;6595
2024-05-26T22:20:10.774;599616783907421572;1107.5775;6537
2024-05-26T22:20:10.782;599616783915113222;1115.2692;6476
2024-05-26T22:20:10.789;599616783922794852;1122.9508;6448
2024-05-26T22:20:10.797;599616783930486642;1130.6426;6357
2024-05-26T22:20:10.805;599616783938178432;1138.3344;6233
2024-05-26T22:20:10.813;599616783945870222;1146.0261;6210
2024-05-26T22:20:10.820;599616783953562012;1153.7179;6201
2024-05-26T22:20:10.828;599616783961253802;1161.4097;6114
2024-05-26T22:20:10.836;599616783968945592;1169.1014;6058
2024-05-26T22:20:10.843;599616783976637382;1176.7933;6074
2024-05-26T22:20:10.851;599616783984329172;1184.4851;5995
2024-05-26T22:20:10.859;599616783992020962;1192.1769;5773
2024-05-26T22:20:10.866;599616783999712752;1199.8687;5661
2024-05-26T22:20:10.874;599616784007404542;1207.5604;5694
2024-05-26T22:20:10.882;599616784015096332;1215.2522;5659
2024-05-26T22:20:10.889;599616784022788122;1222.944;5537
2024-05-26T22:20:10.897;599616784030479912;1230.6357;5462
2024-05-26T22:20:10.905;599616784038171702;1238.3275;5446
2024-05-26T22:20:10.913;599616784045863492;1246.0194;5385
2024-05-26T22:20:10.920;599616784053555282;1253.7112;5313
2024-05-26T22:20:10.928;599616784061247072;1261.403;5301
2024-05-26T22:20:10.936;599616784068938862;1269.0947;5206
2024-05-26T22:20:10.943;599616784076630652;1276.7865;5030
2024-05-26T22:20:10.951;599616784084322442;1284.4784;4967
2024-05-26T22:20:10.959;599616784092014232;1292.1702;4979
2024-05-26T22:20:10.966;599616784099706022;1299.8619;4937
2024-05-26T22:20:10.974;599616784107397812;1307.5537;4876
2024-05-26T22:20:10.982;599616784115089602;1315.2456;4832
2024-05-26T22:20:10.989;599616784122781392;1322.9374;4785
2024-05-26T22:20:10.997;599616784130473182;1330.6292;4750
2024-05-26T22:20:11.005;599616784138164972;1338.3209;4710
2024-05-26T22:20:11.013;599616784145856762;1346.0127;4664
2024-05-26T22:20:11.020;599616784153548552;1353.7045;4652
2024-05-26T22:20:11.028;599616784161240342;1361.3962;4603
2024-05-26T22:20:11.036;599616784168932132;1369.088;4463
2024-05-26T22:20:11.043;599616784176623922;1376.7798;4365
2024-05-26T22:20:11.051;599616784184315712;1384.4717;4358
2024-05-26T22:20:11.059;599616784192007502;1392.1635;4325
2024-05-26T22:20:11.066;599616784199699292;1399.8552;4255
2024-05-26T22:20:11.074;599616784207391082;1407.547;4199
2024-05-26T22:20:11.082;599616784215082872;1415.2388;4157
2024-05-26T22:20:11.089;599616784222774662;1422.9305;4127
2024-05-26T22:20:11.097;599616784230466452;1430.6223;4089
2024-05-26T22:20:11.105;599616784238158242;1438.3141;4052
2024-05-26T22:20:11.113;599616784245850032;1446.0059;4031
2024-05-26T22:20:11.120;599616784253541822;1453.6978;3986
2024-05-26T22:20:11.128;599616784261233612;1461.3895;3900
2024-05-26T22:20:11.136;599616784268925402;1469.0813;3860
2024-05-26T22:20:11.143;599616784276617192;1476.7731;3851
2024-05-26T22:20:11.151;599616784284308982;1484.4648;3769
2024-05-26T22:20:11.159;599616784292000772;1492.1566;3638
2024-05-26T22:20:11.166;599616784299692562;1499.8484;3571
2024-05-26T22:20:11.174;599616784307384352;1507.5403;3655
2024-05-26T22:20:11.182;599616784315076142;1515.232;3935
2024-05-26T22:20:11.189;599616784322767932;1522.9238;4187
2024-05-26T22:20:11.197;599616784330459722;1530.6157;3977
2024-05-26T22:20:11.205;599616784338151512;1538.3075;3381
2024-05-26T22:20:11.212;599616784345843302;1545.9993;3033
2024-05-26T22:20:11.220;599616784353535092;1553.691;3071
2024-05-26T22:20:11.228;599616784361226882;1561.3828;3071
2024-05-26T22:20:11.236;599616784368918672;1569.0746;2980
2024-05-26T22:20:11.243;599616784376610462;1576.7664;2973
2024-05-26T22:20:11.251;599616784384302252;1584.4581;2917
2024-05-26T22:20:11.259;599616784391994042;1592.1499;2774
2024-05-26T22:20:11.266;599616784399685832;1599.8418;2742
2024-05-26T22:20:11.274;599616784407377622;1607.5336;2760
2024-05-26T22:20:11.282;599616784415069412;1615.2253;2725
2024-05-26T22:20:11.289;599616784422761202;1622.9171;2727
2024-05-26T22:20:11.297;599616784430452992;1630.6089;2751
2024-05-26T22:20:11.305;599616784438144782;1638.3007;2713
2024-05-26T22:20:11.312;599616784445836572;1645.9924;2676
2024-05-26T22:20:11.320;599616784453528362;1653.6842;2697
2024-05-26T22:20:11.328;599616784461220152;1661.376;2711
2024-05-26T22:20:11.336;599616784468911942;1669.0679;2692
2024-05-26T22:20:11.343;599616784476603732;1676.7596;2688
2024-05-26T22:20:11.351;599616784484295534;1684.4514;2688
2024-05-26T22:20:11.359;599616784491987324;1692.1432;2650
2024-05-26T22:20:11.366;599616784499679114;1699.835;2597
2024-05-26T22:20:11.374;599616784507370904;1707.5267;2576
2024-05-26T22:20:11.382;599616784515062694;1715.2185;2578
2024-05-26T22:20:11.389;599616784522754484;1722.9103;2571
2024-05-26T22:20:11.397;599616784530446274;1730.6023;2529
2024-05-26T22:20:11.405;599616784538138064;1738.2941;2494
2024-05-26T22:20:11.412;599616784545829854;1745.9858;2503
2024-05-26T22:20:11.420;599616784553521644;1753.6776;2492
2024-05-26T22:20:11.428;599616784561213434;1761.3694;2419
2024-05-26T22:20:11.436;599616784568905224;1769.0612;2379
2024-05-26T22:20:11.443;599616784576597014;1776.7529;2384
2024-05-26T22:20:11.451;599616784584288804;1784.4447;2319
2024-05-26T22:20:11.459;599616784591980594;1792.1365;2214
2024-05-26T22:20:11.466;599616784599672384;1799.8284;2190
2024-05-26T22:20:11.474;599616784607364174;1807.5201;2209
2024-05-26T22:20:11.482;599616784615055964;1815.2119;2181
2024-05-26T22:20:11.489;599616784622747754;1822.9037;2137
2024-05-26T22:20:11.497;599616784630439544;1830.5955;2127
2024-05-26T22:20:11.505;599616784638131334;1838.2872;2125
2024-05-26T22:20:11.512;599616784645823124;1845.979;2102
2024-05-26T22:20:11.520;599616784653514914;1853.6708;2083
2024-05-26T22:20:11.528;599616784661206704;1861.3625;2095
2024-05-26T22:20:11.536;599616784668898494;1869.0544;2092
2024-05-26T22:20:11.543;599616784676590284;1876.7462;2057
2024-05-26T22:20:11.551;599616784684282074;1884.438;2045
2024-05-26T22:20:11.559;599616784691973864;1892.1298;2055
2024-05-26T22:20:11.566;599616784699665654;1899.8215;2034
2024-05-26T22:20:11.574;599616784707357444;1907.5133;2001
2024-05-26T22:20:11.582;599616784715049234;1915.2051;1982
2024-05-26T22:20:11.589;599616784722741024;1922.8969;1975
2024-05-26T22:20:11.597;599616784730432814;1930.5886;1964
2024-05-26T22:20:11.605;599616784738124604;1938.2804;1940
2024-05-26T22:20:11.612;599616784745816394;1945.9724;1931
2024-05-26T22:20:11.620;599616784753508184;1953.6642;1912
2024-05-26T22:20:11.628;599616784761199974;1961.356;1835
2024-05-26T22:20:11.636;599616784768891764;1969.0477;1758
2024-05-26T22:20:11.643;599616784776583554;1976.7395;1747
2024-05-26T22:20:11.651;599616784784275344;1984.4313;1747
2024-05-26T22:20:11.659;599616784791967134;1992.123;1730
2024-05-26T22:20:11.666;599616784799658924;1999.8148;1714
2024-05-26T22:20:11.674;599616784807350714;2007.5066;1674
2024-05-26T22:20:11.682;599616784815042504;2015.1985;1625
2024-05-26T22:20:11.689;599616784822734294;2022.8903;1602
2024-05-26T22:20:11.697;599616784830426084;2030.582;1574
2024-05-26T22:20:11.705;599616784838117874;2038.2738;1569
2024-05-26T22:20:11.712;599616784845809664;2045.9656;1585
2024-05-26T22:20:11.720;599616784853501454;2053.6572;1564
2024-05-26T22:20:11.728;599616784861193244;2061.349;1529
2024-05-26T22:20:11.736;599616784868885034;2069.041;1527
2024-05-26T22:20:11.743;599616784876576824;2076.7327;1473
2024-05-26T22:20:11.751;599616784884268614;2084.4246;1319
2024-05-26T22:20:11.759;599616784891960404;2092.1165;1237
2024-05-26T22:20:11.766;599616784899652194;2099.808;1436
2024-05-26T22:20:11.774;599616784907343984;2107.5;1847
2024-05-26T22:20:11.782;599616784915035774;2115.1917;2001
2024-05-26T22:20:11.789;599616784922727564;2122.8835;1574
2024-05-26T22:20:11.797;599616784930419354;2130.5752;1053
2024-05-26T22:20:11.805;599616784938111144;2138.267;994
2024-05-26T22:20:11.812;599616784945802934;2145.9587;1086
2024-05-26T22:20:11.820;599616784953494724;2153.6506;1018
2024-05-26T22:20:11.828;599616784961186514;2161.3425;983
2024-05-26T22:20:11.836;599616784968878304;2169.0342;1022
2024-05-26T22:20:11.843;599616784976570094;2176.726;1011
2024-05-26T22:20:11.851;599616784984261884;2184.4177;1013
2024-05-26T22:20:11.859;599616784991953674;2192.1096;1048
2024-05-26T22:20:11.866;599616784999645464;2199.8013;1039
2024-05-26T22:20:11.874;599616785007337254;2207.4932;1008
2024-05-26T22:20:11.882;599616785015029044;2215.1848;1034
2024-05-26T22:20:11.889;599616785022720834;2222.8767;1083
2024-05-26T22:20:11.897;599616785030412624;2230.5684;1076
2024-05-26T22:20:11.905;599616785038104414;2238.2603;1044
2024-05-26T22:20:11.912;599616785045826312;2245.9822;1037
2024-05-26T22:20:11.920;599616785053517684;2253.6736;1022
2024-05-26T22:20:11.928;599616785061209056;2261.365;978
2024-05-26T22:20:11.936;599616785068900428;2269.0562;962
2024-05-26T22:20:11.943;599616785076591800;2276.7478;997
2024-05-26T22:20:11.951;599616785084283172;2284.439;1008
2024-05-26T22:20:11.959;599616785091974544;2292.1306;934
2024-05-26T22:20:11.966;599616785099665916;2299.8218;833
2024-05-26T22:20:11.974;599616785107357288;2307.5132;836
2024-05-26T22:20:11.982;599616785115048660;2315.2046;906
2024-05-26T22:20:11.989;599616785122740032;2322.8958;901
2024-05-26T22:20:11.997;599616785130431404;2330.5874;871
2024-05-26T22:20:12.005;599616785138122776;2338.2786;894
2024-05-26T22:20:12.012;599616785145814148;2345.9702;920
2024-05-26T22:20:12.020;599616785153505520;2353.6614;941
2024-05-26T22:20:12.028;599616785161196892;2361.3528;980
2024-05-26T22:20:12.036;599616785168888264;2369.0442;987
2024-05-26T22:20:12.043;599616785176579636;2376.7356;924
2024-05-26T22:20:12.051;599616785184271008;2384.427;859
2024-05-26T22:20:12.059;599616785191962380;2392.1182;864
2024-05-26T22:20:12.066;599616785199653752;2399.8096;908
2024-05-26T22:20:12.074;599616785207345124;2407.501;941
2024-05-26T22:20:12.082;599616785215036496;2415.1924;966
2024-05-26T22:20:12.089;599616785222727868;2422.8838;976
2024-05-26T22:20:12.097;599616785230419240;2430.5752;955
2024-05-26T22:20:12.105;599616785238110612;2438.2666;931
2024-05-26T22:20:12.112;599616785245801984;2445.958;927
2024-05-26T22:20:12.120;599616785253493356;2453.6492;957
2024-05-26T22:20:12.128;599616785261184728;2461.3406;994
2024-05-26T22:20:12.136;599616785268876100;2469.032;978
2024-05-26T22:20:12.143;599616785276567472;2476.7234;938
2024-05-26T22:20:12.151;599616785284258844;2484.4148;948
2024-05-26T22:20:12.159;599616785291950216;2492.1062;952
2024-05-26T22:20:12.166;599616785299641588;2499.7976;887
2024-05-26T22:20:12.174;599616785307332960;2507.4888;836
2024-05-26T22:20:12.182;599616785315024332;2515.1802;852
2024-05-26T22:20:12.189;599616785322715704;2522.8716;857
2024-05-26T22:20:12.197;599616785330407076;2530.563;784
2024-05-26T22:20:12.205;599616785338098448;2538.2544;731
2024-05-26T22:20:12.212;599616785345789820;2545.9456;759
2024-05-26T22:20:12.220;599616785353481192;2553.6372;782
2024-05-26T22:20:12.228;599616785361172564;2561.3284;740
2024-05-26T22:20:12.236;599616785368863936;2569.02;717
2024-05-26T22:20:12.243;599616785376555308;2576.7112;735
2024-05-26T22:20:12.251;599616785384246680;2584.4026;693
2024-05-26T22:20:12.259;599616785391938052;2592.094;588
2024-05-26T22:20:12.266;599616785399629424;2599.7852;546
2024-05-26T22:20:12.274;599616785407320796;2607.4768;574
2024-05-26T22:20:12.282;599616785415012168;2615.168;593
2024-05-26T22:20:12.289;599616785422703540;2622.8596;595
2024-05-26T22:20:12.297;599616785430394912;2630.5508;595
2024-05-26T22:20:12.305;599616785438086284;2638.2422;604
2024-05-26T22:20:12.312;599616785445777656;2645.9336;562
2024-05-26T22:20:12.320;599616785453469028;2653.6248;460
2024-05-26T22:20:12.328;599616785461160400;2661.3164;544
2024-05-26T22:20:12.336;599616785468851772;2669.0076;927
2024-05-26T22:20:12.343;599616785476543144;2676.6992;1275
2024-05-26T22:20:12.351;599616785484234516;2684.3904;1139
2024-05-26T22:20:12.359;599616785491925888;2692.082;583
2024-05-26T22:20:12.366;599616785499617260;2699.7732;228
2024-05-26T22:20:12.374;599616785507308632;2707.4644;310
2024-05-26T22:20:12.382;599616785515000004;2715.156;394
2024-05-26T22:20:12.389;599616785522691376;2722.8472;315
2024-05-26T22:20:12.397;599616785530382748;2730.5388;319
2024-05-26T22:20:12.405;599616785538074120;2738.23;366
2024-05-26T22:20:12.412;599616785545765492;2745.9214;315
2024-05-26T22:20:12.420;599616785553456864;2753.6128;282
2024-05-26T22:20:12.428;599616785561148236;2761.304;336
2024-05-26T22:20:12.435;599616785568839608;2768.9956;378
2024-05-26T22:20:12.443;599616785576530980;2776.6868;385
2024-05-26T22:20:12.451;599616785584222352;2784.3784;397
2024-05-26T22:20:12.459;599616785591913724;2792.0696;415
2024-05-26T22:20:12.466;599616785599605096;2799.761;429
2024-05-26T22:20:12.474;599616785607266380;2807.422;446
2024-05-26T22:20:12.482;599616785614958170;2815.114;469
2024-05-26T22:20:12.489;599616785622649960;2822.8057;502
2024-05-26T22:20:12.497;599616785630341750;2830.4976;523
2024-05-26T22:20:12.505;599616785638033540;2838.1895;511
2024-05-26T22:20:12.512;599616785645725330;2845.8813;516
2024-05-26T22:20:12.520;599616785653417120;2853.573;553
2024-05-26T22:20:12.528;599616785661108910;2861.265;527
2024-05-26T22:20:12.535;599616785668800700;2868.9568;441
2024-05-26T22:20:12.543;599616785676492490;2876.6484;427
2024-05-26T22:20:12.551;599616785684184280;2884.3403;481
2024-05-26T22:20:12.559;599616785691876070;2892.032;476
2024-05-26T22:20:12.566;599616785699567860;2899.7239;439
2024-05-26T22:20:12.574;599616785707259650;2907.4155;457
2024-05-26T22:20:12.582;599616785714951440;2915.1074;504
2024-05-26T22:20:12.589;599616785722643230;2922.799;502
2024-05-26T22:20:12.597;599616785730335020;2930.491;471
2024-05-26T22:20:12.605;599616785738026810;2938.1826;488
2024-05-26T22:20:12.612;599616785745718600;2945.8745;539
2024-05-26T22:20:12.620;599616785753410390;2953.5662;569
2024-05-26T22:20:12.628;599616785761102180;2961.258;560
2024-05-26T22:20:12.635;599616785768793970;2968.9497;534
2024-05-26T22:20:12.643;599616785776485760;2976.6418;544
2024-05-26T22:20:12.651;599616785784177550;2984.3335;555
2024-05-26T22:20:12.659;599616785791869340;2992.0254;497
2024-05-26T22:20:12.666;599616785799561130;2999.717;464
2024-05-26T22:20:12.674;599616785807252920;3007.409;509
2024-05-26T22:20:12.682;599616785814944710;3015.1006;541
2024-05-26T22:20:12.689;599616785822636500;3022.7925;516
2024-05-26T22:20:12.697;599616785830328290;3030.4841;488
2024-05-26T22:20:12.705;599616785838020080;3038.176;518
2024-05-26T22:20:12.712;599616785845711870;3045.8677;558
2024-05-26T22:20:12.720;599616785853403660;3053.5596;562
2024-05-26T22:20:12.728;599616785861095450;3061.2512;572
2024-05-26T22:20:12.735;599616785868787240;3068.943;579
2024-05-26T22:20:12.743;599616785876479030;3076.6348;553
2024-05-26T22:20:12.751;599616785884170820;3084.3267;518
2024-05-26T22:20:12.759;599616785891862610;3092.0183;443
2024-05-26T22:20:12.766;599616785899554400;3099.7102;331
2024-05-26T22:20:12.774;599616785907246190;3107.402;284
2024-05-26T22:20:12.782;599616785914937980;3115.0938;324
2024-05-26T22:20:12.789;599616785922629770;3122.786;350
2024-05-26T22:20:12.797;599616785930321560;3130.4775;338
2024-05-26T22:20:12.805;599616785938013350;3138.1694;345
2024-05-26T22:20:12.812;599616785945705140;3145.861;373
2024-05-26T22:20:12.820;599616785953396930;3153.553;378
2024-05-26T22:20:12.828;599616785961088720;3161.2446;357
2024-05-26T22:20:12.835;599616785968780510;3168.9365;336
2024-05-26T22:20:12.843;599616785976472300;3176.6282;348
2024-05-26T22:20:12.851;599616785984164090;3184.32;352
2024-05-26T22:20:12.859;599616785991855880;3192.0117;364
2024-05-26T22:20:12.866;599616785999547670;3199.7036;574
2024-05-26T22:20:12.874;599616786007239460;3207.3953;1025
2024-05-26T22:20:12.882;599616786014931250;3215.0872;1286
2024-05-26T22:20:12.889;599616786022623040;3222.7788;929
2024-05-26T22:20:12.897;599616786030314830;3230.4707;263
2024-05-26T22:20:12.905;599616786038006620;3238.1624;-21
2024-05-26T22:20:12.912;599616786045698410;3245.8542;98
2024-05-26T22:20:12.920;599616786053390200;3253.546;114
2024-05-26T22:20:12.928;599616786061081990;3261.238;0
2024-05-26T22:20:12.935;599616786068773780;3268.9297;25
2024-05-26T22:20:12.943;599616786076465570;3276.6216;105
2024-05-26T22:20:12.951;599616786084157360;3284.3132;88
2024-05-26T22:20:12.959;599616786091849150;3292.0051;77
2024-05-26T22:20:12.966;599616786099540940;3299.6968;128
2024-05-26T22:20:12.974;599616786107232730;3307.3887;154
2024-05-26T22:20:12.982;599616786114924520;3315.0806;121
2024-05-26T22:20:12.989;599616786122616310;3322.7722;130
2024-05-26T22:20:12.997;599616786130308100;3330.464;212
2024-05-26T22:20:13.005;599616786137999890;3338.1558;256
2024-05-26T22:20:13.012;599616786145691680;3345.8477;235
2024-05-26T22:20:13.020;599616786153383470;3353.5393;240
2024-05-26T22:20:13.028;599616786161075260;3361.2312;275
2024-05-26T22:20:13.035;599616786168767062;3368.9229;305
2024-05-26T22:20:13.043;599616786176458852;3376.6147;329
2024-05-26T22:20:13.051;599616786184150642;3384.3064;326
2024-05-26T22:20:13.058;599616786191842432;3391.9985;303
2024-05-26T22:20:13.066;599616786199534222;3399.6902;280
2024-05-26T22:20:13.074;599616786207226012;3407.382;231
2024-05-26T22:20:13.082;599616786214917802;3415.0737;214
2024-05-26T22:20:13.089;599616786222609592;3422.7656;270
2024-05-26T22:20:13.097;599616786230301382;3430.4573;277
2024-05-26T22:20:13.105;599616786237993172;3438.1492;210
2024-05-26T22:20:13.112;599616786245684962;3445.8408;203
2024-05-26T22:20:13.120;599616786253376752;3453.5327;270
2024-05-26T22:20:13.128;599616786261068542;3461.2244;301
2024-05-26T22:20:13.135;599616786268760332;3468.9163;291
2024-05-26T22:20:13.143;599616786276452122;3476.608;301
2024-05-26T22:20:13.151;599616786284143912;3484.2998;263
2024-05-26T22:20:13.158;599616786291835702;3491.9915;198
2024-05-26T22:20:13.166;599616786299527492;3499.6833;214
2024-05-26T22:20:13.174;599616786307219282;3507.375;282
2024-05-26T22:20:13.182;599616786314911072;3515.067;317
2024-05-26T22:20:13.189;599616786322602862;3522.7585;338
2024-05-26T22:20:13.197;599616786330294652;3530.4504;331
2024-05-26T22:20:13.205;599616786337986442;3538.1426;315
2024-05-26T22:20:13.212;599616786345678232;3545.8342;331
2024-05-26T22:20:13.220;599616786353370022;3553.5261;352
2024-05-26T22:20:13.228;599616786361061812;3561.2178;378
2024-05-26T22:20:13.235;599616786368753602;3568.9097;411
2024-05-26T22:20:13.243;599616786376445392;3576.6013;404
2024-05-26T22:20:13.251;599616786384137182;3584.2932;376
2024-05-26T22:20:13.258;599616786391828972;3591.9849;364
2024-05-26T22:20:13.266;599616786399520762;3599.6768;317
2024-05-26T22:20:13.274;599616786407212552;3607.3684;268
2024-05-26T22:20:13.282;599616786414904342;3615.0603;261
2024-05-26T22:20:13.289;599616786422596132;3622.752;252
2024-05-26T22:20:13.297;599616786430287922;3630.4438;256
2024-05-26T22:20:13.305;599616786437979712;3638.1355;291
2024-05-26T22:20:13.312;599616786445671502;3645.8274;275
2024-05-26T22:20:13.320;599616786453363292;3653.519;231
2024-05-26T22:20:13.328;599616786461055082;3661.211;256
2024-05-26T22:20:13.335;599616786468746872;3668.9026;291
2024-05-26T22:20:13.343;599616786476438662;3676.5947;266
2024-05-26T22:20:13.351;599616786484130452;3684.2864;242
2024-05-26T22:20:13.358;599616786491822242;3691.9783;273
2024-05-26T22:20:13.366;599616786499514032;3699.67;315
2024-05-26T22:20:13.374;599616786507205822;3707.3618;312
2024-05-26T22:20:13.382;599616786514897612;3715.0535;270
2024-05-26T22:20:13.389;599616786522589402;3722.7454;217
2024-05-26T22:20:13.397;599616786530281192;3730.437;184
2024-05-26T22:20:13.405;599616786537972982;3738.129;336
2024-05-26T22:20:13.412;599616786545664772;3745.8206;777
2024-05-26T22:20:13.420;599616786553356562;3753.5125;1195
2024-05-26T22:20:13.428;599616786561048352;3761.2043;1060
2024-05-26T22:20:13.435;599616786568740142;3768.896;411
2024-05-26T22:20:13.443;599616786576431932;3776.588;-4
2024-05-26T22:20:13.451;599616786584123722;3784.2795;53
2024-05-26T22:20:13.458;599616786591815512;3791.9714;81
2024-05-26T22:20:13.466;599616786599507302;3799.663;-23
2024-05-26T22:20:13.474;599616786607199092;3807.355;-16
2024-05-26T22:20:13.482;599616786614890882;3815.0469;25
2024-05-26T22:20:13.489;599616786622582672;3822.7388;11
2024-05-26T22:20:13.497;599616786630274462;3830.4304;16
2024-05-26T22:20:13.505;599616786637966252;3838.1223;49
2024-05-26T22:20:13.512;599616786645658042;3845.814;74
2024-05-26T22:20:13.520;599616786653349832;3853.5059;74
2024-05-26T22:20:13.528;599616786661041622;3861.1975;58
2024-05-26T22:20:13.535;599616786668733412;3868.8894;91
2024-05-26T22:20:13.543;599616786676425202;3876.581;170
2024-05-26T22:20:13.551;599616786684116992;3884.273;184
2024-05-26T22:20:13.558;599616786691808782;3891.9646;158
2024-05-26T22:20:13.566;599616786699500572;3899.6565;184
2024-05-26T22:20:13.574;599616786707192362;3907.3481;224
2024-05-26T22:20:13.582;599616786714884152;3915.04;226
2024-05-26T22:20:13.589;599616786722575942;3922.7317;238
2024-05-26T22:20:13.597;599616786730267744;3930.4236;263
2024-05-26T22:20:13.605;599616786737959534;3938.1152;261
2024-05-26T22:20:13.612;599616786745651324;3945.8071;228
2024-05-26T22:20:13.620;599616786753343114;3953.499;219
2024-05-26T22:20:13.628;599616786761034904;3961.191;259
2024-05-26T22:20:13.635;599616786768726694;3968.8826;284
2024-05-26T22:20:13.643;599616786776418484;3976.5745;261
2024-05-26T22:20:13.651;599616786784110274;3984.2664;247
2024-05-26T22:20:13.658;599616786791802064;3991.958;245
2024-05-26T22:20:13.666;599616786799493854;3999.65;226
2024-05-26T22:20:13.674;599616786807185644;4007.3416;186
2024-05-26T22:20:13.682;599616786814877434;4015.0334;168
2024-05-26T22:20:13.689;599616786822569224;4022.725;203
2024-05-26T22:20:13.697;599616786830261014;4030.417;214
2024-05-26T22:20:13.705;599616786837952804;4038.1086;189
2024-05-26T22:20:13.712;599616786845644594;4045.8005;207
2024-05-26T22:20:13.720;599616786853336384;4053.4922;261
2024-05-26T22:20:13.728;599616786861028174;4061.184;275
2024-05-26T22:20:13.735;599616786868719964;4068.8757;270
2024-05-26T22:20:13.743;599616786876411754;4076.5676;273
2024-05-26T22:20:13.751;599616786884103544;4084.2593;280
2024-05-26T22:20:13.758;599616786891795334;4091.9514;310
2024-05-26T22:20:13.766;599616786899487124;4099.643;291
2024-05-26T22:20:13.774;599616786907178914;4107.335;203
2024-05-26T22:20:13.782;599616786914870704;4115.027;189
2024-05-26T22:20:13.789;599616786922562494;4122.7183;242
2024-05-26T22:20:13.797;599616786930254284;4130.41;231
2024-05-26T22:20:13.805;599616786937946074;4138.102;205
2024-05-26T22:20:13.812;599616786945637864;4145.794;233
2024-05-26T22:20:13.820;599616786953329654;4153.4854;268
2024-05-26T22:20:13.828;599616786961021444;4161.1772;294
2024-05-26T22:20:13.835;599616786968713234;4168.869;312
2024-05-26T22:20:13.843;599616786976405024;4176.561;305
2024-05-26T22:20:13.851;599616786984096814;4184.2524;303
2024-05-26T22:20:13.858;599616786991788604;4191.9443;336
2024-05-26T22:20:13.866;599616786999480394;4199.636;364
2024-05-26T22:20:13.874;599616787007172184;4207.328;383
2024-05-26T22:20:13.882;599616787014863974;4215.02;380
2024-05-26T22:20:13.889;599616787022555764;4222.7114;322
2024-05-26T22:20:13.897;599616787030247554;4230.404;261
2024-05-26T22:20:13.905;599616787037939344;4238.095;247
2024-05-26T22:20:13.912;599616787045631134;4245.787;238
2024-05-26T22:20:13.920;599616787053322924;4253.479;210
2024-05-26T22:20:13.928;599616787061014714;4261.171;179
2024-05-26T22:20:13.935;599616787068706504;4268.8623;191
2024-05-26T22:20:13.943;599616787076398294;4276.554;362
2024-05-26T22:20:13.951;599616787084090084;4284.246;749
2024-05-26T22:20:13.958;599616787091781874;4291.938;1100
2024-05-26T22:20:13.966;599616787099473664;4299.6294;971
2024-05-26T22:20:13.974;599616787107165454;4307.3213;425
2024-05-26T22:20:13.982;599616787114857244;4315.013;102
2024-05-26T22:20:13.989;599616787122549034;4322.705;193
2024-05-26T22:20:13.997;599616787130240824;4330.3965;247
2024-05-26T22:20:14.005;599616787137932614;4338.0884;179
2024-05-26T22:20:14.012;599616787145624404;4345.7803;182
2024-05-26T22:20:14.020;599616787153316194;4353.472;168
2024-05-26T22:20:14.028;599616787161007984;4361.1636;86
2024-05-26T22:20:14.035;599616787168699774;4368.8555;39
2024-05-26T22:20:14.043;599616787176391564;4376.5474;35
2024-05-26T22:20:14.051;599616787184083354;4384.2393;46
2024-05-26T22:20:14.058;599616787191775144;4391.9307;56
2024-05-26T22:20:14.066;599616787199466934;4399.6226;49
2024-05-26T22:20:14.074;599616787207158724;4407.3145;51
2024-05-26T22:20:14.082;599616787214850514;4415.0063;79
2024-05-26T22:20:14.089;599616787222542304;4422.6978;86
2024-05-26T22:20:14.097;599616787230234094;4430.3896;93
2024-05-26T22:20:14.105;599616787237925884;4438.0815;151
2024-05-26T22:20:14.112;599616787245617674;4445.774;182
2024-05-26T22:20:14.120;599616787253309464;4453.466;133
2024-05-26T22:20:14.128;599616787261001254;4461.157;84
2024-05-26T22:20:14.135;599616787268693044;4468.849;63
2024-05-26T22:20:14.143;599616787276384834;4476.541;51
2024-05-26T22:20:14.151;599616787284076624;4484.233;60
2024-05-26T22:20:14.158;599616787291798522;4491.954;81
2024-05-26T22:20:14.166;599616787299489894;4499.646;91
2024-05-26T22:20:14.174;599616787307181266;4507.3374;86
2024-05-26T22:20:14.182;599616787314872638;4515.0283;84
2024-05-26T22:20:14.189;599616787322564010;4522.7197;116
2024-05-26T22:20:14.197;599616787330255382;4530.4116;144
2024-05-26T22:20:14.205;599616787337946754;4538.103;116
2024-05-26T22:20:14.212;599616787345638126;4545.794;42
2024-05-26T22:20:14.220;599616787353329498;4553.4854;0
2024-05-26T22:20:14.228;599616787361020870;4561.177;37
2024-05-26T22:20:14.235;599616787368712242;4568.868;63
2024-05-26T22:20:14.243;599616787376403614;4576.5596;51
2024-05-26T22:20:14.251;599616787384094986;4584.251;65
2024-05-26T22:20:14.258;599616787391786358;4591.9424;81
2024-05-26T22:20:14.266;599616787399477730;4599.6333;72
2024-05-26T22:20:14.274;599616787407169102;4607.325;18
2024-05-26T22:20:14.282;599616787414860474;4615.0166;-30
2024-05-26T22:20:14.289;599616787422551846;4622.7075;-7
2024-05-26T22:20:14.297;599616787430243218;4630.399;35
2024-05-26T22:20:14.305;599616787437934590;4638.0903;30
2024-05-26T22:20:14.312;599616787445625962;4645.782;39
2024-05-26T22:20:14.320;599616787453317334;4653.473;88
2024-05-26T22:20:14.328;599616787461008706;4661.1646;119
2024-05-26T22:20:14.335;599616787468700078;4668.856;126
2024-05-26T22:20:14.343;599616787476391450;4676.5474;147
2024-05-26T22:20:14.351;599616787484082822;4684.239;168
2024-05-26T22:20:14.358;599616787491774194;4691.93;177
2024-05-26T22:20:14.366;599616787499465566;4699.6216;184
2024-05-26T22:20:14.374;599616787507156938;4707.3125;177
2024-05-26T22:20:14.382;599616787514848310;4715.0044;151
2024-05-26T22:20:14.389;599616787522539682;4722.696;133
2024-05-26T22:20:14.397;599616787530231054;4730.3867;121
2024-05-26T22:20:14.405;599616787537922426;4738.078;130
2024-05-26T22:20:14.412;599616787545613798;4745.7695;186
2024-05-26T22:20:14.420;599616787553305170;4753.4614;228
2024-05-26T22:20:14.428;599616787560996542;4761.1523;231
2024-05-26T22:20:14.435;599616787568687914;4768.8438;252
2024-05-26T22:20:14.443;599616787576379286;4776.535;268
2024-05-26T22:20:14.451;599616787584070658;4784.227;249
2024-05-26T22:20:14.458;599616787591762030;4791.918;256
2024-05-26T22:20:14.466;599616787599453402;4799.6094;303
2024-05-26T22:20:14.474;599616787607144774;4807.301;338
2024-05-26T22:20:14.481;599616787614836146;4814.9917;308
2024-05-26T22:20:14.489;599616787622527518;4822.6836;221
2024-05-26T22:20:14.497;599616787630218890;4830.375;175
2024-05-26T22:20:14.505;599616787637910262;4838.0664;268
2024-05-26T22:20:14.512;599616787645601634;4845.7573;546
2024-05-26T22:20:14.520;599616787653293006;4853.4487;936
2024-05-26T22:20:14.528;599616787660984378;4861.1406;1051
2024-05-26T22:20:14.535;599616787668675750;4868.8315;623
2024-05-26T22:20:14.543;599616787676367122;4876.523;149
2024-05-26T22:20:14.551;599616787684058494;4884.2144;116
2024-05-26T22:20:14.558;599616787691749866;4891.906;235
2024-05-26T22:20:14.566;599616787699441238;4899.597;200
2024-05-26T22:20:14.574;599616787707132610;4907.2886;165
2024-05-26T22:20:14.581;599616787714823982;4914.98;196
2024-05-26T22:20:14.589;599616787722515354;4922.671;205
2024-05-26T22:20:14.597;599616787730206726;4930.363;189
2024-05-26T22:20:14.605;599616787737898098;4938.054;184
2024-05-26T22:20:14.612;599616787745589470;4945.7456;172
2024-05-26T22:20:14.620;599616787753280842;4953.4365;112
2024-05-26T22:20:14.628;599616787760972214;4961.128;0
2024-05-26T22:20:14.635;599616787768663586;4968.82;-74
2024-05-26T22:20:14.643;599616787776354958;4976.5107;-46
2024-05-26T22:20:14.651;599616787784046330;4984.202;4
2024-05-26T22:20:14.658;599616787791737702;4991.8936;21
2024-05-26T22:20:14.666;599616787799429074;4999.585;9
2024-05-26T22:20:14.674;599616787807120446;5007.2764;-11
2024-05-26T22:20:14.681;599616787814811818;5014.968;4
2024-05-26T22:20:14.689;599616787822503190;5022.659;44
2024-05-26T22:20:14.697;599616787830194562;5030.35;44
2024-05-26T22:20:14.705;599616787837885934;5038.0415;44
2024-05-26T22:20:14.712;599616787845577306;5045.7334;67
2024-05-26T22:20:14.720;599616787853238590;5053.3945;72
2024-05-26T22:20:14.728;599616787860930380;5061.0864;58
2024-05-26T22:20:14.735;599616787868622170;5068.778;77
2024-05-26T22:20:14.743;599616787876313960;5076.4697;112
2024-05-26T22:20:14.751;599616787884005750;5084.1616;116
2024-05-26T22:20:14.758;599616787891697540;5091.8535;114
2024-05-26T22:20:14.766;599616787899389330;5099.545;133
2024-05-26T22:20:14.774;599616787907081120;5107.237;119
2024-05-26T22:20:14.781;599616787914772910;5114.9287;35
2024-05-26T22:20:14.789;599616787922464700;5122.6206;-9
2024-05-26T22:20:14.797;599616787930156490;5130.312;42
2024-05-26T22:20:14.805;599616787937848280;5138.004;49
2024-05-26T22:20:14.812;599616787945540070;5145.696;-42
2024-05-26T22:20:14.820;599616787953231860;5153.3877;-81
2024-05-26T22:20:14.828;599616787960923650;5161.0796;-11
2024-05-26T22:20:14.835;599616787968615440;5168.7715;44
2024-05-26T22:20:14.843;599616787976307230;5176.4634;25
2024-05-26T22:20:14.851;599616787983999020;5184.1553;18
2024-05-26T22:20:14.858;599616787991690810;5191.8467;58
2024-05-26T22:20:14.866;599616787999382600;5199.5386;67
2024-05-26T22:20:14.874;599616788007074390;5207.2305;39
2024-05-26T22:20:14.881;599616788014766180;5214.9224;46
2024-05-26T22:20:14.889;599616788022457970;5222.6143;95
2024-05-26T22:20:14.897;599616788030149760;5230.3057;109
2024-05-26T22:20:14.904;599616788037841550;5237.9976;86
2024-05-26T22:20:14.912;599616788045533340;5245.6895;86
2024-05-26T22:20:14.920;599616788053225130;5253.3813;133
2024-05-26T22:20:14.928;599616788060916920;5261.0728;165
2024-05-26T22:20:14.935;599616788068608710;5268.7646;158
2024-05-26T22:20:14.943;599616788076300500;5276.4565;172
2024-05-26T22:20:14.951;599616788083992290;5284.1484;196
2024-05-26T22:20:14.958;599616788091684080;5291.84;207
2024-05-26T22:20:14.966;599616788099375870;5299.5317;224
2024-05-26T22:20:14.974;599616788107067660;5307.2236;247
2024-05-26T22:20:14.981;599616788114759450;5314.9155;263
2024-05-26T22:20:14.989;599616788122451240;5322.607;270
2024-05-26T22:20:14.997;599616788130143030;5330.299;266
2024-05-26T22:20:15.004;599616788137834820;5337.9907;273
2024-05-26T22:20:15.012;599616788145526610;5345.6826;310
2024-05-26T22:20:15.020;599616788153218400;5353.374;333
2024-05-26T22:20:15.028;599616788160910190;5361.066;338
2024-05-26T22:20:15.035;599616788168601980;5368.758;336
2024-05-26T22:20:15.043;599616788176293770;5376.4497;301
2024-05-26T22:20:15.051;599616788183985560;5384.141;228
2024-05-26T22:20:15.058;599616788191677350;5391.833;259
2024-05-26T22:20:15.066;599616788199369140;5399.525;560
2024-05-26T22:20:15.074;599616788207060930;5407.217;1020
2024-05-26T22:20:15.081;599616788214752720;5414.908;1160
2024-05-26T22:20:15.089;599616788222444510;5422.6;712
2024-05-26T22:20:15.097;599616788230136300;5430.292;172
2024-05-26T22:20:15.104;599616788237828090;5437.984;102
2024-05-26T22:20:15.112;599616788245519880;5445.6763;235
2024-05-26T22:20:15.120;599616788253211670;5453.3677;172
2024-05-26T22:20:15.128;599616788260903460;5461.0596;100
2024-05-26T22:20:15.135;599616788268595250;5468.7515;144
2024-05-26T22:20:15.143;599616788276287040;5476.4434;147
2024-05-26T22:20:15.151;599616788283978830;5484.135;121
2024-05-26T22:20:15.158;599616788291670620;5491.8267;165
2024-05-26T22:20:15.166;599616788299362410;5499.5186;193
2024-05-26T22:20:15.174;599616788307054200;5507.2104;144
2024-05-26T22:20:15.181;599616788314745990;5514.902;105
2024-05-26T22:20:15.189;599616788322437780;5522.5938;84
2024-05-26T22:20:15.197;599616788330129570;5530.2856;35
2024-05-26T22:20:15.204;599616788337821360;5537.9775;7
2024-05-26T22:20:15.212;599616788345513150;5545.669;30
2024-05-26T22:20:15.220;599616788353204940;5553.361;49
2024-05-26T22:20:15.228;599616788360896730;5561.0527;30
2024-05-26T22:20:15.235;599616788368588520;5568.7446;21
2024-05-26T22:20:15.243;599616788376280310;5576.436;49
2024-05-26T22:20:15.251;599616788383972100;5584.128;65
2024-05-26T22:20:15.258;599616788391663890;5591.82;32
2024-05-26T22:20:15.266;599616788399355680;5599.5117;2
2024-05-26T22:20:15.274;599616788407047470;5607.203;35
2024-05-26T22:20:15.281;599616788414739272;5614.895;53
2024-05-26T22:20:15.289;599616788422431062;5622.587;-32
2024-05-26T22:20:15.297;599616788430122852;5630.279;-98
2024-05-26T22:20:15.304;599616788437814642;5637.97;-39
2024-05-26T22:20:15.312;599616788445506432;5645.662;-2
2024-05-26T22:20:15.320;599616788453198222;5653.354;-93
2024-05-26T22:20:15.328;599616788460890012;5661.046;-189
2024-05-26T22:20:15.335;599616788468581802;5668.7373;-144
2024-05-26T22:20:15.343;599616788476273592;5676.429;-65
2024-05-26T22:20:15.351;599616788483965382;5684.121;-67
2024-05-26T22:20:15.358;599616788491657172;5691.813;-95
2024-05-26T22:20:15.366;599616788499348962;5699.505;-109
2024-05-26T22:20:15.374;599616788507040752;5707.1963;-114
2024-05-26T22:20:15.381;599616788514732542;5714.8887;-114
2024-05-26T22:20:15.389;599616788522424332;5722.5806;-88
2024-05-26T22:20:15.397;599616788530116122;5730.2725;-30
2024-05-26T22:20:15.404;599616788537807912;5737.964;0
2024-05-26T22:20:15.412;599616788545499702;5745.656;-9
2024-05-26T22:20:15.420;599616788553191492;5753.3477;16
2024-05-26T22:20:15.428;599616788560883282;5761.0396;56
2024-05-26T22:20:15.435;599616788568575072;5768.731;65
2024-05-26T22:20:15.443;599616788576266862;5776.423;81
2024-05-26T22:20:15.451;599616788583958652;5784.1147;114
2024-05-26T22:20:15.458;599616788591650442;5791.8066;128
2024-05-26T22:20:15.466;599616788599342232;5799.498;128
2024-05-26T22:20:15.474;599616788607034022;5807.19;135
2024-05-26T22:20:15.481;599616788614725812;5814.882;156
2024-05-26T22:20:15.489;599616788622417602;5822.5737;196
2024-05-26T22:20:15.497;599616788630109392;5830.265;221
2024-05-26T22:20:15.504;599616788637801182;5837.957;205
2024-05-26T22:20:15.512;599616788645492972;5845.649;210
2024-05-26T22:20:15.520;599616788653184762;5853.341;240
2024-05-26T22:20:15.528;599616788660876552;5861.032;252
2024-05-26T22:20:15.535;599616788668568342;5868.724;261
2024-05-26T22:20:15.543;599616788676260132;5876.416;291
2024-05-26T22:20:15.551;599616788683951922;5884.108;296
2024-05-26T22:20:15.558;599616788691643712;5891.7993;287
2024-05-26T22:20:15.566;599616788699335502;5899.491;312
2024-05-26T22:20:15.574;599616788707027292;5907.183;362
2024-05-26T22:20:15.581;599616788714719082;5914.875;380
2024-05-26T22:20:15.589;599616788722410872;5922.567;371
2024-05-26T22:20:15.597;599616788730102662;5930.2583;366
2024-05-26T22:20:15.604;599616788737794452;5937.95;343
2024-05-26T22:20:15.612;599616788745486242;5945.642;277
2024-05-26T22:20:15.620;599616788753178032;5953.334;226
2024-05-26T22:20:15.628;599616788760869822;5961.0254;256
2024-05-26T22:20:15.635;599616788768561612;5968.7173;425
2024-05-26T22:20:15.643;599616788776253402;5976.409;775
2024-05-26T22:20:15.651;599616788783945192;5984.101;1095
2024-05-26T22:20:15.658;599616788791636982;5991.7925;952
2024-05-26T22:20:15.666;599616788799328772;5999.485;415
2024-05-26T22:20:15.674;599616788807020562;6007.177;112
2024-05-26T22:20:15.681;599616788814712352;6014.8687;179
2024-05-26T22:20:15.689;599616788822404142;6022.56;177
2024-05-26T22:20:15.697;599616788830095932;6030.252;98
2024-05-26T22:20:15.704;599616788837787722;6037.944;147
2024-05-26T22:20:15.712;599616788845479512;6045.6357;184
2024-05-26T22:20:15.720;599616788853171302;6053.327;165
2024-05-26T22:20:15.728;599616788860863092;6061.019;193
2024-05-26T22:20:15.735;599616788868554882;6068.711;210
2024-05-26T22:20:15.743;599616788876246672;6076.403;191
2024-05-26T22:20:15.751;599616788883938462;6084.094;198
2024-05-26T22:20:15.758;599616788891630252;6091.786;189
2024-05-26T22:20:15.766;599616788899322042;6099.478;163
2024-05-26T22:20:15.774;599616788907013832;6107.17;151
2024-05-26T22:20:15.781;599616788914705622;6114.8613;98
2024-05-26T22:20:15.789;599616788922397412;6122.553;-30
2024-05-26T22:20:15.797;599616788930089202;6130.245;-112
2024-05-26T22:20:15.804;599616788937780992;6137.937;-81
2024-05-26T22:20:15.812;599616788945472782;6145.629;-44
2024-05-26T22:20:15.820;599616788953164572;6153.3203;-56
2024-05-26T22:20:15.828;599616788960856362;6161.012;-86
2024-05-26T22:20:15.835;599616788968548152;6168.704;-107
2024-05-26T22:20:15.843;599616788976270048;6176.426;-79
2024-05-26T22:20:15.851;599616788983961420;6184.117;-37
2024-05-26T22:20:15.858;599616788991652792;6191.8086;-88
2024-05-26T22:20:15.866;599616788999344164;6199.5005;-163
2024-05-26T22:20:15.874;599616789007035536;6207.1914;-151
2024-05-26T22:20:15.881;599616789014726908;6214.883;-130
2024-05-26T22:20:15.889;599616789022418280;6222.574;-165
2024-05-26T22:20:15.897;599616789030109652;6230.265;-179
2024-05-26T22:20:15.904;599616789037801024;6237.957;-112
2024-05-26T22:20:15.912;599616789045492396;6245.6484;-95
2024-05-26T22:20:15.920;599616789053183768;6253.34;-170
2024-05-26T22:20:15.928;599616789060875140;6261.031;-165
2024-05-26T22:20:15.935;599616789068566512;6268.722;-72
2024-05-26T22:20:15.943;599616789076257884;6276.414;-25
2024-05-26T22:20:15.951;599616789083949256;6284.105;-32
2024-05-26T22:20:15.958;599616789091640628;6291.7964;-21
2024-05-26T22:20:15.966;599616789099332000;6299.488;18
2024-05-26T22:20:15.974;599616789107023372;6307.1797;46
2024-05-26T22:20:15.981;599616789114714744;6314.8706;32
2024-05-26T22:20:15.989;599616789122406116;6322.562;39
2024-05-26T22:20:15.997;599616789130097488;6330.2534;114
2024-05-26T22:20:16.004;599616789137788860;6337.9443;165
2024-05-26T22:20:16.012;599616789145480232;6345.636;144
2024-05-26T22:20:16.020;599616789153171604;6353.3276;133
2024-05-26T22:20:16.028;599616789160862976;6361.019;175
2024-05-26T22:20:16.035;599616789168554348;6368.71;226
2024-05-26T22:20:16.043;599616789176245720;6376.4014;226
2024-05-26T22:20:16.051;599616789183937092;6384.0933;207
2024-05-26T22:20:16.058;599616789191628464;6391.7847;235
2024-05-26T22:20:16.066;599616789199319836;6399.4756;273
2024-05-26T22:20:16.074;599616789207011208;6407.167;273
2024-05-26T22:20:16.081;599616789214702580;6414.8584;284
2024-05-26T22:20:16.089;599616789222393952;6422.55;322
2024-05-26T22:20:16.097;599616789230085324;6430.241;310
2024-05-26T22:20:16.104;599616789237776696;6437.9326;249
2024-05-26T22:20:16.112;599616789245468068;6445.624;247
2024-05-26T22:20:16.120;599616789253159440;6453.3154;301
2024-05-26T22:20:16.128;599616789260850812;6461.007;317
2024-05-26T22:20:16.135;599616789268542184;6468.698;291
2024-05-26T22:20:16.143;599616789276233556;6476.389;296
2024-05-26T22:20:16.151;599616789283924928;6484.0806;308
2024-05-26T22:20:16.158;599616789291616300;6491.7725;317
2024-05-26T22:20:16.166;599616789299307672;6499.464;333
2024-05-26T22:20:16.174;599616789306999044;6507.155;348
2024-05-26T22:20:16.181;599616789314690416;6514.846;385
2024-05-26T22:20:16.189;599616789322381788;6522.5376;413
2024-05-26T22:20:16.197;599616789330073160;6530.229;378
2024-05-26T22:20:16.204;599616789337764532;6537.9204;359
2024-05-26T22:20:16.212;599616789345455904;6545.612;404
2024-05-26T22:20:16.220;599616789353147276;6553.303;404
2024-05-26T22:20:16.227;599616789360838648;6560.994;331
2024-05-26T22:20:16.235;599616789368530020;6568.686;282
2024-05-26T22:20:16.243;599616789376221392;6576.3774;252
2024-05-26T22:20:16.251;599616789383912764;6584.069;294
2024-05-26T22:20:16.258;599616789391604136;6591.76;569
2024-05-26T22:20:16.266;599616789399295508;6599.4517;983
2024-05-26T22:20:16.274;599616789406986880;6607.143;1160
2024-05-26T22:20:16.281;599616789414678252;6614.834;833
2024-05-26T22:20:16.289;599616789422369624;6622.5254;275
2024-05-26T22:20:16.297;599616789430060996;6630.217;21
2024-05-26T22:20:16.304;599616789437752368;6637.9087;58
2024-05-26T22:20:16.312;599616789445443740;6645.5996;56
2024-05-26T22:20:16.320;599616789453135112;6653.291;16
2024-05-26T22:20:16.327;599616789460826484;6660.9824;67
2024-05-26T22:20:16.335;599616789468517856;6668.6733;88
2024-05-26T22:20:16.343;599616789476209228;6676.365;-4
2024-05-26T22:20:16.351;599616789483900600;6684.0566;-67
2024-05-26T22:20:16.358;599616789491591972;6691.748;-37
2024-05-26T22:20:16.366;599616789499283344;6699.439;-56
2024-05-26T22:20:16.374;599616789506974716;6707.1304;-128
2024-05-26T22:20:16.381;599616789514666088;6714.8223;-128
2024-05-26T22:20:16.389;599616789522357460;6722.513;-86
2024-05-26T22:20:16.397;599616789530048832;6730.2046;-74
2024-05-26T22:20:16.404;599616789537730206;6737.886;-65
2024-05-26T22:20:16.412;599616789545421717;6745.5776;-37
2024-05-26T22:20:16.420;599616789553113228;6753.269;-11
2024-05-26T22:20:16.427;599616789560804739;6760.9604;-44
2024-05-26T22:20:16.435;599616789568496250;6768.6523;-116
2024-05-26T22:20:16.443;599616789576187761;6776.3438;-128
2024-05-26T22:20:16.451;599616789583879272;6784.035;-86
2024-05-26T22:20:16.458;599616789591570783;6791.7266;-88
2024-05-26T22:20:16.466;599616789599262294;6799.4185;-114
2024-05-26T22:20:16.474;599616789606953805;6807.11;-86
2024-05-26T22:20:16.481;599616789614645316;6814.8013;-51
2024-05-26T22:20:16.489;599616789622336827;6822.4927;-63
2024-05-26T22:20:16.497;599616789630028338;6830.1846;-53
2024-05-26T22:20:16.504;599616789637719849;6837.8755;-2
2024-05-26T22:20:16.512;599616789645411360;6845.5674;39
2024-05-26T22:20:16.520;599616789653102871;6853.259;18
2024-05-26T22:20:16.527;599616789660794382;6860.9507;-9
2024-05-26T22:20:16.535;599616789668485893;6868.6416;35
2024-05-26T22:20:16.543;599616789676177404;6876.333;93
2024-05-26T22:20:16.551;599616789683868915;6884.025;107
2024-05-26T22:20:16.558;599616789691560426;6891.7163;105
2024-05-26T22:20:16.566;599616789699251937;6899.4077;112
2024-05-26T22:20:16.574;599616789706943448;6907.099;114
2024-05-26T22:20:16.581;599616789714634959;6914.791;128
2024-05-26T22:20:16.589;599616789722326470;6922.482;147
2024-05-26T22:20:16.597;599616789730017981;6930.174;114
2024-05-26T22:20:16.604;599616789737709492;6937.865;49
2024-05-26T22:20:16.612;599616789745401003;6945.557;35
2024-05-26T22:20:16.620;599616789753092514;6953.248;91
2024-05-26T22:20:16.627;599616789760784025;6960.94;142
2024-05-26T22:20:16.635;599616789768475536;6968.6313;126
2024-05-26T22:20:16.643;599616789776167047;6976.323;114
2024-05-26T22:20:16.651;599616789783858558;6984.014;156
2024-05-26T22:20:16.658;599616789791550069;6991.706;189
2024-05-26T22:20:16.666;599616789799241580;6999.3975;179
2024-05-26T22:20:16.674;599616789806933091;7007.0894;177
2024-05-26T22:20:16.681;599616789814624602;7014.7803;214
2024-05-26T22:20:16.689;599616789822316113;7022.472;254
2024-05-26T22:20:16.697;599616789830007624;7030.1636;252
2024-05-26T22:20:16.704;599616789837699135;7037.8555;238
2024-05-26T22:20:16.712;599616789845390646;7045.5464;247
2024-05-26T22:20:16.720;599616789853082157;7053.2383;266
2024-05-26T22:20:16.727;599616789860773668;7060.9297;284
2024-05-26T22:20:16.735;599616789868465179;7068.621;289
2024-05-26T22:20:16.743;599616789876156690;7076.3125;294
2024-05-26T22:20:16.751;599616789883848201;7084.0044;294
2024-05-26T22:20:16.758;599616789891539712;7091.696;289
2024-05-26T22:20:16.766;599616789899231223;7099.3867;315
2024-05-26T22:20:16.774;599616789906922734;7107.0786;369
2024-05-26T22:20:16.781;599616789914614245;7114.77;378
2024-05-26T22:20:16.789;599616789922305756;7122.462;340
2024-05-26T22:20:16.797;599616789929997267;7130.153;308
2024-05-26T22:20:16.804;599616789937688778;7137.8447;240
2024-05-26T22:20:16.812;599616789945380289;7145.536;126
2024-05-26T22:20:16.820;599616789953071800;7153.2275;56
2024-05-26T22:20:16.827;599616789960763311;7160.919;58
2024-05-26T22:20:16.835;599616789968454822;7168.611;53
2024-05-26T22:20:16.843;599616789976146333;7176.3022;2
2024-05-26T22:20:16.850;599616789983837844;7183.9937;-46
2024-05-26T22:20:16.858;599616789991529355;7191.685;-39
2024-05-26T22:20:16.866;599616789999220866;7199.377;9
2024-05-26T22:20:16.874;599616790006912377;7207.0684;44
2024-05-26T22:20:16.881;599616790014603888;7214.76;30
2024-05-26T22:20:16.889;599616790022295399;7222.451;11
2024-05-26T22:20:16.897;599616790029986910;7230.143;35
2024-05-26T22:20:16.904;599616790037678421;7237.8345;60
2024-05-26T22:20:16.912;599616790045369932;7245.526;56
2024-05-26T22:20:16.920;599616790053061443;7253.2173;81
2024-05-26T22:20:16.927;599616790060752954;7260.909;109
2024-05-26T22:20:16.935;599616790068444465;7268.6;49
2024-05-26T22:20:16.943;599616790076135976;7276.292;-32
2024-05-26T22:20:16.950;599616790083827487;7283.9834;-46
2024-05-26T22:20:16.958;599616790091518998;7291.6753;-49
2024-05-26T22:20:16.966;599616790099200534;7299.3564;-70
2024-05-26T22:20:16.974;599616790106892184;7307.048;-79
2024-05-26T22:20:16.981;599616790114583834;7314.7397;-65
2024-05-26T22:20:16.989;599616790122275484;7322.4316;-42
2024-05-26T22:20:16.997;599616790129967134;7330.123;-35
2024-05-26T22:20:17.004;599616790137658784;7337.8145;-39
2024-05-26T22:20:17.012;599616790145350434;7345.5063;-28
2024-05-26T22:20:17.020;599616790153042084;7353.198;-25
2024-05-26T22:20:17.027;599616790160733734;7360.8896;-79
2024-05-26T22:20:17.035;599616790168425384;7368.581;-163
2024-05-26T22:20:17.043;599616790176117034;7376.273;-189
2024-05-26T22:20:17.050;599616790183808684;7383.965;-70
2024-05-26T22:20:17.058;599616790191500334;7391.6562;226
2024-05-26T22:20:17.066;599616790199191984;7399.3477;607
2024-05-26T22:20:17.074;599616790206883634;7407.0396;731
2024-05-26T22:20:17.081;599616790214575284;7414.7314;345
2024-05-26T22:20:17.089;599616790222266934;7422.423;-177
2024-05-26T22:20:17.097;599616790229958584;7430.1143;-294
2024-05-26T22:20:17.104;599616790237650234;7437.806;-130
2024-05-26T22:20:17.112;599616790245341884;7445.498;-98
2024-05-26T22:20:17.120;599616790253033534;7453.1895;-165
2024-05-26T22:20:17.127;599616790260725184;7460.881;-144
2024-05-26T22:20:17.135;599616790268416834;7468.5728;-74
2024-05-26T22:20:17.143;599616790276108484;7476.2646;-44
2024-05-26T22:20:17.150;599616790283800134;7483.956;-30
2024-05-26T22:20:17.158;599616790291491784;7491.6475;-14
2024-05-26T22:20:17.166;599616790299183434;7499.3394;7
2024-05-26T22:20:17.174;599616790306875084;7507.0312;37
2024-05-26T22:20:17.181;599616790314566734;7514.7227;65
2024-05-26T22:20:17.189;599616790322258384;7522.414;84
2024-05-26T22:20:17.197;599616790329950034;7530.106;121
2024-05-26T22:20:17.204;599616790337641684;7537.798;168
2024-05-26T22:20:17.212;599616790345333334;7545.4893;163
2024-05-26T22:20:17.220;599616790353024984;7553.1807;149
2024-05-26T22:20:17.227;599616790360716634;7560.8726;198
2024-05-26T22:20:17.235;599616790368408284;7568.5645;249
2024-05-26T22:20:17.243;599616790376099934;7576.256;247
2024-05-26T22:20:17.250;599616790383791584;7583.9473;252
2024-05-26T22:20:17.258;599616790391483234;7591.639;270
2024-05-26T22:20:17.266;599616790399174884;7599.331;263
2024-05-26T22:20:17.274;599616790406866534;7607.0225;252
2024-05-26T22:20:17.281;599616790414558184;7614.714;270
2024-05-26T22:20:17.289;599616790422249834;7622.406;317
2024-05-26T22:20:17.297;599616790429941484;7630.097;343
2024-05-26T22:20:17.304;599616790437633134;7637.789;268
2024-05-26T22:20:17.312;599616790445324784;7645.4805;156
2024-05-26T22:20:17.320;599616790453016434;7653.1724;161
2024-05-26T22:20:17.327;599616790460708084;7660.864;217
2024-05-26T22:20:17.335;599616790468399734;7668.5557;186
2024-05-26T22:20:17.343;599616790476091384;7676.247;147
2024-05-26T22:20:17.350;599616790483783034;7683.939;170
2024-05-26T22:20:17.358;599616790491474684;7691.6304;186
2024-05-26T22:20:17.366;599616790499166334;7699.3223;182
2024-05-26T22:20:17.374;599616790506857984;7707.014;193
2024-05-26T22:20:17.381;599616790514549634;7714.7056;182
2024-05-26T22:20:17.389;599616790522241284;7722.397;142
2024-05-26T22:20:17.397;599616790529932934;7730.089;121
2024-05-26T22:20:17.404;599616790537624584;7737.781;126
2024-05-26T22:20:17.412;599616790545316234;7745.472;149
2024-05-26T22:20:17.420;599616790553007884;7753.1636;165
2024-05-26T22:20:17.427;599616790560699534;7760.8555;168
2024-05-26T22:20:17.435;599616790568391184;7768.5474;182
2024-05-26T22:20:17.443;599616790576082834;7776.239;189
2024-05-26T22:20:17.450;599616790583774484;7783.93;172
2024-05-26T22:20:17.458;599616790591466134;7791.622;175
2024-05-26T22:20:17.466;599616790599157784;7799.314;203
2024-05-26T22:20:17.474;599616790606849434;7807.0054;217
2024-05-26T22:20:17.481;599616790614541084;7814.697;205
2024-05-26T22:20:17.489;599616790622232734;7822.3887;191
2024-05-26T22:20:17.497;599616790629924384;7830.0806;165
2024-05-26T22:20:17.504;599616790637616034;7837.772;135
2024-05-26T22:20:17.512;599616790645307684;7845.4634;112
2024-05-26T22:20:17.520;599616790652999334;7853.1553;74
2024-05-26T22:20:17.527;599616790660680964;7860.837;21
2024-05-26T22:20:17.535;599616790668372754;7868.529;4
2024-05-26T22:20:17.543;599616790676064544;7876.22;25
2024-05-26T22:20:17.550;599616790683756334;7883.912;25
2024-05-26T22:20:17.558;599616790691448124;7891.604;18
2024-05-26T22:20:17.566;599616790699139914;7899.296;49
2024-05-26T22:20:17.573;599616790706831704;7906.9873;53
2024-05-26T22:20:17.581;599616790714523494;7914.679;-9
2024-05-26T22:20:17.589;599616790722215284;7922.371;-49
2024-05-26T22:20:17.597;599616790729907074;7930.063;-56
2024-05-26T22:20:17.604;599616790737598864;7937.7544;-112
2024-05-26T22:20:17.612;599616790745290654;7945.4463;-137
2024-05-26T22:20:17.620;599616790752982444;7953.138;-88
2024-05-26T22:20:17.627;599616790760674234;7960.83;-81
2024-05-26T22:20:17.635;599616790768366024;7968.5215;-112
2024-05-26T22:20:17.643;599616790776057814;7976.2134;-84
2024-05-26T22:20:17.650;599616790783749604;7983.9053;-28
2024-05-26T22:20:17.658;599616790791441394;7991.597;-9
2024-05-26T22:20:17.666;599616790799133184;7999.2896;-11
2024-05-26T22:20:17.673;599616790806824974;8006.981;-2
2024-05-26T22:20:17.681;599616790814516764;8014.673;30
2024-05-26T22:20:17.689;599616790822208554;8022.3647;46
2024-05-26T22:20:17.697;599616790829900344;8030.0566;63
2024-05-26T22:20:17.704;599616790837592134;8037.748;119
2024-05-26T22:20:17.712;599616790845283924;8045.44;151
2024-05-26T22:20:17.720;599616790852975714;8053.132;114
2024-05-26T22:20:17.727;599616790860667504;8060.8237;100
2024-05-26T22:20:17.735;599616790868359294;8068.515;149
2024-05-26T22:20:17.743;599616790876051084;8076.207;193
2024-05-26T22:20:17.750;599616790883742874;8083.899;196
2024-05-26T22:20:17.758;599616790891434664;8091.591;163
2024-05-26T22:20:17.766;599616790899126454;8099.282;123
2024-05-26T22:20:17.773;599616790906818244;8106.974;161
2024-05-26T22:20:17.781;599616790914510034;8114.666;401
2024-05-26T22:20:17.789;599616790922201824;8122.358;845
2024-05-26T22:20:17.797;599616790929893614;8130.0493;1156
2024-05-26T22:20:17.804;599616790937585404;8137.741;917
2024-05-26T22:20:17.812;599616790945277194;8145.433;291
2024-05-26T22:20:17.820;599616790952968984;8153.125;-72
2024-05-26T22:20:17.827;599616790960660774;8160.8164;-42
2024-05-26T22:20:17.835;599616790968352564;8168.5083;-14
2024-05-26T22:20:17.843;599616790976044354;8176.2;-63
2024-05-26T22:20:17.850;599616790983736144;8183.892;-25
2024-05-26T22:20:17.858;599616790991427934;8191.584;23
2024-05-26T22:20:17.866;599616790999119724;8199.275;21
2024-05-26T22:20:17.873;599616791006811514;8206.968;39
2024-05-26T22:20:17.881;599616791014503304;8214.659;79
2024-05-26T22:20:17.889;599616791022195094;8222.351;109
2024-05-26T22:20:17.897;599616791029886884;8230.043;130
2024-05-26T22:20:17.904;599616791037578674;8237.734;123
2024-05-26T22:20:17.912;599616791045270464;8245.426;98
2024-05-26T22:20:17.920;599616791052962254;8253.118;84
2024-05-26T22:20:17.927;599616791060654044;8260.81;88
2024-05-26T22:20:17.935;599616791068345834;8268.502;95
2024-05-26T22:20:17.943;599616791076037624;8276.193;105
2024-05-26T22:20:17.950;599616791083729414;8283.886;114
2024-05-26T22:20:17.958;599616791091421204;8291.577;116
2024-05-26T22:20:17.966;599616791099112994;8299.27;116
2024-05-26T22:20:17.973;599616791106804784;8306.961;135
2024-05-26T22:20:17.981;599616791114496574;8314.652;161
2024-05-26T22:20:17.989;599616791122188364;8322.345;147
2024-05-26T22:20:17.997;599616791129880154;8330.036;102
2024-05-26T22:20:18.004;599616791137571944;8337.728;98
2024-05-26T22:20:18.012;599616791145263734;8345.42;137
2024-05-26T22:20:18.020;599616791152955524;8353.111;147
2024-05-26T22:20:18.027;599616791160647314;8360.804;123
2024-05-26T22:20:18.035;599616791168339104;8368.495;102
2024-05-26T22:20:18.043;599616791176030894;8376.187;63
2024-05-26T22:20:18.050;599616791183722684;8383.879;-4
2024-05-26T22:20:18.058;599616791191414474;8391.57;-53
2024-05-26T22:20:18.066;599616791199106264;8399.263;-74
2024-05-26T22:20:18.073;599616791206798054;8406.954;-119
2024-05-26T22:20:18.081;599616791214489844;8414.6455;-182
2024-05-26T22:20:18.089;599616791222181646;8422.338;-198
2024-05-26T22:20:18.097;599616791229873436;8430.029;-175
2024-05-26T22:20:18.104;599616791237565226;8437.721;-154
2024-05-26T22:20:18.112;599616791245257016;8445.413;-137
2024-05-26T22:20:18.120;599616791252948806;8453.1045;-116
2024-05-26T22:20:18.127;599616791260640596;8460.797;-93
2024-05-26T22:20:18.135;599616791268332386;8468.488;-126
2024-05-26T22:20:18.143;599616791276024176;8476.18;-203
2024-05-26T22:20:18.150;599616791283715966;8483.872;-210
2024-05-26T22:20:18.158;599616791291407756;8491.563;-151
2024-05-26T22:20:18.166;599616791299099546;8499.255;-133
2024-05-26T22:20:18.173;599616791306791336;8506.947;-142
2024-05-26T22:20:18.181;599616791314483126;8514.639;-130
2024-05-26T22:20:18.189;599616791322174916;8522.331;-107
2024-05-26T22:20:18.197;599616791329866706;8530.022;-74
2024-05-26T22:20:18.204;599616791337558496;8537.714;-46
2024-05-26T22:20:18.212;599616791345250286;8545.406;-21
2024-05-26T22:20:18.220;599616791352942076;8553.098;4
2024-05-26T22:20:18.227;599616791360633866;8560.79;0
2024-05-26T22:20:18.235;599616791368325656;8568.481;7
2024-05-26T22:20:18.243;599616791376017446;8576.174;53
2024-05-26T22:20:18.250;599616791383709236;8583.865;98
2024-05-26T22:20:18.258;599616791391401026;8591.557;112
2024-05-26T22:20:18.266;599616791399092816;8599.249;107
2024-05-26T22:20:18.273;599616791406784606;8606.94;107
2024-05-26T22:20:18.281;599616791414476396;8614.633;140
2024-05-26T22:20:18.289;599616791422168186;8622.323;179
2024-05-26T22:20:18.297;599616791429859976;8630.016;186
2024-05-26T22:20:18.304;599616791437551766;8637.707;193
2024-05-26T22:20:18.312;599616791445243556;8645.399;200
2024-05-26T22:20:18.320;599616791452935346;8653.091;133
2024-05-26T22:20:18.327;599616791460627136;8660.783;63
2024-05-26T22:20:18.335;599616791468318926;8668.475;98
2024-05-26T22:20:18.343;599616791476010716;8676.167;142
2024-05-26T22:20:18.350;599616791483702506;8683.858;142
2024-05-26T22:20:18.358;599616791491394296;8691.55;149
2024-05-26T22:20:18.366;599616791499086086;8699.242;165
2024-05-26T22:20:18.373;599616791506777876;8706.934;170
2024-05-26T22:20:18.381;599616791514469666;8714.626;179
2024-05-26T22:20:18.389;599616791522161456;8722.317;210
2024-05-26T22:20:18.397;599616791529853246;8730.01;240
2024-05-26T22:20:18.404;599616791537545036;8737.701;256
2024-05-26T22:20:18.412;599616791545236826;8745.394;263
2024-05-26T22:20:18.420;599616791552928616;8753.084;266
2024-05-26T22:20:18.427;599616791560620406;8760.776;280
2024-05-26T22:20:18.435;599616791568312196;8768.468;303
2024-05-26T22:20:18.443;599616791576003986;8776.16;310
2024-05-26T22:20:18.450;599616791583695776;8783.852;298
2024-05-26T22:20:18.458;599616791591387566;8791.544;270
2024-05-26T22:20:18.466;599616791599079356;8799.235;212
2024-05-26T22:20:18.473;599616791606771146;8806.928;156
2024-05-26T22:20:18.481;599616791614462936;8814.618;191
2024-05-26T22:20:18.489;599616791622154726;8822.311;441
2024-05-26T22:20:18.497;599616791629846516;8830.002;866
2024-05-26T22:20:18.504;599616791637538306;8837.694;1104
2024-05-26T22:20:18.512;599616791645230096;8845.386;831
2024-05-26T22:20:18.520;599616791652921886;8853.078;317
2024-05-26T22:20:18.527;599616791660613676;8860.77;107
2024-05-26T22:20:18.535;599616791668305466;8868.462;184
2024-05-26T22:20:18.543;599616791675997256;8876.152;184
2024-05-26T22:20:18.550;599616791683689046;8883.845;135
2024-05-26T22:20:18.558;599616791691380836;8891.536;154
2024-05-26T22:20:18.566;599616791699072626;8899.229;133
2024-05-26T22:20:18.573;599616791706764416;8906.92;58
2024-05-26T22:20:18.581;599616791714456206;8914.612;42
2024-05-26T22:20:18.589;599616791722147996;8922.304;35
2024-05-26T22:20:18.596;599616791729839786;8929.996;-32
2024-05-26T22:20:18.604;599616791737531576;8937.6875;-74
2024-05-26T22:20:18.612;599616791745223366;8945.379;-39
2024-05-26T22:20:18.620;599616791752915156;8953.07;-25
2024-05-26T22:20:18.627;599616791760606946;8960.763;-37
2024-05-26T22:20:18.635;599616791768298736;8968.454;-11
2024-05-26T22:20:18.643;599616791775990526;8976.146;9
2024-05-26T22:20:18.650;599616791783712424;8983.868;4
2024-05-26T22:20:18.658;599616791791403796;8991.56;18
2024-05-26T22:20:18.666;599616791799095168;8999.251;58
2024-05-26T22:20:18.673;599616791806786540;9006.942;88
2024-05-26T22:20:18.681;599616791814477912;9014.634;81
2024-05-26T22:20:18.689;599616791822169284;9022.325;58
2024-05-26T22:20:18.697;599616791829860656;9030.017;58
2024-05-26T22:20:18.704;599616791837552028;9037.708;51
2024-05-26T22:20:18.712;599616791845243400;9045.399;-21
2024-05-26T22:20:18.720;599616791852934772;9053.091;-77
2024-05-26T22:20:18.727;599616791860626144;9060.782;-51
2024-05-26T22:20:18.735;599616791868317516;9068.474;-39
2024-05-26T22:20:18.743;599616791876008888;9076.165;-65
2024-05-26T22:20:18.750;599616791883700260;9083.855;-39
2024-05-26T22:20:18.758;599616791891391632;9091.547;7
2024-05-26T22:20:18.766;599616791899083004;9099.238;28
2024-05-26T22:20:18.773;599616791906774376;9106.931;28
2024-05-26T22:20:18.781;599616791914465748;9114.622;21
2024-05-26T22:20:18.789;599616791922157120;9122.313;37
2024-05-26T22:20:18.797;599616791929848492;9130.005;74
2024-05-26T22:20:18.804;599616791937539864;9137.695;72
2024-05-26T22:20:18.812;599616791945231236;9145.387;28
2024-05-26T22:20:18.820;599616791952922608;9153.078;-53
2024-05-26T22:20:18.827;599616791960613980;9160.77;-154
2024-05-26T22:20:18.835;599616791968305352;9168.461;-182
2024-05-26T22:20:18.843;599616791975996724;9176.153;-119
2024-05-26T22:20:18.850;599616791983688096;9183.845;-65
2024-05-26T22:20:18.858;599616791991379468;9191.535;-53
2024-05-26T22:20:18.866;599616791999070840;9199.227;-44
2024-05-26T22:20:18.873;599616792006762212;9206.918;-23
2024-05-26T22:20:18.881;599616792014453584;9214.609;4
2024-05-26T22:20:18.889;599616792022144956;9222.301;25
2024-05-26T22:20:18.896;599616792029836328;9229.992;42
2024-05-26T22:20:18.904;599616792037527700;9237.684;67
2024-05-26T22:20:18.912;599616792045219072;9245.375;86
2024-05-26T22:20:18.920;599616792052910444;9253.066;79
2024-05-26T22:20:18.927;599616792060601816;9260.758;84
2024-05-26T22:20:18.935;599616792068293188;9268.449;121
2024-05-26T22:20:18.943;599616792075984560;9276.141;151
2024-05-26T22:20:18.950;599616792083675932;9283.832;147
2024-05-26T22:20:18.958;599616792091367304;9291.523;149
2024-05-26T22:20:18.966;599616792099058676;9299.214;172
2024-05-26T22:20:18.973;599616792106750048;9306.905;189
2024-05-26T22:20:18.981;599616792114441420;9314.597;193
2024-05-26T22:20:18.989;599616792122132792;9322.289;189
2024-05-26T22:20:18.996;599616792129824164;9329.98;175
2024-05-26T22:20:19.004;599616792137515536;9337.672;149
2024-05-26T22:20:19.012;599616792145206908;9345.363;123
2024-05-26T22:20:19.020;599616792152898280;9353.055;126
2024-05-26T22:20:19.027;599616792160589652;9360.745;154
2024-05-26T22:20:19.035;599616792168281024;9368.437;163
2024-05-26T22:20:19.043;599616792175972396;9376.128;158
2024-05-26T22:20:19.050;599616792183663768;9383.819;147
2024-05-26T22:20:19.058;599616792191355140;9391.512;100
2024-05-26T22:20:19.066;599616792199046512;9399.203;51
2024-05-26T22:20:19.073;599616792206737884;9406.895;58
2024-05-26T22:20:19.081;599616792214429256;9414.585;93
2024-05-26T22:20:19.089;599616792222120628;9422.276;116
2024-05-26T22:20:19.096;599616792229812000;9429.968;119
2024-05-26T22:20:19.104;599616792237503372;9437.659;93
2024-05-26T22:20:19.112;599616792245194744;9445.351;60
2024-05-26T22:20:19.120;599616792252886116;9453.042;56
2024-05-26T22:20:19.127;599616792260577488;9460.733;42
2024-05-26T22:20:19.135;599616792268268860;9468.425;-2
2024-05-26T22:20:19.143;599616792275960232;9476.116;-30
2024-05-26T22:20:19.150;599616792283651604;9483.808;-32
2024-05-26T22:20:19.158;599616792291342976;9491.499;-49
2024-05-26T22:20:19.166;599616792299034348;9499.19;-60
2024-05-26T22:20:19.173;599616792306725720;9506.882;-42
2024-05-26T22:20:19.181;599616792314417092;9514.573;-14
2024-05-26T22:20:19.189;599616792322108464;9522.264;-18
2024-05-26T22:20:19.196;599616792329799836;9529.955;-63
2024-05-26T22:20:19.204;599616792337491208;9537.647;-86
2024-05-26T22:20:19.212;599616792345152492;9545.309;-7
2024-05-26T22:20:19.220;599616792352844282;9553.0;259
2024-05-26T22:20:19.227;599616792360536072;9560.691;667
2024-05-26T22:20:19.235;599616792368227862;9568.384;875
2024-05-26T22:20:19.243;599616792375919652;9576.075;546
2024-05-26T22:20:19.250;599616792383611442;9583.768;-16
2024-05-26T22:20:19.258;599616792391303232;9591.459;-203
2024-05-26T22:20:19.266;599616792398995022;9599.151;-67
2024-05-26T22:20:19.273;599616792406686812;9606.843;-46
2024-05-26T22:20:19.281;599616792414378602;9614.534;-112
2024-05-26T22:20:19.289;599616792422070392;9622.226;-84
2024-05-26T22:20:19.296;599616792429762182;9629.918;-51
2024-05-26T22:20:19.304;599616792437453972;9637.609;-91
2024-05-26T22:20:19.312;599616792445145762;9645.302;-121
2024-05-26T22:20:19.319;599616792452837552;9652.993;-119
2024-05-26T22:20:19.327;599616792460529342;9660.686;-168
2024-05-26T22:20:19.335;599616792468221132;9668.377;-221
2024-05-26T22:20:19.343;599616792475912922;9676.069;-189
2024-05-26T22:20:19.350;599616792483604712;9683.76;-126
2024-05-26T22:20:19.358;599616792491296502;9691.452;-77
2024-05-26T22:20:19.366;599616792498988292;9699.145;-32
2024-05-26T22:20:19.373;599616792506680082;9706.836;-9
2024-05-26T22:20:19.381;599616792514371872;9714.528;9
2024-05-26T22:20:19.389;599616792522063662;9722.22;63
2024-05-26T22:20:19.396;599616792529755452;9729.912;114
2024-05-26T22:20:19.404;599616792537447242;9737.604;130
2024-05-26T22:20:19.412;599616792545139032;9745.295;149
2024-05-26T22:20:19.419;599616792552830822;9752.986;177
2024-05-26T22:20:19.427;599616792560522612;9760.679;177
2024-05-26T22:20:19.435;599616792568214402;9768.37;168
2024-05-26T22:20:19.443;599616792575906192;9776.0625;193
2024-05-26T22:20:19.450;599616792583597982;9783.754;228
2024-05-26T22:20:19.458;599616792591289772;9791.446;242
2024-05-26T22:20:19.466;599616792598981562;9799.138;242
2024-05-26T22:20:19.473;599616792606673352;9806.829;249
2024-05-26T22:20:19.481;599616792614365142;9814.5205;263
2024-05-26T22:20:19.489;599616792622056932;9822.213;270
2024-05-26T22:20:19.496;599616792629748722;9829.904;284
2024-05-26T22:20:19.504;599616792637440512;9837.597;326
2024-05-26T22:20:19.512;599616792645132302;9845.288;357
2024-05-26T22:20:19.519;599616792652824092;9852.98;329
2024-05-26T22:20:19.527;599616792660515882;9860.672;310
2024-05-26T22:20:19.535;599616792668207672;9868.364;355
2024-05-26T22:20:19.543;599616792675899462;9876.055;390
2024-05-26T22:20:19.550;599616792683591252;9883.747;345
2024-05-26T22:20:19.558;599616792691283042;9891.438;273
2024-05-26T22:20:19.566;599616792698974832;9899.131;235
2024-05-26T22:20:19.573;599616792706666622;9906.822;238
2024-05-26T22:20:19.581;599616792714358412;9914.515;235
2024-05-26T22:20:19.589;599616792722050202;9922.206;231
2024-05-26T22:20:19.596;599616792729741992;9929.898;259
2024-05-26T22:20:19.604;599616792737433782;9937.589;275
2024-05-26T22:20:19.612;599616792745125572;9945.281;249
2024-05-26T22:20:19.619;599616792752817362;9952.973;235
2024-05-26T22:20:19.627;599616792760509152;9960.665;270
2024-05-26T22:20:19.635;599616792768200942;9968.356;303
2024-05-26T22:20:19.643;599616792775892732;9976.049;296
2024-05-26T22:20:19.650;599616792783584522;9983.741;289
2024-05-26T22:20:19.658;599616792791276312;9991.433;298
2024-05-26T22:20:19.666;599616792798968102;9999.124;301
2024-05-26T22:20:19.673;599616792806659892;10006.815;282
2024-05-26T22:20:19.681;599616792814351682;10014.508;245
2024-05-26T22:20:19.689;599616792822043472;10022.199;219
2024-05-26T22:20:19.696;599616792829735262;10029.892;189
2024-05-26T22:20:19.704;599616792837427052;10037.583;126
2024-05-26T22:20:19.712;599616792845118842;10045.275;98
2024-05-26T22:20:19.719;599616792852810632;10052.967;121
2024-05-26T22:20:19.727;599616792860502422;10060.658;126
2024-05-26T22:20:19.735;599616792868194212;10068.35;105
2024-05-26T22:20:19.743;599616792875886002;10076.042;102
2024-05-26T22:20:19.750;599616792883577792;10083.733;112
2024-05-26T22:20:19.758;599616792891269582;10091.426;105
2024-05-26T22:20:19.766;599616792898961372;10099.117;98
2024-05-26T22:20:19.773;599616792906633158;10106.789;119
2024-05-26T22:20:19.781;599616792914325226;10114.481;151
2024-05-26T22:20:19.789;599616792922017294;10122.174;142
2024-05-26T22:20:19.796;599616792929709362;10129.866;81
2024-05-26T22:20:19.804;599616792937401430;10137.557;49
2024-05-26T22:20:19.812;599616792945093498;10145.249;81
2024-05-26T22:20:19.819;599616792952785566;10152.941;51
2024-05-26T22:20:19.827;599616792960477634;10160.634;-70
2024-05-26T22:20:19.835;599616792968169702;10168.325;-158
2024-05-26T22:20:19.843;599616792975861770;10176.018;-179
2024-05-26T22:20:19.850;599616792983553838;10183.71;-172
2024-05-26T22:20:19.858;599616792991245906;10191.402;-144
2024-05-26T22:20:19.866;599616792998937974;10199.095;-102
2024-05-26T22:20:19.873;599616793006630042;10206.785;-63
2024-05-26T22:20:19.881;599616793014322110;10214.478;-58
2024-05-26T22:20:19.889;599616793022014178;10222.17;-84
2024-05-26T22:20:19.896;599616793029706246;10229.862;-91
2024-05-26T22:20:19.904;599616793037398314;10237.555;14
2024-05-26T22:20:19.912;599616793045090382;10245.246;336
2024-05-26T22:20:19.919;599616793052782450;10252.938;791
2024-05-26T22:20:19.927;599616793060474518;10260.631;945
2024-05-26T22:20:19.935;599616793068166586;10268.323;511
2024-05-26T22:20:19.943;599616793075858654;10276.014;-18
2024-05-26T22:20:19.950;599616793083550722;10283.706;-53
2024-05-26T22:20:19.958;599616793091242790;10291.398;121
2024-05-26T22:20:19.966;599616793098934858;10299.091;98
2024-05-26T22:20:19.973;599616793106626926;10306.783;37
2024-05-26T22:20:19.981;599616793114318994;10314.475;77
2024-05-26T22:20:19.989;599616793122011062;10322.167;116
2024-05-26T22:20:19.996;599616793129703130;10329.859;130
2024-05-26T22:20:20.004;599616793137395198;10337.552;149
2024-05-26T22:20:20.012;599616793145087266;10345.243;177
2024-05-26T22:20:20.019;599616793152779334;10352.935;205
2024-05-26T22:20:20.027;599616793160471402;10360.627;205
2024-05-26T22:20:20.035;599616793168163470;10368.319;186
2024-05-26T22:20:20.043;599616793175855538;10376.012;170
2024-05-26T22:20:20.050;599616793183547606;10383.703;168
2024-05-26T22:20:20.058;599616793191239674;10391.3955;184
2024-05-26T22:20:20.066;599616793198931742;10399.088;198
2024-05-26T22:20:20.073;599616793206623810;10406.78;205
2024-05-26T22:20:20.081;599616793214315878;10414.473;233
2024-05-26T22:20:20.089;599616793222007946;10422.163;261
2024-05-26T22:20:20.096;599616793229700014;10429.855;270
2024-05-26T22:20:20.104;599616793237392082;10437.548;287
2024-05-26T22:20:20.112;599616793245084150;10445.24;273
2024-05-26T22:20:20.119;599616793252776218;10452.933;200
2024-05-26T22:20:20.127;599616793260468286;10460.624;154
2024-05-26T22:20:20.135;599616793268160354;10468.316;179
2024-05-26T22:20:20.143;599616793275852422;10476.009;203
2024-05-26T22:20:20.150;599616793283544490;10483.701;191
2024-05-26T22:20:20.158;599616793291236558;10491.392;179
2024-05-26T22:20:20.166;599616793298928626;10499.084;175
2024-05-26T22:20:20.173;599616793306620694;10506.776;179
2024-05-26T22:20:20.181;599616793314312762;10514.469;182
2024-05-26T22:20:20.189;599616793322004830;10522.161;184
2024-05-26T22:20:20.196;599616793329696898;10529.853;210
2024-05-26T22:20:20.204;599616793337388966;10537.545;231
2024-05-26T22:20:20.212;599616793345081034;10545.237;212
2024-05-26T22:20:20.219;599616793352773102;10552.93;203
2024-05-26T22:20:20.227;599616793360465170;10560.621;214
2024-05-26T22:20:20.235;599616793368157238;10568.3125;189
2024-05-26T22:20:20.243;599616793375849306;10576.005;133
2024-05-26T22:20:20.250;599616793383541374;10583.697;100
2024-05-26T22:20:20.258;599616793391233442;10591.39;67
2024-05-26T22:20:20.266;599616793398925510;10599.081;30
2024-05-26T22:20:20.273;599616793406617578;10606.773;21
2024-05-26T22:20:20.281;599616793414309646;10614.466;16
2024-05-26T22:20:20.289;599616793422001714;10622.158;-25
2024-05-26T22:20:20.296;599616793429693782;10629.851;-81
2024-05-26T22:20:20.304;599616793437385850;10637.541;-105
2024-05-26T22:20:20.312;599616793445077918;10645.233;-88
2024-05-26T22:20:20.319;599616793452769986;10652.926;-60
2024-05-26T22:20:20.327;599616793460462054;10660.618;-63
2024-05-26T22:20:20.335;599616793468209336;10668.365;-121
2024-05-26T22:20:20.343;599616793475900638;10676.056;-172
2024-05-26T22:20:20.350;599616793483591940;10683.748;-156
2024-05-26T22:20:20.358;599616793491283242;10691.439;-137
2024-05-26T22:20:20.366;599616793498974544;10699.131;-137
2024-05-26T22:20:20.373;599616793506665846;10706.822;-98
2024-05-26T22:20:20.381;599616793514357148;10714.514;-46
2024-05-26T22:20:20.389;599616793522048450;10722.205;-44
2024-05-26T22:20:20.396;599616793529739752;10729.8955;-60
2024-05-26T22:20:20.404;599616793537431054;10737.587;-42
2024-05-26T22:20:20.412;599616793545122356;10745.278;-4
2024-05-26T22:20:20.419;599616793552813658;10752.97;-32
2024-05-26T22:20:20.427;599616793560504960;10760.661;-91
2024-05-26T22:20:20.435;599616793568196262;10768.353;-81
2024-05-26T22:20:20.443;599616793575887564;10776.044;-49
2024-05-26T22:20:20.450;599616793583578866;10783.734;-53
2024-05-26T22:20:20.458;599616793591270168;10791.426;-32
2024-05-26T22:20:20.466;599616793598961470;10799.117;21
2024-05-26T22:20:20.473;599616793606652772;10806.809;51
2024-05-26T22:20:20.481;599616793614344074;10814.5;65
2024-05-26T22:20:20.489;599616793622035376;10822.191;70
2024-05-26T22:20:20.496;599616793629726678;10829.883;79
2024-05-26T22:20:20.504;599616793637417980;10837.573;109
2024-05-26T22:20:20.512;599616793645109282;10845.265;128
2024-05-26T22:20:20.519;599616793652800584;10852.956;137
2024-05-26T22:20:20.527;599616793660491886;10860.647;151
2024-05-26T22:20:20.535;599616793668183188;10868.339;102
2024-05-26T22:20:20.543;599616793675874490;10876.03;-2
2024-05-26T22:20:20.550;599616793683565792;10883.722;-7
2024-05-26T22:20:20.558;599616793691257094;10891.413;196
2024-05-26T22:20:20.566;599616793698948396;10899.1045;618
2024-05-26T22:20:20.573;599616793706639698;10906.796;1022
2024-05-26T22:20:20.581;599616793714331000;10914.487;969
2024-05-26T22:20:20.589;599616793722022302;10922.179;422
2024-05-26T22:20:20.596;599616793729713604;10929.87;18
2024-05-26T22:20:20.604;599616793737404906;10937.562;88
2024-05-26T22:20:20.612;599616793745096208;10945.252;200
2024-05-26T22:20:20.619;599616793752787510;10952.943;126
2024-05-26T22:20:20.627;599616793760478812;10960.635;98
2024-05-26T22:20:20.635;599616793768170114;10968.326;144
2024-05-26T22:20:20.643;599616793775861416;10976.018;165
2024-05-26T22:20:20.650;599616793783552718;10983.709;179
2024-05-26T22:20:20.658;599616793791244020;10991.4;205
2024-05-26T22:20:20.666;599616793798935322;10999.091;210
2024-05-26T22:20:20.673;599616793806626624;11006.782;207
2024-05-26T22:20:20.681;599616793814317926;11014.474;212
2024-05-26T22:20:20.689;599616793822009228;11022.165;182
2024-05-26T22:20:20.696;599616793829700530;11029.856;149
2024-05-26T22:20:20.704;599616793837391832;11037.548;177
2024-05-26T22:20:20.712;599616793845083134;11045.239;203
2024-05-26T22:20:20.719;599616793852774436;11052.93;177
2024-05-26T22:20:20.727;599616793860465738;11060.621;154
2024-05-26T22:20:20.735;599616793868157040;11068.3125;186
2024-05-26T22:20:20.743;599616793875848342;11076.004;226
2024-05-26T22:20:20.750;599616793883539644;11083.695;217
2024-05-26T22:20:20.758;599616793891230946;11091.387;193
2024-05-26T22:20:20.766;599616793898922248;11099.079;191
2024-05-26T22:20:20.773;599616793906613550;11106.77;182
2024-05-26T22:20:20.781;599616793914304852;11114.461;142
2024-05-26T22:20:20.789;599616793921996154;11122.152;116
2024-05-26T22:20:20.796;599616793929687456;11129.844;135
2024-05-26T22:20:20.804;599616793937378758;11137.535;119
2024-05-26T22:20:20.812;599616793945070060;11145.227;42
2024-05-26T22:20:20.819;599616793952761362;11152.918;-2
2024-05-26T22:20:20.827;599616793960452664;11160.608;-25
2024-05-26T22:20:20.835;599616793968143966;11168.3;-109
2024-05-26T22:20:20.842;599616793975835268;11175.991;-212
2024-05-26T22:20:20.850;599616793983526570;11183.683;-240
2024-05-26T22:20:20.858;599616793991217872;11191.374;-226
2024-05-26T22:20:20.866;599616793998909174;11199.065;-233
2024-05-26T22:20:20.873;599616794006600476;11206.757;-228
2024-05-26T22:20:20.881;599616794014291778;11214.447;-196
2024-05-26T22:20:20.889;599616794021983080;11222.139;-161
2024-05-26T22:20:20.896;599616794029654326;11229.811;-147
2024-05-26T22:20:20.904;599616794037345907;11237.502;-163
2024-05-26T22:20:20.912;599616794045037488;11245.193;-168
2024-05-26T22:20:20.919;599616794052729069;11252.885;-128
2024-05-26T22:20:20.927;599616794060420650;11260.577;-102
2024-05-26T22:20:20.935;599616794068112231;11268.268;-102
2024-05-26T22:20:20.942;599616794075803812;11275.959;-88
2024-05-26T22:20:20.950;599616794083495393;11283.651;-77
2024-05-26T22:20:20.958;599616794091186974;11291.343;-130
2024-05-26T22:20:20.966;599616794098878555;11299.034;-200
2024-05-26T22:20:20.973;599616794106570136;11306.727;-179
2024-05-26T22:20:20.981;599616794114261717;11314.418;-123
2024-05-26T22:20:20.989;599616794121953298;11322.109;-126
2024-05-26T22:20:20.996;599616794129644879;11329.801;-140
2024-05-26T22:20:21.004;599616794137336460;11337.492;-105
2024-05-26T22:20:21.012;599616794145028041;11345.184;-58
2024-05-26T22:20:21.019;599616794152719622;11352.876;-39
2024-05-26T22:20:21.027;599616794160411203;11360.567;-42
2024-05-26T22:20:21.035;599616794168102784;11368.259;-53
2024-05-26T22:20:21.042;599616794175794365;11375.95;-46
2024-05-26T22:20:21.050;599616794183485946;11383.643;-32
2024-05-26T22:20:21.058;599616794191177527;11391.333;-14
2024-05-26T22:20:21.066;599616794198869108;11399.024;21
2024-05-26T22:20:21.073;599616794206560689;11406.717;53
2024-05-26T22:20:21.081;599616794214252270;11414.408;53
2024-05-26T22:20:21.089;599616794221943851;11422.1;42
2024-05-26T22:20:21.096;599616794229635432;11429.792;72
2024-05-26T22:20:21.104;599616794237327013;11437.483;121
2024-05-26T22:20:21.112;599616794245018594;11445.174;130
2024-05-26T22:20:21.119;599616794252710175;11452.866;144
2024-05-26T22:20:21.127;599616794260401756;11460.558;189
2024-05-26T22:20:21.135;599616794268093337;11468.249;191
2024-05-26T22:20:21.142;599616794275784918;11475.94;172
2024-05-26T22:20:21.150;599616794283476499;11483.633;196
2024-05-26T22:20:21.158;599616794291168080;11491.324;231
2024-05-26T22:20:21.166;599616794298859661;11499.016;245
2024-05-26T22:20:21.173;599616794306551242;11506.707;238
2024-05-26T22:20:21.181;599616794314242823;11514.398;203
2024-05-26T22:20:21.189;599616794321934404;11522.09;175
2024-05-26T22:20:21.196;599616794329625985;11529.782;266
2024-05-26T22:20:21.204;599616794337317566;11537.474;583
2024-05-26T22:20:21.212;599616794345009147;11545.165;1037
2024-05-26T22:20:21.219;599616794352700728;11552.857;1207
2024-05-26T22:20:21.227;599616794360392309;11560.549;784
2024-05-26T22:20:21.235;599616794368083890;11568.239;224
2024-05-26T22:20:21.242;599616794375775471;11575.931;149
2024-05-26T22:20:21.250;599616794383467052;11583.623;298
2024-05-26T22:20:21.258;599616794391158633;11591.314;247
2024-05-26T22:20:21.266;599616794398850214;11599.006;172
2024-05-26T22:20:21.273;599616794406541795;11606.698;163
2024-05-26T22:20:21.281;599616794414233376;11614.39;116
2024-05-26T22:20:21.289;599616794421924957;11622.08;112
2024-05-26T22:20:21.296;599616794429616538;11629.772;154
2024-05-26T22:20:21.304;599616794437308119;11637.464;137
2024-05-26T22:20:21.312;599616794444999700;11645.155;93
2024-05-26T22:20:21.319;599616794452691281;11652.848;77
2024-05-26T22:20:21.327;599616794460382862;11660.539;72
2024-05-26T22:20:21.335;599616794468074443;11668.23;65
2024-05-26T22:20:21.342;599616794475766024;11675.923;14
2024-05-26T22:20:21.350;599616794483457605;11683.613;-53
2024-05-26T22:20:21.358;599616794491149186;11691.305;-60
2024-05-26T22:20:21.365;599616794498840767;11698.996;-25
2024-05-26T22:20:21.373;599616794506532348;11706.688;-4
2024-05-26T22:20:21.381;599616794514223929;11714.38;7
2024-05-26T22:20:21.389;599616794521915510;11722.071;28
2024-05-26T22:20:21.396;599616794529607091;11729.764;56
2024-05-26T22:20:21.404;599616794537298672;11737.455;67
2024-05-26T22:20:21.412;599616794544990253;11745.1455;44
2024-05-26T22:20:21.419;599616794552681834;11752.838;18
2024-05-26T22:20:21.427;599616794560373415;11760.529;9
2024-05-26T22:20:21.435;599616794568064996;11768.221;-11
2024-05-26T22:20:21.442;599616794575756577;11775.913;-58
2024-05-26T22:20:21.450;599616794583448158;11783.6045;-105
2024-05-26T22:20:21.458;599616794591154798;11791.311;-123
2024-05-26T22:20:21.466;599616794598846170;11799.002;-126
2024-05-26T22:20:21.473;599616794606537542;11806.693;-130
2024-05-26T22:20:21.481;599616794614228914;11814.385;-112
2024-05-26T22:20:21.489;599616794621920286;11822.076;-79
2024-05-26T22:20:21.496;599616794629611658;11829.768;-81
2024-05-26T22:20:21.504;599616794637303030;11837.458;-116
2024-05-26T22:20:21.512;599616794644994402;11845.15;-128
2024-05-26T22:20:21.519;599616794652685774;11852.842;-140
2024-05-26T22:20:21.527;599616794660377146;11860.533;-205
2024-05-26T22:20:21.535;599616794668068518;11868.225;-266
2024-05-26T22:20:21.542;599616794675759890;11875.916;-266
2024-05-26T22:20:21.550;599616794683451262;11883.607;-240
2024-05-26T22:20:21.558;599616794691142634;11891.298;-233
2024-05-26T22:20:21.565;599616794698834006;11898.989;-219
2024-05-26T22:20:21.573;599616794706525378;11906.681;-177
2024-05-26T22:20:21.581;599616794714216750;11914.373;-135
2024-05-26T22:20:21.589;599616794721908122;11922.064;-123
2024-05-26T22:20:21.596;599616794729599494;11929.756;-130
2024-05-26T22:20:21.604;599616794737290866;11937.447;-107
2024-05-26T22:20:21.612;599616794744982238;11945.138;-60
2024-05-26T22:20:21.619;599616794752673610;11952.829;-39
2024-05-26T22:20:21.627;599616794760364982;11960.5205;-28
2024-05-26T22:20:21.635;599616794768056354;11968.212;0
2024-05-26T22:20:21.642;599616794775747726;11975.903;11
2024-05-26T22:20:21.650;599616794783439098;11983.595;11
2024-05-26T22:20:21.658;599616794791130470;11991.287;30
2024-05-26T22:20:21.665;599616794798821842;11998.979;70
2024-05-26T22:20:21.673;599616794806513214;12006.669;100
2024-05-26T22:20:21.681;599616794814204586;12014.36;105
2024-05-26T22:20:21.689;599616794821895958;12022.052;98
2024-05-26T22:20:21.696;599616794829587330;12029.743;112
2024-05-26T22:20:21.704;599616794837278702;12037.435;144
2024-05-26T22:20:21.712;599616794844970074;12045.126;158
2024-05-26T22:20:21.719;599616794852661446;12052.817;156
2024-05-26T22:20:21.727;599616794860352818;12060.509;175
2024-05-26T22:20:21.735;599616794868044190;12068.2;182
2024-05-26T22:20:21.742;599616794875735562;12075.892;165
2024-05-26T22:20:21.750;599616794883426934;12083.583;179
2024-05-26T22:20:21.758;599616794891118306;12091.274;212
2024-05-26T22:20:21.765;599616794898809678;12098.966;196
2024-05-26T22:20:21.773;599616794906501050;12106.657;137
2024-05-26T22:20:21.781;599616794914192422;12114.348;128
2024-05-26T22:20:21.789;599616794921883794;12122.039;161
2024-05-26T22:20:21.796;599616794929575166;12129.73;172
2024-05-26T22:20:21.804;599616794937266538;12137.423;168
2024-05-26T22:20:21.812;599616794944957910;12145.114;198
2024-05-26T22:20:21.819;599616794952649282;12152.806;228
2024-05-26T22:20:21.827;599616794960340654;12160.497;198
2024-05-26T22:20:21.835;599616794968032026;12168.1875;123
2024-05-26T22:20:21.842;599616794975723398;12175.879;93
2024-05-26T22:20:21.850;599616794983414770;12183.57;266
2024-05-26T22:20:21.858;599616794991106142;12191.262;681
2024-05-26T22:20:21.865;599616794998797514;12198.953;950
2024-05-26T22:20:21.873;599616795006488886;12206.6455;660
2024-05-26T22:20:21.881;599616795014180258;12214.337;133
2024-05-26T22:20:21.889;599616795021871630;12222.027;-28
2024-05-26T22:20:21.896;599616795029563002;12229.719;86
2024-05-26T22:20:21.904;599616795037254374;12237.41;88
2024-05-26T22:20:21.912;599616795044945746;12245.102;37
2024-05-26T22:20:21.919;599616795052637118;12252.793;60
2024-05-26T22:20:21.927;599616795060328490;12260.484;70
2024-05-26T22:20:21.935;599616795068019862;12268.176;67
2024-05-26T22:20:21.942;599616795075711234;12275.867;102
2024-05-26T22:20:21.950;599616795083402606;12283.559;135
2024-05-26T22:20:21.958;599616795091093978;12291.25;133
2024-05-26T22:20:21.965;599616795098785350;12298.941;135
2024-05-26T22:20:21.973;599616795106476722;12306.633;165
2024-05-26T22:20:21.981;599616795114168094;12314.324;189
2024-05-26T22:20:21.989;599616795121859466;12322.016;198
2024-05-26T22:20:21.996;599616795129550838;12329.706;233
2024-05-26T22:20:22.004;599616795137242210;12337.397;263
2024-05-26T22:20:22.012;599616795144933582;12345.089;226
2024-05-26T22:20:22.019;599616795152594866;12352.751;189
2024-05-26T22:20:22.027;599616795160286656;12360.443;221
2024-05-26T22:20:22.035;599616795167978446;12368.134;256
2024-05-26T22:20:22.042;599616795175670236;12375.826;249
2024-05-26T22:20:22.050;599616795183362026;12383.518;242
2024-05-26T22:20:22.058;599616795191053816;12391.21;245
2024-05-26T22:20:22.065;599616795198745606;12398.901;214
2024-05-26T22:20:22.073;599616795206437396;12406.594;126
2024-05-26T22:20:22.081;599616795214129186;12414.285;70
2024-05-26T22:20:22.088;599616795221820976;12421.978;116
2024-05-26T22:20:22.096;599616795229512766;12429.668;137
2024-05-26T22:20:22.104;599616795237204556;12437.36;51
2024-05-26T22:20:22.112;599616795244896346;12445.052;-4
2024-05-26T22:20:22.119;599616795252588136;12452.744;30
2024-05-26T22:20:22.127;599616795260279926;12460.436;53
2024-05-26T22:20:22.135;599616795267971716;12468.128;35
2024-05-26T22:20:22.142;599616795275663506;12475.819;35
2024-05-26T22:20:22.150;599616795283355296;12483.512;53
2024-05-26T22:20:22.158;599616795291047086;12491.202;49
2024-05-26T22:20:22.165;599616795298738876;12498.895;44
2024-05-26T22:20:22.173;599616795306430666;12506.586;74
2024-05-26T22:20:22.181;599616795314122456;12514.278;107
2024-05-26T22:20:22.188;599616795321814246;12521.97;100
2024-05-26T22:20:22.196;599616795329506036;12529.662;77
2024-05-26T22:20:22.204;599616795337197826;12537.3545;81
2024-05-26T22:20:22.212;599616795344889616;12545.046;105
2024-05-26T22:20:22.219;599616795352581406;12552.737;102
2024-05-26T22:20:22.227;599616795360273196;12560.429;58
2024-05-26T22:20:22.235;599616795367964986;12568.121;28
2024-05-26T22:20:22.242;599616795375656776;12575.8125;2
2024-05-26T22:20:22.250;599616795383348566;12583.505;-51
2024-05-26T22:20:22.258;599616795391040356;12591.196;-109
2024-05-26T22:20:22.265;599616795398732146;12598.889;-133
2024-05-26T22:20:22.273;599616795406423936;12606.58;-128
2024-05-26T22:20:22.281;599616795414115726;12614.272;-140
2024-05-26T22:20:22.288;599616795421807516;12621.963;-161
2024-05-26T22:20:22.296;599616795429499306;12629.655;-142
2024-05-26T22:20:22.304;599616795437191096;12637.347;-114
2024-05-26T22:20:22.312;599616795444882886;12645.039;-123
2024-05-26T22:20:22.319;599616795452574676;12652.73;-112
2024-05-26T22:20:22.327;599616795460266466;12660.423;-67
2024-05-26T22:20:22.335;599616795467958256;12668.114;-60
2024-05-26T22:20:22.342;599616795475650046;12675.807;-93
2024-05-26T22:20:22.350;599616795483341836;12683.497;-149
2024-05-26T22:20:22.358;599616795491033626;12691.189;-193
2024-05-26T22:20:22.365;599616795498725416;12698.881;-163
2024-05-26T22:20:22.373;599616795506417206;12706.573;-133
2024-05-26T22:20:22.381;599616795514108996;12714.265;-147
2024-05-26T22:20:22.388;599616795521800786;12721.957;-116
2024-05-26T22:20:22.396;599616795529492576;12729.648;-58
2024-05-26T22:20:22.404;599616795537184366;12737.341;-42
2024-05-26T22:20:22.412;599616795544876156;12745.031;-25
2024-05-26T22:20:22.419;599616795552567946;12752.724;4
2024-05-26T22:20:22.427;599616795560259736;12760.415;7
2024-05-26T22:20:22.435;599616795567951526;12768.107;0
2024-05-26T22:20:22.442;599616795575643316;12775.799;25
2024-05-26T22:20:22.450;599616795583335106;12783.491;60
2024-05-26T22:20:22.458;599616795591026896;12791.183;46
2024-05-26T22:20:22.465;599616795598718686;12798.875;25
2024-05-26T22:20:22.473;599616795606410476;12806.565;163
2024-05-26T22:20:22.481;599616795614102266;12814.258;560
2024-05-26T22:20:22.488;599616795621794056;12821.95;964
2024-05-26T22:20:22.496;599616795629485846;12829.642;878
2024-05-26T22:20:22.504;599616795637177636;12837.334;312
2024-05-26T22:20:22.512;599616795644869426;12845.025;-93
2024-05-26T22:20:22.519;599616795652561216;12852.718;-53
2024-05-26T22:20:22.527;599616795660253006;12860.409;25
2024-05-26T22:20:22.535;599616795667944796;12868.102;-11
2024-05-26T22:20:22.542;599616795675636586;12875.792;18
2024-05-26T22:20:22.550;599616795683328376;12883.484;63
2024-05-26T22:20:22.558;599616795691020166;12891.176;49
2024-05-26T22:20:22.565;599616795698711956;12898.868;60
2024-05-26T22:20:22.573;599616795706403746;12906.56;102
2024-05-26T22:20:22.581;599616795714125644;12914.281;109
2024-05-26T22:20:22.588;599616795721817016;12921.973;109
2024-05-26T22:20:22.596;599616795729508388;12929.664;149
2024-05-26T22:20:22.604;599616795737199760;12937.355;170
2024-05-26T22:20:22.612;599616795744891132;12945.047;105
2024-05-26T22:20:22.619;599616795752582504;12952.739;51
2024-05-26T22:20:22.627;599616795760273876;12960.43;100
2024-05-26T22:20:22.635;599616795767965248;12968.121;154
2024-05-26T22:20:22.642;599616795775656620;12975.8125;149
2024-05-26T22:20:22.650;599616795783347992;12983.504;158
2024-05-26T22:20:22.658;599616795791039364;12991.195;191
2024-05-26T22:20:22.665;599616795798730736;12998.887;200
2024-05-26T22:20:22.673;599616795806422108;13006.578;196
2024-05-26T22:20:22.681;599616795814113480;13014.269;210
2024-05-26T22:20:22.688;599616795821804852;13021.961;242
2024-05-26T22:20:22.696;599616795829496224;13029.652;256
2024-05-26T22:20:22.704;599616795837187596;13037.344;233
2024-05-26T22:20:22.712;599616795844878968;13045.035;207
2024-05-26T22:20:22.719;599616795852570340;13052.727;233
2024-05-26T22:20:22.727;599616795860261712;13060.418;254
2024-05-26T22:20:22.735;599616795867953084;13068.108;231
2024-05-26T22:20:22.742;599616795875644456;13075.8;210
2024-05-26T22:20:22.750;599616795883335828;13083.491;175
2024-05-26T22:20:22.758;599616795891027200;13091.184;119
2024-05-26T22:20:22.765;599616795898718572;13098.875;119
2024-05-26T22:20:22.773;599616795906409944;13106.566;156
2024-05-26T22:20:22.781;599616795914101316;13114.258;179
2024-05-26T22:20:22.788;599616795921792688;13121.948;175
2024-05-26T22:20:22.796;599616795929484060;13129.64;158
2024-05-26T22:20:22.804;599616795937175432;13137.331;161
2024-05-26T22:20:22.812;599616795944866804;13145.022;193
2024-05-26T22:20:22.819;599616795952558176;13152.714;207
2024-05-26T22:20:22.827;599616795960249548;13160.405;184
2024-05-26T22:20:22.835;599616795967940920;13168.098;144
2024-05-26T22:20:22.842;599616795975632292;13175.788;119
2024-05-26T22:20:22.850;599616795983323664;13183.4795;81
2024-05-26T22:20:22.858;599616795991015036;13191.171;4
2024-05-26T22:20:22.865;599616795998706408;13198.862;-39
2024-05-26T22:20:22.873;599616796006397780;13206.554;-4
2024-05-26T22:20:22.881;599616796014089152;13214.245;0
2024-05-26T22:20:22.888;599616796021780524;13221.937;-35
2024-05-26T22:20:22.896;599616796029471896;13229.627;-16
2024-05-26T22:20:22.904;599616796037163268;13237.319;21
2024-05-26T22:20:22.912;599616796044854640;13245.011;4
2024-05-26T22:20:22.919;599616796052546012;13252.702;-4
2024-05-26T22:20:22.927;599616796060237384;13260.394;21
2024-05-26T22:20:22.935;599616796067928756;13268.085;28
2024-05-26T22:20:22.942;599616796075620128;13275.776;4
2024-05-26T22:20:22.950;599616796083311500;13283.467;-16
2024-05-26T22:20:22.958;599616796091002872;13291.158;-28
2024-05-26T22:20:22.965;599616796098694244;13298.85;-37
2024-05-26T22:20:22.973;599616796106385616;13306.541;-86
2024-05-26T22:20:22.981;599616796114076988;13314.233;-140
2024-05-26T22:20:22.988;599616796121768360;13321.925;-137
2024-05-26T22:20:22.996;599616796129459732;13329.616;-158
2024-05-26T22:20:23.004;599616796137151104;13337.308;-221
2024-05-26T22:20:23.011;599616796144842476;13344.998;-217
2024-05-26T22:20:23.019;599616796152533848;13352.689;-175
2024-05-26T22:20:23.027;599616796160225220;13360.381;-189
2024-05-26T22:20:23.035;599616796167916592;13368.072;-203
2024-05-26T22:20:23.042;599616796175607964;13375.764;-186
2024-05-26T22:20:23.050;599616796183299336;13383.456;-191
2024-05-26T22:20:23.058;599616796190990708;13391.147;-137
2024-05-26T22:20:23.065;599616796198682080;13398.838;151
2024-05-26T22:20:23.073;599616796206373452;13406.529;628
2024-05-26T22:20:23.081;599616796214064824;13414.221;852
2024-05-26T22:20:23.088;599616796221756196;13421.912;476
2024-05-26T22:20:23.096;599616796229447568;13429.604;-95
2024-05-26T22:20:23.104;599616796237138940;13437.295;-207
2024-05-26T22:20:23.111;599616796244830312;13444.986;-35
2024-05-26T22:20:23.119;599616796252521684;13452.677;-63
2024-05-26T22:20:23.127;599616796260213056;13460.369;-142
2024-05-26T22:20:23.135;599616796267904428;13468.061;-65
2024-05-26T22:20:23.142;599616796275585800;13475.741;-7
2024-05-26T22:20:23.150;599616796283277311;13483.433;-23
2024-05-26T22:20:23.158;599616796290968822;13491.124;-18
2024-05-26T22:20:23.165;599616796298660333;13498.816;2
2024-05-26T22:20:23.173;599616796306351844;13506.508;0
2024-05-26T22:20:23.181;599616796314043355;13514.199;-42
2024-05-26T22:20:23.188;599616796321734866;13521.891;-86
2024-05-26T22:20:23.196;599616796329426377;13529.583;-51
2024-05-26T22:20:23.204;599616796337117888;13537.273;0
2024-05-26T22:20:23.211;599616796344809399;13544.965;-11
2024-05-26T22:20:23.219;599616796352500910;13552.656;-9
2024-05-26T22:20:23.227;599616796360192421;13560.349;46
2024-05-26T22:20:23.235;599616796367883932;13568.04;88
2024-05-26T22:20:23.242;599616796375575443;13575.731;81
2024-05-26T22:20:23.250;599616796383266954;13583.423;56
2024-05-26T22:20:23.258;599616796390958465;13591.115;49
2024-05-26T22:20:23.265;599616796398649976;13598.806;65
2024-05-26T22:20:23.273;599616796406341487;13606.497;72
2024-05-26T22:20:23.281;599616796414032998;13614.188;79
2024-05-26T22:20:23.288;599616796421724509;13621.881;109
2024-05-26T22:20:23.296;599616796429416020;13629.572;123
2024-05-26T22:20:23.304;599616796437107531;13637.264;107
2024-05-26T22:20:23.311;599616796444799042;13644.955;109
2024-05-26T22:20:23.319;599616796452490553;13652.646;144
2024-05-26T22:20:23.327;599616796460182064;13660.338;156
2024-05-26T22:20:23.335;599616796467873575;13668.029;156
2024-05-26T22:20:23.342;599616796475565086;13675.721;170
2024-05-26T22:20:23.350;599616796483256597;13683.413;154
2024-05-26T22:20:23.358;599616796490948108;13691.1045;63
2024-05-26T22:20:23.365;599616796498639619;13698.796;-7
2024-05-26T22:20:23.373;599616796506331130;13706.486;32
2024-05-26T22:20:23.381;599616796514022641;13714.178;84
2024-05-26T22:20:23.388;599616796521714152;13721.87;77
2024-05-26T22:20:23.396;599616796529405663;13729.562;67
2024-05-26T22:20:23.404;599616796537097174;13737.253;93
2024-05-26T22:20:23.411;599616796544788685;13744.944;130
2024-05-26T22:20:23.419;599616796552480196;13752.637;142
2024-05-26T22:20:23.427;599616796560171707;13760.328;144
2024-05-26T22:20:23.435;599616796567863218;13768.019;163
2024-05-26T22:20:23.442;599616796575554729;13775.71;179
2024-05-26T22:20:23.450;599616796583246240;13783.402;168
2024-05-26T22:20:23.458;599616796590937751;13791.094;170
2024-05-26T22:20:23.465;599616796598629262;13798.785;205
2024-05-26T22:20:23.473;599616796606320773;13806.477;240
2024-05-26T22:20:23.481;599616796614012284;13814.169;249
2024-05-26T22:20:23.488;599616796621703795;13821.859;212
2024-05-26T22:20:23.496;599616796629395306;13829.551;170
2024-05-26T22:20:23.504;599616796637086817;13837.242;179
2024-05-26T22:20:23.511;599616796644778328;13844.935;200
2024-05-26T22:20:23.519;599616796652469839;13852.626;203
2024-05-26T22:20:23.527;599616796660161350;13860.317;214
2024-05-26T22:20:23.535;599616796667852861;13868.009;191
2024-05-26T22:20:23.542;599616796675544372;13875.701;123
2024-05-26T22:20:23.550;599616796683235883;13883.392;98
2024-05-26T22:20:23.558;599616796690927394;13891.083;135
2024-05-26T22:20:23.565;599616796698618905;13898.774;168
2024-05-26T22:20:23.573;599616796706310416;13906.467;147
2024-05-26T22:20:23.581;599616796714001927;13914.158;126
2024-05-26T22:20:23.588;599616796721693438;13921.85;156
2024-05-26T22:20:23.596;599616796729384949;13929.541;182
2024-05-26T22:20:23.604;599616796737076460;13937.231;172
2024-05-26T22:20:23.611;599616796744767971;13944.924;170
2024-05-26T22:20:23.619;599616796752459482;13952.615;186
2024-05-26T22:20:23.627;599616796760150993;13960.307;184
2024-05-26T22:20:23.634;599616796767842504;13967.998;165
2024-05-26T22:20:23.642;599616796775534015;13975.69;161
2024-05-26T22:20:23.650;599616796783225526;13983.382;147
2024-05-26T22:20:23.658;599616796790917037;13991.073;140
2024-05-26T22:20:23.665;599616796798608548;13998.764;301
2024-05-26T22:20:23.673;599616796806300059;14006.456;703
2024-05-26T22:20:23.681;599616796813991570;14014.147;987
2024-05-26T22:20:23.688;599616796821683081;14021.839;712
2024-05-26T22:20:23.696;599616796829374592;14029.53;102
2024-05-26T22:20:23.704;599616796837056128;14037.212;-161
2024-05-26T22:20:23.711;599616796844747778;14044.903;-49
2024-05-26T22:20:23.719;599616796852439428;14052.596;-58
2024-05-26T22:20:23.727;599616796860131078;14060.287;-177
2024-05-26T22:20:23.734;599616796867822728;14067.979;-177
2024-05-26T22:20:23.742;599616796875514378;14075.671;-170
2024-05-26T22:20:23.750;599616796883206028;14083.361;-205
2024-05-26T22:20:23.758;599616796890897678;14091.054;-196
2024-05-26T22:20:23.765;599616796898589328;14098.745;-168
2024-05-26T22:20:23.773;599616796906280978;14106.437;-168
2024-05-26T22:20:23.781;599616796913972628;14114.129;-200
2024-05-26T22:20:23.788;599616796921664278;14121.82;-231
2024-05-26T22:20:23.796;599616796929355928;14129.512;-191
2024-05-26T22:20:23.804;599616796937047578;14137.204;-149
2024-05-26T22:20:23.811;599616796944739228;14144.895;-165
2024-05-26T22:20:23.819;599616796952430878;14152.587;-147
2024-05-26T22:20:23.827;599616796960122528;14160.278;-72
2024-05-26T22:20:23.834;599616796967814178;14167.97;-32
2024-05-26T22:20:23.842;599616796975505828;14175.662;-21
2024-05-26T22:20:23.850;599616796983197478;14183.354;-16
2024-05-26T22:20:23.858;599616796990889128;14191.045;-88
2024-05-26T22:20:23.865;599616796998580778;14198.737;-177
2024-05-26T22:20:23.873;599616797006272428;14206.428;-168
2024-05-26T22:20:23.881;599616797013964078;14214.12;-126
2024-05-26T22:20:23.888;599616797021655728;14221.812;-102
2024-05-26T22:20:23.896;599616797029347378;14229.503;-81
2024-05-26T22:20:23.904;599616797037039028;14237.195;-86
2024-05-26T22:20:23.911;599616797044730678;14244.887;-91
2024-05-26T22:20:23.919;599616797052422328;14252.578;-42
2024-05-26T22:20:23.927;599616797060113978;14260.2705;2
2024-05-26T22:20:23.934;599616797067805628;14267.961;2
2024-05-26T22:20:23.942;599616797075497278;14275.653;11
2024-05-26T22:20:23.950;599616797083188928;14283.345;37
2024-05-26T22:20:23.958;599616797090880578;14291.036;51
2024-05-26T22:20:23.965;599616797098572228;14298.729;65
2024-05-26T22:20:23.973;599616797106263878;14306.42;86
2024-05-26T22:20:23.981;599616797113955528;14314.111;84
2024-05-26T22:20:23.988;599616797121647178;14321.804;32
2024-05-26T22:20:23.996;599616797129338828;14329.494;9
2024-05-26T22:20:24.004;599616797137030478;14337.187;46
2024-05-26T22:20:24.011;599616797144722128;14344.878;79
2024-05-26T22:20:24.019;599616797152413778;14352.569;91
2024-05-26T22:20:24.027;599616797160105428;14360.262;109
2024-05-26T22:20:24.034;599616797167797078;14367.953;133
2024-05-26T22:20:24.042;599616797175488728;14375.645;137
2024-05-26T22:20:24.050;599616797183180378;14383.337;135
2024-05-26T22:20:24.058;599616797190872028;14391.027;149
2024-05-26T22:20:24.065;599616797198563678;14398.72;182
2024-05-26T22:20:24.073;599616797206255328;14406.411;212
2024-05-26T22:20:24.081;599616797213946978;14414.103;217
2024-05-26T22:20:24.088;599616797221638628;14421.795;198
2024-05-26T22:20:24.096;599616797229330278;14429.486;205
2024-05-26T22:20:24.104;599616797237021928;14437.178;235
2024-05-26T22:20:24.111;599616797244713578;14444.87;249
2024-05-26T22:20:24.119;599616797252405228;14452.561;252
2024-05-26T22:20:24.127;599616797260096878;14460.253;270
2024-05-26T22:20:24.134;599616797267788528;14467.944;273
2024-05-26T22:20:24.142;599616797275480178;14475.636;259
2024-05-26T22:20:24.150;599616797283171828;14483.328;266
2024-05-26T22:20:24.158;599616797290863478;14491.02;294
2024-05-26T22:20:24.165;599616797298555128;14498.711;310
2024-05-26T22:20:24.173;599616797306246778;14506.402;298
2024-05-26T22:20:24.181;599616797313938428;14514.094;282
2024-05-26T22:20:24.188;599616797321630078;14521.786;296
2024-05-26T22:20:24.196;599616797329321728;14529.478;319
2024-05-26T22:20:24.204;599616797337013378;14537.169;322
2024-05-26T22:20:24.211;599616797344705028;14544.861;343
2024-05-26T22:20:24.219;599616797352396678;14552.553;357
2024-05-26T22:20:24.227;599616797360088328;14560.245;303
2024-05-26T22:20:24.234;599616797367779978;14567.936;242
2024-05-26T22:20:24.242;599616797375471628;14575.627;263
2024-05-26T22:20:24.250;599616797383163278;14583.319;301
2024-05-26T22:20:24.258;599616797390854928;14591.011;296
2024-05-26T22:20:24.265;599616797398536558;14598.692;245
2024-05-26T22:20:24.273;599616797406228348;14606.384;161
2024-05-26T22:20:24.281;599616797413920138;14614.076;154
2024-05-26T22:20:24.288;599616797421611928;14621.768;371
2024-05-26T22:20:24.296;599616797429303718;14629.46;791
2024-05-26T22:20:24.304;599616797436995508;14637.151;1095
2024-05-26T22:20:24.311;599616797444687298;14644.844;864
2024-05-26T22:20:24.319;599616797452379088;14652.535;226
2024-05-26T22:20:24.327;599616797460070878;14660.228;-121
2024-05-26T22:20:24.334;599616797467762668;14667.918;-23
2024-05-26T22:20:24.342;599616797475454458;14675.61;25
2024-05-26T22:20:24.350;599616797483146248;14683.302;-60
2024-05-26T22:20:24.357;599616797490838038;14690.994;-74
2024-05-26T22:20:24.365;599616797498529828;14698.686;-114
2024-05-26T22:20:24.373;599616797506221618;14706.378;-203
2024-05-26T22:20:24.381;599616797513913408;14714.069;-203
2024-05-26T22:20:24.388;599616797521605198;14721.762;-189
2024-05-26T22:20:24.396;599616797529296988;14729.452;-224
2024-05-26T22:20:24.404;599616797536988778;14737.145;-238
2024-05-26T22:20:24.411;599616797544680568;14744.836;-259
2024-05-26T22:20:24.419;599616797552372358;14752.528;-275
2024-05-26T22:20:24.427;599616797560064148;14760.22;-235
2024-05-26T22:20:24.434;599616797567755938;14767.912;-196
2024-05-26T22:20:24.442;599616797575447728;14775.604;-200
2024-05-26T22:20:24.450;599616797583139518;14783.296;-196
2024-05-26T22:20:24.457;599616797590831308;14790.986;-168
2024-05-26T22:20:24.465;599616797598523098;14798.679;-149
2024-05-26T22:20:24.473;599616797606214888;14806.37;-156
2024-05-26T22:20:24.481;599616797613906678;14814.0625;-182
2024-05-26T22:20:24.488;599616797621598468;14821.755;-182
2024-05-26T22:20:24.496;599616797629290258;14829.446;-156
2024-05-26T22:20:24.504;599616797636982048;14837.139;-168
2024-05-26T22:20:24.511;599616797644673838;14844.83;-182
2024-05-26T22:20:24.519;599616797652365628;14852.522;-137
2024-05-26T22:20:24.527;599616797660057418;14860.213;-105
2024-05-26T22:20:24.534;599616797667749208;14867.905;-112
2024-05-26T22:20:24.542;599616797675440998;14875.597;-102
2024-05-26T22:20:24.550;599616797683132788;14883.289;-70
2024-05-26T22:20:24.557;599616797690824578;14890.98;-63
2024-05-26T22:20:24.565;599616797698516368;14898.673;-56
2024-05-26T22:20:24.573;599616797706208158;14906.364;-18
2024-05-26T22:20:24.581;599616797713899948;14914.057;23
2024-05-26T22:20:24.588;599616797721591738;14921.747;30
2024-05-26T22:20:24.596;599616797729283528;14929.439;9
2024-05-26T22:20:24.604;599616797736975318;14937.131;23
2024-05-26T22:20:24.611;599616797744667108;14944.823;65
2024-05-26T22:20:24.619;599616797752358898;14952.515;84
2024-05-26T22:20:24.627;599616797760050688;14960.207;84
2024-05-26T22:20:24.634;599616797767742478;14967.898;95
2024-05-26T22:20:24.642;599616797775434268;14975.591;109
2024-05-26T22:20:24.650;599616797783126058;14983.281;107
2024-05-26T22:20:24.657;599616797790817848;14990.974;109
2024-05-26T22:20:24.665;599616797798509638;14998.665;140
2024-05-26T22:20:24.673;599616797806201428;15006.357;177
2024-05-26T22:20:24.681;599616797813893218;15014.049;179
2024-05-26T22:20:24.688;599616797821585008;15021.741;154
2024-05-26T22:20:24.696;599616797829276798;15029.433;163
2024-05-26T22:20:24.704;599616797836968588;15037.125;189
2024-05-26T22:20:24.711;599616797844660378;15044.815;179
2024-05-26T22:20:24.719;599616797852352168;15052.508;149
2024-05-26T22:20:24.727;599616797860043958;15060.199;123
2024-05-26T22:20:24.734;599616797867735748;15067.892;107
2024-05-26T22:20:24.742;599616797875427538;15075.583;102
2024-05-26T22:20:24.750;599616797883119328;15083.275;121
2024-05-26T22:20:24.757;599616797890811118;15090.967;151
2024-05-26T22:20:24.765;599616797898502908;15098.659;175
2024-05-26T22:20:24.773;599616797906194698;15106.352;177
2024-05-26T22:20:24.781;599616797913886488;15114.042;170
2024-05-26T22:20:24.788;599616797921578278;15121.734;182
2024-05-26T22:20:24.796;599616797929270068;15129.426;212
2024-05-26T22:20:24.804;599616797936961858;15137.118;228
2024-05-26T22:20:24.811;599616797944653648;15144.81;233
2024-05-26T22:20:24.819;599616797952345438;15152.502;242
2024-05-26T22:20:24.827;599616797960067336;15160.224;235
2024-05-26T22:20:24.834;599616797967758708;15167.915;224
2024-05-26T22:20:24.842;599616797975450080;15175.606;245
2024-05-26T22:20:24.850;599616797983141452;15183.298;287
2024-05-26T22:20:24.857;599616797990832824;15190.989;303
2024-05-26T22:20:24.865;599616797998524196;15198.68;277
2024-05-26T22:20:24.873;599616798006215568;15206.371;203
2024-05-26T22:20:24.881;599616798013906940;15214.0625;109
2024-05-26T22:20:24.888;599616798021598312;15221.754;56
2024-05-26T22:20:24.896;599616798029289684;15229.445;18
2024-05-26T22:20:24.904;599616798036981056;15237.138;4
2024-05-26T22:20:24.911;599616798044672428;15244.829;32
2024-05-26T22:20:24.919;599616798052363800;15252.52;28
2024-05-26T22:20:24.927;599616798060055172;15260.211;-9
2024-05-26T22:20:24.934;599616798067746544;15267.902;-7
2024-05-26T22:20:24.942;599616798075437916;15275.594;88
2024-05-26T22:20:24.950;599616798083129288;15283.285;369
2024-05-26T22:20:24.957;599616798090820660;15290.977;752
2024-05-26T22:20:24.965;599616798098512032;15298.668;826
2024-05-26T22:20:24.973;599616798106203404;15306.359;359
2024-05-26T22:20:24.981;599616798113894776;15314.051;-161
2024-05-26T22:20:24.988;599616798121586148;15321.742;-221
2024-05-26T22:20:24.996;599616798129277520;15329.434;-74
2024-05-26T22:20:25.004;599616798136968892;15337.125;-95
2024-05-26T22:20:25.011;599616798144660264;15344.816;-165
2024-05-26T22:20:25.019;599616798152351636;15352.508;-126
2024-05-26T22:20:25.027;599616798160043008;15360.198;-63
2024-05-26T22:20:25.034;599616798167734380;15367.89;-53
2024-05-26T22:20:25.042;599616798175425752;15375.581;-49
2024-05-26T22:20:25.050;599616798183117124;15383.273;-21
2024-05-26T22:20:25.057;599616798190808496;15390.965;0
2024-05-26T22:20:25.065;599616798198499868;15398.656;9
2024-05-26T22:20:25.073;599616798206191240;15406.348;11
2024-05-26T22:20:25.081;599616798213882612;15414.038;-4
2024-05-26T22:20:25.088;599616798221573984;15421.7295;-9
2024-05-26T22:20:25.096;599616798229265356;15429.421;-16
2024-05-26T22:20:25.104;599616798236956728;15437.112;-72
2024-05-26T22:20:25.111;599616798244648100;15444.804;-91
2024-05-26T22:20:25.119;599616798252339472;15452.496;-37
2024-05-26T22:20:25.127;599616798260030844;15460.1875;-14
2024-05-26T22:20:25.134;599616798267722216;15467.878;-32
2024-05-26T22:20:25.142;599616798275413588;15475.569;-35
2024-05-26T22:20:25.150;599616798283104960;15483.261;-32
2024-05-26T22:20:25.157;599616798290796332;15490.952;-39
2024-05-26T22:20:25.165;599616798298487704;15498.644;-44
2024-05-26T22:20:25.173;599616798306179076;15506.335;-23
2024-05-26T22:20:25.181;599616798313870448;15514.026;11
2024-05-26T22:20:25.188;599616798321561820;15521.717;9
2024-05-26T22:20:25.196;599616798329253192;15529.409;-23
2024-05-26T22:20:25.204;599616798336944564;15537.101;-23
2024-05-26T22:20:25.211;599616798344635936;15544.792;-35
2024-05-26T22:20:25.219;599616798352327308;15552.483;-91
2024-05-26T22:20:25.227;599616798360018680;15560.175;-102
2024-05-26T22:20:25.234;599616798367710052;15567.866;-60
2024-05-26T22:20:25.242;599616798375401424;15575.557;-44
2024-05-26T22:20:25.250;599616798383092796;15583.248;-51
2024-05-26T22:20:25.257;599616798390784168;15590.939;-30
2024-05-26T22:20:25.265;599616798398475540;15598.632;16
2024-05-26T22:20:25.273;599616798406166912;15606.323;49
2024-05-26T22:20:25.281;599616798413858284;15614.015;51
2024-05-26T22:20:25.288;599616798421549656;15621.706;42
2024-05-26T22:20:25.296;599616798429241028;15629.397;65
2024-05-26T22:20:25.304;599616798436932400;15637.088;102
2024-05-26T22:20:25.311;599616798444623772;15644.779;112
2024-05-26T22:20:25.319;599616798452315144;15652.471;114
2024-05-26T22:20:25.327;599616798460006516;15660.162;133
2024-05-26T22:20:25.334;599616798467697888;15667.854;144
2024-05-26T22:20:25.342;599616798475389260;15675.546;144
2024-05-26T22:20:25.350;599616798483080632;15683.237;161
2024-05-26T22:20:25.357;599616798490772004;15690.928;186
2024-05-26T22:20:25.365;599616798498463376;15698.619;210
2024-05-26T22:20:25.373;599616798506154748;15706.311;186
2024-05-26T22:20:25.381;599616798513846120;15714.002;107
2024-05-26T22:20:25.388;599616798521507404;15721.663;72
2024-05-26T22:20:25.396;599616798529199194;15729.3545;109
2024-05-26T22:20:25.404;599616798536890984;15737.047;128
2024-05-26T22:20:25.411;599616798544582774;15744.738;137
2024-05-26T22:20:25.419;599616798552274564;15752.431;163
2024-05-26T22:20:25.427;599616798559966354;15760.122;126
2024-05-26T22:20:25.434;599616798567658144;15767.814;37
2024-05-26T22:20:25.442;599616798575349934;15775.506;14
2024-05-26T22:20:25.450;599616798583041724;15783.197;60
2024-05-26T22:20:25.457;599616798590733514;15790.889;67
2024-05-26T22:20:25.465;599616798598425304;15798.581;28
2024-05-26T22:20:25.473;599616798606117094;15806.272;23
2024-05-26T22:20:25.480;599616798613808884;15813.965;65
2024-05-26T22:20:25.488;599616798621500674;15821.657;86
2024-05-26T22:20:25.496;599616798629192464;15829.349;93
2024-05-26T22:20:25.504;599616798636884254;15837.041;135
2024-05-26T22:20:25.511;599616798644576044;15844.731;170
2024-05-26T22:20:25.519;599616798652267834;15852.424;154
2024-05-26T22:20:25.527;599616798659959624;15860.115;147
2024-05-26T22:20:25.534;599616798667651414;15867.808;182
2024-05-26T22:20:25.542;599616798675343204;15875.499;217
2024-05-26T22:20:25.550;599616798683034994;15883.191;219
2024-05-26T22:20:25.557;599616798690726784;15890.883;200
2024-05-26T22:20:25.565;599616798698418574;15898.575;170
2024-05-26T22:20:25.573;599616798706110364;15906.266;191
2024-05-26T22:20:25.580;599616798713802154;15913.958;404
2024-05-26T22:20:25.588;599616798721493944;15921.649;840
2024-05-26T22:20:25.596;599616798729185734;15929.342;1181
2024-05-26T22:20:25.604;599616798736877524;15937.033;959
2024-05-26T22:20:25.611;599616798744569314;15944.726;324
2024-05-26T22:20:25.619;599616798752261104;15952.417;-2
2024-05-26T22:20:25.627;599616798759952894;15960.109;126
2024-05-26T22:20:25.634;599616798767644684;15967.801;191
2024-05-26T22:20:25.642;599616798775336474;15975.492;98
