Phone timestamp;sensor timestamp [ns];timestamp [ms];ecg [uV]
2024-05-26T22:30:13.689;599617386845914038;0.0;72
2024-05-26T22:30:13.696;599617386853605549;7.691511;901
2024-05-26T22:30:13.704;599617386861297060;15.383022;2160
2024-05-26T22:30:13.712;599617386868988571;23.074532;3120
2024-05-26T22:30:13.719;599617386876680082;30.766045;3788
2024-05-26T22:30:13.727;599617386884371593;38.457558;4514
2024-05-26T22:30:13.735;599617386892063104;46.149063;5222
2024-05-26T22:30:13.742;599617386899754615;53.840576;5855
2024-05-26T22:30:13.750;599617386907446126;61.53209;6502
2024-05-26T22:30:13.758;599617386915137637;69.2236;7093
2024-05-26T22:30:13.765;599617386922829148;76.915115;7574
2024-05-26T22:30:13.773;599617386930520659;84.60662;8083
2024-05-26T22:30:13.781;599617386938212170;92.29813;8641
2024-05-26T22:30:13.788;599617386945903681;99.98964;9136
2024-05-26T22:30:13.796;599617386953595192;107.68115;9613
2024-05-26T22:30:13.804;599617386961286703;115.372665;10054
2024-05-26T22:30:13.812;599617386968978214;123.06418;10365
2024-05-26T22:30:13.819;599617386976669725;130.75569;10678
2024-05-26T22:30:13.827;599617386984361236;138.4472;11035
2024-05-26T22:30:13.835;599617386992052747;146.1387;11386
2024-05-26T22:30:13.842;599617386999744258;153.83023;11759
2024-05-26T22:30:13.850;599617387007435769;161.52173;12049
2024-05-26T22:30:13.858;599617387015127280;169.21324;12215
2024-05-26T22:30:13.865;599617387022818791;176.90475;12465
2024-05-26T22:30:13.873;599617387030510302;184.59625;12780
2024-05-26T22:30:13.881;599617387038201813;192.28778;12986
2024-05-26T22:30:13.888;599617387045893324;199.97928;13189
2024-05-26T22:30:13.896;599617387053584835;207.6708;13446
2024-05-26T22:30:13.904;599617387061276346;215.3623;13607
2024-05-26T22:30:13.912;599617387068967857;223.05382;13691
2024-05-26T22:30:13.919;599617387076659368;230.74533;13840
2024-05-26T22:30:13.927;599617387084350879;238.43684;14079
2024-05-26T22:30:13.935;599617387092042390;246.12836;14303
2024-05-26T22:30:13.942;599617387099733901;253.81985;14380
2024-05-26T22:30:13.950;599617387107425412;261.51138;14399
2024-05-26T22:30:13.958;599617387115116923;269.20288;14557
2024-05-26T22:30:13.965;599617387122808434;276.8944;14716
2024-05-26T22:30:13.973;599617387130499945;284.5859;14744
2024-05-26T22:30:13.981;599617387138191456;292.2774;14838
2024-05-26T22:30:13.988;599617387145882967;299.96893;15006
2024-05-26T22:30:13.996;599617387153574478;307.66046;15020
2024-05-26T22:30:14.004;599617387161265989;315.35193;14964
2024-05-26T22:30:14.012;599617387168957500;323.04346;15024
2024-05-26T22:30:14.019;599617387176649011;330.735;15146
2024-05-26T22:30:14.027;599617387184340522;338.42648;15216
2024-05-26T22:30:14.035;599617387192032033;346.11798;15218
2024-05-26T22:30:14.042;599617387199723544;353.8095;15265
2024-05-26T22:30:14.050;599617387207415055;361.50104;15309
2024-05-26T22:30:14.058;599617387215106566;369.1925;15165
2024-05-26T22:30:14.065;599617387222798077;376.88403;15039
2024-05-26T22:30:14.073;599617387230489588;384.57556;15134
2024-05-26T22:30:14.081;599617387238181099;392.26706;15207
2024-05-26T22:30:14.088;599617387245872610;399.95856;15085
2024-05-26T22:30:14.096;599617387253564121;407.6501;14968
2024-05-26T22:30:14.104;599617387261255632;415.3416;15003
2024-05-26T22:30:14.112;599617387268947143;423.0331;15057
2024-05-26T22:30:14.119;599617387276638654;430.7246;15024
2024-05-26T22:30:14.127;599617387284330165;438.41614;14926
2024-05-26T22:30:14.135;599617387292021676;446.10764;14849
2024-05-26T22:30:14.142;599617387299713187;453.79913;14838
2024-05-26T22:30:14.150;599617387307404698;461.49066;14772
2024-05-26T22:30:14.158;599617387315096209;469.1822;14658
2024-05-26T22:30:14.165;599617387322787720;476.8737;14676
2024-05-26T22:30:14.173;599617387330479231;484.5652;14695
2024-05-26T22:30:14.181;599617387338170742;492.2567;14518
2024-05-26T22:30:14.188;599617387345862253;499.9482;14361
2024-05-26T22:30:14.196;599617387353553764;507.6397;14385
2024-05-26T22:30:14.204;599617387361245275;515.33124;14401
2024-05-26T22:30:14.212;599617387368936786;523.02277;14420
2024-05-26T22:30:14.219;599617387376628297;530.7143;14406
2024-05-26T22:30:14.227;599617387384319808;538.40576;14097
2024-05-26T22:30:14.235;599617387392011319;546.0973;13787
2024-05-26T22:30:14.242;599617387399702830;553.7888;13733
2024-05-26T22:30:14.250;599617387407384366;561.47034;13679
2024-05-26T22:30:14.258;599617387415076016;569.162;13623
2024-05-26T22:30:14.265;599617387422767666;576.85364;13555
2024-05-26T22:30:14.273;599617387430459316;584.5453;13329
2024-05-26T22:30:14.281;599617387438150966;592.23694;13294
2024-05-26T22:30:14.288;599617387445842616;599.9286;13707
2024-05-26T22:30:14.296;599617387453534266;607.62024;14062
2024-05-26T22:30:14.304;599617387461225916;615.3119;13871
2024-05-26T22:30:14.312;599617387468917566;623.00354;13273
2024-05-26T22:30:14.319;599617387476609216;630.6952;12801
2024-05-26T22:30:14.327;599617387484300866;638.38684;12668
2024-05-26T22:30:14.335;599617387491992516;646.0785;12474
2024-05-26T22:30:14.342;599617387499684166;653.77014;12287
2024-05-26T22:30:14.350;599617387507375816;661.46173;12360
2024-05-26T22:30:14.358;599617387515067466;669.1534;12236
2024-05-26T22:30:14.365;599617387522759116;676.84503;11871
2024-05-26T22:30:14.373;599617387530450766;684.5367;11769
2024-05-26T22:30:14.381;599617387538142416;692.22833;11808
2024-05-26T22:30:14.388;599617387545834066;699.92;11673
2024-05-26T22:30:14.396;599617387553525716;707.61163;11530
2024-05-26T22:30:14.404;599617387561217366;715.3033;11481
2024-05-26T22:30:14.411;599617387568909016;722.995;11376
2024-05-26T22:30:14.419;599617387576600666;730.68665;11227
2024-05-26T22:30:14.427;599617387584292316;738.3783;11115
2024-05-26T22:30:14.435;599617387591983966;746.06995;11061
2024-05-26T22:30:14.442;599617387599675616;753.7616;11038
2024-05-26T22:30:14.450;599617387607367266;761.45325;10928
2024-05-26T22:30:14.458;599617387615058916;769.1449;10741
2024-05-26T22:30:14.465;599617387622750566;776.83655;10715
2024-05-26T22:30:14.473;599617387630442216;784.5282;10718
2024-05-26T22:30:14.481;599617387638133866;792.21985;10535
2024-05-26T22:30:14.488;599617387645825516;799.9115;10414
2024-05-26T22:30:14.496;599617387653517166;807.60315;10346
2024-05-26T22:30:14.504;599617387661208816;815.2948;10136
2024-05-26T22:30:14.511;599617387668900466;822.98645;9947
2024-05-26T22:30:14.519;599617387676592116;830.6781;9867
2024-05-26T22:30:14.527;599617387684283766;838.36975;9797
2024-05-26T22:30:14.535;599617387691975416;846.0614;9753
2024-05-26T22:30:14.542;599617387699667066;853.75305;9615
2024-05-26T22:30:14.550;599617387707358716;861.4447;9342
2024-05-26T22:30:14.558;599617387715050366;869.1363;9209
2024-05-26T22:30:14.565;599617387722742016;876.82794;9178
2024-05-26T22:30:14.573;599617387730433666;884.5196;9027
2024-05-26T22:30:14.581;599617387738125316;892.21124;8910
2024-05-26T22:30:14.588;599617387745816966;899.9029;8875
2024-05-26T22:30:14.596;599617387753508616;907.59454;8739
2024-05-26T22:30:14.604;599617387761200266;915.2862;8581
2024-05-26T22:30:14.611;599617387768891916;922.97784;8527
2024-05-26T22:30:14.619;599617387776583566;930.6695;8499
2024-05-26T22:30:14.627;599617387784275216;938.36115;8415
2024-05-26T22:30:14.635;599617387791966866;946.0528;8291
2024-05-26T22:30:14.642;599617387799658516;953.74445;8186
2024-05-26T22:30:14.650;599617387807350166;961.43616;8134
2024-05-26T22:30:14.658;599617387815041816;969.1278;8067
2024-05-26T22:30:14.665;599617387822733466;976.81946;7948
2024-05-26T22:30:14.673;599617387830425116;984.5111;7882
2024-05-26T22:30:14.681;599617387838116766;992.20276;7840
2024-05-26T22:30:14.688;599617387845808416;999.8944;7709
2024-05-26T22:30:14.696;599617387853500066;1007.58606;7581
2024-05-26T22:30:14.704;599617387861191716;1015.2777;7541
2024-05-26T22:30:14.711;599617387868883366;1022.96936;7511
2024-05-26T22:30:14.719;599617387876575016;1030.661;7469
2024-05-26T22:30:14.727;599617387884266666;1038.3527;7359
2024-05-26T22:30:14.735;599617387891958316;1046.0443;7107
2024-05-26T22:30:14.742;599617387899649966;1053.736;6943
2024-05-26T22:30:14.750;599617387907341616;1061.4276;6925
2024-05-26T22:30:14.758;599617387915033266;1069.1193;6859
2024-05-26T22:30:14.765;599617387922724916;1076.8109;6796
2024-05-26T22:30:14.773;599617387930416566;1084.5026;6775
2024-05-26T22:30:14.781;599617387938108216;1092.1942;6679
2024-05-26T22:30:14.788;599617387945799866;1099.8859;6530
2024-05-26T22:30:14.796;599617387953491516;1107.5775;6420
2024-05-26T22:30:14.804;599617387961183166;1115.2692;6371
2024-05-26T22:30:14.811;599617387968864796;1122.9508;6306
2024-05-26T22:30:14.819;599617387976556586;1130.6426;6205
2024-05-26T22:30:14.827;599617387984248376;1138.3344;6135
2024-05-26T22:30:14.835;599617387991940166;1146.0261;6091
2024-05-26T22:30:14.842;599617387999631956;1153.7179;6016
2024-05-26T22:30:14.850;599617388007323746;1161.4097;5967
2024-05-26T22:30:14.858;599617388015015536;1169.1014;6002
2024-05-26T22:30:14.865;599617388022707326;1176.7933;5955
2024-05-26T22:30:14.873;599617388030399116;1184.4851;5712
2024-05-26T22:30:14.881;599617388038090906;1192.1769;5556
2024-05-26T22:30:14.888;599617388045782696;1199.8687;5586
2024-05-26T22:30:14.896;599617388053474486;1207.5604;5542
2024-05-26T22:30:14.904;599617388061166276;1215.2522;5423
2024-05-26T22:30:14.911;599617388068858066;1222.944;5369
2024-05-26T22:30:14.919;599617388076549856;1230.6357;5334
2024-05-26T22:30:14.927;599617388084241646;1238.3275;5243
2024-05-26T22:30:14.935;599617388091933436;1246.0194;5138
2024-05-26T22:30:14.942;599617388099625226;1253.7112;5143
2024-05-26T22:30:14.950;599617388107317016;1261.403;5383
2024-05-26T22:30:14.958;599617388115008806;1269.0947;5780
2024-05-26T22:30:14.965;599617388122700596;1276.7865;5976
2024-05-26T22:30:14.973;599617388130392386;1284.4784;5635
2024-05-26T22:30:14.981;599617388138084176;1292.1702;4988
2024-05-26T22:30:14.988;599617388145775966;1299.8619;4680
2024-05-26T22:30:14.996;599617388153467756;1307.5537;4755
2024-05-26T22:30:15.004;599617388161159546;1315.2456;4727
2024-05-26T22:30:15.011;599617388168851336;1322.9374;4575
2024-05-26T22:30:15.019;599617388176543126;1330.6292;4538
2024-05-26T22:30:15.027;599617388184234916;1338.3209;4535
2024-05-26T22:30:15.035;599617388191926706;1346.0127;4451
2024-05-26T22:30:15.042;599617388199618496;1353.7045;4316
2024-05-26T22:30:15.050;599617388207310286;1361.3962;4190
2024-05-26T22:30:15.058;599617388215002076;1369.088;4113
2024-05-26T22:30:15.065;599617388222693866;1376.7798;4087
2024-05-26T22:30:15.073;599617388230385656;1384.4717;4073
2024-05-26T22:30:15.081;599617388238077446;1392.1635;4024
2024-05-26T22:30:15.088;599617388245769236;1399.8552;3977
2024-05-26T22:30:15.096;599617388253461026;1407.547;3961
2024-05-26T22:30:15.104;599617388261152816;1415.2388;3916
2024-05-26T22:30:15.111;599617388268844606;1422.9305;3846
2024-05-26T22:30:15.119;599617388276536396;1430.6223;3818
2024-05-26T22:30:15.127;599617388284228186;1438.3141;3828
2024-05-26T22:30:15.135;599617388291919976;1446.0059;3816
2024-05-26T22:30:15.142;599617388299611766;1453.6978;3757
2024-05-26T22:30:15.150;599617388307303556;1461.3895;3706
2024-05-26T22:30:15.158;599617388314995346;1469.0813;3687
2024-05-26T22:30:15.165;599617388322687136;1476.7731;3622
2024-05-26T22:30:15.173;599617388330378926;1484.4648;3526
2024-05-26T22:30:15.181;599617388338070716;1492.1566;3461
2024-05-26T22:30:15.188;599617388345762506;1499.8484;3379
2024-05-26T22:30:15.196;599617388353454296;1507.5403;3272
2024-05-26T22:30:15.204;599617388361146086;1515.232;3204
2024-05-26T22:30:15.211;599617388368837876;1522.9238;3181
2024-05-26T22:30:15.219;599617388376529666;1530.6157;3164
2024-05-26T22:30:15.227;599617388384221456;1538.3075;3085
2024-05-26T22:30:15.234;599617388391913246;1545.9993;2924
2024-05-26T22:30:15.242;599617388399605036;1553.691;2816
2024-05-26T22:30:15.250;599617388407296826;1561.3828;2812
2024-05-26T22:30:15.258;599617388414988616;1569.0746;2788
2024-05-26T22:30:15.265;599617388422680406;1576.7664;2744
2024-05-26T22:30:15.273;599617388430372196;1584.4581;2739
2024-05-26T22:30:15.281;599617388438063986;1592.1499;2685
2024-05-26T22:30:15.288;599617388445755776;1599.8418;2571
2024-05-26T22:30:15.296;599617388453447566;1607.5336;2536
2024-05-26T22:30:15.304;599617388461139356;1615.2253;2573
2024-05-26T22:30:15.311;599617388468831146;1622.9171;2566
2024-05-26T22:30:15.319;599617388476522936;1630.6089;2529
2024-05-26T22:30:15.327;599617388484214726;1638.3007;2508
2024-05-26T22:30:15.334;599617388491906516;1645.9924;2492
2024-05-26T22:30:15.342;599617388499598306;1653.6842;2475
2024-05-26T22:30:15.350;599617388507290096;1661.376;2457
2024-05-26T22:30:15.358;599617388514981886;1669.0679;2443
2024-05-26T22:30:15.365;599617388522673676;1676.7596;2445
2024-05-26T22:30:15.373;599617388530370518;1684.4564;2424
2024-05-26T22:30:15.381;599617388538062238;1692.1482;2375
2024-05-26T22:30:15.388;599617388545753958;1699.8398;2361
2024-05-26T22:30:15.396;599617388553445678;1707.5316;2382
2024-05-26T22:30:15.404;599617388561137398;1715.2233;2375
2024-05-26T22:30:15.411;599617388568829118;1722.915;2340
2024-05-26T22:30:15.419;599617388576520838;1730.6068;2307
2024-05-26T22:30:15.427;599617388584212558;1738.2985;2293
2024-05-26T22:30:15.434;599617388591904278;1745.9902;2249
2024-05-26T22:30:15.442;599617388599595998;1753.6819;2162
2024-05-26T22:30:15.450;599617388607287718;1761.3737;2132
2024-05-26T22:30:15.458;599617388614979438;1769.0653;2162
2024-05-26T22:30:15.465;599617388622671158;1776.7571;2132
2024-05-26T22:30:15.473;599617388630362878;1784.4489;2067
2024-05-26T22:30:15.481;599617388638054598;1792.1405;2069
2024-05-26T22:30:15.488;599617388645746318;1799.8323;2095
2024-05-26T22:30:15.496;599617388653438038;1807.5239;2067
2024-05-26T22:30:15.504;599617388661129758;1815.2157;2031
2024-05-26T22:30:15.511;599617388668821478;1822.9073;2031
2024-05-26T22:30:15.519;599617388676513198;1830.5991;2029
2024-05-26T22:30:15.527;599617388684204918;1838.2909;1992
2024-05-26T22:30:15.534;599617388691896638;1845.9825;1961
2024-05-26T22:30:15.542;599617388699588358;1853.6743;1961
2024-05-26T22:30:15.550;599617388707280078;1861.366;1952
2024-05-26T22:30:15.558;599617388714971798;1869.0577;1917
2024-05-26T22:30:15.565;599617388722663518;1876.7494;1891
2024-05-26T22:30:15.573;599617388730355238;1884.4412;1896
2024-05-26T22:30:15.581;599617388738046958;1892.1328;1898
2024-05-26T22:30:15.588;599617388745738678;1899.8246;1866
2024-05-26T22:30:15.596;599617388753430398;1907.5164;1817
2024-05-26T22:30:15.604;599617388761122118;1915.208;1810
2024-05-26T22:30:15.611;599617388768813838;1922.8998;1950
2024-05-26T22:30:15.619;599617388776505558;1930.5914;2323
2024-05-26T22:30:15.627;599617388784197278;1938.2832;2723
2024-05-26T22:30:15.634;599617388791888998;1945.9749;2671
2024-05-26T22:30:15.642;599617388799580718;1953.6667;2090
2024-05-26T22:30:15.650;599617388807272438;1961.3583;1623
2024-05-26T22:30:15.658;599617388814964158;1969.0502;1632
2024-05-26T22:30:15.665;599617388822655878;1976.742;1712
2024-05-26T22:30:15.673;599617388830347598;1984.4336;1627
2024-05-26T22:30:15.681;599617388838039318;1992.1254;1590
2024-05-26T22:30:15.688;599617388845731038;1999.817;1613
2024-05-26T22:30:15.696;599617388853422758;2007.5088;1590
2024-05-26T22:30:15.704;599617388861114478;2015.2004;1553
2024-05-26T22:30:15.711;599617388868806198;2022.8922;1543
2024-05-26T22:30:15.719;599617388876497918;2030.584;1557
2024-05-26T22:30:15.727;599617388884189638;2038.2756;1550
2024-05-26T22:30:15.734;599617388891881358;2045.9674;1455
2024-05-26T22:30:15.742;599617388899573078;2053.659;1310
2024-05-26T22:30:15.750;599617388907264798;2061.3508;1256
2024-05-26T22:30:15.758;599617388914956518;2069.0425;1277
2024-05-26T22:30:15.765;599617388922648238;2076.7341;1265
2024-05-26T22:30:15.773;599617388930339958;2084.426;1221
2024-05-26T22:30:15.781;599617388938031678;2092.1177;1191
2024-05-26T22:30:15.788;599617388945723398;2099.8093;1191
2024-05-26T22:30:15.796;599617388953415118;2107.501;1184
2024-05-26T22:30:15.804;599617388961106838;2115.1929;1186
2024-05-26T22:30:15.811;599617388968798558;2122.8845;1214
2024-05-26T22:30:15.819;599617388976490278;2130.5762;1235
2024-05-26T22:30:15.827;599617388984181998;2138.2678;1223
2024-05-26T22:30:15.834;599617388991873718;2145.9597;1205
2024-05-26T22:30:15.842;599617388999565438;2153.6514;1207
2024-05-26T22:30:15.850;599617389007257158;2161.3433;1216
2024-05-26T22:30:15.858;599617389014948878;2169.0347;1200
2024-05-26T22:30:15.865;599617389022640598;2176.7266;1149
2024-05-26T22:30:15.873;599617389030332318;2184.4182;1093
2024-05-26T22:30:15.881;599617389038024038;2192.11;1032
2024-05-26T22:30:15.888;599617389045715758;2199.8015;943
2024-05-26T22:30:15.896;599617389053407478;2207.4934;889
2024-05-26T22:30:15.904;599617389061099198;2215.185;896
2024-05-26T22:30:15.911;599617389068790918;2222.877;887
2024-05-26T22:30:15.919;599617389076482638;2230.5686;836
2024-05-26T22:30:15.927;599617389084174358;2238.2603;810
2024-05-26T22:30:15.934;599617389091886200;2245.9722;817
2024-05-26T22:30:15.942;599617389099577641;2253.6636;824
2024-05-26T22:30:15.950;599617389107269082;2261.355;812
2024-05-26T22:30:15.958;599617389114960523;2269.0466;812
2024-05-26T22:30:15.965;599617389122651964;2276.738;829
2024-05-26T22:30:15.973;599617389130343405;2284.4292;775
2024-05-26T22:30:15.981;599617389138034846;2292.1208;667
2024-05-26T22:30:15.988;599617389145726287;2299.8123;646
2024-05-26T22:30:15.996;599617389153417728;2307.5037;700
2024-05-26T22:30:16.004;599617389161109169;2315.195;707
2024-05-26T22:30:16.011;599617389168800610;2322.8867;660
2024-05-26T22:30:16.019;599617389176492051;2330.578;604
2024-05-26T22:30:16.027;599617389184183492;2338.2695;588
2024-05-26T22:30:16.034;599617389191874933;2345.961;604
2024-05-26T22:30:16.042;599617389199566374;2353.6523;614
2024-05-26T22:30:16.050;599617389207257815;2361.3438;635
2024-05-26T22:30:16.058;599617389214949256;2369.0352;663
2024-05-26T22:30:16.065;599617389222640697;2376.7268;651
2024-05-26T22:30:16.073;599617389230332138;2384.418;646
2024-05-26T22:30:16.081;599617389238023579;2392.1096;686
2024-05-26T22:30:16.088;599617389245715020;2399.801;710
2024-05-26T22:30:16.096;599617389253406461;2407.4924;700
2024-05-26T22:30:16.104;599617389261097902;2415.1838;710
2024-05-26T22:30:16.111;599617389268789343;2422.8755;731
2024-05-26T22:30:16.119;599617389276480784;2430.5667;733
2024-05-26T22:30:16.127;599617389284172225;2438.258;728
2024-05-26T22:30:16.134;599617389291863666;2445.9497;733
2024-05-26T22:30:16.142;599617389299555107;2453.6409;756
2024-05-26T22:30:16.150;599617389307246548;2461.3325;768
2024-05-26T22:30:16.158;599617389314937989;2469.024;749
2024-05-26T22:30:16.165;599617389322629430;2476.7156;749
2024-05-26T22:30:16.173;599617389330320871;2484.4067;787
2024-05-26T22:30:16.181;599617389338012312;2492.0984;822
2024-05-26T22:30:16.188;599617389345703753;2499.7898;829
2024-05-26T22:30:16.196;599617389353395194;2507.4812;812
2024-05-26T22:30:16.204;599617389361086635;2515.1726;796
2024-05-26T22:30:16.211;599617389368778076;2522.864;801
2024-05-26T22:30:16.219;599617389376469517;2530.5554;805
2024-05-26T22:30:16.227;599617389384160958;2538.2468;798
2024-05-26T22:30:16.234;599617389391852399;2545.9385;754
2024-05-26T22:30:16.242;599617389399543840;2553.6296;651
2024-05-26T22:30:16.250;599617389407235281;2561.3213;565
2024-05-26T22:30:16.258;599617389414926722;2569.0127;569
2024-05-26T22:30:16.265;599617389422618163;2576.704;721
2024-05-26T22:30:16.273;599617389430309604;2584.3955;1102
2024-05-26T22:30:16.281;599617389438001045;2592.0872;1504
2024-05-26T22:30:16.288;599617389445692486;2599.7786;1408
2024-05-26T22:30:16.296;599617389453383927;2607.4697;805
2024-05-26T22:30:16.304;599617389461075368;2615.1614;413
2024-05-26T22:30:16.311;599617389468766809;2622.8528;504
2024-05-26T22:30:16.319;599617389476458250;2630.5442;597
2024-05-26T22:30:16.327;599617389484149691;2638.2356;527
2024-05-26T22:30:16.334;599617389491841132;2645.9272;518
2024-05-26T22:30:16.342;599617389499532573;2653.6184;546
2024-05-26T22:30:16.350;599617389507224014;2661.31;539
2024-05-26T22:30:16.358;599617389514915455;2669.0015;558
2024-05-26T22:30:16.365;599617389522606896;2676.6926;586
2024-05-26T22:30:16.373;599617389530298337;2684.3843;597
2024-05-26T22:30:16.381;599617389537989778;2692.0757;614
2024-05-26T22:30:16.388;599617389545681219;2699.7673;616
2024-05-26T22:30:16.396;599617389553372660;2707.4585;600
2024-05-26T22:30:16.404;599617389561064101;2715.1501;607
2024-05-26T22:30:16.411;599617389568755542;2722.8416;642
2024-05-26T22:30:16.419;599617389576446983;2730.533;667
2024-05-26T22:30:16.427;599617389584138424;2738.2244;663
2024-05-26T22:30:16.434;599617389591829865;2745.916;653
2024-05-26T22:30:16.442;599617389599521306;2753.6072;674
2024-05-26T22:30:16.450;599617389607212747;2761.2986;707
2024-05-26T22:30:16.457;599617389614904188;2768.9902;719
2024-05-26T22:30:16.465;599617389622595629;2776.6814;733
2024-05-26T22:30:16.473;599617389630287070;2784.373;761
2024-05-26T22:30:16.481;599617389637978511;2792.0645;756
2024-05-26T22:30:16.488;599617389645669952;2799.756;714
2024-05-26T22:30:16.496;599617389653336324;2807.422;674
2024-05-26T22:30:16.504;599617389661028114;2815.114;639
2024-05-26T22:30:16.511;599617389668719904;2822.8057;579
2024-05-26T22:30:16.519;599617389676411694;2830.4976;506
2024-05-26T22:30:16.527;599617389684103484;2838.1895;469
2024-05-26T22:30:16.534;599617389691795274;2845.8813;464
2024-05-26T22:30:16.542;599617389699487064;2853.573;425
2024-05-26T22:30:16.550;599617389707178854;2861.265;331
2024-05-26T22:30:16.557;599617389714870644;2868.9568;298
2024-05-26T22:30:16.565;599617389722562434;2876.6484;326
2024-05-26T22:30:16.573;599617389730254224;2884.3403;305
2024-05-26T22:30:16.581;599617389737946014;2892.032;275
2024-05-26T22:30:16.588;599617389745637804;2899.7239;312
2024-05-26T22:30:16.596;599617389753329594;2907.4155;355
2024-05-26T22:30:16.604;599617389761021384;2915.1074;350
2024-05-26T22:30:16.611;599617389768713174;2922.799;310
2024-05-26T22:30:16.619;599617389776404964;2930.491;270
2024-05-26T22:30:16.627;599617389784096754;2938.1826;261
2024-05-26T22:30:16.634;599617389791788544;2945.8745;235
2024-05-26T22:30:16.642;599617389799480334;2953.5662;191
2024-05-26T22:30:16.650;599617389807172124;2961.258;196
2024-05-26T22:30:16.657;599617389814863914;2968.9497;214
2024-05-26T22:30:16.665;599617389822555704;2976.6418;184
2024-05-26T22:30:16.673;599617389830247494;2984.3335;165
2024-05-26T22:30:16.681;599617389837939284;2992.0254;196
2024-05-26T22:30:16.688;599617389845631074;2999.717;221
2024-05-26T22:30:16.696;599617389853322864;3007.409;221
2024-05-26T22:30:16.704;599617389861014654;3015.1006;212
2024-05-26T22:30:16.711;599617389868706444;3022.7925;210
2024-05-26T22:30:16.719;599617389876398234;3030.4841;221
2024-05-26T22:30:16.727;599617389884090024;3038.176;226
2024-05-26T22:30:16.734;599617389891781814;3045.8677;191
2024-05-26T22:30:16.742;599617389899473604;3053.5596;133
2024-05-26T22:30:16.750;599617389907165394;3061.2512;79
2024-05-26T22:30:16.757;599617389914857184;3068.943;37
2024-05-26T22:30:16.765;599617389922548974;3076.6348;32
2024-05-26T22:30:16.773;599617389930240764;3084.3267;79
2024-05-26T22:30:16.781;599617389937932554;3092.0183;112
2024-05-26T22:30:16.788;599617389945624344;3099.7102;109
2024-05-26T22:30:16.796;599617389953316134;3107.402;128
2024-05-26T22:30:16.804;599617389961007924;3115.0938;165
2024-05-26T22:30:16.811;599617389968699714;3122.786;186
2024-05-26T22:30:16.819;599617389976391504;3130.4775;205
2024-05-26T22:30:16.827;599617389984083294;3138.1694;252
2024-05-26T22:30:16.834;599617389991775084;3145.861;287
2024-05-26T22:30:16.842;599617389999466874;3153.553;275
2024-05-26T22:30:16.850;599617390007158664;3161.2446;261
2024-05-26T22:30:16.857;599617390014850454;3168.9365;287
2024-05-26T22:30:16.865;599617390022542244;3176.6282;322
2024-05-26T22:30:16.873;599617390030234034;3184.32;340
2024-05-26T22:30:16.881;599617390037925824;3192.0117;343
2024-05-26T22:30:16.888;599617390045617614;3199.7036;324
2024-05-26T22:30:16.896;599617390053309404;3207.3953;310
2024-05-26T22:30:16.904;599617390061001194;3215.0872;420
2024-05-26T22:30:16.911;599617390068692984;3222.7788;787
2024-05-26T22:30:16.919;599617390076384774;3230.4707;1254
2024-05-26T22:30:16.927;599617390084076564;3238.1624;1312
2024-05-26T22:30:16.934;599617390091768354;3245.8542;773
2024-05-26T22:30:16.942;599617390099460144;3253.546;249
2024-05-26T22:30:16.950;599617390107151934;3261.238;259
2024-05-26T22:30:16.957;599617390114843724;3268.9297;404
2024-05-26T22:30:16.965;599617390122535514;3276.6216;331
2024-05-26T22:30:16.973;599617390130227304;3284.3132;294
2024-05-26T22:30:16.981;599617390137919094;3292.0051;359
2024-05-26T22:30:16.988;599617390145610884;3299.6968;362
2024-05-26T22:30:16.996;599617390153302674;3307.3887;333
2024-05-26T22:30:17.004;599617390160994464;3315.0806;329
2024-05-26T22:30:17.011;599617390168686254;3322.7722;326
2024-05-26T22:30:17.019;599617390176378044;3330.464;345
2024-05-26T22:30:17.027;599617390184069834;3338.1558;352
2024-05-26T22:30:17.034;599617390191761624;3345.8477;336
2024-05-26T22:30:17.042;599617390199453414;3353.5393;350
2024-05-26T22:30:17.050;599617390207145204;3361.2312;385
2024-05-26T22:30:17.057;599617390214837006;3368.9229;392
2024-05-26T22:30:17.065;599617390222528796;3376.6147;404
2024-05-26T22:30:17.073;599617390230220586;3384.3064;439
2024-05-26T22:30:17.080;599617390237912376;3391.9985;420
2024-05-26T22:30:17.088;599617390245604166;3399.6902;338
2024-05-26T22:30:17.096;599617390253295956;3407.382;317
2024-05-26T22:30:17.104;599617390260987746;3415.0737;376
2024-05-26T22:30:17.111;599617390268679536;3422.7656;406
2024-05-26T22:30:17.119;599617390276371326;3430.4573;399
2024-05-26T22:30:17.127;599617390284063116;3438.1492;404
2024-05-26T22:30:17.134;599617390291754906;3445.8408;418
2024-05-26T22:30:17.142;599617390299446696;3453.5327;425
2024-05-26T22:30:17.150;599617390307138486;3461.2244;429
2024-05-26T22:30:17.157;599617390314830276;3468.9163;441
2024-05-26T22:30:17.165;599617390322522066;3476.608;443
2024-05-26T22:30:17.173;599617390330213856;3484.2998;413
2024-05-26T22:30:17.180;599617390337905646;3491.9915;378
2024-05-26T22:30:17.188;599617390345597436;3499.6833;387
2024-05-26T22:30:17.196;599617390353289226;3507.375;406
2024-05-26T22:30:17.204;599617390360981016;3515.067;397
2024-05-26T22:30:17.211;599617390368672806;3522.7585;376
2024-05-26T22:30:17.219;599617390376364596;3530.4504;366
2024-05-26T22:30:17.227;599617390384056386;3538.1426;350
2024-05-26T22:30:17.234;599617390391748176;3545.8342;317
2024-05-26T22:30:17.242;599617390399439966;3553.5261;249
2024-05-26T22:30:17.250;599617390407131756;3561.2178;144
2024-05-26T22:30:17.257;599617390414823546;3568.9097;91
2024-05-26T22:30:17.265;599617390422515336;3576.6013;98
2024-05-26T22:30:17.273;599617390430207126;3584.2932;93
2024-05-26T22:30:17.280;599617390437898916;3591.9849;105
2024-05-26T22:30:17.288;599617390445590706;3599.6768;142
2024-05-26T22:30:17.296;599617390453282496;3607.3684;142
2024-05-26T22:30:17.304;599617390460974286;3615.0603;133
2024-05-26T22:30:17.311;599617390468666076;3622.752;142
2024-05-26T22:30:17.319;599617390476357866;3630.4438;154
2024-05-26T22:30:17.327;599617390484049656;3638.1355;151
2024-05-26T22:30:17.334;599617390491741446;3645.8274;165
2024-05-26T22:30:17.342;599617390499433236;3653.519;196
2024-05-26T22:30:17.350;599617390507125026;3661.211;165
2024-05-26T22:30:17.357;599617390514816816;3668.9026;84
2024-05-26T22:30:17.365;599617390522508606;3676.5947;49
2024-05-26T22:30:17.373;599617390530200396;3684.2864;44
2024-05-26T22:30:17.380;599617390537892186;3691.9783;28
2024-05-26T22:30:17.388;599617390545583976;3699.67;14
2024-05-26T22:30:17.396;599617390553275766;3707.3618;16
2024-05-26T22:30:17.404;599617390560967556;3715.0535;16
2024-05-26T22:30:17.411;599617390568659346;3722.7454;9
2024-05-26T22:30:17.419;599617390576351136;3730.437;9
2024-05-26T22:30:17.427;599617390584042926;3738.129;35
2024-05-26T22:30:17.434;599617390591734716;3745.8206;65
2024-05-26T22:30:17.442;599617390599426506;3753.5125;74
2024-05-26T22:30:17.450;599617390607118296;3761.2043;67
2024-05-26T22:30:17.457;599617390614810086;3768.896;70
2024-05-26T22:30:17.465;599617390622501876;3776.588;91
2024-05-26T22:30:17.473;599617390630193666;3784.2795;107
2024-05-26T22:30:17.480;599617390637885456;3791.9714;109
2024-05-26T22:30:17.488;599617390645577246;3799.663;105
2024-05-26T22:30:17.496;599617390653269036;3807.355;70
2024-05-26T22:30:17.504;599617390660960826;3815.0469;21
2024-05-26T22:30:17.511;599617390668652616;3822.7388;-2
2024-05-26T22:30:17.519;599617390676344406;3830.4304;42
2024-05-26T22:30:17.527;599617390684036196;3838.1223;266
2024-05-26T22:30:17.534;599617390691727986;3845.814;707
2024-05-26T22:30:17.542;599617390699419776;3853.5059;1058
2024-05-26T22:30:17.550;599617390707111566;3861.1975;885
2024-05-26T22:30:17.557;599617390714803356;3868.8894;305
2024-05-26T22:30:17.565;599617390722495146;3876.581;-21
2024-05-26T22:30:17.573;599617390730186936;3884.273;86
2024-05-26T22:30:17.580;599617390737878726;3891.9646;163
2024-05-26T22:30:17.588;599617390745570516;3899.6565;81
2024-05-26T22:30:17.596;599617390753262306;3907.3481;72
2024-05-26T22:30:17.604;599617390760954096;3915.04;126
2024-05-26T22:30:17.611;599617390768645886;3922.7317;151
2024-05-26T22:30:17.619;599617390776352736;3930.4387;175
2024-05-26T22:30:17.627;599617390784044317;3938.1301;189
2024-05-26T22:30:17.634;599617390791735898;3945.822;179
2024-05-26T22:30:17.642;599617390799427479;3953.5134;198
2024-05-26T22:30:17.650;599617390807119060;3961.205;231
2024-05-26T22:30:17.657;599617390814810641;3968.8965;238
2024-05-26T22:30:17.665;599617390822502222;3976.5884;254
2024-05-26T22:30:17.673;599617390830193803;3984.2798;284
2024-05-26T22:30:17.680;599617390837885384;3991.9714;259
2024-05-26T22:30:17.688;599617390845576965;3999.6628;198
2024-05-26T22:30:17.696;599617390853268546;4007.3547;191
2024-05-26T22:30:17.704;599617390860960127;4015.0461;235
2024-05-26T22:30:17.711;599617390868651708;4022.7375;261
2024-05-26T22:30:17.719;599617390876343289;4030.4292;266
2024-05-26T22:30:17.727;599617390884034870;4038.1208;280
2024-05-26T22:30:17.734;599617390891726451;4045.8125;294
2024-05-26T22:30:17.742;599617390899418032;4053.504;252
2024-05-26T22:30:17.750;599617390907109613;4061.1956;179
2024-05-26T22:30:17.757;599617390914801194;4068.887;179
2024-05-26T22:30:17.765;599617390922492775;4076.5789;228
2024-05-26T22:30:17.773;599617390930184356;4084.2703;214
2024-05-26T22:30:17.780;599617390937875937;4091.962;184
2024-05-26T22:30:17.788;599617390945567518;4099.6533;207
2024-05-26T22:30:17.796;599617390953259099;4107.345;235
2024-05-26T22:30:17.804;599617390960950680;4115.0366;219
2024-05-26T22:30:17.811;599617390968642261;4122.728;196
2024-05-26T22:30:17.819;599617390976333842;4130.42;193
2024-05-26T22:30:17.827;599617390984025423;4138.1113;196
2024-05-26T22:30:17.834;599617390991717004;4145.803;198
2024-05-26T22:30:17.842;599617390999408585;4153.4946;219
2024-05-26T22:30:17.850;599617391007100166;4161.186;259
2024-05-26T22:30:17.857;599617391014791747;4168.878;275
2024-05-26T22:30:17.865;599617391022483328;4176.5693;252
2024-05-26T22:30:17.873;599617391030174909;4184.2607;252
2024-05-26T22:30:17.880;599617391037866490;4191.952;289
2024-05-26T22:30:17.888;599617391045558071;4199.644;303
2024-05-26T22:30:17.896;599617391053249652;4207.3354;291
2024-05-26T22:30:17.904;599617391060941233;4215.0273;294
2024-05-26T22:30:17.911;599617391068632814;4222.7188;298
2024-05-26T22:30:17.919;599617391076324395;4230.41;298
2024-05-26T22:30:17.927;599617391084015976;4238.102;294
2024-05-26T22:30:17.934;599617391091707557;4245.7935;291
2024-05-26T22:30:17.942;599617391099399138;4253.485;273
2024-05-26T22:30:17.950;599617391107090719;4261.177;235
2024-05-26T22:30:17.957;599617391114782300;4268.868;196
2024-05-26T22:30:17.965;599617391122473881;4276.56;193
2024-05-26T22:30:17.973;599617391130165462;4284.2515;219
2024-05-26T22:30:17.980;599617391137857043;4291.943;224
2024-05-26T22:30:17.988;599617391145548624;4299.635;182
2024-05-26T22:30:17.996;599617391153240205;4307.326;151
2024-05-26T22:30:18.004;599617391160931786;4315.0176;151
2024-05-26T22:30:18.011;599617391168623367;4322.7095;154
2024-05-26T22:30:18.019;599617391176314948;4330.401;158
2024-05-26T22:30:18.027;599617391184006529;4338.093;184
2024-05-26T22:30:18.034;599617391191698110;4345.784;214
2024-05-26T22:30:18.042;599617391199389691;4353.4756;226
2024-05-26T22:30:18.050;599617391207081272;4361.1675;205
2024-05-26T22:30:18.057;599617391214772853;4368.8584;175
2024-05-26T22:30:18.065;599617391222464434;4376.5503;154
2024-05-26T22:30:18.073;599617391230156015;4384.242;137
2024-05-26T22:30:18.080;599617391237847596;4391.9336;95
2024-05-26T22:30:18.088;599617391245539177;4399.625;51
2024-05-26T22:30:18.096;599617391253230758;4407.3164;23
2024-05-26T22:30:18.104;599617391260922339;4415.0083;-21
2024-05-26T22:30:18.111;599617391268613920;4422.7;-37
2024-05-26T22:30:18.119;599617391276305501;4430.391;130
2024-05-26T22:30:18.127;599617391283997082;4438.083;572
2024-05-26T22:30:18.134;599617391291688663;4445.775;1001
2024-05-26T22:30:18.142;599617391299380244;4453.4663;917
2024-05-26T22:30:18.150;599617391307071825;4461.1577;310
2024-05-26T22:30:18.157;599617391314763406;4468.849;-137
2024-05-26T22:30:18.165;599617391322454987;4476.541;-81
2024-05-26T22:30:18.173;599617391330146568;4484.233;35
2024-05-26T22:30:18.180;599617391337838158;4491.924;-28
2024-05-26T22:30:18.188;599617391345529739;4499.6157;-51
2024-05-26T22:30:18.196;599617391353221320;4507.3076;-4
2024-05-26T22:30:18.203;599617391360912901;4514.999;2
2024-05-26T22:30:18.211;599617391368604482;4522.6904;14
2024-05-26T22:30:18.219;599617391376296063;4530.382;65
2024-05-26T22:30:18.227;599617391383987644;4538.0737;79
2024-05-26T22:30:18.234;599617391391679225;4545.765;30
2024-05-26T22:30:18.242;599617391399370806;4553.4565;4
2024-05-26T22:30:18.250;599617391407062387;4561.1484;-44
2024-05-26T22:30:18.257;599617391414753968;4568.84;-186
2024-05-26T22:30:18.265;599617391422445549;4576.5312;-231
2024-05-26T22:30:18.273;599617391430137130;4584.223;-135
2024-05-26T22:30:18.280;599617391437828711;4591.9146;-114
2024-05-26T22:30:18.288;599617391445520292;4599.6064;-137
2024-05-26T22:30:18.296;599617391453211873;4607.298;-74
2024-05-26T22:30:18.303;599617391460903454;4614.9893;0
2024-05-26T22:30:18.311;599617391468595035;4622.681;23
2024-05-26T22:30:18.319;599617391476286616;4630.3726;51
2024-05-26T22:30:18.327;599617391483978197;4638.064;93
2024-05-26T22:30:18.334;599617391491669778;4645.756;128
2024-05-26T22:30:18.342;599617391499361359;4653.4473;156
2024-05-26T22:30:18.350;599617391507052940;4661.139;172
2024-05-26T22:30:18.357;599617391514744521;4668.8306;193
2024-05-26T22:30:18.365;599617391522436102;4676.522;217
2024-05-26T22:30:18.373;599617391530127683;4684.214;200
2024-05-26T22:30:18.380;599617391537819264;4691.905;170
2024-05-26T22:30:18.388;599617391545510845;4699.5967;179
2024-05-26T22:30:18.396;599617391553202426;4707.2886;205
2024-05-26T22:30:18.403;599617391560894007;4714.98;198
2024-05-26T22:30:18.411;599617391568585588;4722.6714;172
2024-05-26T22:30:18.419;599617391576277169;4730.363;165
2024-05-26T22:30:18.427;599617391583968750;4738.0547;184
2024-05-26T22:30:18.434;599617391591660331;4745.7466;203
2024-05-26T22:30:18.442;599617391599351912;4753.4375;212
2024-05-26T22:30:18.450;599617391607043493;4761.1294;238
2024-05-26T22:30:18.457;599617391614735074;4768.8213;266
2024-05-26T22:30:18.465;599617391622426655;4776.5127;254
2024-05-26T22:30:18.473;599617391630118236;4784.204;226
2024-05-26T22:30:18.480;599617391637809817;4791.8955;214
2024-05-26T22:30:18.488;599617391645501398;4799.5874;198
2024-05-26T22:30:18.496;599617391653192979;4807.2793;193
2024-05-26T22:30:18.503;599617391660884560;4814.97;203
2024-05-26T22:30:18.511;599617391668576141;4822.662;210
2024-05-26T22:30:18.519;599617391676267722;4830.354;221
2024-05-26T22:30:18.527;599617391683959303;4838.0454;233
2024-05-26T22:30:18.534;599617391691650884;4845.737;238
2024-05-26T22:30:18.542;599617391699342465;4853.428;259
2024-05-26T22:30:18.550;599617391707034046;4861.12;273
2024-05-26T22:30:18.557;599617391714725627;4868.812;254
2024-05-26T22:30:18.565;599617391722417208;4876.503;247
2024-05-26T22:30:18.573;599617391730108789;4884.195;277
2024-05-26T22:30:18.580;599617391737800370;4891.886;289
2024-05-26T22:30:18.588;599617391745491951;4899.5776;277
2024-05-26T22:30:18.596;599617391753183532;4907.2695;282
2024-05-26T22:30:18.603;599617391760875113;4914.961;291
2024-05-26T22:30:18.611;599617391768566694;4922.653;287
2024-05-26T22:30:18.619;599617391776258275;4930.344;291
2024-05-26T22:30:18.627;599617391783949856;4938.0356;310
2024-05-26T22:30:18.634;599617391791641437;4945.7275;331
2024-05-26T22:30:18.642;599617391799333018;4953.419;305
2024-05-26T22:30:18.650;599617391807024599;4961.1104;235
2024-05-26T22:30:18.657;599617391814716180;4968.8022;212
2024-05-26T22:30:18.665;599617391822407761;4976.4937;254
2024-05-26T22:30:18.673;599617391830099342;4984.1855;259
2024-05-26T22:30:18.680;599617391837790923;4991.877;205
2024-05-26T22:30:18.688;599617391845482504;4999.5684;165
2024-05-26T22:30:18.696;599617391853174085;5007.2603;212
2024-05-26T22:30:18.703;599617391860865666;5014.9517;478
2024-05-26T22:30:18.711;599617391868557247;5022.643;971
2024-05-26T22:30:18.719;599617391876248828;5030.335;1272
2024-05-26T22:30:18.727;599617391883940409;5038.0264;908
2024-05-26T22:30:18.734;599617391891631990;5045.718;175
2024-05-26T22:30:18.742;599617391899308534;5053.3945;-102
2024-05-26T22:30:18.750;599617391907000324;5061.0864;56
2024-05-26T22:30:18.757;599617391914692114;5068.778;-14
2024-05-26T22:30:18.765;599617391922383904;5076.4697;-233
2024-05-26T22:30:18.773;599617391930075694;5084.1616;-221
2024-05-26T22:30:18.780;599617391937767484;5091.8535;-184
2024-05-26T22:30:18.788;599617391945459274;5099.545;-289
2024-05-26T22:30:18.796;599617391953151064;5107.237;-364
2024-05-26T22:30:18.803;599617391960842854;5114.9287;-355
2024-05-26T22:30:18.811;599617391968534644;5122.6206;-324
2024-05-26T22:30:18.819;599617391976226434;5130.312;-301
2024-05-26T22:30:18.827;599617391983918224;5138.004;-294
2024-05-26T22:30:18.834;599617391991610014;5145.696;-289
2024-05-26T22:30:18.842;599617391999301804;5153.3877;-261
2024-05-26T22:30:18.850;599617392006993594;5161.0796;-228
2024-05-26T22:30:18.857;599617392014685384;5168.7715;-200
2024-05-26T22:30:18.865;599617392022377174;5176.4634;-158
2024-05-26T22:30:18.873;599617392030068964;5184.1553;-126
2024-05-26T22:30:18.880;599617392037760754;5191.8467;-128
2024-05-26T22:30:18.888;599617392045452544;5199.5386;-121
2024-05-26T22:30:18.896;599617392053144334;5207.2305;-74
2024-05-26T22:30:18.903;599617392060836124;5214.9224;-21
2024-05-26T22:30:18.911;599617392068527914;5222.6143;4
2024-05-26T22:30:18.919;599617392076219704;5230.3057;11
2024-05-26T22:30:18.926;599617392083911494;5237.9976;16
2024-05-26T22:30:18.934;599617392091603284;5245.6895;28
2024-05-26T22:30:18.942;599617392099295074;5253.3813;46
2024-05-26T22:30:18.950;599617392106986864;5261.0728;58
2024-05-26T22:30:18.957;599617392114678654;5268.7646;70
2024-05-26T22:30:18.965;599617392122370444;5276.4565;67
2024-05-26T22:30:18.973;599617392130062234;5284.1484;11
2024-05-26T22:30:18.980;599617392137754024;5291.84;-39
2024-05-26T22:30:18.988;599617392145445814;5299.5317;-11
2024-05-26T22:30:18.996;599617392153137604;5307.2236;37
2024-05-26T22:30:19.003;599617392160829394;5314.9155;46
2024-05-26T22:30:19.011;599617392168521184;5322.607;44
2024-05-26T22:30:19.019;599617392176212974;5330.299;46
2024-05-26T22:30:19.026;599617392183904764;5337.9907;60
2024-05-26T22:30:19.034;599617392191596554;5345.6826;95
2024-05-26T22:30:19.042;599617392199288344;5353.374;126
2024-05-26T22:30:19.050;599617392206980134;5361.066;149
2024-05-26T22:30:19.057;599617392214671924;5368.758;168
2024-05-26T22:30:19.065;599617392222363714;5376.4497;165
2024-05-26T22:30:19.073;599617392230055504;5384.141;161
2024-05-26T22:30:19.080;599617392237747294;5391.833;191
2024-05-26T22:30:19.088;599617392245439084;5399.525;221
2024-05-26T22:30:19.096;599617392253130874;5407.217;219
2024-05-26T22:30:19.103;599617392260822664;5414.908;221
2024-05-26T22:30:19.111;599617392268514454;5422.6;242
2024-05-26T22:30:19.119;599617392276206244;5430.292;247
2024-05-26T22:30:19.126;599617392283898034;5437.984;242
2024-05-26T22:30:19.134;599617392291589824;5445.6763;256
2024-05-26T22:30:19.142;599617392299281614;5453.3677;287
2024-05-26T22:30:19.150;599617392306973404;5461.0596;303
2024-05-26T22:30:19.157;599617392314665194;5468.7515;282
2024-05-26T22:30:19.165;599617392322356984;5476.4434;282
2024-05-26T22:30:19.173;599617392330048774;5484.135;312
2024-05-26T22:30:19.180;599617392337740564;5491.8267;317
2024-05-26T22:30:19.188;599617392345432354;5499.5186;303
2024-05-26T22:30:19.196;599617392353124144;5507.2104;310
2024-05-26T22:30:19.203;599617392360815934;5514.902;319
2024-05-26T22:30:19.211;599617392368507724;5522.5938;319
2024-05-26T22:30:19.219;599617392376199514;5530.2856;315
2024-05-26T22:30:19.226;599617392383891304;5537.9775;315
2024-05-26T22:30:19.234;599617392391583094;5545.669;317
2024-05-26T22:30:19.242;599617392399274884;5553.361;310
2024-05-26T22:30:19.250;599617392406966674;5561.0527;291
2024-05-26T22:30:19.257;599617392414658464;5568.7446;259
2024-05-26T22:30:19.265;599617392422350254;5576.436;191
2024-05-26T22:30:19.273;599617392430042044;5584.128;135
2024-05-26T22:30:19.280;599617392437733834;5591.82;123
2024-05-26T22:30:19.288;599617392445425624;5599.5117;126
2024-05-26T22:30:19.296;599617392453117414;5607.203;207
2024-05-26T22:30:19.303;599617392460809216;5614.895;534
2024-05-26T22:30:19.311;599617392468501006;5622.587;1018
2024-05-26T22:30:19.319;599617392476192796;5630.279;1191
2024-05-26T22:30:19.326;599617392483884586;5637.97;719
2024-05-26T22:30:19.334;599617392491576376;5645.662;74
2024-05-26T22:30:19.342;599617392499268166;5653.354;-53
2024-05-26T22:30:19.350;599617392506959956;5661.046;102
2024-05-26T22:30:19.357;599617392514651746;5668.7373;44
2024-05-26T22:30:19.365;599617392522343536;5676.429;-93
2024-05-26T22:30:19.373;599617392530035326;5684.121;-109
2024-05-26T22:30:19.380;599617392537727116;5691.813;-77
2024-05-26T22:30:19.388;599617392545418906;5699.505;-77
2024-05-26T22:30:19.396;599617392553110696;5707.1963;-88
2024-05-26T22:30:19.403;599617392560802486;5714.8887;-65
2024-05-26T22:30:19.411;599617392568494276;5722.5806;-21
2024-05-26T22:30:19.419;599617392576186066;5730.2725;4
2024-05-26T22:30:19.426;599617392583877856;5737.964;11
2024-05-26T22:30:19.434;599617392591569646;5745.656;7
2024-05-26T22:30:19.442;599617392599261436;5753.3477;7
2024-05-26T22:30:19.450;599617392606953226;5761.0396;7
2024-05-26T22:30:19.457;599617392614645016;5768.731;-14
2024-05-26T22:30:19.465;599617392622336806;5776.423;-56
2024-05-26T22:30:19.473;599617392630028596;5784.1147;-102
2024-05-26T22:30:19.480;599617392637720386;5791.8066;-126
2024-05-26T22:30:19.488;599617392645412176;5799.498;-123
2024-05-26T22:30:19.496;599617392653103966;5807.19;-95
2024-05-26T22:30:19.503;599617392660795756;5814.882;-65
2024-05-26T22:30:19.511;599617392668487546;5822.5737;-51
2024-05-26T22:30:19.519;599617392676179336;5830.265;-53
2024-05-26T22:30:19.526;599617392683871126;5837.957;-53
2024-05-26T22:30:19.534;599617392691562916;5845.649;-37
2024-05-26T22:30:19.542;599617392699254706;5853.341;-32
2024-05-26T22:30:19.550;599617392706946496;5861.032;-35
2024-05-26T22:30:19.557;599617392714638286;5868.724;-4
2024-05-26T22:30:19.565;599617392722330076;5876.416;25
2024-05-26T22:30:19.573;599617392730021866;5884.108;7
2024-05-26T22:30:19.580;599617392737713656;5891.7993;-18
2024-05-26T22:30:19.588;599617392745405446;5899.491;4
2024-05-26T22:30:19.596;599617392753097236;5907.183;39
2024-05-26T22:30:19.603;599617392760789026;5914.875;49
2024-05-26T22:30:19.611;599617392768480816;5922.567;51
2024-05-26T22:30:19.619;599617392776172606;5930.2583;70
2024-05-26T22:30:19.626;599617392783864396;5937.95;81
2024-05-26T22:30:19.634;599617392791556186;5945.642;84
2024-05-26T22:30:19.642;599617392799247976;5953.334;102
2024-05-26T22:30:19.650;599617392806939766;5961.0254;137
2024-05-26T22:30:19.657;599617392814631556;5968.7173;154
2024-05-26T22:30:19.665;599617392822323346;5976.409;137
2024-05-26T22:30:19.673;599617392830015136;5984.101;140
2024-05-26T22:30:19.680;599617392837706926;5991.7925;175
2024-05-26T22:30:19.688;599617392845398716;5999.485;191
2024-05-26T22:30:19.696;599617392853090506;6007.177;191
2024-05-26T22:30:19.703;599617392860782296;6014.8687;184
2024-05-26T22:30:19.711;599617392868474086;6022.56;142
2024-05-26T22:30:19.719;599617392876165876;6030.252;102
2024-05-26T22:30:19.726;599617392883857666;6037.944;116
2024-05-26T22:30:19.734;599617392891549456;6045.6357;144
2024-05-26T22:30:19.742;599617392899241246;6053.327;165
2024-05-26T22:30:19.750;599617392906933036;6061.019;175
2024-05-26T22:30:19.757;599617392914624826;6068.711;161
2024-05-26T22:30:19.765;599617392922316616;6076.403;130
2024-05-26T22:30:19.773;599617392930008406;6084.094;70
2024-05-26T22:30:19.780;599617392937700196;6091.786;25
2024-05-26T22:30:19.788;599617392945391986;6099.478;42
2024-05-26T22:30:19.796;599617392953083776;6107.17;70
2024-05-26T22:30:19.803;599617392960775566;6114.8613;70
2024-05-26T22:30:19.811;599617392968467356;6122.553;81
2024-05-26T22:30:19.819;599617392976159146;6130.245;109
2024-05-26T22:30:19.826;599617392983850936;6137.937;135
2024-05-26T22:30:19.834;599617392991542726;6145.629;179
2024-05-26T22:30:19.842;599617392999234516;6153.3203;210
2024-05-26T22:30:19.850;599617393006926306;6161.012;191
2024-05-26T22:30:19.857;599617393014618096;6168.704;184
2024-05-26T22:30:19.865;599617393022309898;6176.396;217
2024-05-26T22:30:19.873;599617393030001688;6184.0874;235
2024-05-26T22:30:19.880;599617393037693478;6191.7793;231
2024-05-26T22:30:19.888;599617393045385268;6199.471;235
2024-05-26T22:30:19.896;599617393053077058;6207.163;212
2024-05-26T22:30:19.903;599617393060768848;6214.8545;114
2024-05-26T22:30:19.911;599617393068460638;6222.5464;74
2024-05-26T22:30:19.919;599617393076152428;6230.2383;331
2024-05-26T22:30:19.926;599617393083844218;6237.93;833
2024-05-26T22:30:19.934;599617393091536008;6245.6216;1118
2024-05-26T22:30:19.942;599617393099227798;6253.3135;791
2024-05-26T22:30:19.950;599617393106919588;6261.0054;179
2024-05-26T22:30:19.957;599617393114611378;6268.6973;-63
2024-05-26T22:30:19.965;599617393122303168;6276.389;21
2024-05-26T22:30:19.973;599617393129994958;6284.081;28
2024-05-26T22:30:19.980;599617393137686748;6291.773;-21
2024-05-26T22:30:19.988;599617393145378538;6299.465;-4
2024-05-26T22:30:19.996;599617393153070328;6307.1562;-21
2024-05-26T22:30:20.003;599617393160762118;6314.848;-51
2024-05-26T22:30:20.011;599617393168453908;6322.54;-4
2024-05-26T22:30:20.019;599617393176145698;6330.232;44
2024-05-26T22:30:20.026;599617393183837488;6337.924;32
2024-05-26T22:30:20.034;599617393191529278;6345.615;25
2024-05-26T22:30:20.042;599617393199221068;6353.307;51
2024-05-26T22:30:20.049;599617393206912858;6360.999;72
2024-05-26T22:30:20.057;599617393214604648;6368.691;79
2024-05-26T22:30:20.065;599617393222296438;6376.3823;105
2024-05-26T22:30:20.073;599617393229988228;6384.074;140
2024-05-26T22:30:20.080;599617393237680018;6391.766;133
2024-05-26T22:30:20.088;599617393245371808;6399.458;121
2024-05-26T22:30:20.096;599617393253063598;6407.1494;163
2024-05-26T22:30:20.103;599617393260755388;6414.8413;207
2024-05-26T22:30:20.111;599617393268447178;6422.533;193
2024-05-26T22:30:20.119;599617393276138968;6430.225;149
2024-05-26T22:30:20.126;599617393283830758;6437.9165;119
2024-05-26T22:30:20.134;599617393291522548;6445.6084;98
2024-05-26T22:30:20.142;599617393299214338;6453.3003;63
2024-05-26T22:30:20.149;599617393306906128;6460.992;32
2024-05-26T22:30:20.157;599617393314597918;6468.6836;35
2024-05-26T22:30:20.165;599617393322289708;6476.3755;51
2024-05-26T22:30:20.173;599617393329981498;6484.0674;25
2024-05-26T22:30:20.180;599617393337673288;6491.7593;-7
2024-05-26T22:30:20.188;599617393345365078;6499.4507;2
2024-05-26T22:30:20.196;599617393353056868;6507.1426;11
2024-05-26T22:30:20.203;599617393360748658;6514.8345;-25
2024-05-26T22:30:20.211;599617393368440448;6522.5264;-65
2024-05-26T22:30:20.219;599617393376132238;6530.218;-63
2024-05-26T22:30:20.226;599617393383824028;6537.9097;-44
2024-05-26T22:30:20.234;599617393391515818;6545.6016;-39
2024-05-26T22:30:20.242;599617393399207608;6553.294;-25
2024-05-26T22:30:20.249;599617393406899398;6560.986;7
2024-05-26T22:30:20.257;599617393414591188;6568.6772;32
2024-05-26T22:30:20.265;599617393422282978;6576.369;25
2024-05-26T22:30:20.273;599617393429974768;6584.061;-35
2024-05-26T22:30:20.280;599617393437666558;6591.753;-88
2024-05-26T22:30:20.288;599617393445358348;6599.4443;-67
2024-05-26T22:30:20.296;599617393453050138;6607.136;-39
2024-05-26T22:30:20.303;599617393460741928;6614.828;-42
2024-05-26T22:30:20.311;599617393468433718;6622.52;-23
2024-05-26T22:30:20.319;599617393476125508;6630.2114;2
2024-05-26T22:30:20.326;599617393483817298;6637.9033;7
2024-05-26T22:30:20.334;599617393491509088;6645.595;21
2024-05-26T22:30:20.342;599617393499200878;6653.287;60
2024-05-26T22:30:20.349;599617393506892668;6660.9785;86
2024-05-26T22:30:20.357;599617393514584458;6668.6704;74
2024-05-26T22:30:20.365;599617393522276248;6676.3623;79
2024-05-26T22:30:20.373;599617393529968038;6684.054;121
2024-05-26T22:30:20.380;599617393537659828;6691.7456;147
2024-05-26T22:30:20.388;599617393545351618;6699.4375;144
2024-05-26T22:30:20.396;599617393553043408;6707.1294;154
2024-05-26T22:30:20.403;599617393560735198;6714.8213;170
2024-05-26T22:30:20.411;599617393568426988;6722.5127;175
2024-05-26T22:30:20.419;599617393576118778;6730.2046;177
2024-05-26T22:30:20.426;599617393583810580;6737.8965;193
2024-05-26T22:30:20.434;599617393591502370;6745.5884;217
2024-05-26T22:30:20.442;599617393599194160;6753.28;221
2024-05-26T22:30:20.449;599617393606885950;6760.9717;175
2024-05-26T22:30:20.457;599617393614577740;6768.6636;140
2024-05-26T22:30:20.465;599617393622269530;6776.3555;170
2024-05-26T22:30:20.473;599617393629961320;6784.047;163
2024-05-26T22:30:20.480;599617393637653110;6791.739;86
2024-05-26T22:30:20.488;599617393645344900;6799.4307;81
2024-05-26T22:30:20.496;599617393653036690;6807.1226;128
2024-05-26T22:30:20.503;599617393660728480;6814.814;112
2024-05-26T22:30:20.511;599617393668420270;6822.506;100
2024-05-26T22:30:20.519;599617393676112060;6830.198;147
2024-05-26T22:30:20.526;599617393683803850;6837.89;184
2024-05-26T22:30:20.534;599617393691495640;6845.582;175
2024-05-26T22:30:20.542;599617393699187430;6853.2734;154
2024-05-26T22:30:20.549;599617393706879220;6860.9653;144
2024-05-26T22:30:20.557;599617393714571010;6868.657;161
2024-05-26T22:30:20.565;599617393722262800;6876.349;284
2024-05-26T22:30:20.573;599617393729954590;6884.0405;649
2024-05-26T22:30:20.580;599617393737646380;6891.7324;1095
2024-05-26T22:30:20.588;599617393745338170;6899.4243;1114
2024-05-26T22:30:20.596;599617393753029960;6907.116;569
2024-05-26T22:30:20.603;599617393760721750;6914.8076;114
2024-05-26T22:30:20.611;599617393768413540;6922.4995;161
2024-05-26T22:30:20.619;599617393776105330;6930.1914;270
2024-05-26T22:30:20.626;599617393783797120;6937.8833;172
2024-05-26T22:30:20.634;599617393791488910;6945.5747;133
2024-05-26T22:30:20.642;599617393799180700;6953.2666;200
2024-05-26T22:30:20.649;599617393806872490;6960.9585;212
2024-05-26T22:30:20.657;599617393814564280;6968.6504;161
2024-05-26T22:30:20.665;599617393822256070;6976.342;130
2024-05-26T22:30:20.673;599617393829947860;6984.0337;133
2024-05-26T22:30:20.680;599617393837639650;6991.7256;130
2024-05-26T22:30:20.688;599617393845331440;6999.4175;100
2024-05-26T22:30:20.696;599617393853023230;7007.109;65
2024-05-26T22:30:20.703;599617393860715020;7014.801;44
2024-05-26T22:30:20.711;599617393868406810;7022.4927;53
2024-05-26T22:30:20.719;599617393876098600;7030.1846;63
2024-05-26T22:30:20.726;599617393883790390;7037.8765;65
2024-05-26T22:30:20.734;599617393891482180;7045.568;84
2024-05-26T22:30:20.742;599617393899173970;7053.26;109
2024-05-26T22:30:20.749;599617393906865760;7060.9517;123
2024-05-26T22:30:20.757;599617393914557550;7068.6436;149
2024-05-26T22:30:20.765;599617393922249340;7076.335;168
2024-05-26T22:30:20.773;599617393929941130;7084.027;93
2024-05-26T22:30:20.780;599617393937632920;7091.7188;-28
2024-05-26T22:30:20.788;599617393945324710;7099.4106;-49
2024-05-26T22:30:20.796;599617393953016500;7107.102;-28
2024-05-26T22:30:20.803;599617393960708290;7114.7944;-72
2024-05-26T22:30:20.811;599617393968400080;7122.4863;-116
2024-05-26T22:30:20.819;599617393976091870;7130.178;-112
2024-05-26T22:30:20.826;599617393983783660;7137.8696;-105
2024-05-26T22:30:20.834;599617393991475450;7145.5615;-114
2024-05-26T22:30:20.842;599617393999167240;7153.2534;-121
2024-05-26T22:30:20.849;599617394006859030;7160.9453;-112
2024-05-26T22:30:20.857;599617394014550820;7168.6367;-105
2024-05-26T22:30:20.865;599617394022242610;7176.3286;-130
2024-05-26T22:30:20.873;599617394029934400;7184.0205;-144
2024-05-26T22:30:20.880;599617394037626190;7191.7124;-105
2024-05-26T22:30:20.888;599617394045317980;7199.404;-74
2024-05-26T22:30:20.896;599617394053009770;7207.0957;-84
2024-05-26T22:30:20.903;599617394060701560;7214.7876;-79
2024-05-26T22:30:20.911;599617394068393350;7222.4795;-56
2024-05-26T22:30:20.919;599617394076085140;7230.171;-49
2024-05-26T22:30:20.926;599617394083776930;7237.863;-42
2024-05-26T22:30:20.934;599617394091468720;7245.5547;-28
2024-05-26T22:30:20.942;599617394099160510;7253.2466;-44
2024-05-26T22:30:20.949;599617394106852300;7260.9385;-79
2024-05-26T22:30:20.957;599617394114544090;7268.63;-93
2024-05-26T22:30:20.965;599617394122235880;7276.322;-70
2024-05-26T22:30:20.973;599617394129927670;7284.0137;-32
2024-05-26T22:30:20.980;599617394137619460;7291.7056;-7
2024-05-26T22:30:20.988;599617394145311262;7299.397;4
2024-05-26T22:30:20.996;599617394153003052;7307.089;14
2024-05-26T22:30:21.003;599617394160694842;7314.781;32
2024-05-26T22:30:21.011;599617394168386632;7322.4727;53
2024-05-26T22:30:21.019;599617394176078422;7330.164;70
2024-05-26T22:30:21.026;599617394183770212;7337.856;93
2024-05-26T22:30:21.034;599617394191462002;7345.548;123
2024-05-26T22:30:21.042;599617394199153792;7353.2397;130
2024-05-26T22:30:21.049;599617394206845582;7360.931;112
2024-05-26T22:30:21.057;599617394214537372;7368.623;119
2024-05-26T22:30:21.065;599617394222229162;7376.315;156
2024-05-26T22:30:21.073;599617394229920952;7384.0073;137
2024-05-26T22:30:21.080;599617394237612742;7391.6987;72
2024-05-26T22:30:21.088;599617394245304532;7399.3906;63
2024-05-26T22:30:21.096;599617394252996322;7407.0825;91
2024-05-26T22:30:21.103;599617394260688112;7414.7744;88
2024-05-26T22:30:21.111;599617394268379902;7422.466;91
2024-05-26T22:30:21.119;599617394276071692;7430.1577;126
2024-05-26T22:30:21.126;599617394283763482;7437.8496;163
2024-05-26T22:30:21.134;599617394291455272;7445.5415;182
2024-05-26T22:30:21.142;599617394299147062;7453.233;179
2024-05-26T22:30:21.149;599617394306838852;7460.925;186
2024-05-26T22:30:21.157;599617394314530642;7468.6167;207
2024-05-26T22:30:21.165;599617394322222432;7476.3086;217
2024-05-26T22:30:21.173;599617394329914222;7484.0005;214
2024-05-26T22:30:21.180;599617394337606012;7491.692;226
2024-05-26T22:30:21.188;599617394345297802;7499.384;200
2024-05-26T22:30:21.196;599617394352989592;7507.0757;128
2024-05-26T22:30:21.203;599617394360681382;7514.7676;93
2024-05-26T22:30:21.211;599617394368373172;7522.459;149
2024-05-26T22:30:21.219;599617394376064962;7530.151;350
2024-05-26T22:30:21.226;599617394383756752;7537.843;759
2024-05-26T22:30:21.234;599617394391448542;7545.5347;1111
2024-05-26T22:30:21.242;599617394399140332;7553.226;952
2024-05-26T22:30:21.249;599617394406832122;7560.918;376
2024-05-26T22:30:21.257;599617394414523912;7568.61;49
2024-05-26T22:30:21.265;599617394422215702;7576.302;158
2024-05-26T22:30:21.272;599617394429907492;7583.993;226
2024-05-26T22:30:21.280;599617394437599282;7591.685;65
2024-05-26T22:30:21.288;599617394445291072;7599.377;-39
2024-05-26T22:30:21.296;599617394452982862;7607.069;16
2024-05-26T22:30:21.303;599617394460674652;7614.7603;51
2024-05-26T22:30:21.311;599617394468366442;7622.452;7
2024-05-26T22:30:21.319;599617394476058232;7630.144;-21
2024-05-26T22:30:21.326;599617394483750022;7637.836;-11
2024-05-26T22:30:21.334;599617394491441812;7645.5273;7
2024-05-26T22:30:21.342;599617394499133602;7653.219;21
2024-05-26T22:30:21.349;599617394506825392;7660.911;25
2024-05-26T22:30:21.357;599617394514517182;7668.6035;46
2024-05-26T22:30:21.365;599617394522208972;7676.2954;77
2024-05-26T22:30:21.372;599617394529900762;7683.987;70
2024-05-26T22:30:21.380;599617394537592552;7691.6787;65
2024-05-26T22:30:21.388;599617394545284342;7699.3706;112
2024-05-26T22:30:21.396;599617394552976132;7707.0625;154
2024-05-26T22:30:21.403;599617394560667922;7714.754;163
2024-05-26T22:30:21.411;599617394568359712;7722.446;168
2024-05-26T22:30:21.419;599617394576051502;7730.1377;182
2024-05-26T22:30:21.426;599617394583743292;7737.8296;191
2024-05-26T22:30:21.434;599617394591435082;7745.521;154
2024-05-26T22:30:21.442;599617394599126872;7753.213;95
2024-05-26T22:30:21.449;599617394606818662;7760.905;79
2024-05-26T22:30:21.457;599617394614510452;7768.5967;56
2024-05-26T22:30:21.465;599617394622202242;7776.288;7
2024-05-26T22:30:21.472;599617394629894032;7783.98;-7
2024-05-26T22:30:21.480;599617394637585822;7791.672;2
2024-05-26T22:30:21.488;599617394645277612;7799.364;-4
2024-05-26T22:30:21.496;599617394652969402;7807.055;-18
2024-05-26T22:30:21.503;599617394660661192;7814.747;-28
2024-05-26T22:30:21.511;599617394668352982;7822.439;-44
2024-05-26T22:30:21.519;599617394676044772;7830.131;-53
2024-05-26T22:30:21.526;599617394683736562;7837.8223;-44
2024-05-26T22:30:21.534;599617394691428352;7845.514;-25
2024-05-26T22:30:21.542;599617394699120142;7853.206;0
2024-05-26T22:30:21.549;599617394706822024;7860.908;23
2024-05-26T22:30:21.557;599617394714513674;7868.5996;14
2024-05-26T22:30:21.565;599617394722205324;7876.291;9
2024-05-26T22:30:21.572;599617394729896974;7883.983;49
2024-05-26T22:30:21.580;599617394737588624;7891.675;81
2024-05-26T22:30:21.588;599617394745280274;7899.366;81
2024-05-26T22:30:21.596;599617394752971924;7907.0576;86
2024-05-26T22:30:21.603;599617394760663574;7914.7495;98
2024-05-26T22:30:21.611;599617394768355224;7922.4414;60
2024-05-26T22:30:21.619;599617394776046874;7930.133;-9
2024-05-26T22:30:21.626;599617394783738524;7937.824;-16
2024-05-26T22:30:21.634;599617394791430174;7945.516;30
2024-05-26T22:30:21.642;599617394799121824;7953.208;42
2024-05-26T22:30:21.649;599617394806813474;7960.8994;18
2024-05-26T22:30:21.657;599617394814505124;7968.591;30
2024-05-26T22:30:21.665;599617394822196774;7976.2827;77
2024-05-26T22:30:21.672;599617394829888424;7983.9746;102
2024-05-26T22:30:21.680;599617394837580074;7991.666;86
2024-05-26T22:30:21.688;599617394845271724;7999.3574;63
2024-05-26T22:30:21.696;599617394852963374;8007.0493;63
2024-05-26T22:30:21.703;599617394860655024;8014.741;74
2024-05-26T22:30:21.711;599617394868346674;8022.4326;88
2024-05-26T22:30:21.719;599617394876038324;8030.124;119
2024-05-26T22:30:21.726;599617394883729974;8037.816;154
2024-05-26T22:30:21.734;599617394891421624;8045.508;154
2024-05-26T22:30:21.742;599617394899113274;8053.199;130
2024-05-26T22:30:21.749;599617394906804924;8060.891;140
2024-05-26T22:30:21.757;599617394914496574;8068.5825;189
2024-05-26T22:30:21.765;599617394922188224;8076.2744;212
2024-05-26T22:30:21.772;599617394929879874;8083.966;207
2024-05-26T22:30:21.780;599617394937571524;8091.6577;184
2024-05-26T22:30:21.788;599617394945263174;8099.349;109
2024-05-26T22:30:21.796;599617394952954824;8107.0405;56
2024-05-26T22:30:21.803;599617394960646474;8114.7324;81
2024-05-26T22:30:21.811;599617394968338124;8122.4243;123
2024-05-26T22:30:21.819;599617394976029774;8130.1157;142
2024-05-26T22:30:21.826;599617394983721424;8137.807;144
2024-05-26T22:30:21.834;599617394991413074;8145.499;140
2024-05-26T22:30:21.842;599617394999104724;8153.191;140
2024-05-26T22:30:21.849;599617395006796374;8160.8823;135
2024-05-26T22:30:21.857;599617395014488024;8168.5737;207
2024-05-26T22:30:21.865;599617395022179674;8176.2656;530
2024-05-26T22:30:21.872;599617395029871324;8183.9575;1030
2024-05-26T22:30:21.880;599617395037562974;8191.649;1223
2024-05-26T22:30:21.888;599617395045254624;8199.341;777
2024-05-26T22:30:21.896;599617395052946274;8207.032;172
2024-05-26T22:30:21.903;599617395060637924;8214.724;79
2024-05-26T22:30:21.911;599617395068329574;8222.415;249
2024-05-26T22:30:21.919;599617395076021224;8230.107;189
2024-05-26T22:30:21.926;599617395083712874;8237.799;63
2024-05-26T22:30:21.934;599617395091404524;8245.49;70
2024-05-26T22:30:21.942;599617395099096174;8253.182;88
2024-05-26T22:30:21.949;599617395106787824;8260.874;58
2024-05-26T22:30:21.957;599617395114479474;8268.565;39
2024-05-26T22:30:21.965;599617395122171124;8276.257;51
2024-05-26T22:30:21.972;599617395129862774;8283.948;42
2024-05-26T22:30:21.980;599617395137554424;8291.641;25
2024-05-26T22:30:21.988;599617395145246074;8299.332;56
2024-05-26T22:30:21.996;599617395152937724;8307.023;98
2024-05-26T22:30:22.003;599617395160629374;8314.715;107
2024-05-26T22:30:22.011;599617395168321024;8322.407;105
2024-05-26T22:30:22.019;599617395176012674;8330.099;112
2024-05-26T22:30:22.026;599617395183704324;8337.79;128
2024-05-26T22:30:22.034;599617395191395974;8345.481;149
2024-05-26T22:30:22.042;599617395199087624;8353.174;175
2024-05-26T22:30:22.049;599617395206779274;8360.865;205
2024-05-26T22:30:22.057;599617395214470924;8368.557;231
2024-05-26T22:30:22.065;599617395222162574;8376.248;214
2024-05-26T22:30:22.072;599617395229854224;8383.94;170
2024-05-26T22:30:22.080;599617395237545874;8391.632;154
2024-05-26T22:30:22.088;599617395245237524;8399.323;149
2024-05-26T22:30:22.096;599617395252929174;8407.015;100
2024-05-26T22:30:22.103;599617395260620824;8414.707;46
2024-05-26T22:30:22.111;599617395268322540;8422.409;37
2024-05-26T22:30:22.119;599617395276014051;8430.1;35
2024-05-26T22:30:22.126;599617395283705562;8437.792;18
2024-05-26T22:30:22.134;599617395291397073;8445.483;14
2024-05-26T22:30:22.142;599617395299088584;8453.175;28
2024-05-26T22:30:22.149;599617395306780095;8460.866;-2
2024-05-26T22:30:22.157;599617395314471606;8468.558;-98
2024-05-26T22:30:22.165;599617395322163117;8476.249;-151
2024-05-26T22:30:22.172;599617395329854628;8483.94;-147
2024-05-26T22:30:22.180;599617395337546139;8491.632;-165
2024-05-26T22:30:22.188;599617395345237650;8499.323;-172
2024-05-26T22:30:22.196;599617395352929161;8507.016;-133
2024-05-26T22:30:22.203;599617395360620672;8514.706;-107
2024-05-26T22:30:22.211;599617395368312183;8522.398;-112
2024-05-26T22:30:22.219;599617395376003694;8530.09;-91
2024-05-26T22:30:22.226;599617395383695205;8537.781;-44
2024-05-26T22:30:22.234;599617395391386716;8545.473;-7
2024-05-26T22:30:22.242;599617395399078227;8553.164;0
2024-05-26T22:30:22.249;599617395406769738;8560.855;-11
2024-05-26T22:30:22.257;599617395414461249;8568.547;2
2024-05-26T22:30:22.265;599617395422152760;8576.238;39
2024-05-26T22:30:22.272;599617395429844271;8583.931;63
2024-05-26T22:30:22.280;599617395437535782;8591.622;58
2024-05-26T22:30:22.288;599617395445227293;8599.313;4
2024-05-26T22:30:22.296;599617395452918804;8607.005;-77
2024-05-26T22:30:22.303;599617395460610315;8614.696;-86
2024-05-26T22:30:22.311;599617395468301826;8622.389;-39
2024-05-26T22:30:22.319;599617395475993337;8630.079;-9
2024-05-26T22:30:22.326;599617395483684848;8637.7705;18
2024-05-26T22:30:22.334;599617395491376359;8645.462;35
2024-05-26T22:30:22.342;599617395499067870;8653.154;30
2024-05-26T22:30:22.349;599617395506759381;8660.846;49
2024-05-26T22:30:22.357;599617395514450892;8668.537;93
2024-05-26T22:30:22.365;599617395522142403;8676.229;107
2024-05-26T22:30:22.372;599617395529833914;8683.92;116
2024-05-26T22:30:22.380;599617395537525425;8691.611;151
2024-05-26T22:30:22.388;599617395545216936;8699.303;161
2024-05-26T22:30:22.395;599617395552908447;8706.994;144
2024-05-26T22:30:22.403;599617395560599958;8714.686;156
2024-05-26T22:30:22.411;599617395568291469;8722.378;184
2024-05-26T22:30:22.419;599617395575982980;8730.069;165
2024-05-26T22:30:22.426;599617395583674491;8737.761;121
2024-05-26T22:30:22.434;599617395591366002;8745.451;119
2024-05-26T22:30:22.442;599617395599057513;8753.144;163
2024-05-26T22:30:22.449;599617395606749024;8760.835;193
2024-05-26T22:30:22.457;599617395614440535;8768.526;191
2024-05-26T22:30:22.465;599617395622132046;8776.218;196
2024-05-26T22:30:22.472;599617395629823557;8783.91;228
2024-05-26T22:30:22.480;599617395637515068;8791.602;231
2024-05-26T22:30:22.488;599617395645206579;8799.292;217
2024-05-26T22:30:22.495;599617395652898090;8806.983;238
2024-05-26T22:30:22.503;599617395660589601;8814.676;259
2024-05-26T22:30:22.511;599617395668281112;8822.367;235
2024-05-26T22:30:22.519;599617395675972623;8830.059;252
2024-05-26T22:30:22.526;599617395683664134;8837.75;481
2024-05-26T22:30:22.534;599617395691355645;8845.442;948
2024-05-26T22:30:22.542;599617395699047156;8853.134;1284
2024-05-26T22:30:22.549;599617395706738667;8860.824;1020
2024-05-26T22:30:22.557;599617395714430178;8868.516;411
2024-05-26T22:30:22.565;599617395722121689;8876.208;158
2024-05-26T22:30:22.572;599617395729813200;8883.899;231
2024-05-26T22:30:22.580;599617395737504711;8891.591;170
2024-05-26T22:30:22.588;599617395745196222;8899.282;86
2024-05-26T22:30:22.595;599617395752887733;8906.974;142
2024-05-26T22:30:22.603;599617395760579244;8914.665;163
2024-05-26T22:30:22.611;599617395768270755;8922.356;126
2024-05-26T22:30:22.619;599617395775962266;8930.048;130
2024-05-26T22:30:22.626;599617395783653777;8937.739;158
2024-05-26T22:30:22.634;599617395791345288;8945.432;158
2024-05-26T22:30:22.642;599617395799036799;8953.123;158
2024-05-26T22:30:22.649;599617395806728310;8960.814;186
2024-05-26T22:30:22.657;599617395814419821;8968.505;207
2024-05-26T22:30:22.665;599617395822111332;8976.197;165
2024-05-26T22:30:22.672;599617395829782790;8983.868;123
2024-05-26T22:30:22.680;599617395837474580;8991.561;147
2024-05-26T22:30:22.688;599617395845166370;8999.252;170
2024-05-26T22:30:22.695;599617395852858160;9006.944;130
2024-05-26T22:30:22.703;599617395860549950;9014.636;100
2024-05-26T22:30:22.711;599617395868241740;9022.328;77
2024-05-26T22:30:22.719;599617395875933530;9030.02;14
2024-05-26T22:30:22.726;599617395883625320;9037.711;-65
2024-05-26T22:30:22.734;599617395891317110;9045.402;-98
2024-05-26T22:30:22.742;599617395899008900;9053.095;-77
2024-05-26T22:30:22.749;599617395906700690;9060.786;-65
2024-05-26T22:30:22.757;599617395914392480;9068.479;-95
2024-05-26T22:30:22.765;599617395922084270;9076.17;-95
2024-05-26T22:30:22.772;599617395929776060;9083.862;-56
2024-05-26T22:30:22.780;599617395937467850;9091.555;-39
2024-05-26T22:30:22.788;599617395945159640;9099.245;-63
2024-05-26T22:30:22.795;599617395952851430;9106.9375;-126
2024-05-26T22:30:22.803;599617395960543220;9114.629;-207
2024-05-26T22:30:22.811;599617395968235010;9122.321;-226
2024-05-26T22:30:22.819;599617395975926800;9130.013;-193
2024-05-26T22:30:22.826;599617395983618590;9137.705;-163
2024-05-26T22:30:22.834;599617395991310380;9145.396;-130
2024-05-26T22:30:22.842;599617395999002170;9153.089;-112
2024-05-26T22:30:22.849;599617396006693960;9160.779;-121
2024-05-26T22:30:22.857;599617396014385750;9168.472;-105
2024-05-26T22:30:22.865;599617396022077540;9176.163;-56
2024-05-26T22:30:22.872;599617396029769330;9183.855;-25
2024-05-26T22:30:22.880;599617396037461120;9191.547;-21
2024-05-26T22:30:22.888;599617396045152910;9199.239;-11
2024-05-26T22:30:22.895;599617396052844700;9206.931;4
2024-05-26T22:30:22.903;599617396060536490;9214.623;23
2024-05-26T22:30:22.911;599617396068228280;9222.314;18
2024-05-26T22:30:22.919;599617396075920070;9230.006;0
2024-05-26T22:30:22.926;599617396083611860;9237.697;21
2024-05-26T22:30:22.934;599617396091303650;9245.39;39
2024-05-26T22:30:22.942;599617396098995440;9253.081;18
2024-05-26T22:30:22.949;599617396106687230;9260.773;32
2024-05-26T22:30:22.957;599617396114379020;9268.465;84
2024-05-26T22:30:22.965;599617396122070810;9276.157;100
2024-05-26T22:30:22.972;599617396129762600;9283.849;100
2024-05-26T22:30:22.980;599617396137454390;9291.54;116
2024-05-26T22:30:22.988;599617396145146180;9299.231;128
2024-05-26T22:30:22.995;599617396152837970;9306.924;128
2024-05-26T22:30:23.003;599617396160529760;9314.615;147
2024-05-26T22:30:23.011;599617396168221550;9322.308;184
2024-05-26T22:30:23.018;599617396175913340;9329.999;207
2024-05-26T22:30:23.026;599617396183605130;9337.691;205
2024-05-26T22:30:23.034;599617396191296920;9345.383;203
2024-05-26T22:30:23.042;599617396198988710;9353.074;221
2024-05-26T22:30:23.049;599617396206680500;9360.766;245
2024-05-26T22:30:23.057;599617396214372290;9368.458;249
2024-05-26T22:30:23.065;599617396222064080;9376.15;252
2024-05-26T22:30:23.072;599617396229755870;9383.842;270
2024-05-26T22:30:23.080;599617396237447660;9391.534;268
2024-05-26T22:30:23.088;599617396245139450;9399.226;249
2024-05-26T22:30:23.095;599617396252831240;9406.918;270
2024-05-26T22:30:23.103;599617396260523030;9414.609;310
2024-05-26T22:30:23.111;599617396268214820;9422.301;326
2024-05-26T22:30:23.118;599617396275906610;9429.992;333
2024-05-26T22:30:23.126;599617396283598400;9437.685;333
2024-05-26T22:30:23.134;599617396291290190;9445.376;329
2024-05-26T22:30:23.142;599617396298981980;9453.068;333
2024-05-26T22:30:23.149;599617396306673770;9460.76;331
2024-05-26T22:30:23.157;599617396314365560;9468.452;294
2024-05-26T22:30:23.165;599617396322057350;9476.144;217
2024-05-26T22:30:23.172;599617396329749140;9483.835;137
2024-05-26T22:30:23.180;599617396337440930;9491.526;88
2024-05-26T22:30:23.188;599617396345132720;9499.219;91
2024-05-26T22:30:23.195;599617396352824510;9506.91;224
2024-05-26T22:30:23.203;599617396360516300;9514.603;583
2024-05-26T22:30:23.211;599617396368208090;9522.294;1011
2024-05-26T22:30:23.218;599617396375899880;9529.986;1046
2024-05-26T22:30:23.226;599617396383591670;9537.678;532
2024-05-26T22:30:23.234;599617396391308600;9545.395;42
2024-05-26T22:30:23.242;599617396399000041;9553.087;44
2024-05-26T22:30:23.249;599617396406691482;9560.777;168
2024-05-26T22:30:23.257;599617396414382923;9568.469;88
2024-05-26T22:30:23.265;599617396422074364;9576.16;-16
2024-05-26T22:30:23.272;599617396429765805;9583.852;-37
2024-05-26T22:30:23.280;599617396437457246;9591.543;-30
2024-05-26T22:30:23.288;599617396445148687;9599.235;-37
2024-05-26T22:30:23.295;599617396452840128;9606.927;-84
2024-05-26T22:30:23.303;599617396460531569;9614.617;-179
2024-05-26T22:30:23.311;599617396468223010;9622.309;-266
2024-05-26T22:30:23.319;599617396475914451;9630.0;-263
2024-05-26T22:30:23.326;599617396483605892;9637.691;-240
2024-05-26T22:30:23.334;599617396491297333;9645.384;-235
2024-05-26T22:30:23.342;599617396498988774;9653.075;-205
2024-05-26T22:30:23.349;599617396506680215;9660.767;-179
2024-05-26T22:30:23.357;599617396514371656;9668.457;-184
2024-05-26T22:30:23.365;599617396522063097;9676.148;-168
2024-05-26T22:30:23.372;599617396529754538;9683.84;-119
2024-05-26T22:30:23.380;599617396537445979;9691.532;-88
2024-05-26T22:30:23.388;599617396545137420;9699.224;-74
2024-05-26T22:30:23.395;599617396552828861;9706.915;-58
2024-05-26T22:30:23.403;599617396560520302;9714.606;-79
2024-05-26T22:30:23.411;599617396568211743;9722.297;-119
2024-05-26T22:30:23.418;599617396575903184;9729.989;-107
2024-05-26T22:30:23.426;599617396583594625;9737.681;-65
2024-05-26T22:30:23.434;599617396591286066;9745.372;-35
2024-05-26T22:30:23.442;599617396598977507;9753.063;-21
2024-05-26T22:30:23.449;599617396606668948;9760.755;-30
2024-05-26T22:30:23.457;599617396614360389;9768.446;-28
2024-05-26T22:30:23.465;599617396622051830;9776.139;7
2024-05-26T22:30:23.472;599617396629743271;9783.829;21
2024-05-26T22:30:23.480;599617396637434712;9791.5205;16
2024-05-26T22:30:23.488;599617396645126153;9799.212;25
2024-05-26T22:30:23.495;599617396652817594;9806.903;32
2024-05-26T22:30:23.503;599617396660509035;9814.595;30
2024-05-26T22:30:23.511;599617396668200476;9822.287;49
2024-05-26T22:30:23.518;599617396675891917;9829.979;91
2024-05-26T22:30:23.526;599617396683583358;9837.669;121
2024-05-26T22:30:23.534;599617396691274799;9845.36;123
2024-05-26T22:30:23.542;599617396698966240;9853.052;114
2024-05-26T22:30:23.549;599617396706657681;9860.743;128
2024-05-26T22:30:23.557;599617396714349122;9868.436;165
2024-05-26T22:30:23.565;599617396722040563;9876.127;186
2024-05-26T22:30:23.572;599617396729732004;9883.818;184
2024-05-26T22:30:23.580;599617396737423445;9891.509;191
2024-05-26T22:30:23.588;599617396745114886;9899.2;203
2024-05-26T22:30:23.595;599617396752806327;9906.893;203
2024-05-26T22:30:23.603;599617396760497768;9914.584;205
2024-05-26T22:30:23.611;599617396768189209;9922.275;231
2024-05-26T22:30:23.618;599617396775880650;9929.967;259
2024-05-26T22:30:23.626;599617396783572091;9937.658;247
2024-05-26T22:30:23.634;599617396791263532;9945.349;226
2024-05-26T22:30:23.642;599617396798954973;9953.041;231
2024-05-26T22:30:23.649;599617396806646414;9960.732;217
2024-05-26T22:30:23.657;599617396814337855;9968.424;165
2024-05-26T22:30:23.665;599617396822029296;9976.115;163
2024-05-26T22:30:23.672;599617396829720737;9983.807;203
2024-05-26T22:30:23.680;599617396837412178;9991.498;198
2024-05-26T22:30:23.688;599617396845103619;9999.19;172
2024-05-26T22:30:23.695;599617396852795060;10006.881;200
2024-05-26T22:30:23.703;599617396860486501;10014.572;242
2024-05-26T22:30:23.711;599617396868177942;10022.264;245
2024-05-26T22:30:23.718;599617396875869383;10029.955;233
2024-05-26T22:30:23.726;599617396883560824;10037.646;226
2024-05-26T22:30:23.734;599617396891252265;10045.339;238
2024-05-26T22:30:23.742;599617396898943706;10053.03;247
2024-05-26T22:30:23.749;599617396906635147;10060.721;207
2024-05-26T22:30:23.757;599617396914326588;10068.412;168
2024-05-26T22:30:23.765;599617396922018029;10076.104;175
2024-05-26T22:30:23.772;599617396929709470;10083.795;170
2024-05-26T22:30:23.780;599617396937400911;10091.487;147
2024-05-26T22:30:23.788;599617396945092352;10099.179;177
2024-05-26T22:30:23.795;599617396952763762;10106.85;207
2024-05-26T22:30:23.803;599617396960455482;10114.542;133
2024-05-26T22:30:23.811;599617396968147202;10122.232;37
2024-05-26T22:30:23.818;599617396975838922;10129.925;42
2024-05-26T22:30:23.826;599617396983530642;10137.616;65
2024-05-26T22:30:23.834;599617396991222362;10145.309;7
2024-05-26T22:30:23.842;599617396998914082;10153.0;-63
2024-05-26T22:30:23.849;599617397006605802;10160.692;-63
2024-05-26T22:30:23.857;599617397014297522;10168.384;-63
2024-05-26T22:30:23.865;599617397021989242;10176.075;-77
2024-05-26T22:30:23.872;599617397029680962;10183.767;112
2024-05-26T22:30:23.880;599617397037372682;10191.458;569
2024-05-26T22:30:23.888;599617397045064402;10199.15;836
2024-05-26T22:30:23.895;599617397052756122;10206.842;460
2024-05-26T22:30:23.903;599617397060447842;10214.534;-196
2024-05-26T22:30:23.911;599617397068139562;10222.226;-413
2024-05-26T22:30:23.918;599617397075831282;10229.918;-266
2024-05-26T22:30:23.926;599617397083523002;10237.609;-256
2024-05-26T22:30:23.934;599617397091214722;10245.3;-326
2024-05-26T22:30:23.941;599617397098906442;10252.992;-266
2024-05-26T22:30:23.949;599617397106598162;10260.684;-221
2024-05-26T22:30:23.957;599617397114289882;10268.376;-254
2024-05-26T22:30:23.965;599617397121981602;10276.067;-233
2024-05-26T22:30:23.972;599617397129673322;10283.76;-168
2024-05-26T22:30:23.980;599617397137365042;10291.451;-147
2024-05-26T22:30:23.988;599617397145056762;10299.144;-144
2024-05-26T22:30:23.995;599617397152748482;10306.834;-116
2024-05-26T22:30:24.003;599617397160440202;10314.525;-95
2024-05-26T22:30:24.011;599617397168131922;10322.218;-84
2024-05-26T22:30:24.018;599617397175823642;10329.909;-56
2024-05-26T22:30:24.026;599617397183515362;10337.602;-14
2024-05-26T22:30:24.034;599617397191207082;10345.293;30
2024-05-26T22:30:24.041;599617397198898802;10352.985;51
2024-05-26T22:30:24.049;599617397206590522;10360.677;42
2024-05-26T22:30:24.057;599617397214282242;10368.368;60
2024-05-26T22:30:24.065;599617397221973962;10376.06;123
2024-05-26T22:30:24.072;599617397229665682;10383.751;161
2024-05-26T22:30:24.080;599617397237357402;10391.443;165
2024-05-26T22:30:24.088;599617397245049122;10399.135;193
2024-05-26T22:30:24.095;599617397252740842;10406.827;214
2024-05-26T22:30:24.103;599617397260432562;10414.519;210
2024-05-26T22:30:24.111;599617397268124282;10422.211;214
2024-05-26T22:30:24.118;599617397275816002;10429.901;238
2024-05-26T22:30:24.126;599617397283507722;10437.594;256
2024-05-26T22:30:24.134;599617397291199442;10445.285;252
2024-05-26T22:30:24.141;599617397298891162;10452.977;207
2024-05-26T22:30:24.149;599617397306582882;10460.669;154
2024-05-26T22:30:24.157;599617397314274602;10468.36;144
2024-05-26T22:30:24.165;599617397321966322;10476.053;154
2024-05-26T22:30:24.172;599617397329658042;10483.744;156
2024-05-26T22:30:24.180;599617397337349762;10491.436;172
2024-05-26T22:30:24.188;599617397345041482;10499.127;177
2024-05-26T22:30:24.195;599617397352733202;10506.819;163
2024-05-26T22:30:24.203;599617397360424922;10514.511;182
2024-05-26T22:30:24.211;599617397368116642;10522.202;219
2024-05-26T22:30:24.218;599617397375808362;10529.895;242
2024-05-26T22:30:24.226;599617397383500082;10537.586;238
2024-05-26T22:30:24.234;599617397391191802;10545.278;228
2024-05-26T22:30:24.241;599617397398883522;10552.969;245
2024-05-26T22:30:24.249;599617397406575242;10560.661;268
2024-05-26T22:30:24.257;599617397414266962;10568.353;266
2024-05-26T22:30:24.265;599617397421958682;10576.045;273
2024-05-26T22:30:24.272;599617397429650402;10583.736;291
2024-05-26T22:30:24.280;599617397437342122;10591.428;284
2024-05-26T22:30:24.288;599617397445033842;10599.12;266
2024-05-26T22:30:24.295;599617397452725562;10606.812;280
2024-05-26T22:30:24.303;599617397460417282;10614.504;294
2024-05-26T22:30:24.311;599617397468109002;10622.194;235
2024-05-26T22:30:24.318;599617397475800722;10629.887;140
2024-05-26T22:30:24.326;599617397483492442;10637.578;116
2024-05-26T22:30:24.334;599617397491184162;10645.2705;149
2024-05-26T22:30:24.341;599617397498875882;10652.962;144
2024-05-26T22:30:24.349;599617397506567602;10660.653;102
2024-05-26T22:30:24.357;599617397514254318;10668.34;95
2024-05-26T22:30:24.365;599617397521946108;10676.032;114
2024-05-26T22:30:24.372;599617397529637898;10683.724;98
2024-05-26T22:30:24.380;599617397537329688;10691.416;63
2024-05-26T22:30:24.388;599617397545021478;10699.107;44
2024-05-26T22:30:24.395;599617397552713268;10706.8;18
2024-05-26T22:30:24.403;599617397560405058;10714.491;-2
2024-05-26T22:30:24.411;599617397568096848;10722.184;2
2024-05-26T22:30:24.418;599617397575788638;10729.874;16
2024-05-26T22:30:24.426;599617397583480428;10737.566;30
2024-05-26T22:30:24.434;599617397591172218;10745.258;9
2024-05-26T22:30:24.441;599617397598864008;10752.95;-35
2024-05-26T22:30:24.449;599617397606555798;10760.642;-23
2024-05-26T22:30:24.457;599617397614247588;10768.334;11
2024-05-26T22:30:24.465;599617397621939378;10776.025;-25
2024-05-26T22:30:24.472;599617397629631168;10783.718;-86
2024-05-26T22:30:24.480;599617397637322958;10791.408;-88
2024-05-26T22:30:24.488;599617397645014748;10799.101;-93
2024-05-26T22:30:24.495;599617397652706538;10806.792;-147
2024-05-26T22:30:24.503;599617397660398328;10814.484;-191
2024-05-26T22:30:24.511;599617397668090118;10822.176;-182
2024-05-26T22:30:24.518;599617397675781908;10829.868;-4
2024-05-26T22:30:24.526;599617397683473698;10837.56;429
2024-05-26T22:30:24.534;599617397691165488;10845.252;847
2024-05-26T22:30:24.541;599617397698857278;10852.942;745
2024-05-26T22:30:24.549;599617397706549068;10860.635;140
2024-05-26T22:30:24.557;599617397714240858;10868.326;-273
2024-05-26T22:30:24.565;599617397721932648;10876.019;-179
2024-05-26T22:30:24.572;599617397729624438;10883.71;-58
2024-05-26T22:30:24.580;599617397737316228;10891.402;-133
2024-05-26T22:30:24.588;599617397745008018;10899.094;-142
2024-05-26T22:30:24.595;599617397752699808;10906.786;-79
2024-05-26T22:30:24.603;599617397760391598;10914.478;-79
2024-05-26T22:30:24.611;599617397768083388;10922.169;-86
2024-05-26T22:30:24.618;599617397775775178;10929.861;-56
2024-05-26T22:30:24.626;599617397783466968;10937.553;-30
2024-05-26T22:30:24.634;599617397791158758;10945.245;-35
2024-05-26T22:30:24.641;599617397798850548;10952.937;-74
2024-05-26T22:30:24.649;599617397806542338;10960.629;-98
2024-05-26T22:30:24.657;599617397814234128;10968.32;-65
2024-05-26T22:30:24.665;599617397821925918;10976.013;-18
2024-05-26T22:30:24.672;599617397829617708;10983.703;4
2024-05-26T22:30:24.680;599617397837309498;10991.3955;25
2024-05-26T22:30:24.688;599617397845001288;10999.087;58
2024-05-26T22:30:24.695;599617397852693078;11006.779;79
2024-05-26T22:30:24.703;599617397860384868;11014.471;93
2024-05-26T22:30:24.711;599617397868076658;11022.163;119
2024-05-26T22:30:24.718;599617397875768448;11029.8545;158
2024-05-26T22:30:24.726;599617397883460238;11037.547;196
2024-05-26T22:30:24.734;599617397891152028;11045.237;212
2024-05-26T22:30:24.741;599617397898843818;11052.93;198
2024-05-26T22:30:24.749;599617397906535608;11060.621;205
2024-05-26T22:30:24.757;599617397914227398;11068.313;235
2024-05-26T22:30:24.765;599617397921919188;11076.005;247
2024-05-26T22:30:24.772;599617397929610978;11083.697;247
2024-05-26T22:30:24.780;599617397937302768;11091.389;249
2024-05-26T22:30:24.788;599617397944994558;11099.081;228
2024-05-26T22:30:24.795;599617397952686348;11106.771;198
2024-05-26T22:30:24.803;599617397960378138;11114.464;200
2024-05-26T22:30:24.811;599617397968069928;11122.155;212
2024-05-26T22:30:24.818;599617397975761718;11129.848;163
2024-05-26T22:30:24.826;599617397983453508;11137.539;53
2024-05-26T22:30:24.834;599617397991145298;11145.231;11
2024-05-26T22:30:24.841;599617397998837088;11152.923;60
2024-05-26T22:30:24.849;599617398006528878;11160.615;93
2024-05-26T22:30:24.857;599617398014220668;11168.307;91
2024-05-26T22:30:24.864;599617398021912458;11175.998;114
2024-05-26T22:30:24.872;599617398029604248;11183.689;144
2024-05-26T22:30:24.880;599617398037296038;11191.382;109
2024-05-26T22:30:24.888;599617398044987828;11199.073;53
2024-05-26T22:30:24.895;599617398052679618;11206.766;65
2024-05-26T22:30:24.903;599617398060371408;11214.458;116
2024-05-26T22:30:24.911;599617398068063198;11222.149;135
2024-05-26T22:30:24.918;599617398075755000;11229.842;123
2024-05-26T22:30:24.926;599617398083446790;11237.532;114
2024-05-26T22:30:24.934;599617398091138580;11245.225;135
2024-05-26T22:30:24.941;599617398098830370;11252.916;161
2024-05-26T22:30:24.949;599617398106522160;11260.608;165
2024-05-26T22:30:24.957;599617398114213950;11268.3;170
2024-05-26T22:30:24.964;599617398121905740;11275.992;147
2024-05-26T22:30:24.972;599617398129597530;11283.684;44
2024-05-26T22:30:24.980;599617398137289320;11291.376;-53
2024-05-26T22:30:24.988;599617398144981110;11299.066;-49
2024-05-26T22:30:24.995;599617398152672900;11306.759;-7
2024-05-26T22:30:25.003;599617398160364690;11314.45;-11
2024-05-26T22:30:25.011;599617398168056480;11322.143;-25
2024-05-26T22:30:25.018;599617398175748270;11329.834;-9
2024-05-26T22:30:25.026;599617398183440060;11337.526;14
2024-05-26T22:30:25.034;599617398191131850;11345.218;18
2024-05-26T22:30:25.041;599617398198823640;11352.91;23
2024-05-26T22:30:25.049;599617398206515430;11360.602;56
2024-05-26T22:30:25.057;599617398214207220;11368.293;79
2024-05-26T22:30:25.064;599617398221899010;11375.984;58
2024-05-26T22:30:25.072;599617398229590800;11383.677;53
2024-05-26T22:30:25.080;599617398237282590;11391.368;72
2024-05-26T22:30:25.088;599617398244974380;11399.061;58
2024-05-26T22:30:25.095;599617398252666170;11406.752;35
2024-05-26T22:30:25.103;599617398260357960;11414.444;4
2024-05-26T22:30:25.111;599617398268049750;11422.136;-46
2024-05-26T22:30:25.118;599617398275741540;11429.827;-65
2024-05-26T22:30:25.126;599617398283433330;11437.519;-72
2024-05-26T22:30:25.134;599617398291125120;11445.211;-105
2024-05-26T22:30:25.141;599617398298816910;11452.902;-105
2024-05-26T22:30:25.149;599617398306508700;11460.595;-84
2024-05-26T22:30:25.157;599617398314200490;11468.286;-130
2024-05-26T22:30:25.164;599617398321892280;11475.979;-168
2024-05-26T22:30:25.172;599617398329584070;11483.671;-14
2024-05-26T22:30:25.180;599617398337275860;11491.361;392
2024-05-26T22:30:25.188;599617398344967650;11499.054;857
2024-05-26T22:30:25.195;599617398352659440;11506.745;931
2024-05-26T22:30:25.203;599617398360351230;11514.4375;413
2024-05-26T22:30:25.211;599617398368043020;11522.129;-126
2024-05-26T22:30:25.218;599617398375734810;11529.821;-133
2024-05-26T22:30:25.226;599617398383426600;11537.513;16
2024-05-26T22:30:25.234;599617398391118390;11545.205;-42
2024-05-26T22:30:25.241;599617398398810180;11552.896;-81
2024-05-26T22:30:25.249;599617398406501970;11560.588;-44
2024-05-26T22:30:25.257;599617398414193760;11568.279;-35
2024-05-26T22:30:25.264;599617398421885550;11575.972;-7
2024-05-26T22:30:25.272;599617398429577340;11583.663;32
2024-05-26T22:30:25.280;599617398437269130;11591.355;39
2024-05-26T22:30:25.288;599617398444960920;11599.047;51
2024-05-26T22:30:25.295;599617398452652710;11606.739;77
2024-05-26T22:30:25.303;599617398460344500;11614.431;84
2024-05-26T22:30:25.311;599617398468036290;11622.122;84
2024-05-26T22:30:25.318;599617398475728080;11629.813;60
2024-05-26T22:30:25.326;599617398483419870;11637.506;4
2024-05-26T22:30:25.334;599617398491111660;11645.197;-21
2024-05-26T22:30:25.341;599617398498803450;11652.89;2
2024-05-26T22:30:25.349;599617398506495240;11660.581;39
2024-05-26T22:30:25.357;599617398514187030;11668.273;81
2024-05-26T22:30:25.364;599617398521878820;11675.965;100
2024-05-26T22:30:25.372;599617398529570610;11683.656;88
2024-05-26T22:30:25.380;599617398537262400;11691.348;67
2024-05-26T22:30:25.388;599617398544954190;11699.04;63
2024-05-26T22:30:25.395;599617398552645980;11706.731;74
2024-05-26T22:30:25.403;599617398560337770;11714.424;91
2024-05-26T22:30:25.411;599617398568029560;11722.115;126
2024-05-26T22:30:25.418;599617398575721350;11729.808;161
2024-05-26T22:30:25.426;599617398583413140;11737.499;156
2024-05-26T22:30:25.434;599617398591104930;11745.19;140
2024-05-26T22:30:25.441;599617398598796720;11752.882;156
2024-05-26T22:30:25.449;599617398606488510;11760.574;182
2024-05-26T22:30:25.457;599617398614180300;11768.267;179
2024-05-26T22:30:25.464;599617398621872090;11775.958;182
2024-05-26T22:30:25.472;599617398629563880;11783.65;207
2024-05-26T22:30:25.480;599617398637255682;11791.342;207
2024-05-26T22:30:25.488;599617398644947472;11799.034;191
2024-05-26T22:30:25.495;599617398652639262;11806.726;214
2024-05-26T22:30:25.503;599617398660331052;11814.417;256
2024-05-26T22:30:25.511;599617398668022842;11822.108;273
2024-05-26T22:30:25.518;599617398675714632;11829.801;263
2024-05-26T22:30:25.526;599617398683406422;11837.492;254
2024-05-26T22:30:25.534;599617398691098212;11845.185;266
2024-05-26T22:30:25.541;599617398698790002;11852.876;256
2024-05-26T22:30:25.549;599617398706481792;11860.568;203
2024-05-26T22:30:25.557;599617398714173582;11868.26;182
2024-05-26T22:30:25.564;599617398721865372;11875.951;210
2024-05-26T22:30:25.572;599617398729557162;11883.643;205
2024-05-26T22:30:25.580;599617398737248952;11891.335;182
2024-05-26T22:30:25.588;599617398744940742;11899.026;203
2024-05-26T22:30:25.595;599617398752632532;11906.719;245
2024-05-26T22:30:25.603;599617398760324322;11914.41;254
2024-05-26T22:30:25.611;599617398768016112;11922.103;219
2024-05-26T22:30:25.618;599617398775707902;11929.794;151
2024-05-26T22:30:25.626;599617398783399692;11937.485;79
2024-05-26T22:30:25.634;599617398791091482;11945.177;60
2024-05-26T22:30:25.641;599617398798783272;11952.869;81
2024-05-26T22:30:25.649;599617398806475062;11960.561;105
2024-05-26T22:30:25.657;599617398814166852;11968.253;107
2024-05-26T22:30:25.664;599617398821858642;11975.944;95
2024-05-26T22:30:25.672;599617398829550432;11983.637;93
2024-05-26T22:30:25.680;599617398837242222;11991.328;119
2024-05-26T22:30:25.688;599617398844934012;11999.0205;147
2024-05-26T22:30:25.695;599617398852625802;12006.711;147
2024-05-26T22:30:25.703;599617398860317592;12014.403;142
2024-05-26T22:30:25.711;599617398868009382;12022.095;147
2024-05-26T22:30:25.718;599617398875701172;12029.787;154
2024-05-26T22:30:25.726;599617398883392962;12037.4795;154
2024-05-26T22:30:25.734;599617398891084752;12045.171;133
2024-05-26T22:30:25.741;599617398898776542;12052.863;109
2024-05-26T22:30:25.749;599617398906468332;12060.555;93
2024-05-26T22:30:25.757;599617398914160122;12068.246;60
2024-05-26T22:30:25.764;599617398921851912;12075.9375;35
2024-05-26T22:30:25.772;599617398929543702;12083.63;37
2024-05-26T22:30:25.780;599617398937235492;12091.321;35
2024-05-26T22:30:25.788;599617398944927282;12099.014;30
2024-05-26T22:30:25.795;599617398952619072;12106.705;37
2024-05-26T22:30:25.803;599617398960310862;12114.397;35
2024-05-26T22:30:25.811;599617398968002652;12122.089;21
2024-05-26T22:30:25.818;599617398975694442;12129.78;-2
2024-05-26T22:30:25.826;599617398983386232;12137.472;-58
2024-05-26T22:30:25.834;599617398991078022;12145.164;-53
2024-05-26T22:30:25.841;599617398998769812;12152.855;231
2024-05-26T22:30:25.849;599617399006461602;12160.548;712
2024-05-26T22:30:25.857;599617399014153392;12168.239;882
2024-05-26T22:30:25.864;599617399021845182;12175.932;422
2024-05-26T22:30:25.872;599617399029536972;12183.623;-189
2024-05-26T22:30:25.880;599617399037228762;12191.315;-284
2024-05-26T22:30:25.888;599617399044920552;12199.006;-116
2024-05-26T22:30:25.895;599617399052612342;12206.698;-165
2024-05-26T22:30:25.903;599617399060304132;12214.39;-240
2024-05-26T22:30:25.911;599617399067995922;12222.082;-170
2024-05-26T22:30:25.918;599617399075687712;12229.773;-114
2024-05-26T22:30:25.926;599617399083379502;12237.466;-98
2024-05-26T22:30:25.934;599617399091071292;12245.157;-81
2024-05-26T22:30:25.941;599617399098763082;12252.85;-77
2024-05-26T22:30:25.949;599617399106454872;12260.54;-51
2024-05-26T22:30:25.957;599617399114146662;12268.232;7
2024-05-26T22:30:25.964;599617399121838452;12275.924;35
2024-05-26T22:30:25.972;599617399129530242;12283.616;44
2024-05-26T22:30:25.980;599617399137222032;12291.308;72
2024-05-26T22:30:25.987;599617399144913822;12299.0;93
2024-05-26T22:30:25.995;599617399152605612;12306.691;95
2024-05-26T22:30:26.003;599617399160297402;12314.384;126
2024-05-26T22:30:26.011;599617399167989192;12322.075;175
2024-05-26T22:30:26.018;599617399175680982;12329.767;205
2024-05-26T22:30:26.026;599617399183372772;12337.459;207
2024-05-26T22:30:26.034;599617399191064562;12345.15;210
2024-05-26T22:30:26.041;599617399198756364;12352.843;238
2024-05-26T22:30:26.049;599617399206448154;12360.534;273
2024-05-26T22:30:26.057;599617399214139944;12368.227;287
2024-05-26T22:30:26.064;599617399221831734;12375.918;296
2024-05-26T22:30:26.072;599617399229523524;12383.609;312
2024-05-26T22:30:26.080;599617399237215314;12391.301;280
2024-05-26T22:30:26.087;599617399244907104;12398.993;193
2024-05-26T22:30:26.095;599617399252598894;12406.685;149
2024-05-26T22:30:26.103;599617399260290684;12414.377;179
2024-05-26T22:30:26.111;599617399267982474;12422.068;177
2024-05-26T22:30:26.118;599617399275674264;12429.761;114
2024-05-26T22:30:26.126;599617399283366054;12437.452;91
2024-05-26T22:30:26.134;599617399291057844;12445.145;119
2024-05-26T22:30:26.141;599617399298749634;12452.835;140
2024-05-26T22:30:26.149;599617399306441424;12460.527;142
2024-05-26T22:30:26.157;599617399314133214;12468.219;161
2024-05-26T22:30:26.164;599617399321825004;12475.911;193
2024-05-26T22:30:26.172;599617399329516794;12483.603;193
2024-05-26T22:30:26.180;599617399337208584;12491.295;186
2024-05-26T22:30:26.187;599617399344900374;12498.986;210
2024-05-26T22:30:26.195;599617399352592164;12506.679;242
2024-05-26T22:30:26.203;599617399360283954;12514.369;252
2024-05-26T22:30:26.211;599617399367975744;12522.062;245
2024-05-26T22:30:26.218;599617399375667534;12529.753;245
2024-05-26T22:30:26.226;599617399383359324;12537.445;254
2024-05-26T22:30:26.234;599617399391051114;12545.137;261
2024-05-26T22:30:26.241;599617399398742904;12552.829;266
2024-05-26T22:30:26.249;599617399406434694;12560.5205;282
2024-05-26T22:30:26.257;599617399414126484;12568.213;291
2024-05-26T22:30:26.264;599617399421818274;12575.903;249
2024-05-26T22:30:26.272;599617399429510064;12583.596;196
2024-05-26T22:30:26.280;599617399437201854;12591.288;203
2024-05-26T22:30:26.287;599617399444893644;12598.9795;226
2024-05-26T22:30:26.295;599617399452585434;12606.672;210
2024-05-26T22:30:26.303;599617399460277224;12614.363;193
2024-05-26T22:30:26.311;599617399467969014;12622.056;203
2024-05-26T22:30:26.318;599617399475660804;12629.747;210
2024-05-26T22:30:26.326;599617399483352594;12637.439;203
2024-05-26T22:30:26.334;599617399491044384;12645.13;165
2024-05-26T22:30:26.341;599617399498736174;12652.822;91
2024-05-26T22:30:26.349;599617399506427964;12660.514;39
2024-05-26T22:30:26.357;599617399514119754;12668.206;30
2024-05-26T22:30:26.364;599617399521811544;12675.897;4
2024-05-26T22:30:26.372;599617399529503334;12683.59;-4
2024-05-26T22:30:26.380;599617399537195124;12691.281;14
2024-05-26T22:30:26.387;599617399544886914;12698.974;-11
2024-05-26T22:30:26.395;599617399552578704;12706.664;-51
2024-05-26T22:30:26.403;599617399560270494;12714.356;-72
2024-05-26T22:30:26.411;599617399567962284;12722.048;-114
2024-05-26T22:30:26.418;599617399575654074;12729.74;-140
2024-05-26T22:30:26.426;599617399583345864;12737.432;-109
2024-05-26T22:30:26.434;599617399591037654;12745.124;-77
2024-05-26T22:30:26.441;599617399598729444;12752.815;-72
2024-05-26T22:30:26.449;599617399606421234;12760.508;-74
2024-05-26T22:30:26.457;599617399614113024;12768.198;-77
2024-05-26T22:30:26.464;599617399621804814;12775.891;-60
2024-05-26T22:30:26.472;599617399629496604;12783.582;-44
2024-05-26T22:30:26.480;599617399637188394;12791.274;-35
2024-05-26T22:30:26.487;599617399644880184;12798.966;-23
2024-05-26T22:30:26.495;599617399652571974;12806.658;-21
2024-05-26T22:30:26.503;599617399660263764;12814.35;-44
2024-05-26T22:30:26.511;599617399667955554;12822.042;-67
2024-05-26T22:30:26.518;599617399675647344;12829.732;16
2024-05-26T22:30:26.526;599617399683339134;12837.425;331
2024-05-26T22:30:26.534;599617399691030924;12845.116;789
2024-05-26T22:30:26.541;599617399698722714;12852.809;985
2024-05-26T22:30:26.549;599617399706414504;12860.5;621
2024-05-26T22:30:26.557;599617399714106294;12868.192;74
2024-05-26T22:30:26.564;599617399721798084;12875.885;-67
2024-05-26T22:30:26.572;599617399729489874;12883.576;65
2024-05-26T22:30:26.580;599617399737181664;12891.269;56
2024-05-26T22:30:26.587;599617399744873454;12898.959;-11
2024-05-26T22:30:26.595;599617399752565244;12906.651;11
2024-05-26T22:30:26.603;599617399760282172;12914.368;11
2024-05-26T22:30:26.611;599617399767973613;12922.06;-32
2024-05-26T22:30:26.618;599617399775665054;12929.751;-30
2024-05-26T22:30:26.626;599617399783356495;12937.442;-4
2024-05-26T22:30:26.634;599617399791047936;12945.134;-9
2024-05-26T22:30:26.641;599617399798739377;12952.825;4
2024-05-26T22:30:26.649;599617399806430818;12960.518;25
2024-05-26T22:30:26.657;599617399814122259;12968.208;-14
2024-05-26T22:30:26.664;599617399821813700;12975.899;-46
2024-05-26T22:30:26.672;599617399829505141;12983.591;-7
2024-05-26T22:30:26.680;599617399837196582;12991.282;16
2024-05-26T22:30:26.687;599617399844888023;12998.975;9
2024-05-26T22:30:26.695;599617399852579464;13006.666;44
2024-05-26T22:30:26.703;599617399860270905;13014.357;100
2024-05-26T22:30:26.711;599617399867962346;13022.048;123
2024-05-26T22:30:26.718;599617399875653787;13029.739;126
2024-05-26T22:30:26.726;599617399883345228;13037.431;144
2024-05-26T22:30:26.734;599617399891036669;13045.123;182
2024-05-26T22:30:26.741;599617399898728110;13052.814;203
2024-05-26T22:30:26.749;599617399906419551;13060.506;210
2024-05-26T22:30:26.757;599617399914110992;13068.197;226
2024-05-26T22:30:26.764;599617399921802433;13075.888;247
2024-05-26T22:30:26.772;599617399929493874;13083.579;240
2024-05-26T22:30:26.780;599617399937185315;13091.271;217
2024-05-26T22:30:26.787;599617399944876756;13098.963;221
2024-05-26T22:30:26.795;599617399952568197;13106.654;240
2024-05-26T22:30:26.803;599617399960259638;13114.346;231
2024-05-26T22:30:26.811;599617399967951079;13122.037;207
2024-05-26T22:30:26.818;599617399975642520;13129.728;191
2024-05-26T22:30:26.826;599617399983333961;13137.42;198
2024-05-26T22:30:26.834;599617399991025402;13145.111;217
2024-05-26T22:30:26.841;599617399998716843;13152.803;179
2024-05-26T22:30:26.849;599617400006408284;13160.494;79
2024-05-26T22:30:26.857;599617400014099725;13168.186;16
2024-05-26T22:30:26.864;599617400021791166;13175.878;11
2024-05-26T22:30:26.872;599617400029482607;13183.569;18
2024-05-26T22:30:26.880;599617400037174048;13191.26;39
2024-05-26T22:30:26.887;599617400044865489;13198.951;70
2024-05-26T22:30:26.895;599617400052556930;13206.643;77
2024-05-26T22:30:26.903;599617400060248371;13214.334;56
2024-05-26T22:30:26.911;599617400067939812;13222.026;28
2024-05-26T22:30:26.918;599617400075631253;13229.718;11
2024-05-26T22:30:26.926;599617400083322694;13237.409;14
2024-05-26T22:30:26.934;599617400091014135;13245.1;23
2024-05-26T22:30:26.941;599617400098705576;13252.791;39
2024-05-26T22:30:26.949;599617400106397017;13260.482;46
2024-05-26T22:30:26.957;599617400114088458;13268.175;30
2024-05-26T22:30:26.964;599617400121779899;13275.866;28
2024-05-26T22:30:26.972;599617400129471340;13283.558;63
2024-05-26T22:30:26.980;599617400137162781;13291.249;88
2024-05-26T22:30:26.987;599617400144854222;13298.939;84
2024-05-26T22:30:26.995;599617400152545663;13306.631;91
2024-05-26T22:30:27.003;599617400160237104;13314.323;112
2024-05-26T22:30:27.011;599617400167928545;13322.015;114
2024-05-26T22:30:27.018;599617400175619986;13329.706;112
2024-05-26T22:30:27.026;599617400183311427;13337.397;100
2024-05-26T22:30:27.034;599617400191002868;13345.089;77
2024-05-26T22:30:27.041;599617400198694309;13352.779;39
2024-05-26T22:30:27.049;599617400206385750;13360.472;-11
2024-05-26T22:30:27.057;599617400214077191;13368.163;-39
2024-05-26T22:30:27.064;599617400221768632;13375.8545;-23
2024-05-26T22:30:27.072;599617400229460073;13383.546;-23
2024-05-26T22:30:27.080;599617400237151514;13391.237;-35
2024-05-26T22:30:27.087;599617400244842955;13398.93;-35
2024-05-26T22:30:27.095;599617400252534396;13406.621;-67
2024-05-26T22:30:27.103;599617400260225837;13414.312;-137
2024-05-26T22:30:27.111;599617400267917278;13422.003;-158
2024-05-26T22:30:27.118;599617400275608719;13429.694;-112
2024-05-26T22:30:27.126;599617400283300160;13437.386;-72
2024-05-26T22:30:27.134;599617400290991601;13445.078;-60
2024-05-26T22:30:27.141;599617400298683042;13452.77;-53
2024-05-26T22:30:27.149;599617400306374483;13460.461;-46
2024-05-26T22:30:27.157;599617400314065924;13468.151;-32
2024-05-26T22:30:27.164;599617400321737336;13475.823;-9
2024-05-26T22:30:27.172;599617400329429056;13483.515;11
2024-05-26T22:30:27.180;599617400337120776;13491.207;28
2024-05-26T22:30:27.187;599617400344812496;13498.898;14
2024-05-26T22:30:27.195;599617400352504216;13506.59;-74
2024-05-26T22:30:27.203;599617400360195936;13514.282;-163
2024-05-26T22:30:27.210;599617400367887656;13521.974;-107
2024-05-26T22:30:27.218;599617400375579376;13529.666;144
2024-05-26T22:30:27.226;599617400383271096;13537.356;572
2024-05-26T22:30:27.234;599617400390962816;13545.049;906
2024-05-26T22:30:27.241;599617400398654536;13552.74;710
2024-05-26T22:30:27.249;599617400406346256;13560.433;126
2024-05-26T22:30:27.257;599617400414037976;13568.124;-147
2024-05-26T22:30:27.264;599617400421729696;13575.815;0
2024-05-26T22:30:27.272;599617400429421416;13583.508;65
2024-05-26T22:30:27.280;599617400437113136;13591.198;-21
2024-05-26T22:30:27.287;599617400444804856;13598.891;-9
2024-05-26T22:30:27.295;599617400452496576;13606.582;44
2024-05-26T22:30:27.303;599617400460188296;13614.274;56
2024-05-26T22:30:27.310;599617400467880016;13621.966;86
2024-05-26T22:30:27.318;599617400475571736;13629.658;109
2024-05-26T22:30:27.326;599617400483263456;13637.35;107
2024-05-26T22:30:27.334;599617400490955176;13645.041;119
2024-05-26T22:30:27.341;599617400498646896;13652.733;121
2024-05-26T22:30:27.349;599617400506338616;13660.424;46
2024-05-26T22:30:27.357;599617400514030336;13668.116;-42
2024-05-26T22:30:27.364;599617400521722056;13675.808;-28
2024-05-26T22:30:27.372;599617400529413776;13683.5;18
2024-05-26T22:30:27.380;599617400537105496;13691.191;14
2024-05-26T22:30:27.387;599617400544797216;13698.884;42
2024-05-26T22:30:27.395;599617400552488936;13706.575;109
2024-05-26T22:30:27.403;599617400560180656;13714.266;140
2024-05-26T22:30:27.410;599617400567872376;13721.958;140
2024-05-26T22:30:27.418;599617400575564096;13729.649;165
2024-05-26T22:30:27.426;599617400583255816;13737.342;210
2024-05-26T22:30:27.434;599617400590947536;13745.033;231
2024-05-26T22:30:27.441;599617400598639256;13752.726;235
2024-05-26T22:30:27.449;599617400606330976;13760.417;263
2024-05-26T22:30:27.457;599617400614022696;13768.109;294
2024-05-26T22:30:27.464;599617400621714416;13775.801;282
2024-05-26T22:30:27.472;599617400629406136;13783.492;266
2024-05-26T22:30:27.480;599617400637097856;13791.184;287
2024-05-26T22:30:27.487;599617400644789576;13798.875;296
2024-05-26T22:30:27.495;599617400652481296;13806.567;270
2024-05-26T22:30:27.503;599617400660173016;13814.259;254
2024-05-26T22:30:27.510;599617400667864736;13821.951;254
2024-05-26T22:30:27.518;599617400675556456;13829.643;247
2024-05-26T22:30:27.526;599617400683248176;13837.335;247
2024-05-26T22:30:27.534;599617400690939896;13845.025;259
2024-05-26T22:30:27.541;599617400698631616;13852.718;284
2024-05-26T22:30:27.549;599617400706323336;13860.409;291
2024-05-26T22:30:27.557;599617400714015056;13868.101;275
2024-05-26T22:30:27.564;599617400721706776;13875.793;270
2024-05-26T22:30:27.572;599617400729398496;13883.484;266
2024-05-26T22:30:27.580;599617400737090216;13891.177;245
2024-05-26T22:30:27.587;599617400744781936;13898.868;221
2024-05-26T22:30:27.595;599617400752473656;13906.56;182
2024-05-26T22:30:27.603;599617400760165376;13914.251;144
2024-05-26T22:30:27.610;599617400767857096;13921.943;144
2024-05-26T22:30:27.618;599617400775548816;13929.635;149
2024-05-26T22:30:27.626;599617400783240536;13937.326;149
2024-05-26T22:30:27.634;599617400790932256;13945.019;179
2024-05-26T22:30:27.641;599617400798623976;13952.71;191
2024-05-26T22:30:27.649;599617400806315696;13960.402;161
2024-05-26T22:30:27.657;599617400814007416;13968.093;156
2024-05-26T22:30:27.664;599617400821699136;13975.785;186
2024-05-26T22:30:27.672;599617400829390856;13983.477;198
2024-05-26T22:30:27.680;599617400837082576;13991.169;191
2024-05-26T22:30:27.687;599617400844774296;13998.86;184
2024-05-26T22:30:27.695;599617400852466016;14006.552;154
2024-05-26T22:30:27.703;599617400860157736;14014.244;116
2024-05-26T22:30:27.710;599617400867849456;14021.936;77
2024-05-26T22:30:27.718;599617400875541176;14029.627;42
2024-05-26T22:30:27.726;599617400883227892;14037.313;39
2024-05-26T22:30:27.734;599617400890919682;14045.006;39
2024-05-26T22:30:27.741;599617400898611472;14052.697;9
2024-05-26T22:30:27.749;599617400906303262;14060.39;2
2024-05-26T22:30:27.757;599617400913995052;14068.081;28
2024-05-26T22:30:27.764;599617400921686842;14075.772;32
2024-05-26T22:30:27.772;599617400929378632;14083.464;23
2024-05-26T22:30:27.780;599617400937070422;14091.156;30
2024-05-26T22:30:27.787;599617400944762212;14098.848;14
2024-05-26T22:30:27.795;599617400952454002;14106.54;-42
2024-05-26T22:30:27.803;599617400960145792;14114.231;-79
2024-05-26T22:30:27.810;599617400967837582;14121.924;-49
2024-05-26T22:30:27.818;599617400975529372;14129.615;2
2024-05-26T22:30:27.826;599617400983221162;14137.308;2
2024-05-26T22:30:27.833;599617400990912952;14144.999;-51
2024-05-26T22:30:27.841;599617400998604742;14152.69;-93
2024-05-26T22:30:27.849;599617401006296532;14160.383;-77
2024-05-26T22:30:27.857;599617401013988322;14168.074;-84
2024-05-26T22:30:27.864;599617401021680112;14175.767;-149
2024-05-26T22:30:27.872;599617401029371902;14183.458;-161
2024-05-26T22:30:27.880;599617401037063692;14191.15;-142
2024-05-26T22:30:27.887;599617401044755482;14198.842;-177
2024-05-26T22:30:27.895;599617401052447272;14206.533;-137
2024-05-26T22:30:27.903;599617401060139062;14214.225;156
2024-05-26T22:30:27.910;599617401067830852;14221.917;653
2024-05-26T22:30:27.918;599617401075522642;14229.608;969
2024-05-26T22:30:27.926;599617401083214432;14237.301;698
2024-05-26T22:30:27.933;599617401090906222;14244.992;93
2024-05-26T22:30:27.941;599617401098598012;14252.685;-151
2024-05-26T22:30:27.949;599617401106289802;14260.376;-16
2024-05-26T22:30:27.957;599617401113981592;14268.067;28
2024-05-26T22:30:27.964;599617401121673382;14275.759;-28
2024-05-26T22:30:27.972;599617401129365172;14283.451;-7
2024-05-26T22:30:27.980;599617401137056962;14291.143;21
2024-05-26T22:30:27.987;599617401144748752;14298.835;30
2024-05-26T22:30:27.995;599617401152440542;14306.526;74
2024-05-26T22:30:28.003;599617401160132332;14314.219;107
2024-05-26T22:30:28.010;599617401167824122;14321.91;107
2024-05-26T22:30:28.018;599617401175515912;14329.602;119
2024-05-26T22:30:28.026;599617401183207702;14337.293;149
2024-05-26T22:30:28.033;599617401190899492;14344.985;172
2024-05-26T22:30:28.041;599617401198591282;14352.677;186
2024-05-26T22:30:28.049;599617401206283072;14360.369;210
2024-05-26T22:30:28.057;599617401213974862;14368.061;235
2024-05-26T22:30:28.064;599617401221666652;14375.753;235
2024-05-26T22:30:28.072;599617401229358442;14383.444;233
2024-05-26T22:30:28.080;599617401237050232;14391.137;249
2024-05-26T22:30:28.087;599617401244742022;14398.827;235
2024-05-26T22:30:28.095;599617401252433812;14406.52;210
2024-05-26T22:30:28.103;599617401260125602;14414.211;226
2024-05-26T22:30:28.110;599617401267817392;14421.903;254
2024-05-26T22:30:28.118;599617401275509182;14429.596;259
2024-05-26T22:30:28.126;599617401283200972;14437.287;268
2024-05-26T22:30:28.133;599617401290892762;14444.9795;287
2024-05-26T22:30:28.141;599617401298584552;14452.671;310
2024-05-26T22:30:28.149;599617401306276342;14460.362;315
2024-05-26T22:30:28.157;599617401313968132;14468.054;289
2024-05-26T22:30:28.164;599617401321659922;14475.746;275
2024-05-26T22:30:28.172;599617401329351712;14483.4375;296
2024-05-26T22:30:28.180;599617401337043502;14491.13;303
2024-05-26T22:30:28.187;599617401344735292;14498.821;291
2024-05-26T22:30:28.195;599617401352427082;14506.514;282
2024-05-26T22:30:28.203;599617401360118872;14514.205;273
2024-05-26T22:30:28.210;599617401367810662;14521.896;270
2024-05-26T22:30:28.218;599617401375502452;14529.588;282
2024-05-26T22:30:28.226;599617401383194242;14537.28;296
2024-05-26T22:30:28.233;599617401390886032;14544.972;312
2024-05-26T22:30:28.241;599617401398577822;14552.664;303
2024-05-26T22:30:28.249;599617401406269612;14560.355;254
2024-05-26T22:30:28.257;599617401413961402;14568.048;221
2024-05-26T22:30:28.264;599617401421653192;14575.739;245
2024-05-26T22:30:28.272;599617401429344982;14583.432;254
2024-05-26T22:30:28.280;599617401437036772;14591.122;235
2024-05-26T22:30:28.287;599617401444728574;14598.814;233
2024-05-26T22:30:28.295;599617401452420364;14606.506;238
2024-05-26T22:30:28.303;599617401460112154;14614.198;219
2024-05-26T22:30:28.310;599617401467803944;14621.89;214
2024-05-26T22:30:28.318;599617401475495734;14629.582;233
2024-05-26T22:30:28.326;599617401483187524;14637.273;224
2024-05-26T22:30:28.333;599617401490879314;14644.966;156
2024-05-26T22:30:28.341;599617401498571104;14652.656;95
2024-05-26T22:30:28.349;599617401506262894;14660.349;105
2024-05-26T22:30:28.357;599617401513954684;14668.04;88
2024-05-26T22:30:28.364;599617401521646474;14675.732;-65
2024-05-26T22:30:28.372;599617401529338264;14683.424;-212
2024-05-26T22:30:28.380;599617401537030054;14691.116;-214
2024-05-26T22:30:28.387;599617401544721844;14698.808;-217
2024-05-26T22:30:28.395;599617401552413634;14706.5;-273
2024-05-26T22:30:28.403;599617401560105424;14714.191;-261
2024-05-26T22:30:28.410;599617401567797214;14721.883;-210
2024-05-26T22:30:28.418;599617401575489004;14729.575;-198
2024-05-26T22:30:28.426;599617401583180794;14737.267;-207
2024-05-26T22:30:28.433;599617401590872584;14744.959;-198
2024-05-26T22:30:28.441;599617401598564374;14752.65;-170
2024-05-26T22:30:28.449;599617401606256164;14760.343;-147
2024-05-26T22:30:28.457;599617401613947954;14768.034;-140
2024-05-26T22:30:28.464;599617401621639744;14775.727;-123
2024-05-26T22:30:28.472;599617401629331534;14783.417;-93
2024-05-26T22:30:28.480;599617401637023324;14791.109;-91
2024-05-26T22:30:28.487;599617401644715114;14798.801;-100
2024-05-26T22:30:28.495;599617401652406904;14806.493;-70
2024-05-26T22:30:28.503;599617401660098694;14814.185;-18
2024-05-26T22:30:28.510;599617401667790484;14821.877;11
2024-05-26T22:30:28.518;599617401675482274;14829.568;23
2024-05-26T22:30:28.526;599617401683174064;14837.261;39
2024-05-26T22:30:28.533;599617401690865854;14844.951;49
2024-05-26T22:30:28.541;599617401698557644;14852.644;56
2024-05-26T22:30:28.549;599617401706249434;14860.335;65
2024-05-26T22:30:28.557;599617401713941224;14868.027;86
2024-05-26T22:30:28.564;599617401721633014;14875.719;109
2024-05-26T22:30:28.572;599617401729324804;14883.411;95
2024-05-26T22:30:28.580;599617401737016594;14891.103;32
2024-05-26T22:30:28.587;599617401744708384;14898.795;2
2024-05-26T22:30:28.595;599617401752400174;14906.485;144
2024-05-26T22:30:28.603;599617401760091964;14914.178;527
2024-05-26T22:30:28.610;599617401767783754;14921.869;987
2024-05-26T22:30:28.618;599617401775475544;14929.562;1072
2024-05-26T22:30:28.626;599617401783167334;14937.253;574
2024-05-26T22:30:28.633;599617401790859124;14944.945;49
2024-05-26T22:30:28.641;599617401798550914;14952.637;30
2024-05-26T22:30:28.649;599617401806242704;14960.329;165
2024-05-26T22:30:28.657;599617401813934494;14968.02;102
2024-05-26T22:30:28.664;599617401821626284;14975.712;44
2024-05-26T22:30:28.672;599617401829318074;14983.404;84
2024-05-26T22:30:28.680;599617401837009864;14991.096;116
2024-05-26T22:30:28.687;599617401844701654;14998.788;135
2024-05-26T22:30:28.695;599617401852393444;15006.4795;156
2024-05-26T22:30:28.703;599617401860085234;15014.172;158
2024-05-26T22:30:28.710;599617401867777024;15021.863;161
2024-05-26T22:30:28.718;599617401875468814;15029.556;179
2024-05-26T22:30:28.726;599617401883160604;15037.246;196
2024-05-26T22:30:28.733;599617401890852394;15044.938;207
2024-05-26T22:30:28.741;599617401898544184;15052.63;233
2024-05-26T22:30:28.749;599617401906235974;15060.322;249
2024-05-26T22:30:28.757;599617401913927764;15068.014;235
2024-05-26T22:30:28.764;599617401921619554;15075.706;238
2024-05-26T22:30:28.772;599617401929311344;15083.397;277
2024-05-26T22:30:28.780;599617401937003134;15091.09;310
2024-05-26T22:30:28.787;599617401944694924;15098.78;308
2024-05-26T22:30:28.795;599617401952386714;15106.473;312
2024-05-26T22:30:28.803;599617401960078504;15114.164;326
2024-05-26T22:30:28.810;599617401967770294;15121.856;343
2024-05-26T22:30:28.818;599617401975462084;15129.548;348
2024-05-26T22:30:28.826;599617401983153874;15137.24;312
2024-05-26T22:30:28.833;599617401990845664;15144.932;289
2024-05-26T22:30:28.841;599617401998537454;15152.624;291
2024-05-26T22:30:28.849;599617402006229256;15160.314;273
2024-05-26T22:30:28.857;599617402013921046;15168.007;249
2024-05-26T22:30:28.864;599617402021612836;15175.698;214
2024-05-26T22:30:28.872;599617402029304626;15183.391;126
2024-05-26T22:30:28.880;599617402036996416;15191.082;74
2024-05-26T22:30:28.887;599617402044688206;15198.774;91
2024-05-26T22:30:28.895;599617402052379996;15206.466;74
2024-05-26T22:30:28.903;599617402060071786;15214.158;7
2024-05-26T22:30:28.910;599617402067763576;15221.849;-65
2024-05-26T22:30:28.918;599617402075455366;15229.541;-93
2024-05-26T22:30:28.926;599617402083147156;15237.232;-84
2024-05-26T22:30:28.933;599617402090838946;15244.925;-91
2024-05-26T22:30:28.941;599617402098530736;15252.616;-109
2024-05-26T22:30:28.949;599617402106222526;15260.309;-88
2024-05-26T22:30:28.957;599617402113914316;15268.001;-51
2024-05-26T22:30:28.964;599617402121606106;15275.692;-44
2024-05-26T22:30:28.972;599617402129297896;15283.385;-46
2024-05-26T22:30:28.980;599617402136989686;15291.075;-21
2024-05-26T22:30:28.987;599617402144681476;15298.768;0
2024-05-26T22:30:28.995;599617402152373266;15306.459;-4
2024-05-26T22:30:29.003;599617402160065056;15314.151;0
2024-05-26T22:30:29.010;599617402167756846;15321.843;37
2024-05-26T22:30:29.018;599617402175448636;15329.535;65
2024-05-26T22:30:29.026;599617402183140426;15337.227;56
2024-05-26T22:30:29.033;599617402190832216;15344.919;30
2024-05-26T22:30:29.041;599617402198524006;15352.609;0
2024-05-26T22:30:29.049;599617402206215796;15360.302;-21
2024-05-26T22:30:29.056;599617402213907586;15367.993;-49
2024-05-26T22:30:29.064;599617402221599376;15375.686;-114
2024-05-26T22:30:29.072;599617402229291166;15383.377;-175
2024-05-26T22:30:29.080;599617402236982956;15391.069;-200
2024-05-26T22:30:29.087;599617402244674746;15398.761;-203
2024-05-26T22:30:29.095;599617402252366536;15406.453;-191
2024-05-26T22:30:29.103;599617402260058326;15414.144;-161
2024-05-26T22:30:29.110;599617402267750116;15421.836;-142
2024-05-26T22:30:29.118;599617402275441906;15429.527;-147
2024-05-26T22:30:29.126;599617402283133696;15437.22;-147
2024-05-26T22:30:29.133;599617402290825486;15444.911;-119
2024-05-26T22:30:29.141;599617402298517276;15452.604;-95
2024-05-26T22:30:29.149;599617402306209066;15460.295;-91
2024-05-26T22:30:29.156;599617402313900856;15467.987;-65
2024-05-26T22:30:29.164;599617402321592646;15475.678;-35
2024-05-26T22:30:29.172;599617402329284436;15483.37;-37
2024-05-26T22:30:29.180;599617402336976226;15491.062;-44
2024-05-26T22:30:29.187;599617402344668016;15498.754;-11
2024-05-26T22:30:29.195;599617402352359806;15506.445;25
2024-05-26T22:30:29.203;599617402360051596;15514.138;30
2024-05-26T22:30:29.210;599617402367743386;15521.829;28
2024-05-26T22:30:29.218;599617402375435176;15529.521;44
2024-05-26T22:30:29.226;599617402383126966;15537.214;77
2024-05-26T22:30:29.233;599617402390818756;15544.904;107
2024-05-26T22:30:29.241;599617402398510546;15552.597;133
2024-05-26T22:30:29.249;599617402406202336;15560.288;154
2024-05-26T22:30:29.256;599617402413894126;15567.98;158
2024-05-26T22:30:29.264;599617402421585916;15575.672;142
2024-05-26T22:30:29.272;599617402429277706;15583.364;144
2024-05-26T22:30:29.280;599617402436969496;15591.056;177
2024-05-26T22:30:29.287;599617402444661286;15598.748;207
2024-05-26T22:30:29.295;599617402452353076;15606.438;200
2024-05-26T22:30:29.303;599617402460044866;15614.131;161
2024-05-26T22:30:29.310;599617402467736656;15621.822;135
2024-05-26T22:30:29.318;599617402475428446;15629.515;254
2024-05-26T22:30:29.326;599617402483120236;15637.206;637
2024-05-26T22:30:29.333;599617402490812026;15644.898;1065
2024-05-26T22:30:29.341;599617402498503816;15652.59;1020
2024-05-26T22:30:29.349;599617402506195606;15660.282;448
2024-05-26T22:30:29.356;599617402513887396;15667.973;11
2024-05-26T22:30:29.364;599617402521579186;15675.665;49
2024-05-26T22:30:29.372;599617402529270976;15683.356;77
2024-05-26T22:30:29.380;599617402536962766;15691.049;-74
2024-05-26T22:30:29.387;599617402544654556;15698.74;-84
2024-05-26T22:30:29.395;599617402552346346;15706.433;-7
2024-05-26T22:30:29.403;599617402560038136;15714.124;-7
2024-05-26T22:30:29.410;599617402567760034;15721.846;-9
2024-05-26T22:30:29.418;599617402575451406;15729.537;28
2024-05-26T22:30:29.426;599617402583142778;15737.229;65
2024-05-26T22:30:29.433;599617402590834150;15744.921;98
2024-05-26T22:30:29.441;599617402598525522;15752.612;109
2024-05-26T22:30:29.449;599617402606216894;15760.303;93
2024-05-26T22:30:29.456;599617402613908266;15767.994;102
2024-05-26T22:30:29.464;599617402621599638;15775.686;149
2024-05-26T22:30:29.472;599617402629291010;15783.377;137
2024-05-26T22:30:29.480;599617402636982382;15791.068;72
2024-05-26T22:30:29.487;599617402644673754;15798.76;67
2024-05-26T22:30:29.495;599617402652365126;15806.451;107
2024-05-26T22:30:29.503;599617402660056498;15814.142;116
2024-05-26T22:30:29.510;599617402667747870;15821.834;128
2024-05-26T22:30:29.518;599617402675439242;15829.525;177
2024-05-26T22:30:29.526;599617402683130614;15837.217;219
2024-05-26T22:30:29.533;599617402690821986;15844.908;221
2024-05-26T22:30:29.541;599617402698513358;15852.6;210
2024-05-26T22:30:29.549;599617402706204730;15860.291;224
2024-05-26T22:30:29.556;599617402713896102;15867.981;224
2024-05-26T22:30:29.564;599617402721587474;15875.673;154
2024-05-26T22:30:29.572;599617402729278846;15883.364;77
2024-05-26T22:30:29.580;599617402736970218;15891.057;74
2024-05-26T22:30:29.587;599617402744661590;15898.748;77
2024-05-26T22:30:29.595;599617402752352962;15906.439;46
2024-05-26T22:30:29.603;599617402760044334;15914.131;44
2024-05-26T22:30:29.610;599617402767735706;15921.821;70
2024-05-26T22:30:29.618;599617402775427078;15929.513;81
2024-05-26T22:30:29.626;599617402783118450;15937.204;70
2024-05-26T22:30:29.633;599617402790809822;15944.8955;49
2024-05-26T22:30:29.641;599617402798501194;15952.587;67
2024-05-26T22:30:29.649;599617402806192566;15960.279;102
2024-05-26T22:30:29.656;599617402813883938;15967.971;109
2024-05-26T22:30:29.664;599617402821575310;15975.661;112
2024-05-26T22:30:29.672;599617402829266682;15983.353;135
2024-05-26T22:30:29.680;599617402836958054;15991.044;130
