Phone timestamp;sensor timestamp [ns];timestamp [ms];ecg [uV]
2024-05-26T22:11:17.611;599616250735004666;0.0;845
2024-05-26T22:11:17.618;599616250742696874;7.692208;1427
2024-05-26T22:11:17.626;599616250750389082;15.384416;1982
2024-05-26T22:11:17.634;599616250758081290;23.076624;2634
2024-05-26T22:11:17.641;599616250765773498;30.768831;3239
2024-05-26T22:11:17.649;599616250773465706;38.46104;3802
2024-05-26T22:11:17.657;599616250781157914;46.153248;4367
2024-05-26T22:11:17.664;599616250788850122;53.845455;4893
2024-05-26T22:11:17.672;599616250796542330;61.537663;5409
2024-05-26T22:11:17.680;599616250804234538;69.22987;5918
2024-05-26T22:11:17.687;599616250811926746;76.92208;6350
2024-05-26T22:11:17.695;599616250819618954;84.61429;6742
2024-05-26T22:11:17.703;599616250827311162;92.306496;7174
2024-05-26T22:11:17.710;599616250835003370;99.9987;7611
2024-05-26T22:11:17.718;599616250842695578;107.69091;7997
2024-05-26T22:11:17.726;599616250850387786;115.38312;8333
2024-05-26T22:11:17.734;599616250858079994;123.075325;8686
2024-05-26T22:11:17.741;599616250865772202;130.76753;9069
2024-05-26T22:11:17.749;599616250873464410;138.45975;9337
2024-05-26T22:11:17.757;599616250881156618;146.15195;9552
2024-05-26T22:11:17.764;599616250888848826;153.84416;9912
2024-05-26T22:11:17.772;599616250896541034;161.53636;10267
2024-05-26T22:11:17.780;599616250904233242;169.22858;10440
2024-05-26T22:11:17.787;599616250911925450;176.92079;10627
2024-05-26T22:11:17.795;599616250919617658;184.61299;10942
2024-05-26T22:11:17.803;599616250927309866;192.3052;11217
2024-05-26T22:11:17.810;599616250935002074;199.9974;11397
2024-05-26T22:11:17.818;599616250942694282;207.68962;11575
2024-05-26T22:11:17.826;599616250950386490;215.38182;11771
2024-05-26T22:11:17.834;599616250958078698;223.07404;11948
2024-05-26T22:11:17.841;599616250965770906;230.76624;12075
2024-05-26T22:11:17.849;599616250973463114;238.45845;12215
2024-05-26T22:11:17.857;599616250981155322;246.15065;12451
2024-05-26T22:11:17.864;599616250988847530;253.84286;12633
2024-05-26T22:11:17.872;599616250996539738;261.53506;12640
2024-05-26T22:11:17.880;599616251004231946;269.22726;12696
2024-05-26T22:11:17.887;599616251011924154;276.9195;12894
2024-05-26T22:11:17.895;599616251019616362;284.61172;13028
2024-05-26T22:11:17.903;599616251027308570;292.3039;13093
2024-05-26T22:11:17.910;599616251035000778;299.9961;13182
2024-05-26T22:11:17.918;599616251042692986;307.68832;13247
2024-05-26T22:11:17.926;599616251050385194;315.38055;13270
2024-05-26T22:11:17.934;599616251058077402;323.07272;13273
2024-05-26T22:11:17.941;599616251065769610;330.76492;13331
2024-05-26T22:11:17.949;599616251073461818;338.45715;13495
2024-05-26T22:11:17.957;599616251081154026;346.14938;13546
2024-05-26T22:11:17.964;599616251088846234;353.84158;13415
2024-05-26T22:11:17.972;599616251096538442;361.53375;13390
2024-05-26T22:11:17.980;599616251104230650;369.22598;13544
2024-05-26T22:11:17.987;599616251111922858;376.9182;13658
2024-05-26T22:11:17.995;599616251119615066;384.6104;13595
2024-05-26T22:11:18.003;599616251127307274;392.30258;13483
2024-05-26T22:11:18.010;599616251134999482;399.9948;13467
2024-05-26T22:11:18.018;599616251142691690;407.68704;13432
2024-05-26T22:11:18.026;599616251150383898;415.37924;13345
2024-05-26T22:11:18.034;599616251158076106;423.0714;13380
2024-05-26T22:11:18.041;599616251165768314;430.76364;13504
2024-05-26T22:11:18.049;599616251173460522;438.45587;13455
2024-05-26T22:11:18.057;599616251181152730;446.14807;13277
2024-05-26T22:11:18.064;599616251188844938;453.84027;13259
2024-05-26T22:11:18.072;599616251196537146;461.53247;13312
2024-05-26T22:11:18.080;599616251204229354;469.2247;13217
2024-05-26T22:11:18.087;599616251211921562;476.9169;13142
2024-05-26T22:11:18.095;599616251219613770;484.6091;13177
2024-05-26T22:11:18.103;599616251227305978;492.3013;13175
2024-05-26T22:11:18.110;599616251234998186;499.99353;13182
2024-05-26T22:11:18.118;599616251242690394;507.68573;13051
2024-05-26T22:11:18.126;599616251250382602;515.3779;12710
2024-05-26T22:11:18.134;599616251258074810;523.0701;12605
2024-05-26T22:11:18.141;599616251265767018;530.7624;12738
2024-05-26T22:11:18.149;599616251273459226;538.4545;12929
2024-05-26T22:11:18.157;599616251281151434;546.1467;13256
2024-05-26T22:11:18.164;599616251288843642;553.839;13228
2024-05-26T22:11:18.172;599616251296565962;561.5613;12567
2024-05-26T22:11:18.180;599616251304257752;569.25305;12105
2024-05-26T22:11:18.187;599616251311949542;576.9449;12198
2024-05-26T22:11:18.195;599616251319641332;584.63666;12159
2024-05-26T22:11:18.203;599616251327333122;592.3284;11876
2024-05-26T22:11:18.211;599616251335024912;600.0202;11806
2024-05-26T22:11:18.218;599616251342716702;607.71204;11867
2024-05-26T22:11:18.226;599616251350408492;615.4039;11867
2024-05-26T22:11:18.234;599616251358100282;623.09564;11787
2024-05-26T22:11:18.241;599616251365792072;630.7874;11582
2024-05-26T22:11:18.249;599616251373483862;638.4792;11465
2024-05-26T22:11:18.257;599616251381175652;646.171;11400
2024-05-26T22:11:18.264;599616251388867442;653.8628;11124
2024-05-26T22:11:18.272;599616251396559232;661.55457;10989
2024-05-26T22:11:18.280;599616251404251022;669.24634;11054
2024-05-26T22:11:18.287;599616251411942812;676.9382;10904
2024-05-26T22:11:18.295;599616251419634602;684.62994;10687
2024-05-26T22:11:18.303;599616251427326392;692.3217;10685
2024-05-26T22:11:18.311;599616251435018182;700.0135;10704
2024-05-26T22:11:18.318;599616251442709972;707.70526;10615
2024-05-26T22:11:18.326;599616251450401762;715.3971;10547
2024-05-26T22:11:18.334;599616251458093552;723.08887;10484
2024-05-26T22:11:18.341;599616251465785342;730.7807;10328
2024-05-26T22:11:18.349;599616251473477132;738.4725;10155
2024-05-26T22:11:18.357;599616251481168922;746.16425;10059
2024-05-26T22:11:18.364;599616251488860712;753.8561;10040
2024-05-26T22:11:18.372;599616251496552502;761.54785;9987
2024-05-26T22:11:18.380;599616251504244292;769.2396;9804
2024-05-26T22:11:18.387;599616251511936082;776.9314;9653
2024-05-26T22:11:18.395;599616251519627872;784.6232;9632
2024-05-26T22:11:18.403;599616251527319662;792.315;9590
2024-05-26T22:11:18.411;599616251535011452;800.0068;9468
2024-05-26T22:11:18.418;599616251542703242;807.69855;9354
2024-05-26T22:11:18.426;599616251550395032;815.3903;9267
2024-05-26T22:11:18.434;599616251558086822;823.08215;9171
2024-05-26T22:11:18.441;599616251565778612;830.7739;9062
2024-05-26T22:11:18.449;599616251573470402;838.4657;8994
2024-05-26T22:11:18.457;599616251581162192;846.15753;8931
2024-05-26T22:11:18.464;599616251588853982;853.84937;8788
2024-05-26T22:11:18.472;599616251596545772;861.54114;8620
2024-05-26T22:11:18.480;599616251604237562;869.2329;8464
2024-05-26T22:11:18.487;599616251611929352;876.9247;8265
2024-05-26T22:11:18.495;599616251619621142;884.61646;8071
2024-05-26T22:11:18.503;599616251627312932;892.3083;7962
2024-05-26T22:11:18.511;599616251635004722;900.00006;7892
2024-05-26T22:11:18.518;599616251642696512;907.69183;7798
2024-05-26T22:11:18.526;599616251650388302;915.3836;7698
2024-05-26T22:11:18.534;599616251658080092;923.07544;7597
2024-05-26T22:11:18.541;599616251665771882;930.7672;7537
2024-05-26T22:11:18.549;599616251673463672;938.459;7523
2024-05-26T22:11:18.557;599616251681155462;946.15076;7434
2024-05-26T22:11:18.564;599616251688847252;953.8426;7275
2024-05-26T22:11:18.572;599616251696539042;961.5344;7205
2024-05-26T22:11:18.580;599616251704230832;969.2262;7198
2024-05-26T22:11:18.587;599616251711922622;976.91797;7116
2024-05-26T22:11:18.595;599616251719614412;984.60974;7018
2024-05-26T22:11:18.603;599616251727306202;992.3016;6997
2024-05-26T22:11:18.610;599616251734997992;999.99335;6976
2024-05-26T22:11:18.618;599616251742689782;1007.6851;6822
2024-05-26T22:11:18.626;599616251750381572;1015.3769;6588
2024-05-26T22:11:18.634;599616251758073362;1023.06866;6521
2024-05-26T22:11:18.641;599616251765765152;1030.7605;6553
2024-05-26T22:11:18.649;599616251773456942;1038.4523;6443
2024-05-26T22:11:18.657;599616251781148732;1046.144;6303
2024-05-26T22:11:18.664;599616251788840522;1053.8358;6292
2024-05-26T22:11:18.672;599616251796532312;1061.5276;6287
2024-05-26T22:11:18.680;599616251804224102;1069.2195;6191
2024-05-26T22:11:18.687;599616251811915892;1076.9113;6130
2024-05-26T22:11:18.695;599616251819607682;1084.603;6114
2024-05-26T22:11:18.703;599616251827299472;1092.2948;6028
2024-05-26T22:11:18.710;599616251834991262;1099.9866;5925
2024-05-26T22:11:18.718;599616251842683052;1107.6783;5916
2024-05-26T22:11:18.726;599616251850374842;1115.3702;5911
2024-05-26T22:11:18.734;599616251858066644;1123.062;5787
2024-05-26T22:11:18.741;599616251865758434;1130.7538;5612
2024-05-26T22:11:18.749;599616251873450224;1138.4456;5530
2024-05-26T22:11:18.757;599616251881142014;1146.1373;5523
2024-05-26T22:11:18.764;599616251888833804;1153.8291;5486
2024-05-26T22:11:18.772;599616251896525594;1161.5209;5409
2024-05-26T22:11:18.780;599616251904217384;1169.2126;5381
2024-05-26T22:11:18.787;599616251911909174;1176.9044;5392
2024-05-26T22:11:18.795;599616251919600964;1184.5963;5271
2024-05-26T22:11:18.803;599616251927292754;1192.2881;5040
2024-05-26T22:11:18.810;599616251934984544;1199.9799;4970
2024-05-26T22:11:18.818;599616251942676334;1207.6716;5030
2024-05-26T22:11:18.826;599616251950368124;1215.3634;4995
2024-05-26T22:11:18.834;599616251958059914;1223.0552;4886
2024-05-26T22:11:18.841;599616251965751704;1230.747;4834
2024-05-26T22:11:18.849;599616251973443494;1238.4388;4825
2024-05-26T22:11:18.857;599616251981135284;1246.1306;4769
2024-05-26T22:11:18.864;599616251988827074;1253.8225;4701
2024-05-26T22:11:18.872;599616251996518864;1261.5143;4692
2024-05-26T22:11:18.880;599616252004210654;1269.206;4675
2024-05-26T22:11:18.887;599616252011902444;1276.8978;4584
2024-05-26T22:11:18.895;599616252019594234;1284.5896;4503
2024-05-26T22:11:18.903;599616252027286024;1292.2814;4482
2024-05-26T22:11:18.910;599616252034977814;1299.9731;4428
2024-05-26T22:11:18.918;599616252042669604;1307.6649;4400
2024-05-26T22:11:18.926;599616252050361394;1315.3567;4594
2024-05-26T22:11:18.934;599616252058053184;1323.0486;4974
2024-05-26T22:11:18.941;599616252065744974;1330.7404;5143
2024-05-26T22:11:18.949;599616252073436764;1338.4321;4727
2024-05-26T22:11:18.957;599616252081128554;1346.1239;4141
2024-05-26T22:11:18.964;599616252088820344;1353.8157;4040
2024-05-26T22:11:18.972;599616252096512134;1361.5074;4122
2024-05-26T22:11:18.980;599616252104203924;1369.1992;3935
2024-05-26T22:11:18.987;599616252111895714;1376.891;3786
2024-05-26T22:11:18.995;599616252119587504;1384.5828;3830
2024-05-26T22:11:19.003;599616252127279294;1392.2747;3823
2024-05-26T22:11:19.010;599616252134971084;1399.9664;3746
2024-05-26T22:11:19.018;599616252142662874;1407.6582;3706
2024-05-26T22:11:19.026;599616252150354664;1415.35;3683
2024-05-26T22:11:19.034;599616252158046454;1423.0417;3641
2024-05-26T22:11:19.041;599616252165738244;1430.7335;3601
2024-05-26T22:11:19.049;599616252173430034;1438.4253;3587
2024-05-26T22:11:19.057;599616252181121824;1446.1171;3589
2024-05-26T22:11:19.064;599616252188813614;1453.8088;3545
2024-05-26T22:11:19.072;599616252196505404;1461.5009;3466
2024-05-26T22:11:19.080;599616252204197194;1469.1926;3440
2024-05-26T22:11:19.087;599616252211888984;1476.8844;3454
2024-05-26T22:11:19.095;599616252219580774;1484.5762;3421
2024-05-26T22:11:19.103;599616252227272564;1492.268;3370
2024-05-26T22:11:19.110;599616252234964354;1499.9597;3356
2024-05-26T22:11:19.118;599616252242656144;1507.6515;3335
2024-05-26T22:11:19.126;599616252250347934;1515.3433;3223
2024-05-26T22:11:19.134;599616252258039724;1523.035;3083
2024-05-26T22:11:19.141;599616252265731514;1530.7269;3059
2024-05-26T22:11:19.149;599616252273423304;1538.4187;3087
2024-05-26T22:11:19.157;599616252281115094;1546.1105;3043
2024-05-26T22:11:19.164;599616252288806884;1553.8022;2973
2024-05-26T22:11:19.172;599616252296498674;1561.494;2959
2024-05-26T22:11:19.180;599616252304190464;1569.1858;2963
2024-05-26T22:11:19.187;599616252311882254;1576.8776;2928
2024-05-26T22:11:19.195;599616252319574044;1584.5693;2889
2024-05-26T22:11:19.203;599616252327265834;1592.2611;2854
2024-05-26T22:11:19.210;599616252334957624;1599.9529;2814
2024-05-26T22:11:19.218;599616252342649414;1607.6448;2772
2024-05-26T22:11:19.226;599616252350341204;1615.3365;2685
2024-05-26T22:11:19.234;599616252358032994;1623.0283;2573
2024-05-26T22:11:19.241;599616252365724784;1630.7201;2496
2024-05-26T22:11:19.249;599616252373416574;1638.4119;2417
2024-05-26T22:11:19.257;599616252381108364;1646.1036;2347
2024-05-26T22:11:19.264;599616252388800154;1653.7954;2342
2024-05-26T22:11:19.272;599616252396491944;1661.4872;2333
2024-05-26T22:11:19.280;599616252404183734;1669.179;2288
2024-05-26T22:11:19.287;599616252411875524;1676.871;2274
2024-05-26T22:11:19.295;599616252419537230;1684.5326;2270
2024-05-26T22:11:19.303;599616252427229438;1692.2247;2221
2024-05-26T22:11:19.310;599616252434921646;1699.9169;2172
2024-05-26T22:11:19.318;599616252442613854;1707.6093;2174
2024-05-26T22:11:19.326;599616252450306062;1715.3014;2186
2024-05-26T22:11:19.333;599616252457998270;1722.9937;2153
2024-05-26T22:11:19.341;599616252465690478;1730.6858;2102
2024-05-26T22:11:19.349;599616252473382686;1738.3779;2067
2024-05-26T22:11:19.357;599616252481074894;1746.0703;2001
2024-05-26T22:11:19.364;599616252488767102;1753.7625;1880
2024-05-26T22:11:19.372;599616252496459310;1761.4546;1740
2024-05-26T22:11:19.380;599616252504151518;1769.1469;1651
2024-05-26T22:11:19.387;599616252511843726;1776.839;1616
2024-05-26T22:11:19.395;599616252519535934;1784.5314;1564
2024-05-26T22:11:19.403;599616252527228142;1792.2235;1525
2024-05-26T22:11:19.410;599616252534920350;1799.9156;1539
2024-05-26T22:11:19.418;599616252542612558;1807.6079;1546
2024-05-26T22:11:19.426;599616252550304766;1815.3;1513
2024-05-26T22:11:19.433;599616252557996974;1822.9923;1476
2024-05-26T22:11:19.441;599616252565689182;1830.6846;1473
2024-05-26T22:11:19.449;599616252573381390;1838.3767;1478
2024-05-26T22:11:19.457;599616252581073598;1846.069;1462
2024-05-26T22:11:19.464;599616252588765806;1853.7611;1424
2024-05-26T22:11:19.472;599616252596458014;1861.4534;1373
2024-05-26T22:11:19.480;599616252604150222;1869.1456;1326
2024-05-26T22:11:19.487;599616252611842430;1876.8378;1307
2024-05-26T22:11:19.495;599616252619534638;1884.5299;1314
2024-05-26T22:11:19.503;599616252627226846;1892.2222;1338
2024-05-26T22:11:19.510;599616252634919054;1899.9144;1349
2024-05-26T22:11:19.518;599616252642611262;1907.6067;1340
2024-05-26T22:11:19.526;599616252650303470;1915.2988;1331
2024-05-26T22:11:19.533;599616252657995678;1922.991;1333
2024-05-26T22:11:19.541;599616252665687886;1930.6832;1340
2024-05-26T22:11:19.549;599616252673380094;1938.3754;1345
2024-05-26T22:11:19.557;599616252681072302;1946.0676;1354
2024-05-26T22:11:19.564;599616252688764510;1953.7599;1371
2024-05-26T22:11:19.572;599616252696456718;1961.452;1356
2024-05-26T22:11:19.580;599616252704148926;1969.1443;1326
2024-05-26T22:11:19.587;599616252711841134;1976.8364;1342
2024-05-26T22:11:19.595;599616252719533342;1984.5287;1373
2024-05-26T22:11:19.603;599616252727225550;1992.221;1368
2024-05-26T22:11:19.610;599616252734917758;1999.9131;1354
2024-05-26T22:11:19.618;599616252742609966;2007.6052;1352
2024-05-26T22:11:19.626;599616252750302174;2015.2975;1307
2024-05-26T22:11:19.633;599616252757994382;2022.9897;1195
2024-05-26T22:11:19.641;599616252765686590;2030.682;1114
2024-05-26T22:11:19.649;599616252773378798;2038.3741;1158
2024-05-26T22:11:19.657;599616252781071006;2046.0663;1212
2024-05-26T22:11:19.664;599616252788763214;2053.7585;1174
2024-05-26T22:11:19.672;599616252796455422;2061.4507;1144
2024-05-26T22:11:19.680;599616252804147630;2069.1428;1179
2024-05-26T22:11:19.687;599616252811839838;2076.8352;1202
2024-05-26T22:11:19.695;599616252819532046;2084.5273;1186
2024-05-26T22:11:19.703;599616252827224254;2092.2197;1181
2024-05-26T22:11:19.710;599616252834916462;2099.9119;1158
2024-05-26T22:11:19.718;599616252842608670;2107.604;1081
2024-05-26T22:11:19.726;599616252850300878;2115.2961;1037
2024-05-26T22:11:19.733;599616252857993086;2122.9885;1046
2024-05-26T22:11:19.741;599616252865685294;2130.6807;1044
2024-05-26T22:11:19.749;599616252873377502;2138.3728;1076
2024-05-26T22:11:19.757;599616252881069710;2146.065;1279
2024-05-26T22:11:19.764;599616252888761918;2153.757;1674
2024-05-26T22:11:19.772;599616252896454126;2161.4495;1947
2024-05-26T22:11:19.780;599616252904146334;2169.1418;1681
2024-05-26T22:11:19.787;599616252911838542;2176.8337;1130
2024-05-26T22:11:19.795;599616252919530750;2184.5261;966
2024-05-26T22:11:19.803;599616252927222958;2192.2183;1102
2024-05-26T22:11:19.810;599616252934915166;2199.9104;1072
2024-05-26T22:11:19.818;599616252942607374;2207.6028;978
2024-05-26T22:11:19.826;599616252950299582;2215.295;1022
2024-05-26T22:11:19.833;599616252957991790;2222.987;1062
2024-05-26T22:11:19.841;599616252965683998;2230.6792;1030
2024-05-26T22:11:19.849;599616252973376206;2238.3716;1006
2024-05-26T22:11:19.857;599616252981098526;2246.0938;1025
2024-05-26T22:11:19.864;599616252988790316;2253.7856;1046
2024-05-26T22:11:19.872;599616252996482106;2261.4773;1048
2024-05-26T22:11:19.880;599616253004173896;2269.1692;1041
2024-05-26T22:11:19.887;599616253011865686;2276.8608;1048
2024-05-26T22:11:19.895;599616253019557476;2284.5527;1039
2024-05-26T22:11:19.903;599616253027249266;2292.2444;962
2024-05-26T22:11:19.910;599616253034941056;2299.9365;859
2024-05-26T22:11:19.918;599616253042632846;2307.6282;847
2024-05-26T22:11:19.926;599616253050324636;2315.32;889
2024-05-26T22:11:19.934;599616253058016426;2323.0117;880
2024-05-26T22:11:19.941;599616253065708216;2330.7036;845
2024-05-26T22:11:19.949;599616253073400006;2338.3955;852
2024-05-26T22:11:19.957;599616253081091796;2346.0872;854
2024-05-26T22:11:19.964;599616253088783586;2353.779;796
2024-05-26T22:11:19.972;599616253096475376;2361.4707;766
2024-05-26T22:11:19.980;599616253104167166;2369.1626;801
2024-05-26T22:11:19.987;599616253111858956;2376.8542;808
2024-05-26T22:11:19.995;599616253119550746;2384.5461;787
2024-05-26T22:11:20.003;599616253127242536;2392.2378;803
2024-05-26T22:11:20.010;599616253134934326;2399.9297;838
2024-05-26T22:11:20.018;599616253142626116;2407.6213;852
2024-05-26T22:11:20.026;599616253150317906;2415.3132;845
2024-05-26T22:11:20.034;599616253158009696;2423.005;826
2024-05-26T22:11:20.041;599616253165701486;2430.6968;824
2024-05-26T22:11:20.049;599616253173393276;2438.3887;833
2024-05-26T22:11:20.057;599616253181085066;2446.0806;812
2024-05-26T22:11:20.064;599616253188776856;2453.7722;796
2024-05-26T22:11:20.072;599616253196468646;2461.464;805
2024-05-26T22:11:20.080;599616253204160436;2469.1558;752
2024-05-26T22:11:20.087;599616253211852226;2476.8477;649
2024-05-26T22:11:20.095;599616253219544016;2484.5393;625
2024-05-26T22:11:20.103;599616253227235806;2492.2312;663
2024-05-26T22:11:20.110;599616253234927596;2499.9229;656
2024-05-26T22:11:20.118;599616253242619386;2507.6147;628
2024-05-26T22:11:20.126;599616253250311176;2515.3064;604
2024-05-26T22:11:20.133;599616253258002966;2522.9983;532
2024-05-26T22:11:20.141;599616253265694756;2530.69;418
2024-05-26T22:11:20.149;599616253273386546;2538.3818;385
2024-05-26T22:11:20.157;599616253281078336;2546.0735;432
2024-05-26T22:11:20.164;599616253288770126;2553.7654;448
2024-05-26T22:11:20.172;599616253296461916;2561.457;420
2024-05-26T22:11:20.180;599616253304153706;2569.149;411
2024-05-26T22:11:20.187;599616253311845496;2576.8408;446
2024-05-26T22:11:20.195;599616253319537286;2584.5327;464
2024-05-26T22:11:20.203;599616253327229076;2592.2246;408
2024-05-26T22:11:20.210;599616253334920866;2599.9163;310
2024-05-26T22:11:20.218;599616253342612656;2607.6082;242
2024-05-26T22:11:20.226;599616253350304446;2615.2998;200
2024-05-26T22:11:20.233;599616253357996236;2622.9917;168
2024-05-26T22:11:20.241;599616253365688026;2630.6833;168
2024-05-26T22:11:20.249;599616253373379816;2638.3752;186
2024-05-26T22:11:20.257;599616253381071606;2646.067;196
2024-05-26T22:11:20.264;599616253388763396;2653.7588;177
2024-05-26T22:11:20.272;599616253396455186;2661.4504;170
2024-05-26T22:11:20.280;599616253404146976;2669.1423;198
2024-05-26T22:11:20.287;599616253411838766;2676.834;221
2024-05-26T22:11:20.295;599616253419530556;2684.526;226
2024-05-26T22:11:20.303;599616253427222346;2692.2175;233
2024-05-26T22:11:20.310;599616253434914136;2699.9094;245
2024-05-26T22:11:20.318;599616253442605926;2707.601;245
2024-05-26T22:11:20.326;599616253450297716;2715.293;252
2024-05-26T22:11:20.333;599616253457989506;2722.9849;280
2024-05-26T22:11:20.341;599616253465681296;2730.6768;315
2024-05-26T22:11:20.349;599616253473373086;2738.3684;324
2024-05-26T22:11:20.357;599616253481064876;2746.0603;312
2024-05-26T22:11:20.364;599616253488756666;2753.752;322
2024-05-26T22:11:20.372;599616253496448456;2761.4438;355
2024-05-26T22:11:20.380;599616253504140246;2769.1355;371
2024-05-26T22:11:20.387;599616253511832036;2776.8274;378
2024-05-26T22:11:20.395;599616253519523826;2784.5193;406
2024-05-26T22:11:20.403;599616253527215616;2792.211;422
2024-05-26T22:11:20.410;599616253534907406;2799.9028;408
2024-05-26T22:11:20.418;599616253542594240;2807.5896;411
2024-05-26T22:11:20.426;599616253550286099;2815.2815;439
2024-05-26T22:11:20.433;599616253557977958;2822.9731;471
2024-05-26T22:11:20.441;599616253565669817;2830.6653;490
2024-05-26T22:11:20.449;599616253573361676;2838.357;455
2024-05-26T22:11:20.457;599616253581053535;2846.0488;397
2024-05-26T22:11:20.464;599616253588745394;2853.7407;387
2024-05-26T22:11:20.472;599616253596437253;2861.4326;369
2024-05-26T22:11:20.480;599616253604129112;2869.1243;298
2024-05-26T22:11:20.487;599616253611820971;2876.8164;282
2024-05-26T22:11:20.495;599616253619512830;2884.508;317
2024-05-26T22:11:20.503;599616253627204689;2892.2;310
2024-05-26T22:11:20.510;599616253634896548;2899.892;303
2024-05-26T22:11:20.518;599616253642588407;2907.5837;340
2024-05-26T22:11:20.526;599616253650280266;2915.2756;392
2024-05-26T22:11:20.533;599616253657972125;2922.9675;413
2024-05-26T22:11:20.541;599616253665663984;2930.6594;406
2024-05-26T22:11:20.549;599616253673355843;2938.351;420
2024-05-26T22:11:20.557;599616253681047702;2946.0432;457
2024-05-26T22:11:20.564;599616253688739561;2953.7349;460
2024-05-26T22:11:20.572;599616253696431420;2961.4268;450
2024-05-26T22:11:20.580;599616253704123279;2969.1187;474
2024-05-26T22:11:20.587;599616253711815138;2976.8105;481
2024-05-26T22:11:20.595;599616253719506997;2984.5022;460
2024-05-26T22:11:20.603;599616253727198856;2992.1943;467
2024-05-26T22:11:20.610;599616253734890715;2999.886;495
2024-05-26T22:11:20.618;599616253742582574;3007.578;488
2024-05-26T22:11:20.626;599616253750274433;3015.2698;460
2024-05-26T22:11:20.633;599616253757966292;3022.9617;548
2024-05-26T22:11:20.641;599616253765658151;3030.6533;838
2024-05-26T22:11:20.649;599616253773350010;3038.3452;1144
2024-05-26T22:11:20.657;599616253781041869;3046.0374;1100
2024-05-26T22:11:20.664;599616253788733728;3053.729;623
2024-05-26T22:11:20.672;599616253796425587;3061.421;228
2024-05-26T22:11:20.680;599616253804117446;3069.1128;259
2024-05-26T22:11:20.687;599616253811809305;3076.8047;333
2024-05-26T22:11:20.695;599616253819501164;3084.4963;226
2024-05-26T22:11:20.703;599616253827193023;3092.1885;163
2024-05-26T22:11:20.710;599616253834884882;3099.8801;205
2024-05-26T22:11:20.718;599616253842576741;3107.572;214
2024-05-26T22:11:20.726;599616253850268600;3115.264;203
2024-05-26T22:11:20.733;599616253857960459;3122.9558;238
2024-05-26T22:11:20.741;599616253865652318;3130.6475;275
2024-05-26T22:11:20.749;599616253873344177;3138.3396;275
2024-05-26T22:11:20.757;599616253881036036;3146.0312;298
2024-05-26T22:11:20.764;599616253888727895;3153.7231;345
2024-05-26T22:11:20.772;599616253896419754;3161.4153;343
2024-05-26T22:11:20.780;599616253904111613;3169.107;324
2024-05-26T22:11:20.787;599616253911803472;3176.7988;362
2024-05-26T22:11:20.795;599616253919495331;3184.4907;411
2024-05-26T22:11:20.803;599616253927187190;3192.1826;415
2024-05-26T22:11:20.810;599616253934879049;3199.8743;408
2024-05-26T22:11:20.818;599616253942570908;3207.5664;422
2024-05-26T22:11:20.826;599616253950262767;3215.258;446
2024-05-26T22:11:20.833;599616253957954626;3222.95;457
2024-05-26T22:11:20.841;599616253965646485;3230.6418;467
2024-05-26T22:11:20.849;599616253973338344;3238.3337;495
2024-05-26T22:11:20.857;599616253981030203;3246.0254;523
2024-05-26T22:11:20.864;599616253988722062;3253.7175;506
2024-05-26T22:11:20.872;599616253996413921;3261.4092;490
2024-05-26T22:11:20.880;599616254004105780;3269.101;527
2024-05-26T22:11:20.887;599616254011797639;3276.793;558
2024-05-26T22:11:20.895;599616254019489498;3284.4849;520
2024-05-26T22:11:20.903;599616254027181357;3292.1768;446
2024-05-26T22:11:20.910;599616254034873216;3299.8687;397
2024-05-26T22:11:20.918;599616254042565075;3307.5605;373
2024-05-26T22:11:20.926;599616254050256934;3315.2522;350
2024-05-26T22:11:20.933;599616254057948793;3322.944;326
2024-05-26T22:11:20.941;599616254065640652;3330.636;289
2024-05-26T22:11:20.949;599616254073332511;3338.328;196
2024-05-26T22:11:20.957;599616254081024370;3346.0195;105
2024-05-26T22:11:20.964;599616254088716229;3353.7117;95
2024-05-26T22:11:20.972;599616254096408088;3361.4033;130
2024-05-26T22:11:20.980;599616254104079920;3369.0752;140
2024-05-26T22:11:20.987;599616254111772058;3376.7676;140
2024-05-26T22:11:20.995;599616254119464196;3384.4595;154
2024-05-26T22:11:21.003;599616254127156334;3392.1516;156
2024-05-26T22:11:21.010;599616254134848472;3399.8438;86
2024-05-26T22:11:21.018;599616254142540610;3407.536;-37
2024-05-26T22:11:21.026;599616254150232748;3415.2283;-93
2024-05-26T22:11:21.033;599616254157924886;3422.9202;-84
2024-05-26T22:11:21.041;599616254165617024;3430.6125;-135
2024-05-26T22:11:21.049;599616254173309162;3438.3044;-212
2024-05-26T22:11:21.056;599616254181001300;3445.9966;-207
2024-05-26T22:11:21.064;599616254188693438;3453.6887;-163
2024-05-26T22:11:21.072;599616254196385576;3461.3809;-156
2024-05-26T22:11:21.080;599616254204077714;3469.0732;-156
2024-05-26T22:11:21.087;599616254211769852;3476.7651;-126
2024-05-26T22:11:21.095;599616254219461990;3484.4573;-116
2024-05-26T22:11:21.103;599616254227154128;3492.1494;-133
2024-05-26T22:11:21.110;599616254234846266;3499.8416;-121
2024-05-26T22:11:21.118;599616254242538404;3507.534;-74
2024-05-26T22:11:21.126;599616254250230542;3515.2258;-37
2024-05-26T22:11:21.133;599616254257922680;3522.918;-39
2024-05-26T22:11:21.141;599616254265614818;3530.61;-86
2024-05-26T22:11:21.149;599616254273306956;3538.3022;-165
2024-05-26T22:11:21.156;599616254280999094;3545.9944;-219
2024-05-26T22:11:21.164;599616254288691232;3553.6865;-200
2024-05-26T22:11:21.172;599616254296383370;3561.379;-163
2024-05-26T22:11:21.180;599616254304075508;3569.0708;-137
2024-05-26T22:11:21.187;599616254311767646;3576.763;-151
2024-05-26T22:11:21.195;599616254319459784;3584.455;-203
2024-05-26T22:11:21.203;599616254327151922;3592.1472;-191
2024-05-26T22:11:21.210;599616254334844060;3599.8396;-112
2024-05-26T22:11:21.218;599616254342536198;3607.5315;-72
2024-05-26T22:11:21.226;599616254350228336;3615.2236;-77
2024-05-26T22:11:21.233;599616254357920474;3622.9158;-56
2024-05-26T22:11:21.241;599616254365612612;3630.608;-9
2024-05-26T22:11:21.249;599616254373304750;3638.3;25
2024-05-26T22:11:21.256;599616254380996888;3645.9922;51
2024-05-26T22:11:21.264;599616254388689026;3653.6846;91
2024-05-26T22:11:21.272;599616254396381164;3661.3765;123
2024-05-26T22:11:21.280;599616254404073302;3669.0686;128
2024-05-26T22:11:21.287;599616254411765440;3676.7607;130
2024-05-26T22:11:21.295;599616254419457578;3684.453;165
2024-05-26T22:11:21.303;599616254427149716;3692.1453;212
2024-05-26T22:11:21.310;599616254434841854;3699.8372;235
2024-05-26T22:11:21.318;599616254442533992;3707.5293;235
2024-05-26T22:11:21.326;599616254450226130;3715.2214;238
2024-05-26T22:11:21.333;599616254457918268;3722.9136;263
2024-05-26T22:11:21.341;599616254465610406;3730.6057;291
2024-05-26T22:11:21.349;599616254473302544;3738.2979;298
2024-05-26T22:11:21.356;599616254480994682;3745.9902;324
2024-05-26T22:11:21.364;599616254488686820;3753.6821;355
2024-05-26T22:11:21.372;599616254496378958;3761.3743;338
2024-05-26T22:11:21.380;599616254504071096;3769.0664;322
2024-05-26T22:11:21.387;599616254511763234;3776.7585;362
2024-05-26T22:11:21.395;599616254519455372;3784.451;418
2024-05-26T22:11:21.403;599616254527147510;3792.1428;436
2024-05-26T22:11:21.410;599616254534839648;3799.835;427
2024-05-26T22:11:21.418;599616254542531786;3807.527;420
2024-05-26T22:11:21.426;599616254550223924;3815.2192;429
2024-05-26T22:11:21.433;599616254557916062;3822.9114;420
2024-05-26T22:11:21.441;599616254565608200;3830.6035;380
2024-05-26T22:11:21.449;599616254573300338;3838.2957;371
2024-05-26T22:11:21.456;599616254580992476;3845.9878;397
2024-05-26T22:11:21.464;599616254588684614;3853.68;380
2024-05-26T22:11:21.472;599616254596376752;3861.372;357
2024-05-26T22:11:21.480;599616254604068890;3869.0642;371
2024-05-26T22:11:21.487;599616254611761028;3876.7566;369
2024-05-26T22:11:21.495;599616254619453166;3884.4485;413
2024-05-26T22:11:21.503;599616254627145304;3892.1406;681
2024-05-26T22:11:21.510;599616254634837442;3899.8328;1135
2024-05-26T22:11:21.518;599616254642529580;3907.525;1356
2024-05-26T22:11:21.526;599616254650221718;3915.217;985
2024-05-26T22:11:21.533;599616254657913856;3922.9092;427
2024-05-26T22:11:21.541;599616254665616042;3930.6116;331
2024-05-26T22:11:21.549;599616254673308041;3938.3035;478
2024-05-26T22:11:21.556;599616254681000040;3945.9954;408
2024-05-26T22:11:21.564;599616254688692039;3953.6873;322
2024-05-26T22:11:21.572;599616254696384038;3961.3794;394
2024-05-26T22:11:21.580;599616254704076037;3969.0713;425
2024-05-26T22:11:21.587;599616254711768036;3976.7634;390
2024-05-26T22:11:21.595;599616254719460035;3984.4553;399
2024-05-26T22:11:21.603;599616254727152034;3992.1475;413
2024-05-26T22:11:21.610;599616254734844033;3999.8396;362
2024-05-26T22:11:21.618;599616254742536032;4007.5312;280
2024-05-26T22:11:21.626;599616254750228031;4015.2234;263
2024-05-26T22:11:21.633;599616254757920030;4022.9153;315
2024-05-26T22:11:21.641;599616254765612029;4030.6074;331
2024-05-26T22:11:21.649;599616254773304028;4038.2993;252
2024-05-26T22:11:21.656;599616254780996027;4045.9915;156
2024-05-26T22:11:21.664;599616254788688026;4053.6833;161
2024-05-26T22:11:21.672;599616254796380025;4061.3752;221
2024-05-26T22:11:21.680;599616254804072024;4069.0674;207
2024-05-26T22:11:21.687;599616254811764023;4076.7593;121
2024-05-26T22:11:21.695;599616254819456022;4084.4514;51
2024-05-26T22:11:21.703;599616254827148021;4092.1433;39
2024-05-26T22:11:21.710;599616254834840020;4099.8354;53
2024-05-26T22:11:21.718;599616254842532019;4107.5273;81
2024-05-26T22:11:21.726;599616254850224018;4115.219;109
2024-05-26T22:11:21.733;599616254857916017;4122.911;116
2024-05-26T22:11:21.741;599616254865608016;4130.603;109
2024-05-26T22:11:21.749;599616254873300015;4138.2954;121
2024-05-26T22:11:21.756;599616254880992014;4145.9873;149
2024-05-26T22:11:21.764;599616254888684013;4153.679;156
2024-05-26T22:11:21.772;599616254896376012;4161.3716;161
2024-05-26T22:11:21.780;599616254904068011;4169.0635;179
2024-05-26T22:11:21.787;599616254911760010;4176.7554;175
2024-05-26T22:11:21.795;599616254919452009;4184.4473;144
2024-05-26T22:11:21.803;599616254927144008;4192.139;116
2024-05-26T22:11:21.810;599616254934836007;4199.831;84
2024-05-26T22:11:21.818;599616254942528006;4207.5234;39
2024-05-26T22:11:21.826;599616254950220005;4215.2153;-25
2024-05-26T22:11:21.833;599616254957912004;4222.907;-102
2024-05-26T22:11:21.841;599616254965604003;4230.5996;-123
2024-05-26T22:11:21.849;599616254973296002;4238.2915;-107
2024-05-26T22:11:21.856;599616254980988001;4245.9834;-114
2024-05-26T22:11:21.864;599616254988680000;4253.6753;-107
2024-05-26T22:11:21.872;599616254996371999;4261.367;-81
2024-05-26T22:11:21.880;599616255004063998;4269.0596;-91
2024-05-26T22:11:21.887;599616255011755997;4276.7515;-107
2024-05-26T22:11:21.895;599616255019447996;4284.4434;-79
2024-05-26T22:11:21.903;599616255027139995;4292.1353;-49
2024-05-26T22:11:21.910;599616255034831994;4299.827;-53
2024-05-26T22:11:21.918;599616255042523993;4307.5195;-67
2024-05-26T22:11:21.926;599616255050215992;4315.2114;-107
2024-05-26T22:11:21.933;599616255057907991;4322.9033;-156
2024-05-26T22:11:21.941;599616255065599990;4330.595;-163
2024-05-26T22:11:21.949;599616255073291989;4338.287;-137
2024-05-26T22:11:21.956;599616255080983988;4345.9795;-107
2024-05-26T22:11:21.964;599616255088675987;4353.6714;-79
2024-05-26T22:11:21.972;599616255096367986;4361.3633;-77
2024-05-26T22:11:21.980;599616255104059985;4369.055;-72
2024-05-26T22:11:21.987;599616255111751984;4376.7476;-28
2024-05-26T22:11:21.995;599616255119443983;4384.4395;23
2024-05-26T22:11:22.003;599616255127135982;4392.131;37
2024-05-26T22:11:22.010;599616255134827981;4399.823;39
2024-05-26T22:11:22.018;599616255142519980;4407.515;58
2024-05-26T22:11:22.026;599616255150211979;4415.2075;86
2024-05-26T22:11:22.033;599616255157903978;4422.8994;100
2024-05-26T22:11:22.041;599616255165595977;4430.5913;109
2024-05-26T22:11:22.049;599616255173287976;4438.283;147
2024-05-26T22:11:22.056;599616255180979975;4445.9756;179
2024-05-26T22:11:22.064;599616255188671974;4453.6675;172
2024-05-26T22:11:22.072;599616255196363973;4461.359;175
2024-05-26T22:11:22.080;599616255204055972;4469.0513;219
2024-05-26T22:11:22.087;599616255211747971;4476.743;254
2024-05-26T22:11:22.095;599616255219439970;4484.4355;254
2024-05-26T22:11:22.103;599616255227131982;4492.1274;254
2024-05-26T22:11:22.110;599616255234823981;4499.8193;268
2024-05-26T22:11:22.118;599616255242515980;4507.511;282
2024-05-26T22:11:22.126;599616255250207979;4515.203;282
2024-05-26T22:11:22.133;599616255257899978;4522.8955;291
2024-05-26T22:11:22.141;599616255265591977;4530.587;329
2024-05-26T22:11:22.149;599616255273283976;4538.2793;319
2024-05-26T22:11:22.156;599616255280975975;4545.971;214
2024-05-26T22:11:22.164;599616255288667974;4553.6636;140
2024-05-26T22:11:22.172;599616255296359973;4561.3555;135
2024-05-26T22:11:22.180;599616255304051972;4569.0474;60
2024-05-26T22:11:22.187;599616255311743971;4576.7393;-60
2024-05-26T22:11:22.195;599616255319435970;4584.431;-74
2024-05-26T22:11:22.203;599616255327127969;4592.1235;-28
2024-05-26T22:11:22.210;599616255334819968;4599.815;-28
2024-05-26T22:11:22.218;599616255342511967;4607.5073;-25
2024-05-26T22:11:22.226;599616255350203966;4615.199;25
2024-05-26T22:11:22.233;599616255357895965;4622.8916;77
2024-05-26T22:11:22.241;599616255365587964;4630.5835;91
2024-05-26T22:11:22.249;599616255373279963;4638.275;88
2024-05-26T22:11:22.256;599616255380971962;4645.9673;109
2024-05-26T22:11:22.264;599616255388663961;4653.659;154
2024-05-26T22:11:22.272;599616255396355960;4661.3516;172
2024-05-26T22:11:22.280;599616255404047959;4669.043;179
2024-05-26T22:11:22.287;599616255411739958;4676.7354;203
2024-05-26T22:11:22.295;599616255419431957;4684.4272;221
2024-05-26T22:11:22.303;599616255427123956;4692.119;217
2024-05-26T22:11:22.310;599616255434815955;4699.8115;221
2024-05-26T22:11:22.318;599616255442507954;4707.503;252
2024-05-26T22:11:22.326;599616255450199953;4715.1953;305
2024-05-26T22:11:22.333;599616255457891952;4722.887;329
2024-05-26T22:11:22.341;599616255465583951;4730.5796;305
2024-05-26T22:11:22.349;599616255473275950;4738.271;315
2024-05-26T22:11:22.356;599616255480967949;4745.9634;359
2024-05-26T22:11:22.364;599616255488659948;4753.6553;352
2024-05-26T22:11:22.372;599616255496351947;4761.347;336
2024-05-26T22:11:22.380;599616255504043946;4769.0396;362
2024-05-26T22:11:22.387;599616255511735945;4776.731;373
2024-05-26T22:11:22.395;599616255519427944;4784.4233;350
2024-05-26T22:11:22.403;599616255527119943;4792.115;348
2024-05-26T22:11:22.410;599616255534811942;4799.8076;364
2024-05-26T22:11:22.418;599616255542503941;4807.499;329
2024-05-26T22:11:22.426;599616255550195940;4815.191;308
2024-05-26T22:11:22.433;599616255557887939;4822.8833;492
2024-05-26T22:11:22.441;599616255565579938;4830.575;878
2024-05-26T22:11:22.449;599616255573271937;4838.2676;1100
2024-05-26T22:11:22.456;599616255580963936;4845.959;784
2024-05-26T22:11:22.464;599616255588655935;4853.6514;240
2024-05-26T22:11:22.472;599616255596347934;4861.3433;84
2024-05-26T22:11:22.480;599616255604039933;4869.0356;182
2024-05-26T22:11:22.487;599616255611731932;4876.7275;133
2024-05-26T22:11:22.495;599616255619423931;4884.419;72
2024-05-26T22:11:22.503;599616255627115930;4892.1113;130
2024-05-26T22:11:22.510;599616255634807929;4899.803;151
2024-05-26T22:11:22.518;599616255642499928;4907.4956;121
2024-05-26T22:11:22.526;599616255650191927;4915.187;126
2024-05-26T22:11:22.533;599616255657883926;4922.8794;158
2024-05-26T22:11:22.541;599616255665575925;4930.5713;165
2024-05-26T22:11:22.549;599616255673267924;4938.263;151
2024-05-26T22:11:22.556;599616255680959923;4945.9556;140
2024-05-26T22:11:22.564;599616255688651922;4953.647;116
2024-05-26T22:11:22.572;599616255696343921;4961.3394;51
2024-05-26T22:11:22.580;599616255704035920;4969.0312;-23
2024-05-26T22:11:22.587;599616255711727919;4976.7236;-46
2024-05-26T22:11:22.595;599616255719419918;4984.415;-30
2024-05-26T22:11:22.603;599616255727111917;4992.107;-30
2024-05-26T22:11:22.610;599616255734803916;4999.7993;-46
2024-05-26T22:11:22.618;599616255742495915;5007.491;-44
2024-05-26T22:11:22.626;599616255750187914;5015.1836;-30
2024-05-26T22:11:22.633;599616255757879913;5022.875;-25
2024-05-26T22:11:22.641;599616255765571912;5030.5674;-16
2024-05-26T22:11:22.649;599616255773263911;5038.2593;-7
2024-05-26T22:11:22.656;599616255780955910;5045.9517;-77
2024-05-26T22:11:22.664;599616255788632876;5053.6284;-214
2024-05-26T22:11:22.672;599616255796325084;5061.3203;-268
2024-05-26T22:11:22.680;599616255804017292;5069.0127;-224
2024-05-26T22:11:22.687;599616255811709500;5076.7046;-184
2024-05-26T22:11:22.695;599616255819401708;5084.397;-175
2024-05-26T22:11:22.703;599616255827093916;5092.0894;-165
2024-05-26T22:11:22.710;599616255834786124;5099.7817;-161
2024-05-26T22:11:22.718;599616255842478332;5107.474;-182
2024-05-26T22:11:22.726;599616255850170540;5115.1655;-224
2024-05-26T22:11:22.733;599616255857862748;5122.858;-247
2024-05-26T22:11:22.741;599616255865554956;5130.5503;-217
2024-05-26T22:11:22.749;599616255873247164;5138.2427;-198
2024-05-26T22:11:22.756;599616255880939372;5145.935;-221
2024-05-26T22:11:22.764;599616255888631580;5153.627;-207
2024-05-26T22:11:22.772;599616255896323788;5161.319;-147
2024-05-26T22:11:22.780;599616255904015996;5169.011;-114
2024-05-26T22:11:22.787;599616255911708204;5176.7036;-102
2024-05-26T22:11:22.795;599616255919400412;5184.396;-70
2024-05-26T22:11:22.803;599616255927092620;5192.088;-39
2024-05-26T22:11:22.810;599616255934784828;5199.7803;-30
2024-05-26T22:11:22.818;599616255942477036;5207.472;-9
2024-05-26T22:11:22.826;599616255950169244;5215.1646;35
2024-05-26T22:11:22.833;599616255957861452;5222.857;77
2024-05-26T22:11:22.841;599616255965553660;5230.549;93
2024-05-26T22:11:22.849;599616255973245868;5238.241;86
2024-05-26T22:11:22.856;599616255980938076;5245.9336;102
2024-05-26T22:11:22.864;599616255988630284;5253.626;140
2024-05-26T22:11:22.872;599616255996322492;5261.318;163
2024-05-26T22:11:22.880;599616256004014700;5269.01;177
2024-05-26T22:11:22.887;599616256011706908;5276.702;203
2024-05-26T22:11:22.895;599616256019399116;5284.3945;212
2024-05-26T22:11:22.903;599616256027091324;5292.087;200
2024-05-26T22:11:22.910;599616256034783532;5299.7793;165
2024-05-26T22:11:22.918;599616256042475740;5307.4707;121
2024-05-26T22:11:22.926;599616256050167948;5315.163;119
2024-05-26T22:11:22.933;599616256057860156;5322.8555;128
2024-05-26T22:11:22.941;599616256065552364;5330.548;112
2024-05-26T22:11:22.949;599616256073244572;5338.24;128
2024-05-26T22:11:22.956;599616256080936780;5345.932;172
2024-05-26T22:11:22.964;599616256088628988;5353.6245;186
2024-05-26T22:11:22.972;599616256096321196;5361.3164;196
2024-05-26T22:11:22.980;599616256104013404;5369.009;231
2024-05-26T22:11:22.987;599616256111705612;5376.701;240
2024-05-26T22:11:22.995;599616256119397820;5384.393;221
2024-05-26T22:11:23.003;599616256127090028;5392.0854;238
2024-05-26T22:11:23.010;599616256134782236;5399.778;287
2024-05-26T22:11:23.018;599616256142474444;5407.4697;310
2024-05-26T22:11:23.026;599616256150166652;5415.1616;301
2024-05-26T22:11:23.033;599616256157858860;5422.854;298
2024-05-26T22:11:23.041;599616256165551068;5430.5464;317
2024-05-26T22:11:23.049;599616256173243276;5438.239;333
2024-05-26T22:11:23.056;599616256180935484;5445.931;340
2024-05-26T22:11:23.064;599616256188627692;5453.6226;359
2024-05-26T22:11:23.072;599616256196319900;5461.315;385
2024-05-26T22:11:23.080;599616256204012108;5469.0073;376
2024-05-26T22:11:23.087;599616256211704316;5476.6997;350
2024-05-26T22:11:23.095;599616256219396524;5484.392;371
2024-05-26T22:11:23.103;599616256227088732;5492.084;415
2024-05-26T22:11:23.110;599616256234780940;5499.7764;422
2024-05-26T22:11:23.118;599616256242473148;5507.4683;401
2024-05-26T22:11:23.126;599616256250165356;5515.1606;392
2024-05-26T22:11:23.133;599616256257857564;5522.853;411
2024-05-26T22:11:23.141;599616256265549772;5530.545;425
2024-05-26T22:11:23.149;599616256273241980;5538.2373;408
2024-05-26T22:11:23.156;599616256280934188;5545.9297;338
2024-05-26T22:11:23.164;599616256288626396;5553.6216;214
2024-05-26T22:11:23.172;599616256296318604;5561.314;105
2024-05-26T22:11:23.180;599616256304010812;5569.006;53
2024-05-26T22:11:23.187;599616256311703020;5576.698;58
2024-05-26T22:11:23.195;599616256319395228;5584.3906;86
2024-05-26T22:11:23.203;599616256327087436;5592.083;98
2024-05-26T22:11:23.210;599616256334779644;5599.7754;79
2024-05-26T22:11:23.218;599616256342471852;5607.467;72
2024-05-26T22:11:23.226;599616256350194172;5615.1895;77
2024-05-26T22:11:23.233;599616256357885962;5622.8813;77
2024-05-26T22:11:23.241;599616256365577752;5630.573;86
2024-05-26T22:11:23.249;599616256373269542;5638.2646;121
2024-05-26T22:11:23.256;599616256380961332;5645.9565;116
2024-05-26T22:11:23.264;599616256388653122;5653.6484;21
2024-05-26T22:11:23.272;599616256396344912;5661.3403;-44
2024-05-26T22:11:23.280;599616256404036702;5669.0317;2
2024-05-26T22:11:23.287;599616256411728492;5676.7236;35
2024-05-26T22:11:23.295;599616256419420282;5684.4155;-16
2024-05-26T22:11:23.303;599616256427112072;5692.1074;-74
2024-05-26T22:11:23.310;599616256434803862;5699.799;-107
2024-05-26T22:11:23.318;599616256442495652;5707.4907;-158
2024-05-26T22:11:23.326;599616256450187442;5715.1826;-205
2024-05-26T22:11:23.333;599616256457879232;5722.8745;-189
2024-05-26T22:11:23.341;599616256465571022;5730.566;-156
2024-05-26T22:11:23.349;599616256473262812;5738.258;-182
2024-05-26T22:11:23.356;599616256480954602;5745.9497;-245
2024-05-26T22:11:23.364;599616256488646392;5753.6416;-235
2024-05-26T22:11:23.372;599616256496338182;5761.334;-35
2024-05-26T22:11:23.380;599616256504029972;5769.0254;357
2024-05-26T22:11:23.387;599616256511721762;5776.7173;707
2024-05-26T22:11:23.395;599616256519413552;5784.409;630
2024-05-26T22:11:23.403;599616256527105342;5792.101;84
2024-05-26T22:11:23.410;599616256534797132;5799.7925;-326
2024-05-26T22:11:23.418;599616256542488922;5807.4844;-273
2024-05-26T22:11:23.426;599616256550180712;5815.1763;-158
2024-05-26T22:11:23.433;599616256557872502;5822.868;-193
2024-05-26T22:11:23.441;599616256565564292;5830.5596;-198
2024-05-26T22:11:23.449;599616256573256082;5838.2515;-175
2024-05-26T22:11:23.456;599616256580947872;5845.9434;-163
2024-05-26T22:11:23.464;599616256588639662;5853.6353;-123
2024-05-26T22:11:23.472;599616256596331452;5861.3267;-93
2024-05-26T22:11:23.480;599616256604023242;5869.0186;-77
2024-05-26T22:11:23.487;599616256611715032;5876.7104;-37
2024-05-26T22:11:23.495;599616256619406822;5884.4023;-14
2024-05-26T22:11:23.503;599616256627098612;5892.0938;-18
2024-05-26T22:11:23.510;599616256634790402;5899.7856;4
2024-05-26T22:11:23.518;599616256642482192;5907.4775;60
2024-05-26T22:11:23.526;599616256650173982;5915.1694;98
2024-05-26T22:11:23.533;599616256657865772;5922.861;100
2024-05-26T22:11:23.541;599616256665557562;5930.5527;100
2024-05-26T22:11:23.549;599616256673249352;5938.2446;133
2024-05-26T22:11:23.556;599616256680941142;5945.9365;177
2024-05-26T22:11:23.564;599616256688632932;5953.628;196
2024-05-26T22:11:23.572;599616256696324722;5961.32;217
2024-05-26T22:11:23.580;599616256704016512;5969.0117;256
2024-05-26T22:11:23.587;599616256711708302;5976.7036;263
2024-05-26T22:11:23.595;599616256719400092;5984.3955;247
2024-05-26T22:11:23.603;599616256727091882;5992.087;273
2024-05-26T22:11:23.610;599616256734783672;5999.779;324
2024-05-26T22:11:23.618;599616256742475462;6007.4707;352
2024-05-26T22:11:23.626;599616256750167252;6015.1626;348
2024-05-26T22:11:23.633;599616256757859042;6022.854;345
2024-05-26T22:11:23.641;599616256765550832;6030.546;350
2024-05-26T22:11:23.649;599616256773242622;6038.2383;340
2024-05-26T22:11:23.656;599616256780934412;6045.93;268
2024-05-26T22:11:23.664;599616256788626202;6053.6216;161
2024-05-26T22:11:23.672;599616256796317992;6061.3135;84
2024-05-26T22:11:23.680;599616256804009782;6069.0054;53
2024-05-26T22:11:23.687;599616256811701572;6076.6973;56
2024-05-26T22:11:23.695;599616256819393362;6084.3887;114
2024-05-26T22:11:23.703;599616256827085152;6092.0806;165
2024-05-26T22:11:23.710;599616256834776942;6099.7725;142
2024-05-26T22:11:23.718;599616256842468732;6107.4644;112
2024-05-26T22:11:23.726;599616256850160522;6115.156;126
2024-05-26T22:11:23.733;599616256857852312;6122.8477;151
2024-05-26T22:11:23.741;599616256865544102;6130.5396;161
2024-05-26T22:11:23.749;599616256873235892;6138.2314;172
2024-05-26T22:11:23.756;599616256880927682;6145.923;217
2024-05-26T22:11:23.764;599616256888619472;6153.6147;261
2024-05-26T22:11:23.772;599616256896311262;6161.3066;273
2024-05-26T22:11:23.779;599616256904003052;6168.9985;298
2024-05-26T22:11:23.787;599616256911664758;6176.66;364
2024-05-26T22:11:23.795;599616256919356966;6184.352;406
2024-05-26T22:11:23.803;599616256927049174;6192.0444;397
2024-05-26T22:11:23.810;599616256934741382;6199.737;369
2024-05-26T22:11:23.818;599616256942433590;6207.429;355
2024-05-26T22:11:23.826;599616256950125798;6215.121;340
2024-05-26T22:11:23.833;599616256957818006;6222.813;277
2024-05-26T22:11:23.841;599616256965510214;6230.5054;207
2024-05-26T22:11:23.849;599616256973202422;6238.1978;212
2024-05-26T22:11:23.856;599616256980894630;6245.89;233
2024-05-26T22:11:23.864;599616256988586838;6253.5825;203
2024-05-26T22:11:23.872;599616256996279046;6261.2744;191
2024-05-26T22:11:23.879;599616257003971254;6268.9663;238
2024-05-26T22:11:23.887;599616257011663462;6276.6587;268
2024-05-26T22:11:23.895;599616257019355670;6284.351;256
2024-05-26T22:11:23.903;599616257027047878;6292.0435;214
2024-05-26T22:11:23.910;599616257034740086;6299.7354;175
2024-05-26T22:11:23.918;599616257042432294;6307.4277;163
2024-05-26T22:11:23.926;599616257050124502;6315.1196;168
2024-05-26T22:11:23.933;599616257057816710;6322.812;182
2024-05-26T22:11:23.941;599616257065508918;6330.5044;221
2024-05-26T22:11:23.949;599616257073201126;6338.1963;221
2024-05-26T22:11:23.956;599616257080893334;6345.8887;147
2024-05-26T22:11:23.964;599616257088585542;6353.581;95
2024-05-26T22:11:23.972;599616257096277750;6361.273;128
2024-05-26T22:11:23.979;599616257103969958;6368.9653;144
2024-05-26T22:11:23.987;599616257111662166;6376.657;114
2024-05-26T22:11:23.995;599616257119354374;6384.3496;116
2024-05-26T22:11:24.003;599616257127046582;6392.042;135
2024-05-26T22:11:24.010;599616257134738790;6399.7344;119
2024-05-26T22:11:24.018;599616257142430998;6407.427;114
2024-05-26T22:11:24.026;599616257150123206;6415.118;142
2024-05-26T22:11:24.033;599616257157815414;6422.8105;168
2024-05-26T22:11:24.041;599616257165507622;6430.503;161
2024-05-26T22:11:24.049;599616257173199830;6438.1953;137
2024-05-26T22:11:24.056;599616257180892038;6445.8877;151
2024-05-26T22:11:24.064;599616257188584246;6453.5796;191
2024-05-26T22:11:24.072;599616257196276454;6461.2715;168
2024-05-26T22:11:24.079;599616257203968662;6468.964;107
2024-05-26T22:11:24.087;599616257211660870;6476.6562;79
2024-05-26T22:11:24.095;599616257219353078;6484.3486;28
2024-05-26T22:11:24.103;599616257227045286;6492.0405;-67
2024-05-26T22:11:24.110;599616257234737494;6499.733;-100
2024-05-26T22:11:24.118;599616257242429702;6507.4253;-67
2024-05-26T22:11:24.126;599616257250121910;6515.117;-58
2024-05-26T22:11:24.133;599616257257814118;6522.8096;-91
2024-05-26T22:11:24.141;599616257265506326;6530.5015;-151
2024-05-26T22:11:24.149;599616257273198534;6538.194;-207
2024-05-26T22:11:24.156;599616257280890742;6545.886;-210
2024-05-26T22:11:24.164;599616257288582950;6553.5786;-217
2024-05-26T22:11:24.172;599616257296275158;6561.2705;-298
2024-05-26T22:11:24.179;599616257303967366;6568.9624;-366
2024-05-26T22:11:24.187;599616257311659574;6576.655;-345
2024-05-26T22:11:24.195;599616257319351782;6584.347;-308
2024-05-26T22:11:24.203;599616257327043990;6592.0396;-280
2024-05-26T22:11:24.210;599616257334736198;6599.732;-224
2024-05-26T22:11:24.218;599616257342428406;6607.4233;-182
2024-05-26T22:11:24.226;599616257350120614;6615.1157;-182
2024-05-26T22:11:24.233;599616257357812822;6622.808;-186
2024-05-26T22:11:24.241;599616257365505030;6630.5005;-158
2024-05-26T22:11:24.249;599616257373197238;6638.193;-126
2024-05-26T22:11:24.256;599616257380889446;6645.885;-105
2024-05-26T22:11:24.264;599616257388581654;6653.577;-70
2024-05-26T22:11:24.272;599616257396273862;6661.269;-30
2024-05-26T22:11:24.279;599616257403966070;6668.9614;-42
2024-05-26T22:11:24.287;599616257411658278;6676.654;-81
2024-05-26T22:11:24.295;599616257419350486;6684.3457;-42
2024-05-26T22:11:24.303;599616257427042694;6692.038;151
2024-05-26T22:11:24.310;599616257434734902;6699.7305;532
2024-05-26T22:11:24.318;599616257442427110;6707.4224;899
2024-05-26T22:11:24.326;599616257450119318;6715.1143;833
2024-05-26T22:11:24.333;599616257457811526;6722.8066;322
2024-05-26T22:11:24.341;599616257465503734;6730.499;-11
2024-05-26T22:11:24.349;599616257473226054;6738.2217;72
2024-05-26T22:11:24.356;599616257480917844;6745.9136;156
2024-05-26T22:11:24.364;599616257488609634;6753.605;88
2024-05-26T22:11:24.372;599616257496301424;6761.297;16
2024-05-26T22:11:24.379;599616257503993214;6768.989;-46
2024-05-26T22:11:24.387;599616257511685004;6776.6807;-81
2024-05-26T22:11:24.395;599616257519376794;6784.372;-88
2024-05-26T22:11:24.403;599616257527068584;6792.064;-98
2024-05-26T22:11:24.410;599616257534760374;6799.756;-91
2024-05-26T22:11:24.418;599616257542452164;6807.4478;-63
2024-05-26T22:11:24.426;599616257550143954;6815.139;-39
2024-05-26T22:11:24.433;599616257557835744;6822.831;-18
2024-05-26T22:11:24.441;599616257565527534;6830.523;14
2024-05-26T22:11:24.449;599616257573219324;6838.215;67
2024-05-26T22:11:24.456;599616257580911114;6845.9062;102
2024-05-26T22:11:24.464;599616257588602904;6853.598;98
2024-05-26T22:11:24.472;599616257596294694;6861.29;105
2024-05-26T22:11:24.479;599616257603986484;6868.982;151
2024-05-26T22:11:24.487;599616257611678274;6876.6733;196
2024-05-26T22:11:24.495;599616257619370064;6884.365;210
2024-05-26T22:11:24.503;599616257627061854;6892.057;219
2024-05-26T22:11:24.510;599616257634753644;6899.749;242
2024-05-26T22:11:24.518;599616257642445434;6907.4404;261
2024-05-26T22:11:24.526;599616257650137224;6915.1323;270
2024-05-26T22:11:24.533;599616257657829014;6922.824;291
2024-05-26T22:11:24.541;599616257665520804;6930.516;338
2024-05-26T22:11:24.549;599616257673212594;6938.2075;359
2024-05-26T22:11:24.556;599616257680904384;6945.8994;333
2024-05-26T22:11:24.564;599616257688596174;6953.5913;326
2024-05-26T22:11:24.572;599616257696287964;6961.283;366
2024-05-26T22:11:24.579;599616257703979754;6968.9746;383
2024-05-26T22:11:24.587;599616257711671544;6976.6665;376
2024-05-26T22:11:24.595;599616257719363334;6984.359;378
2024-05-26T22:11:24.603;599616257727055124;6992.051;359
2024-05-26T22:11:24.610;599616257734746914;6999.7427;324
2024-05-26T22:11:24.618;599616257742438704;7007.434;312
2024-05-26T22:11:24.626;599616257750130494;7015.126;319
2024-05-26T22:11:24.633;599616257757822284;7022.818;305
2024-05-26T22:11:24.641;599616257765514074;7030.51;231
2024-05-26T22:11:24.649;599616257773205864;7038.201;154
2024-05-26T22:11:24.656;599616257780897654;7045.893;158
2024-05-26T22:11:24.664;599616257788589444;7053.585;203
2024-05-26T22:11:24.672;599616257796281234;7061.277;177
2024-05-26T22:11:24.679;599616257803973024;7068.9683;93
2024-05-26T22:11:24.687;599616257811664814;7076.66;65
2024-05-26T22:11:24.695;599616257819356604;7084.352;91
2024-05-26T22:11:24.703;599616257827048394;7092.044;88
2024-05-26T22:11:24.710;599616257834740184;7099.7354;86
2024-05-26T22:11:24.718;599616257842431974;7107.4272;130
2024-05-26T22:11:24.726;599616257850123764;7115.119;177
2024-05-26T22:11:24.733;599616257857815554;7122.811;182
2024-05-26T22:11:24.741;599616257865507344;7130.5024;165
2024-05-26T22:11:24.749;599616257873199134;7138.1943;179
2024-05-26T22:11:24.756;599616257880890924;7145.886;210
2024-05-26T22:11:24.764;599616257888582714;7153.578;217
2024-05-26T22:11:24.772;599616257896274504;7161.2695;221
2024-05-26T22:11:24.779;599616257903966294;7168.9614;238
2024-05-26T22:11:24.787;599616257911658084;7176.6533;196
2024-05-26T22:11:24.795;599616257919349874;7184.345;112
2024-05-26T22:11:24.803;599616257927041664;7192.0366;100
2024-05-26T22:11:24.810;599616257934733454;7199.7285;140
2024-05-26T22:11:24.818;599616257942425244;7207.4204;147
2024-05-26T22:11:24.826;599616257950117034;7215.1123;123
2024-05-26T22:11:24.833;599616257957808824;7222.804;109
2024-05-26T22:11:24.841;599616257965500614;7230.4956;126
2024-05-26T22:11:24.849;599616257973192404;7238.1875;144
2024-05-26T22:11:24.856;599616257980884194;7245.8794;137
2024-05-26T22:11:24.864;599616257988575984;7253.5713;135
2024-05-26T22:11:24.872;599616257996267774;7261.263;158
2024-05-26T22:11:24.879;599616258003959564;7268.955;147
2024-05-26T22:11:24.887;599616258011651354;7276.647;88
2024-05-26T22:11:24.895;599616258019343144;7284.339;72
2024-05-26T22:11:24.903;599616258027034934;7292.0303;91
2024-05-26T22:11:24.910;599616258034696640;7299.692;42
2024-05-26T22:11:24.918;599616258042388848;7307.3843;-44
2024-05-26T22:11:24.926;599616258050081056;7315.0767;-91
2024-05-26T22:11:24.933;599616258057773264;7322.7686;-126
2024-05-26T22:11:24.941;599616258065465472;7330.4604;-163
2024-05-26T22:11:24.949;599616258073157680;7338.153;-175
2024-05-26T22:11:24.956;599616258080849888;7345.845;-154
2024-05-26T22:11:24.964;599616258088542096;7353.5376;-147
2024-05-26T22:11:24.972;599616258096234304;7361.23;-228
2024-05-26T22:11:24.979;599616258103926512;7368.9214;-319
2024-05-26T22:11:24.987;599616258111618720;7376.614;-301
2024-05-26T22:11:24.995;599616258119310928;7384.306;-245
2024-05-26T22:11:25.002;599616258127003136;7391.9985;-242
2024-05-26T22:11:25.010;599616258134695344;7399.691;-249
2024-05-26T22:11:25.018;599616258142387552;7407.383;-228
2024-05-26T22:11:25.026;599616258150079760;7415.075;-205
2024-05-26T22:11:25.033;599616258157771968;7422.767;-191
2024-05-26T22:11:25.041;599616258165464176;7430.4595;-170
2024-05-26T22:11:25.049;599616258173156384;7438.152;-123
2024-05-26T22:11:25.056;599616258180848592;7445.8438;-98
2024-05-26T22:11:25.064;599616258188540800;7453.536;-112
2024-05-26T22:11:25.072;599616258196233008;7461.2285;-102
2024-05-26T22:11:25.079;599616258203925216;7468.9204;-56
2024-05-26T22:11:25.087;599616258211617424;7476.613;-25
2024-05-26T22:11:25.095;599616258219309632;7484.3047;-9
2024-05-26T22:11:25.102;599616258227001840;7491.997;16
2024-05-26T22:11:25.110;599616258234694048;7499.6895;49
2024-05-26T22:11:25.118;599616258242386256;7507.382;72
2024-05-26T22:11:25.126;599616258250078464;7515.074;72
2024-05-26T22:11:25.133;599616258257770672;7522.7656;39
2024-05-26T22:11:25.141;599616258265462880;7530.458;30
2024-05-26T22:11:25.149;599616258273155088;7538.1504;56
2024-05-26T22:11:25.156;599616258280847296;7545.843;51
2024-05-26T22:11:25.164;599616258288539504;7553.535;49
2024-05-26T22:11:25.172;599616258296231712;7561.227;56
2024-05-26T22:11:25.179;599616258303923920;7568.919;-28
2024-05-26T22:11:25.187;599616258311616128;7576.6113;-147
2024-05-26T22:11:25.195;599616258319308336;7584.3037;-81
2024-05-26T22:11:25.202;599616258327000544;7591.996;235
2024-05-26T22:11:25.210;599616258334692752;7599.688;665
2024-05-26T22:11:25.218;599616258342384960;7607.3804;875
2024-05-26T22:11:25.226;599616258350077168;7615.0723;551
2024-05-26T22:11:25.233;599616258357769376;7622.7646;49
2024-05-26T22:11:25.241;599616258365461584;7630.457;-46
2024-05-26T22:11:25.249;599616258373153792;7638.149;70
2024-05-26T22:11:25.256;599616258380846000;7645.8413;39
2024-05-26T22:11:25.264;599616258388538208;7653.5337;21
2024-05-26T22:11:25.272;599616258396230416;7661.226;84
2024-05-26T22:11:25.279;599616258403922624;7668.918;100
2024-05-26T22:11:25.287;599616258411614832;7676.61;107
2024-05-26T22:11:25.295;599616258419307040;7684.3022;133
2024-05-26T22:11:25.302;599616258426999248;7691.9946;135
2024-05-26T22:11:25.310;599616258434691456;7699.687;142
2024-05-26T22:11:25.318;599616258442383664;7707.3794;189
2024-05-26T22:11:25.326;599616258450075872;7715.071;226
2024-05-26T22:11:25.333;599616258457768080;7722.763;231
2024-05-26T22:11:25.341;599616258465460288;7730.4556;221
2024-05-26T22:11:25.349;599616258473152496;7738.148;233
2024-05-26T22:11:25.356;599616258480844704;7745.8403;263
2024-05-26T22:11:25.364;599616258488536912;7753.532;280
2024-05-26T22:11:25.372;599616258496229120;7761.2246;270
2024-05-26T22:11:25.379;599616258503921328;7768.9165;240
2024-05-26T22:11:25.387;599616258511613536;7776.609;196
2024-05-26T22:11:25.395;599616258519305744;7784.3013;189
2024-05-26T22:11:25.402;599616258526997952;7791.993;219
2024-05-26T22:11:25.410;599616258534690160;7799.6855;254
2024-05-26T22:11:25.418;599616258542382368;7807.378;282
2024-05-26T22:11:25.426;599616258550074576;7815.07;287
2024-05-26T22:11:25.433;599616258557766784;7822.762;277
2024-05-26T22:11:25.441;599616258565458992;7830.454;291
2024-05-26T22:11:25.449;599616258573151200;7838.1465;329
2024-05-26T22:11:25.456;599616258580843408;7845.839;338
2024-05-26T22:11:25.464;599616258588535616;7853.5312;340
2024-05-26T22:11:25.472;599616258596257936;7861.253;355
2024-05-26T22:11:25.479;599616258603949726;7868.945;345
2024-05-26T22:11:25.487;599616258611641516;7876.6367;317
2024-05-26T22:11:25.495;599616258619333306;7884.3286;324
2024-05-26T22:11:25.503;599616258627025096;7892.02;350
2024-05-26T22:11:25.510;599616258634716886;7899.712;340
2024-05-26T22:11:25.518;599616258642408676;7907.404;308
2024-05-26T22:11:25.526;599616258650100466;7915.0957;287
2024-05-26T22:11:25.533;599616258657792256;7922.7876;280
2024-05-26T22:11:25.541;599616258665484046;7930.4795;235
2024-05-26T22:11:25.549;599616258673175836;7938.1714;147
2024-05-26T22:11:25.556;599616258680867626;7945.8633;126
2024-05-26T22:11:25.564;599616258688559416;7953.555;165
2024-05-26T22:11:25.572;599616258696251206;7961.2466;151
2024-05-26T22:11:25.579;599616258703942996;7968.9385;128
2024-05-26T22:11:25.587;599616258711634786;7976.6304;168
2024-05-26T22:11:25.595;599616258719326576;7984.3223;210
2024-05-26T22:11:25.603;599616258727018366;7992.0137;203
2024-05-26T22:11:25.610;599616258734710156;7999.7056;203
2024-05-26T22:11:25.618;599616258742401946;8007.3975;191
2024-05-26T22:11:25.626;599616258750093736;8015.0894;135
2024-05-26T22:11:25.633;599616258757785526;8022.781;93
2024-05-26T22:11:25.641;599616258765477316;8030.4727;114
2024-05-26T22:11:25.649;599616258773169106;8038.1646;147
2024-05-26T22:11:25.656;599616258780860896;8045.8564;154
2024-05-26T22:11:25.664;599616258788552686;8053.548;109
2024-05-26T22:11:25.672;599616258796244476;8061.2397;49
2024-05-26T22:11:25.679;599616258803936266;8068.9316;18
2024-05-26T22:11:25.687;599616258811628056;8076.6235;-56
2024-05-26T22:11:25.695;599616258819319846;8084.315;-156
2024-05-26T22:11:25.703;599616258827011636;8092.007;-175
2024-05-26T22:11:25.710;599616258834703426;8099.6987;-149
2024-05-26T22:11:25.718;599616258842395216;8107.3906;-147
2024-05-26T22:11:25.726;599616258850087006;8115.082;-133
2024-05-26T22:11:25.733;599616258857778796;8122.774;-95
2024-05-26T22:11:25.741;599616258865470586;8130.466;-63
2024-05-26T22:11:25.749;599616258873162376;8138.1577;-53
2024-05-26T22:11:25.756;599616258880854166;8145.849;-63
2024-05-26T22:11:25.764;599616258888545956;8153.541;-53
2024-05-26T22:11:25.772;599616258896237746;8161.233;-14
2024-05-26T22:11:25.779;599616258903929536;8168.925;9
2024-05-26T22:11:25.787;599616258911621326;8176.616;-23
2024-05-26T22:11:25.795;599616258919313116;8184.308;-72
2024-05-26T22:11:25.803;599616258927004906;8192.0;-112
2024-05-26T22:11:25.810;599616258934696696;8199.691;-170
2024-05-26T22:11:25.818;599616258942388486;8207.384;-219
2024-05-26T22:11:25.826;599616258950080276;8215.076;-203
2024-05-26T22:11:25.833;599616258957772066;8222.768;-172
2024-05-26T22:11:25.841;599616258965463856;8230.459;-191
2024-05-26T22:11:25.849;599616258973155646;8238.151;-217
2024-05-26T22:11:25.856;599616258980847436;8245.843;-203
2024-05-26T22:11:25.864;599616258988539226;8253.535;-200
2024-05-26T22:11:25.872;599616258996231016;8261.227;-252
2024-05-26T22:11:25.879;599616259003922806;8268.918;-282
2024-05-26T22:11:25.887;599616259011614596;8276.61;-252
2024-05-26T22:11:25.895;599616259019306386;8284.302;-235
2024-05-26T22:11:25.902;599616259026998176;8291.993;-249
2024-05-26T22:11:25.910;599616259034689966;8299.686;-242
2024-05-26T22:11:25.918;599616259042381756;8307.377;-203
2024-05-26T22:11:25.926;599616259050073546;8315.069;-161
2024-05-26T22:11:25.933;599616259057765336;8322.761;-158
2024-05-26T22:11:25.941;599616259065457126;8330.452;-168
2024-05-26T22:11:25.949;599616259073148916;8338.145;-135
2024-05-26T22:11:25.956;599616259080840706;8345.836;-93
2024-05-26T22:11:25.964;599616259088532496;8353.527;-88
2024-05-26T22:11:25.972;599616259096224286;8361.22;-74
2024-05-26T22:11:25.979;599616259103916076;8368.911;-32
2024-05-26T22:11:25.987;599616259111607866;8376.604;-11
2024-05-26T22:11:25.995;599616259119299656;8384.295;-7
2024-05-26T22:11:26.002;599616259126991446;8391.986;32
2024-05-26T22:11:26.010;599616259134683236;8399.679;72
2024-05-26T22:11:26.018;599616259142375026;8407.37;77
2024-05-26T22:11:26.026;599616259150066816;8415.0625;77
2024-05-26T22:11:26.033;599616259157733562;8422.729;84
2024-05-26T22:11:26.041;599616259165425700;8430.421;105
2024-05-26T22:11:26.049;599616259173117838;8438.113;130
2024-05-26T22:11:26.056;599616259180809976;8445.805;137
2024-05-26T22:11:26.064;599616259188502114;8453.497;133
2024-05-26T22:11:26.072;599616259196194252;8461.189;137
2024-05-26T22:11:26.079;599616259203886390;8468.882;182
2024-05-26T22:11:26.087;599616259211578528;8476.573;394
2024-05-26T22:11:26.095;599616259219270666;8484.266;789
2024-05-26T22:11:26.102;599616259226962804;8491.958;934
2024-05-26T22:11:26.110;599616259234654942;8499.65;492
2024-05-26T22:11:26.118;599616259242347080;8507.343;-28
2024-05-26T22:11:26.126;599616259250039218;8515.034;-65
2024-05-26T22:11:26.133;599616259257731356;8522.727;67
2024-05-26T22:11:26.141;599616259265423494;8530.419;21
2024-05-26T22:11:26.149;599616259273115632;8538.111;-14
2024-05-26T22:11:26.156;599616259280807770;8545.804;51
2024-05-26T22:11:26.164;599616259288499908;8553.495;79
2024-05-26T22:11:26.172;599616259296192046;8561.1875;60
2024-05-26T22:11:26.179;599616259303884184;8568.88;72
2024-05-26T22:11:26.187;599616259311576322;8576.572;91
2024-05-26T22:11:26.195;599616259319268460;8584.264;30
2024-05-26T22:11:26.202;599616259326960598;8591.956;-56
2024-05-26T22:11:26.210;599616259334652736;8599.648;-58
2024-05-26T22:11:26.218;599616259342344874;8607.341;-23
2024-05-26T22:11:26.226;599616259350037012;8615.033;-2
2024-05-26T22:11:26.233;599616259357729150;8622.724;28
2024-05-26T22:11:26.241;599616259365421288;8630.416;63
2024-05-26T22:11:26.249;599616259373113426;8638.108;100
2024-05-26T22:11:26.256;599616259380805564;8645.801;133
2024-05-26T22:11:26.264;599616259388497702;8653.493;137
2024-05-26T22:11:26.272;599616259396189840;8661.186;149
2024-05-26T22:11:26.279;599616259403881978;8668.877;193
2024-05-26T22:11:26.287;599616259411574116;8676.569;231
2024-05-26T22:11:26.295;599616259419266254;8684.262;245
2024-05-26T22:11:26.302;599616259426958392;8691.954;263
2024-05-26T22:11:26.310;599616259434650530;8699.6455;275
2024-05-26T22:11:26.318;599616259442342668;8707.338;284
2024-05-26T22:11:26.326;599616259450034806;8715.03;301
2024-05-26T22:11:26.333;599616259457726944;8722.722;324
2024-05-26T22:11:26.341;599616259465419082;8730.414;350
2024-05-26T22:11:26.349;599616259473111220;8738.106;371
2024-05-26T22:11:26.356;599616259480803358;8745.799;350
2024-05-26T22:11:26.364;599616259488495496;8753.491;294
2024-05-26T22:11:26.372;599616259496187634;8761.184;268
2024-05-26T22:11:26.379;599616259503879772;8768.876;277
2024-05-26T22:11:26.387;599616259511571910;8776.566;273
2024-05-26T22:11:26.395;599616259519264048;8784.259;263
2024-05-26T22:11:26.402;599616259526956186;8791.951;245
2024-05-26T22:11:26.410;599616259534648324;8799.644;217
2024-05-26T22:11:26.418;599616259542340462;8807.336;219
2024-05-26T22:11:26.426;599616259550032600;8815.028;247
2024-05-26T22:11:26.433;599616259557724738;8822.721;275
2024-05-26T22:11:26.441;599616259565416876;8830.412;277
2024-05-26T22:11:26.449;599616259573109014;8838.1045;252
2024-05-26T22:11:26.456;599616259580801152;8845.796;252
2024-05-26T22:11:26.464;599616259588493290;8853.488;294
2024-05-26T22:11:26.472;599616259596185428;8861.181;308
2024-05-26T22:11:26.479;599616259603877566;8868.873;294
2024-05-26T22:11:26.487;599616259611569704;8876.565;305
2024-05-26T22:11:26.495;599616259619261842;8884.257;315
2024-05-26T22:11:26.502;599616259626953980;8891.949;287
2024-05-26T22:11:26.510;599616259634646118;8899.642;284
2024-05-26T22:11:26.518;599616259642338256;8907.334;319
2024-05-26T22:11:26.526;599616259650030394;8915.026;333
2024-05-26T22:11:26.533;599616259657722532;8922.718;280
2024-05-26T22:11:26.541;599616259665414670;8930.41;210
2024-05-26T22:11:26.549;599616259673106808;8938.102;203
2024-05-26T22:11:26.556;599616259680798946;8945.794;219
2024-05-26T22:11:26.564;599616259688491084;8953.486;198
2024-05-26T22:11:26.572;599616259696183222;8961.179;193
2024-05-26T22:11:26.579;599616259703875360;8968.871;214
2024-05-26T22:11:26.587;599616259711567498;8976.563;200
2024-05-26T22:11:26.595;599616259719279762;8984.275;170
2024-05-26T22:11:26.602;599616259726971621;8991.967;151
2024-05-26T22:11:26.610;599616259734663480;8999.658;114
2024-05-26T22:11:26.618;599616259742355339;9007.351;77
2024-05-26T22:11:26.626;599616259750047198;9015.042;65
2024-05-26T22:11:26.633;599616259757739057;9022.734;58
2024-05-26T22:11:26.641;599616259765430916;9030.427;58
2024-05-26T22:11:26.649;599616259773122775;9038.118;35
2024-05-26T22:11:26.656;599616259780814634;9045.811;-67
2024-05-26T22:11:26.664;599616259788506493;9053.501;-151
2024-05-26T22:11:26.672;599616259796198352;9061.193;-177
2024-05-26T22:11:26.679;599616259803890211;9068.886;-235
2024-05-26T22:11:26.687;599616259811582070;9076.577;-287
2024-05-26T22:11:26.695;599616259819273929;9084.27;-287
2024-05-26T22:11:26.702;599616259826965788;9091.961;-348
2024-05-26T22:11:26.710;599616259834657647;9099.653;-450
2024-05-26T22:11:26.718;599616259842349506;9107.345;-469
2024-05-26T22:11:26.726;599616259850041365;9115.037;-434
2024-05-26T22:11:26.733;599616259857733224;9122.729;-418
2024-05-26T22:11:26.741;599616259865425083;9130.42;-397
2024-05-26T22:11:26.749;599616259873116942;9138.112;-366
2024-05-26T22:11:26.756;599616259880808801;9145.804;-329
2024-05-26T22:11:26.764;599616259888500660;9153.496;-294
2024-05-26T22:11:26.772;599616259896192519;9161.188;-287
2024-05-26T22:11:26.779;599616259903884378;9168.88;-282
2024-05-26T22:11:26.787;599616259911576237;9176.572;-238
2024-05-26T22:11:26.795;599616259919268096;9184.263;-184
2024-05-26T22:11:26.802;599616259926959955;9191.955;-158
2024-05-26T22:11:26.810;599616259934651814;9199.646;-151
2024-05-26T22:11:26.818;599616259942343673;9207.339;-140
2024-05-26T22:11:26.826;599616259950035532;9215.031;-119
2024-05-26T22:11:26.833;599616259957727391;9222.723;-95
2024-05-26T22:11:26.841;599616259965419250;9230.415;-70
2024-05-26T22:11:26.849;599616259973111109;9238.106;-60
2024-05-26T22:11:26.856;599616259980802968;9245.799;-91
2024-05-26T22:11:26.864;599616259988494827;9253.489;-135
2024-05-26T22:11:26.872;599616259996186686;9261.182;-123
2024-05-26T22:11:26.879;599616260003878545;9268.874;-56
2024-05-26T22:11:26.887;599616260011570404;9276.565;0
2024-05-26T22:11:26.895;599616260019262263;9284.258;7
2024-05-26T22:11:26.902;599616260026954122;9291.949;2
2024-05-26T22:11:26.910;599616260034645981;9299.642;11
2024-05-26T22:11:26.918;599616260042337840;9307.334;21
2024-05-26T22:11:26.926;599616260050029699;9315.024;32
2024-05-26T22:11:26.933;599616260057721558;9322.717;63
2024-05-26T22:11:26.941;599616260065413417;9330.408;105
2024-05-26T22:11:26.949;599616260073105276;9338.101;102
2024-05-26T22:11:26.956;599616260080797135;9345.792;53
2024-05-26T22:11:26.964;599616260088488994;9353.484;114
2024-05-26T22:11:26.972;599616260096180853;9361.177;422
2024-05-26T22:11:26.979;599616260103872712;9368.868;868
2024-05-26T22:11:26.987;599616260111564571;9376.561;1055
2024-05-26T22:11:26.995;599616260119256430;9384.251;707
2024-05-26T22:11:27.002;599616260126948289;9391.943;198
2024-05-26T22:11:27.010;599616260134640148;9399.636;93
2024-05-26T22:11:27.018;599616260142332007;9407.327;217
2024-05-26T22:11:27.026;599616260150023866;9415.02;203
2024-05-26T22:11:27.033;599616260157715725;9422.711;177
2024-05-26T22:11:27.041;599616260165407584;9430.403;214
2024-05-26T22:11:27.049;599616260173099443;9438.095;200
2024-05-26T22:11:27.056;599616260180791302;9445.787;186
2024-05-26T22:11:27.064;599616260188483161;9453.479;233
2024-05-26T22:11:27.072;599616260196175020;9461.17;261
2024-05-26T22:11:27.079;599616260203866879;9468.862;263
2024-05-26T22:11:27.087;599616260211558738;9476.554;282
2024-05-26T22:11:27.095;599616260219250597;9484.246;270
2024-05-26T22:11:27.102;599616260226942456;9491.9375;217
2024-05-26T22:11:27.110;599616260234634315;9499.63;200
2024-05-26T22:11:27.118;599616260242326174;9507.322;240
2024-05-26T22:11:27.126;599616260250018033;9515.013;273
2024-05-26T22:11:27.133;599616260257709892;9522.705;277
2024-05-26T22:11:27.141;599616260265401751;9530.396;266
2024-05-26T22:11:27.149;599616260273093610;9538.089;270
2024-05-26T22:11:27.156;599616260280790498;9545.785;301
2024-05-26T22:11:27.164;599616260288482288;9553.478;324
2024-05-26T22:11:27.172;599616260296174078;9561.17;338
2024-05-26T22:11:27.179;599616260303865868;9568.861;357
2024-05-26T22:11:27.187;599616260311557658;9576.554;338
2024-05-26T22:11:27.195;599616260319249448;9584.245;238
2024-05-26T22:11:27.202;599616260326941238;9591.9375;102
2024-05-26T22:11:27.210;599616260334633028;9599.628;28
2024-05-26T22:11:27.218;599616260342324818;9607.32;42
2024-05-26T22:11:27.226;599616260350016608;9615.012;58
2024-05-26T22:11:27.233;599616260357708398;9622.704;37
2024-05-26T22:11:27.241;599616260365400188;9630.3955;56
2024-05-26T22:11:27.249;599616260373091978;9638.088;107
2024-05-26T22:11:27.256;599616260380783768;9645.779;114
2024-05-26T22:11:27.264;599616260388475558;9653.472;114
2024-05-26T22:11:27.272;599616260396167348;9661.162;130
2024-05-26T22:11:27.279;599616260403859138;9668.8545;119
2024-05-26T22:11:27.287;599616260411550928;9676.546;88
2024-05-26T22:11:27.295;599616260419242718;9684.238;102
2024-05-26T22:11:27.302;599616260426934508;9691.93;142
2024-05-26T22:11:27.310;599616260434626298;9699.622;149
2024-05-26T22:11:27.318;599616260442318088;9707.313;140
2024-05-26T22:11:27.326;599616260450009878;9715.006;149
2024-05-26T22:11:27.333;599616260457701668;9722.696;172
2024-05-26T22:11:27.341;599616260465393458;9730.389;179
2024-05-26T22:11:27.349;599616260473085248;9738.08;154
2024-05-26T22:11:27.356;599616260480777038;9745.772;137
2024-05-26T22:11:27.364;599616260488468828;9753.464;149
2024-05-26T22:11:27.372;599616260496160618;9761.156;144
2024-05-26T22:11:27.379;599616260503852408;9768.848;144
2024-05-26T22:11:27.387;599616260511544198;9776.54;177
2024-05-26T22:11:27.395;599616260519235988;9784.23;205
2024-05-26T22:11:27.402;599616260526927778;9791.923;210
2024-05-26T22:11:27.410;599616260534619568;9799.614;210
2024-05-26T22:11:27.418;599616260542311358;9807.307;212
2024-05-26T22:11:27.425;599616260550003148;9814.998;226
2024-05-26T22:11:27.433;599616260557694938;9822.69;238
2024-05-26T22:11:27.441;599616260565386728;9830.382;238
2024-05-26T22:11:27.449;599616260573078518;9838.074;259
2024-05-26T22:11:27.456;599616260580770308;9845.767;273
2024-05-26T22:11:27.464;599616260588462098;9853.457;214
2024-05-26T22:11:27.472;599616260596153888;9861.149;142
2024-05-26T22:11:27.479;599616260603845678;9868.841;151
2024-05-26T22:11:27.487;599616260611537468;9876.533;172
2024-05-26T22:11:27.495;599616260619229258;9884.225;154
2024-05-26T22:11:27.502;599616260626921048;9891.917;144
2024-05-26T22:11:27.510;599616260634612838;9899.608;156
2024-05-26T22:11:27.518;599616260642304628;9907.301;149
2024-05-26T22:11:27.525;599616260649996418;9914.991;135
2024-05-26T22:11:27.533;599616260657688208;9922.684;137
2024-05-26T22:11:27.541;599616260665379998;9930.375;165
2024-05-26T22:11:27.549;599616260673071788;9938.067;179
2024-05-26T22:11:27.556;599616260680763578;9945.759;147
2024-05-26T22:11:27.564;599616260688455368;9953.451;140
2024-05-26T22:11:27.572;599616260696147158;9961.143;179
2024-05-26T22:11:27.579;599616260703838948;9968.835;177
2024-05-26T22:11:27.587;599616260711530738;9976.525;98
2024-05-26T22:11:27.595;599616260719222528;9984.218;-4
2024-05-26T22:11:27.602;599616260726914318;9991.909;-107
2024-05-26T22:11:27.610;599616260734606108;9999.602;-189
2024-05-26T22:11:27.618;599616260742297898;10007.293;-212
2024-05-26T22:11:27.625;599616260749989688;10014.985;-196
2024-05-26T22:11:27.633;599616260757681478;10022.677;-184
2024-05-26T22:11:27.641;599616260765373268;10030.369;-191
2024-05-26T22:11:27.649;599616260773065058;10038.06;-210
2024-05-26T22:11:27.656;599616260780756848;10045.752;-207
2024-05-26T22:11:27.664;599616260788448638;10053.443;-175
2024-05-26T22:11:27.672;599616260796140428;10061.136;-158
2024-05-26T22:11:27.679;599616260803832218;10068.827;-165
2024-05-26T22:11:27.687;599616260811524008;10076.52;-154
2024-05-26T22:11:27.695;599616260819215798;10084.211;-137
2024-05-26T22:11:27.702;599616260826907588;10091.903;-158
2024-05-26T22:11:27.710;599616260834599378;10099.595;-233
2024-05-26T22:11:27.718;599616260842291182;10107.286;-298
2024-05-26T22:11:27.725;599616260849982972;10114.979;-291
2024-05-26T22:11:27.733;599616260857674762;10122.67;-263
2024-05-26T22:11:27.741;599616260865366552;10130.362;-261
2024-05-26T22:11:27.749;599616260873058342;10138.054;-245
2024-05-26T22:11:27.756;599616260880750132;10145.746;-238
2024-05-26T22:11:27.764;599616260888441922;10153.4375;-301
2024-05-26T22:11:27.772;599616260896133712;10161.13;-350
2024-05-26T22:11:27.779;599616260903825502;10168.82;-310
2024-05-26T22:11:27.787;599616260911517292;10176.513;-282
2024-05-26T22:11:27.795;599616260919209082;10184.204;-298
2024-05-26T22:11:27.802;599616260926900872;10191.896;-275
2024-05-26T22:11:27.810;599616260934592662;10199.588;-233
2024-05-26T22:11:27.818;599616260942284452;10207.28;-154
2024-05-26T22:11:27.825;599616260949976242;10214.972;100
2024-05-26T22:11:27.833;599616260957668032;10222.664;509
2024-05-26T22:11:27.841;599616260965359822;10230.3545;677
2024-05-26T22:11:27.849;599616260973051612;10238.047;303
2024-05-26T22:11:27.856;599616260980743402;10245.738;-200
2024-05-26T22:11:27.864;599616260988435192;10253.431;-270
2024-05-26T22:11:27.872;599616260996126982;10261.122;-107
2024-05-26T22:11:27.879;599616261003818772;10268.814;-137
2024-05-26T22:11:27.887;599616261011510562;10276.506;-210
2024-05-26T22:11:27.895;599616261019202352;10284.198;-135
2024-05-26T22:11:27.902;599616261026894142;10291.889;-70
2024-05-26T22:11:27.910;599616261034585932;10299.581;-79
2024-05-26T22:11:27.918;599616261042277722;10307.272;-65
2024-05-26T22:11:27.925;599616261049969512;10314.965;-35
2024-05-26T22:11:27.933;599616261057661302;10322.656;-16
2024-05-26T22:11:27.941;599616261065353092;10330.349;9
2024-05-26T22:11:27.949;599616261073044882;10338.04;39
2024-05-26T22:11:27.956;599616261080736672;10345.732;70
2024-05-26T22:11:27.964;599616261088428462;10353.424;100
2024-05-26T22:11:27.972;599616261096120252;10361.115;105
2024-05-26T22:11:27.979;599616261103812042;10368.807;112
2024-05-26T22:11:27.987;599616261111503832;10376.499;156
2024-05-26T22:11:27.995;599616261119195622;10384.19;196
2024-05-26T22:11:28.002;599616261126887412;10391.883;214
2024-05-26T22:11:28.010;599616261134579202;10399.575;231
2024-05-26T22:11:28.018;599616261142270992;10407.267;247
2024-05-26T22:11:28.025;599616261149962782;10414.959;266
2024-05-26T22:11:28.033;599616261157654572;10422.649;291
2024-05-26T22:11:28.041;599616261165346362;10430.342;305
2024-05-26T22:11:28.049;599616261173038152;10438.033;333
2024-05-26T22:11:28.056;599616261180729942;10445.726;364
2024-05-26T22:11:28.064;599616261188421732;10453.417;350
2024-05-26T22:11:28.072;599616261196113522;10461.109;333
2024-05-26T22:11:28.079;599616261203805312;10468.801;348
2024-05-26T22:11:28.087;599616261211497102;10476.493;312
2024-05-26T22:11:28.095;599616261219188892;10484.184;247
2024-05-26T22:11:28.102;599616261226880682;10491.876;240
2024-05-26T22:11:28.110;599616261234572472;10499.567;254
2024-05-26T22:11:28.118;599616261242264262;10507.26;235
2024-05-26T22:11:28.125;599616261249956052;10514.951;214
2024-05-26T22:11:28.133;599616261257647842;10522.644;207
2024-05-26T22:11:28.141;599616261265339632;10530.335;226
2024-05-26T22:11:28.149;599616261273031422;10538.027;233
2024-05-26T22:11:28.156;599616261280723212;10545.719;203
2024-05-26T22:11:28.164;599616261288415002;10553.41;193
2024-05-26T22:11:28.172;599616261296106792;10561.102;242
2024-05-26T22:11:28.179;599616261303798582;10568.794;270
2024-05-26T22:11:28.187;599616261311490372;10576.485;254
2024-05-26T22:11:28.195;599616261319182162;10584.178;252
2024-05-26T22:11:28.202;599616261326873952;10591.869;268
2024-05-26T22:11:28.210;599616261334565742;10599.562;256
2024-05-26T22:11:28.218;599616261342257532;10607.253;193
2024-05-26T22:11:28.225;599616261349949322;10614.944;130
2024-05-26T22:11:28.233;599616261357641112;10622.636;130
2024-05-26T22:11:28.241;599616261365332902;10630.328;149
2024-05-26T22:11:28.249;599616261373024692;10638.02;128
2024-05-26T22:11:28.256;599616261380716482;10645.712;135
2024-05-26T22:11:28.264;599616261388408272;10653.403;170
2024-05-26T22:11:28.272;599616261396100062;10661.096;182
2024-05-26T22:11:28.279;599616261403791864;10668.787;186
2024-05-26T22:11:28.287;599616261411483654;10676.479;205
2024-05-26T22:11:28.295;599616261419175444;10684.171;212
2024-05-26T22:11:28.302;599616261426867234;10691.862;198
2024-05-26T22:11:28.310;599616261434559024;10699.555;205
2024-05-26T22:11:28.318;599616261442250814;10707.246;238
2024-05-26T22:11:28.325;599616261449942604;10714.938;245
2024-05-26T22:11:28.333;599616261457634394;10722.63;198
2024-05-26T22:11:28.341;599616261465326184;10730.322;147
2024-05-26T22:11:28.349;599616261473017974;10738.014;151
2024-05-26T22:11:28.356;599616261480709764;10745.705;170
2024-05-26T22:11:28.364;599616261488401554;10753.396;116
2024-05-26T22:11:28.372;599616261496093344;10761.089;53
2024-05-26T22:11:28.379;599616261503785134;10768.78;74
2024-05-26T22:11:28.387;599616261511476924;10776.473;98
2024-05-26T22:11:28.395;599616261519168714;10784.164;63
2024-05-26T22:11:28.402;599616261526860504;10791.856;39
2024-05-26T22:11:28.410;599616261534552294;10799.548;32
2024-05-26T22:11:28.418;599616261542244084;10807.239;11
2024-05-26T22:11:28.425;599616261549935874;10814.931;-7
2024-05-26T22:11:28.433;599616261557627664;10822.623;-16
2024-05-26T22:11:28.441;599616261565319454;10830.314;-9
2024-05-26T22:11:28.449;599616261573011244;10838.007;4
2024-05-26T22:11:28.456;599616261580703034;10845.698;7
2024-05-26T22:11:28.464;599616261588394824;10853.391;28
2024-05-26T22:11:28.472;599616261596086614;10861.082;65
2024-05-26T22:11:28.479;599616261603778404;10868.773;49
2024-05-26T22:11:28.487;599616261611470194;10876.465;9
2024-05-26T22:11:28.495;599616261619161984;10884.157;30
2024-05-26T22:11:28.502;599616261626853774;10891.849;72
2024-05-26T22:11:28.510;599616261634545564;10899.541;81
2024-05-26T22:11:28.518;599616261642237354;10907.232;65
2024-05-26T22:11:28.525;599616261649929144;10914.925;30
2024-05-26T22:11:28.533;599616261657620934;10922.616;7
2024-05-26T22:11:28.541;599616261665312724;10930.308;-9
2024-05-26T22:11:28.548;599616261673004514;10937.999;-81
2024-05-26T22:11:28.556;599616261680696304;10945.691;-140
2024-05-26T22:11:28.564;599616261688388094;10953.384;-119
2024-05-26T22:11:28.572;599616261696079884;10961.075;-130
2024-05-26T22:11:28.579;599616261703771674;10968.768;-207
2024-05-26T22:11:28.587;599616261711463464;10976.459;-238
2024-05-26T22:11:28.595;599616261719155254;10984.151;-207
2024-05-26T22:11:28.602;599616261726847044;10991.843;-219
2024-05-26T22:11:28.610;599616261734538834;10999.534;-263
2024-05-26T22:11:28.618;599616261742230624;11007.226;-175
2024-05-26T22:11:28.625;599616261749922414;11014.918;149
2024-05-26T22:11:28.633;599616261757614204;11022.609;576
2024-05-26T22:11:28.641;599616261765305994;11030.302;705
2024-05-26T22:11:28.648;599616261772997784;11037.993;310
2024-05-26T22:11:28.656;599616261780689574;11045.686;-161
2024-05-26T22:11:28.664;599616261788381364;11053.377;-217
2024-05-26T22:11:28.672;599616261796073154;11061.068;-102
2024-05-26T22:11:28.679;599616261803764944;11068.76;-130
2024-05-26T22:11:28.687;599616261811456734;11076.452;-147
2024-05-26T22:11:28.695;599616261819148524;11084.144;-93
2024-05-26T22:11:28.702;599616261826840314;11091.836;-79
2024-05-26T22:11:28.710;599616261834532104;11099.527;-112
2024-05-26T22:11:28.718;599616261842223894;11107.22;-175
2024-05-26T22:11:28.725;599616261849915684;11114.911;-252
2024-05-26T22:11:28.733;599616261857607474;11122.603;-245
2024-05-26T22:11:28.741;599616261865299264;11130.294;-175
2024-05-26T22:11:28.748;599616261872991054;11137.986;-151
2024-05-26T22:11:28.756;599616261880682844;11145.678;-163
2024-05-26T22:11:28.764;599616261888374634;11153.37;-137
2024-05-26T22:11:28.772;599616261896066424;11161.062;-70
2024-05-26T22:11:28.779;599616261903758214;11168.754;-25
2024-05-26T22:11:28.787;599616261911450004;11176.445;-14
2024-05-26T22:11:28.795;599616261919141794;11184.138;9
2024-05-26T22:11:28.802;599616261926833584;11191.828;32
2024-05-26T22:11:28.810;599616261934525374;11199.5205;49
2024-05-26T22:11:28.818;599616261942217164;11207.212;51
2024-05-26T22:11:28.825;599616261949908954;11214.904;32
2024-05-26T22:11:28.833;599616261957600744;11222.596;21
2024-05-26T22:11:28.841;599616261965272530;11230.268;37
2024-05-26T22:11:28.848;599616261972964598;11237.96;44
2024-05-26T22:11:28.856;599616261980656666;11245.652;65
2024-05-26T22:11:28.864;599616261988348734;11253.345;107
2024-05-26T22:11:28.872;599616261996040802;11261.036;128
2024-05-26T22:11:28.879;599616262003732870;11268.728;137
2024-05-26T22:11:28.887;599616262011424938;11276.42;161
2024-05-26T22:11:28.895;599616262019117006;11284.112;156
2024-05-26T22:11:28.902;599616262026809074;11291.805;72
2024-05-26T22:11:28.910;599616262034501142;11299.497;-16
2024-05-26T22:11:28.918;599616262042193210;11307.188;-2
2024-05-26T22:11:28.925;599616262049885278;11314.881;37
2024-05-26T22:11:28.933;599616262057577346;11322.573;2
2024-05-26T22:11:28.941;599616262065269414;11330.265;-42
2024-05-26T22:11:28.948;599616262072961482;11337.956;-25
2024-05-26T22:11:28.956;599616262080653550;11345.648;9
2024-05-26T22:11:28.964;599616262088345618;11353.341;21
2024-05-26T22:11:28.972;599616262096037686;11361.033;44
2024-05-26T22:11:28.979;599616262103729754;11368.726;81
2024-05-26T22:11:28.987;599616262111421822;11376.417;81
2024-05-26T22:11:28.995;599616262119113890;11384.109;67
2024-05-26T22:11:29.002;599616262126805958;11391.802;102
2024-05-26T22:11:29.010;599616262134498026;11399.493;147
2024-05-26T22:11:29.018;599616262142190094;11407.186;172
2024-05-26T22:11:29.025;599616262149882162;11414.877;182
2024-05-26T22:11:29.033;599616262157574230;11422.569;165
2024-05-26T22:11:29.041;599616262165266298;11430.262;168
2024-05-26T22:11:29.048;599616262172958366;11437.954;205
2024-05-26T22:11:29.056;599616262180650434;11445.6455;217
2024-05-26T22:11:29.064;599616262188342502;11453.338;205
2024-05-26T22:11:29.072;599616262196034570;11461.03;177
2024-05-26T22:11:29.079;599616262203726638;11468.723;119
2024-05-26T22:11:29.087;599616262211418706;11476.414;86
2024-05-26T22:11:29.095;599616262219110774;11484.105;123
2024-05-26T22:11:29.102;599616262226802842;11491.798;165
2024-05-26T22:11:29.110;599616262234494910;11499.49;172
2024-05-26T22:11:29.118;599616262242186978;11507.183;170
2024-05-26T22:11:29.125;599616262249879046;11514.875;172
2024-05-26T22:11:29.133;599616262257571114;11522.566;189
2024-05-26T22:11:29.141;599616262265263182;11530.259;214
2024-05-26T22:11:29.148;599616262272955250;11537.951;214
2024-05-26T22:11:29.156;599616262280647318;11545.643;221
2024-05-26T22:11:29.164;599616262288339386;11553.334;259
2024-05-26T22:11:29.172;599616262296031454;11561.026;256
2024-05-26T22:11:29.179;599616262303723522;11568.719;224
2024-05-26T22:11:29.187;599616262311415590;11576.411;247
2024-05-26T22:11:29.195;599616262319107658;11584.104;294
2024-05-26T22:11:29.202;599616262326799726;11591.795;294
2024-05-26T22:11:29.210;599616262334491794;11599.487;275
2024-05-26T22:11:29.218;599616262342183862;11607.18;233
2024-05-26T22:11:29.225;599616262349875930;11614.871;126
2024-05-26T22:11:29.233;599616262357567998;11622.563;53
2024-05-26T22:11:29.241;599616262365260066;11630.255;86
2024-05-26T22:11:29.248;599616262372952134;11637.947;130
2024-05-26T22:11:29.256;599616262380644202;11645.64;128
2024-05-26T22:11:29.264;599616262388336270;11653.332;116
2024-05-26T22:11:29.272;599616262396028338;11661.023;123
2024-05-26T22:11:29.279;599616262403720406;11668.716;158
2024-05-26T22:11:29.287;599616262411412474;11676.408;182
2024-05-26T22:11:29.295;599616262419104542;11684.1;179
2024-05-26T22:11:29.302;599616262426796610;11691.792;189
2024-05-26T22:11:29.310;599616262434488678;11699.483;191
2024-05-26T22:11:29.318;599616262442180746;11707.176;147
2024-05-26T22:11:29.325;599616262449872814;11714.868;105
2024-05-26T22:11:29.333;599616262457564882;11722.561;91
2024-05-26T22:11:29.341;599616262465256950;11730.252;58
2024-05-26T22:11:29.348;599616262472949018;11737.944;23
2024-05-26T22:11:29.356;599616262480641086;11745.637;9
2024-05-26T22:11:29.364;599616262488333154;11753.329;2
2024-05-26T22:11:29.372;599616262496025222;11761.0205;21
2024-05-26T22:11:29.379;599616262503717290;11768.712;44
2024-05-26T22:11:29.387;599616262511409358;11776.404;37
2024-05-26T22:11:29.395;599616262519101426;11784.097;9
2024-05-26T22:11:29.402;599616262526803564;11791.799;4
2024-05-26T22:11:29.410;599616262534495493;11799.49;140
2024-05-26T22:11:29.418;599616262542187422;11807.183;518
2024-05-26T22:11:29.425;599616262549879351;11814.875;929
2024-05-26T22:11:29.433;599616262557571280;11822.566;880
2024-05-26T22:11:29.441;599616262565263209;11830.259;329
2024-05-26T22:11:29.448;599616262572955138;11837.951;-70
2024-05-26T22:11:29.456;599616262580647067;11845.643;-23
2024-05-26T22:11:29.464;599616262588338996;11853.335;2
2024-05-26T22:11:29.472;599616262596030925;11861.025;-182
2024-05-26T22:11:29.479;599616262603722854;11868.718;-315
2024-05-26T22:11:29.487;599616262611414783;11876.41;-326
2024-05-26T22:11:29.495;599616262619106712;11884.102;-333
2024-05-26T22:11:29.502;599616262626798641;11891.794;-357
2024-05-26T22:11:29.510;599616262634490570;11899.486;-350
2024-05-26T22:11:29.518;599616262642182499;11907.178;-312
2024-05-26T22:11:29.525;599616262649874428;11914.87;-282
2024-05-26T22:11:29.533;599616262657566357;11922.5625;-280
2024-05-26T22:11:29.541;599616262665258286;11930.253;-291
2024-05-26T22:11:29.548;599616262672950215;11937.945;-275
2024-05-26T22:11:29.556;599616262680642144;11945.638;-247
2024-05-26T22:11:29.564;599616262688334073;11953.329;-261
2024-05-26T22:11:29.572;599616262696026002;11961.021;-270
2024-05-26T22:11:29.579;599616262703717931;11968.714;-235
2024-05-26T22:11:29.587;599616262711409860;11976.405;-214
2024-05-26T22:11:29.595;599616262719101789;11984.098;-217
2024-05-26T22:11:29.602;599616262726793718;11991.788;-184
2024-05-26T22:11:29.610;599616262734485647;11999.48;-126
2024-05-26T22:11:29.618;599616262742177576;12007.173;-95
2024-05-26T22:11:29.625;599616262749869505;12014.864;-84
2024-05-26T22:11:29.633;599616262757561434;12022.557;-60
2024-05-26T22:11:29.641;599616262765253363;12030.249;-30
2024-05-26T22:11:29.648;599616262772945292;12037.94;-7
2024-05-26T22:11:29.656;599616262780637221;12045.633;18
2024-05-26T22:11:29.664;599616262788329150;12053.325;51
2024-05-26T22:11:29.672;599616262796021079;12061.016;74
2024-05-26T22:11:29.679;599616262803713008;12068.708;72
2024-05-26T22:11:29.687;599616262811404937;12076.4;63
2024-05-26T22:11:29.695;599616262819096866;12084.092;84
2024-05-26T22:11:29.702;599616262826788795;12091.784;114
2024-05-26T22:11:29.710;599616262834480724;12099.477;116
2024-05-26T22:11:29.718;599616262842172653;12107.168;74
2024-05-26T22:11:29.725;599616262849864582;12114.86;-30
2024-05-26T22:11:29.733;599616262857556511;12122.553;-130
2024-05-26T22:11:29.741;599616262865248440;12130.243;-133
2024-05-26T22:11:29.748;599616262872940369;12137.936;-102
2024-05-26T22:11:29.756;599616262880632298;12145.627;-77
2024-05-26T22:11:29.764;599616262888324227;12153.319;-35
2024-05-26T22:11:29.772;599616262896016156;12161.012;-30
2024-05-26T22:11:29.779;599616262903708085;12168.703;-44
2024-05-26T22:11:29.787;599616262911400014;12176.3955;-4
2024-05-26T22:11:29.795;599616262919091943;12184.088;56
2024-05-26T22:11:29.802;599616262926783872;12191.779;84
2024-05-26T22:11:29.810;599616262934475801;12199.471;58
2024-05-26T22:11:29.818;599616262942167730;12207.163;9
2024-05-26T22:11:29.825;599616262949859659;12214.8545;14
2024-05-26T22:11:29.833;599616262957551588;12222.547;56
2024-05-26T22:11:29.841;599616262965243517;12230.239;72
2024-05-26T22:11:29.848;599616262972935446;12237.931;93
2024-05-26T22:11:29.856;599616262980627375;12245.623;121
2024-05-26T22:11:29.864;599616262988319304;12253.315;116
2024-05-26T22:11:29.872;599616262996011233;12261.006;112
2024-05-26T22:11:29.879;599616263003703162;12268.698;149
2024-05-26T22:11:29.887;599616263011395091;12276.391;186
2024-05-26T22:11:29.895;599616263019087020;12284.082;191
2024-05-26T22:11:29.902;599616263026778949;12291.774;186
2024-05-26T22:11:29.910;599616263034470878;12299.466;186
2024-05-26T22:11:29.918;599616263042162807;12307.158;196
2024-05-26T22:11:29.925;599616263049854736;12314.851;196
2024-05-26T22:11:29.933;599616263057546665;12322.542;203
2024-05-26T22:11:29.941;599616263065238594;12330.233;233
2024-05-26T22:11:29.948;599616263072930523;12337.926;252
2024-05-26T22:11:29.956;599616263080622452;12345.617;224
2024-05-26T22:11:29.964;599616263088354524;12353.35;210
2024-05-26T22:11:29.972;599616263096045896;12361.041;245
2024-05-26T22:11:29.979;599616263103737268;12368.732;275
2024-05-26T22:11:29.987;599616263111428640;12376.425;277
2024-05-26T22:11:29.995;599616263119120012;12384.115;284
2024-05-26T22:11:30.002;599616263126811384;12391.807;280
2024-05-26T22:11:30.010;599616263134502756;12399.498;221
2024-05-26T22:11:30.018;599616263142194128;12407.189;135
2024-05-26T22:11:30.025;599616263149885500;12414.881;109
2024-05-26T22:11:30.033;599616263157576872;12422.572;151
2024-05-26T22:11:30.041;599616263165268244;12430.264;161
2024-05-26T22:11:30.048;599616263172959616;12437.954;116
2024-05-26T22:11:30.056;599616263180650988;12445.6455;74
2024-05-26T22:11:30.064;599616263188342360;12453.338;53
2024-05-26T22:11:30.072;599616263196033732;12461.029;51
2024-05-26T22:11:30.079;599616263203725104;12468.721;56
2024-05-26T22:11:30.087;599616263211416476;12476.412;70
2024-05-26T22:11:30.095;599616263219107848;12484.104;88
2024-05-26T22:11:30.102;599616263226799220;12491.794;98
2024-05-26T22:11:30.110;599616263234490592;12499.485;107
2024-05-26T22:11:30.118;599616263242181964;12507.177;151
2024-05-26T22:11:30.125;599616263249873336;12514.868;193
2024-05-26T22:11:30.133;599616263257564708;12522.561;182
2024-05-26T22:11:30.141;599616263265256080;12530.252;149
2024-05-26T22:11:30.148;599616263272947452;12537.943;158
2024-05-26T22:11:30.156;599616263280638824;12545.635;191
2024-05-26T22:11:30.164;599616263288330196;12553.325;200
2024-05-26T22:11:30.172;599616263296021568;12561.017;205
2024-05-26T22:11:30.179;599616263303712940;12568.708;219
2024-05-26T22:11:30.187;599616263311404312;12576.399;193
2024-05-26T22:11:30.195;599616263319095684;12584.091;165
2024-05-26T22:11:30.202;599616263326787056;12591.782;317
2024-05-26T22:11:30.210;599616263334478428;12599.475;726
2024-05-26T22:11:30.218;599616263342169800;12607.165;1109
2024-05-26T22:11:30.225;599616263349861172;12614.856;950
2024-05-26T22:11:30.233;599616263357552544;12622.548;247
2024-05-26T22:11:30.241;599616263365243916;12630.239;-191
2024-05-26T22:11:30.248;599616263372935288;12637.931;-86
2024-05-26T22:11:30.256;599616263380626660;12645.622;-39
2024-05-26T22:11:30.264;599616263388318032;12653.313;-149
2024-05-26T22:11:30.272;599616263396009404;12661.004;-119
2024-05-26T22:11:30.279;599616263403700776;12668.696;-84
2024-05-26T22:11:30.287;599616263411392148;12676.388;-121
2024-05-26T22:11:30.295;599616263419083520;12684.079;-112
2024-05-26T22:11:30.302;599616263426774892;12691.7705;-121
2024-05-26T22:11:30.310;599616263434466264;12699.462;-175
2024-05-26T22:11:30.318;599616263442157636;12707.153;-182
2024-05-26T22:11:30.325;599616263449849008;12714.844;-163
2024-05-26T22:11:30.333;599616263457540380;12722.535;-149
2024-05-26T22:11:30.341;599616263465231752;12730.227;-126
2024-05-26T22:11:30.348;599616263472923124;12737.918;-123
2024-05-26T22:11:30.356;599616263480614496;12745.61;-142
2024-05-26T22:11:30.364;599616263488305868;12753.302;-165
2024-05-26T22:11:30.371;599616263495997240;12760.993;-224
2024-05-26T22:11:30.379;599616263503688612;12768.684;-282
2024-05-26T22:11:30.387;599616263511379984;12776.375;-268
2024-05-26T22:11:30.395;599616263519071356;12784.066;-221
2024-05-26T22:11:30.402;599616263526762728;12791.758;-217
2024-05-26T22:11:30.410;599616263534454100;12799.449;-224
2024-05-26T22:11:30.418;599616263542145472;12807.141;-207
2024-05-26T22:11:30.425;599616263549836844;12814.833;-191
2024-05-26T22:11:30.433;599616263557528216;12822.523;-184
2024-05-26T22:11:30.441;599616263565219588;12830.215;-165
2024-05-26T22:11:30.448;599616263572910960;12837.906;-119
2024-05-26T22:11:30.456;599616263580602332;12845.598;-98
2024-05-26T22:11:30.464;599616263588293704;12853.289;-123
2024-05-26T22:11:30.471;599616263595985076;12860.98;-128
2024-05-26T22:11:30.479;599616263603676448;12868.672;-86
2024-05-26T22:11:30.487;599616263611367820;12876.362;-63
2024-05-26T22:11:30.495;599616263619059192;12884.054;-72
2024-05-26T22:11:30.502;599616263626750564;12891.746;-86
2024-05-26T22:11:30.510;599616263634441936;12899.4375;-95
2024-05-26T22:11:30.518;599616263642133308;12907.129;-100
2024-05-26T22:11:30.525;599616263649764496;12914.76;-98
2024-05-26T22:11:30.533;599616263657456704;12922.452;-81
2024-05-26T22:11:30.541;599616263665148912;12930.145;-65
2024-05-26T22:11:30.548;599616263672841120;12937.837;-112
2024-05-26T22:11:30.556;599616263680533328;12945.529;-191
2024-05-26T22:11:30.564;599616263688225536;12953.221;-182
2024-05-26T22:11:30.571;599616263695917744;12960.913;-112
2024-05-26T22:11:30.579;599616263703609952;12968.605;-123
2024-05-26T22:11:30.587;599616263711302160;12976.298;-196
2024-05-26T22:11:30.594;599616263718994368;12983.989;-207
2024-05-26T22:11:30.602;599616263726686576;12991.682;-170
2024-05-26T22:11:30.610;599616263734378784;12999.374;-161
2024-05-26T22:11:30.618;599616263742070992;13007.066;-149
2024-05-26T22:11:30.625;599616263749763200;13014.759;-102
2024-05-26T22:11:30.633;599616263757455408;13022.451;-56
2024-05-26T22:11:30.641;599616263765147616;13030.143;-46
2024-05-26T22:11:30.648;599616263772839824;13037.835;-51
2024-05-26T22:11:30.656;599616263780532032;13045.527;-32
2024-05-26T22:11:30.664;599616263788224240;13053.22;9
2024-05-26T22:11:30.671;599616263795916448;13060.912;32
2024-05-26T22:11:30.679;599616263803608656;13068.6045;42
2024-05-26T22:11:30.687;599616263811300864;13076.297;63
2024-05-26T22:11:30.694;599616263818993072;13083.988;72
2024-05-26T22:11:30.702;599616263826685280;13091.681;65
2024-05-26T22:11:30.710;599616263834377488;13099.372;74
2024-05-26T22:11:30.718;599616263842069696;13107.064;114
2024-05-26T22:11:30.725;599616263849761904;13114.757;140
2024-05-26T22:11:30.733;599616263857454112;13122.449;77
2024-05-26T22:11:30.741;599616263865146320;13130.142;-30
2024-05-26T22:11:30.748;599616263872838528;13137.834;-39
2024-05-26T22:11:30.756;599616263880530736;13145.526;25
2024-05-26T22:11:30.764;599616263888222944;13153.219;42
2024-05-26T22:11:30.771;599616263895915152;13160.911;39
2024-05-26T22:11:30.779;599616263903607360;13168.604;74
2024-05-26T22:11:30.787;599616263911299568;13176.294;81
2024-05-26T22:11:30.794;599616263918991776;13183.986;37
2024-05-26T22:11:30.802;599616263926683984;13191.679;21
2024-05-26T22:11:30.810;599616263934376192;13199.371;65
2024-05-26T22:11:30.818;599616263942068400;13207.063;102
2024-05-26T22:11:30.825;599616263949760608;13214.756;91
2024-05-26T22:11:30.833;599616263957452816;13222.448;77
2024-05-26T22:11:30.841;599616263965145024;13230.141;102
2024-05-26T22:11:30.848;599616263972837232;13237.833;140
2024-05-26T22:11:30.856;599616263980529440;13245.525;144
2024-05-26T22:11:30.864;599616263988221648;13253.217;156
2024-05-26T22:11:30.871;599616263995913856;13260.909;191
2024-05-26T22:11:30.879;599616264003606064;13268.602;191
2024-05-26T22:11:30.887;599616264011298272;13276.293;165
2024-05-26T22:11:30.894;599616264018990480;13283.985;191
2024-05-26T22:11:30.902;599616264026682688;13291.678;238
2024-05-26T22:11:30.910;599616264034374896;13299.37;259
2024-05-26T22:11:30.918;599616264042067104;13307.0625;266
2024-05-26T22:11:30.925;599616264049759312;13314.755;259
2024-05-26T22:11:30.933;599616264057451520;13322.447;261
2024-05-26T22:11:30.941;599616264065143728;13330.139;284
2024-05-26T22:11:30.948;599616264072835936;13337.831;282
2024-05-26T22:11:30.956;599616264080528144;13345.523;270
2024-05-26T22:11:30.964;599616264088220352;13353.216;277
2024-05-26T22:11:30.971;599616264095912560;13360.908;252
2024-05-26T22:11:30.979;599616264103604768;13368.601;203
2024-05-26T22:11:30.987;599616264111296976;13376.292;191
2024-05-26T22:11:30.994;599616264118989184;13383.984;294
2024-05-26T22:11:31.002;599616264126681392;13391.677;595
2024-05-26T22:11:31.010;599616264134373600;13399.369;1022
2024-05-26T22:11:31.018;599616264142065808;13407.061;1151
2024-05-26T22:11:31.025;599616264149758016;13414.753;719
2024-05-26T22:11:31.033;599616264157450224;13422.445;224
2024-05-26T22:11:31.041;599616264165142432;13430.138;158
2024-05-26T22:11:31.048;599616264172834640;13437.83;231
2024-05-26T22:11:31.056;599616264180526848;13445.522;158
2024-05-26T22:11:31.064;599616264188219056;13453.215;102
2024-05-26T22:11:31.071;599616264195911264;13460.907;126
2024-05-26T22:11:31.079;599616264203603472;13468.6;147
2024-05-26T22:11:31.087;599616264211295696;13476.291;158
2024-05-26T22:11:31.094;599616264218987904;13483.982;170
2024-05-26T22:11:31.102;599616264226680112;13491.675;175
2024-05-26T22:11:31.110;599616264234372320;13499.367;161
2024-05-26T22:11:31.118;599616264242064528;13507.06;88
2024-05-26T22:11:31.125;599616264249756736;13514.752;-44
2024-05-26T22:11:31.133;599616264257448944;13522.444;-109
2024-05-26T22:11:31.141;599616264265141152;13530.137;-74
2024-05-26T22:11:31.148;599616264272833360;13537.829;-60
2024-05-26T22:11:31.156;599616264280525568;13545.521;-100
2024-05-26T22:11:31.164;599616264288217776;13553.214;-105
2024-05-26T22:11:31.171;599616264295909984;13560.905;-58
2024-05-26T22:11:31.179;599616264303602192;13568.598;-23
2024-05-26T22:11:31.187;599616264311294400;13576.289;-21
2024-05-26T22:11:31.194;599616264318986608;13583.981;-11
2024-05-26T22:11:31.202;599616264326678816;13591.674;9
2024-05-26T22:11:31.210;599616264334371024;13599.366;21
2024-05-26T22:11:31.218;599616264342063232;13607.059;25
2024-05-26T22:11:31.225;599616264349755440;13614.751;44
2024-05-26T22:11:31.233;599616264357447648;13622.443;44
2024-05-26T22:11:31.241;599616264365139856;13630.136;-60
2024-05-26T22:11:31.248;599616264372832064;13637.827;-207
2024-05-26T22:11:31.256;599616264380524272;13645.52;-268
2024-05-26T22:11:31.264;599616264388216480;13653.212;-280
2024-05-26T22:11:31.271;599616264395908688;13660.904;-305
2024-05-26T22:11:31.279;599616264403600896;13668.597;-329
2024-05-26T22:11:31.287;599616264411293104;13676.288;-380
2024-05-26T22:11:31.294;599616264418985312;13683.98;-464
2024-05-26T22:11:31.302;599616264426677520;13691.673;-506
2024-05-26T22:11:31.310;599616264434369728;13699.365;-485
2024-05-26T22:11:31.318;599616264442061936;13707.058;-453
2024-05-26T22:11:31.325;599616264449754144;13714.749;-427
2024-05-26T22:11:31.333;599616264457446352;13722.441;-418
2024-05-26T22:11:31.341;599616264465138560;13730.134;-420
2024-05-26T22:11:31.348;599616264472830768;13737.826;-394
2024-05-26T22:11:31.356;599616264480522976;13745.519;-348
2024-05-26T22:11:31.364;599616264488215184;13753.211;-326
2024-05-26T22:11:31.371;599616264495907392;13760.903;-308
2024-05-26T22:11:31.379;599616264503599600;13768.595;-268
2024-05-26T22:11:31.387;599616264511291808;13776.287;-249
2024-05-26T22:11:31.394;599616264518984016;13783.9795;-247
2024-05-26T22:11:31.402;599616264526676224;13791.671;-217
2024-05-26T22:11:31.410;599616264534368432;13799.363;-165
2024-05-26T22:11:31.418;599616264542060640;13807.056;-126
2024-05-26T22:11:31.425;599616264549752848;13814.748;-114
2024-05-26T22:11:31.433;599616264557445056;13822.44;-114
2024-05-26T22:11:31.441;599616264565137264;13830.133;-77
2024-05-26T22:11:31.448;599616264572829472;13837.825;-16
2024-05-26T22:11:31.456;599616264580521680;13845.518;18
2024-05-26T22:11:31.464;599616264588213888;13853.21;49
2024-05-26T22:11:31.471;599616264595906096;13860.902;88
2024-05-26T22:11:31.479;599616264603598304;13868.593;91
2024-05-26T22:11:31.487;599616264611290512;13876.285;88
2024-05-26T22:11:31.494;599616264618982720;13883.978;126
2024-05-26T22:11:31.502;599616264626674928;13891.67;156
2024-05-26T22:11:31.510;599616264634367136;13899.362;147
2024-05-26T22:11:31.518;599616264642059344;13907.055;128
2024-05-26T22:11:31.525;599616264649751552;13914.747;109
2024-05-26T22:11:31.533;599616264657443760;13922.439;72
2024-05-26T22:11:31.541;599616264665135968;13930.132;28
2024-05-26T22:11:31.548;599616264672828176;13937.824;21
2024-05-26T22:11:31.556;599616264680520384;13945.516;51
2024-05-26T22:11:31.564;599616264688212592;13953.208;74
2024-05-26T22:11:31.571;599616264695904800;13960.9;63
2024-05-26T22:11:31.579;599616264703597008;13968.592;58
2024-05-26T22:11:31.587;599616264711289216;13976.284;98
2024-05-26T22:11:31.594;599616264718981424;13983.977;137
2024-05-26T22:11:31.602;599616264726673632;13991.669;142
2024-05-26T22:11:31.610;599616264734365840;13999.361;140
2024-05-26T22:11:31.618;599616264742058048;14007.054;144
2024-05-26T22:11:31.625;599616264749750256;14014.745;156
2024-05-26T22:11:31.633;599616264757442464;14022.4375;170
2024-05-26T22:11:31.641;599616264765134672;14030.13;177
2024-05-26T22:11:31.648;599616264772841944;14037.837;203
2024-05-26T22:11:31.656;599616264780533943;14045.529;233
2024-05-26T22:11:31.664;599616264788225942;14053.222;217
2024-05-26T22:11:31.671;599616264795917941;14060.914;198
2024-05-26T22:11:31.679;599616264803609940;14068.6045;226
2024-05-26T22:11:31.687;599616264811301939;14076.297;254
2024-05-26T22:11:31.694;599616264818993938;14083.989;249
2024-05-26T22:11:31.702;599616264826685937;14091.681;245
2024-05-26T22:11:31.710;599616264834377936;14099.373;256
2024-05-26T22:11:31.718;599616264842069935;14107.065;247
2024-05-26T22:11:31.725;599616264849761934;14114.758;196
2024-05-26T22:11:31.733;599616264857453933;14122.449;144
2024-05-26T22:11:31.741;599616264865145932;14130.142;119
2024-05-26T22:11:31.748;599616264872837931;14137.833;35
2024-05-26T22:11:31.756;599616264880529930;14145.525;-77
2024-05-26T22:11:31.764;599616264888221929;14153.217;-67
2024-05-26T22:11:31.771;599616264895913928;14160.909;-16
2024-05-26T22:11:31.779;599616264903605927;14168.602;-67
2024-05-26T22:11:31.787;599616264911297926;14176.293;-142
2024-05-26T22:11:31.794;599616264918989925;14183.985;-140
2024-05-26T22:11:31.802;599616264926681924;14191.678;-72
2024-05-26T22:11:31.810;599616264934373923;14199.37;154
2024-05-26T22:11:31.818;599616264942065922;14207.061;590
2024-05-26T22:11:31.825;599616264949757921;14214.753;903
2024-05-26T22:11:31.833;599616264957449920;14222.445;653
2024-05-26T22:11:31.841;599616264965141919;14230.137;93
2024-05-26T22:11:31.848;599616264972833918;14237.829;-105
2024-05-26T22:11:31.856;599616264980525917;14245.521;35
2024-05-26T22:11:31.864;599616264988217916;14253.214;65
2024-05-26T22:11:31.871;599616264995909915;14260.905;11
2024-05-26T22:11:31.879;599616265003601914;14268.598;39
2024-05-26T22:11:31.887;599616265011293913;14276.289;72
2024-05-26T22:11:31.894;599616265018985912;14283.98;70
2024-05-26T22:11:31.902;599616265026677911;14291.673;77
2024-05-26T22:11:31.910;599616265034369910;14299.365;86
2024-05-26T22:11:31.918;599616265042061909;14307.058;105
2024-05-26T22:11:31.925;599616265049753908;14314.749;140
2024-05-26T22:11:31.933;599616265057445907;14322.441;149
2024-05-26T22:11:31.941;599616265065137906;14330.134;126
2024-05-26T22:11:31.948;599616265072829905;14337.825;142
2024-05-26T22:11:31.956;599616265080521904;14345.517;193
2024-05-26T22:11:31.964;599616265088213903;14353.209;198
2024-05-26T22:11:31.971;599616265095905902;14360.901;191
2024-05-26T22:11:31.979;599616265103597901;14368.593;221
2024-05-26T22:11:31.987;599616265111289900;14376.285;242
2024-05-26T22:11:31.994;599616265118981899;14383.978;219
2024-05-26T22:11:32.002;599616265126673898;14391.669;186
2024-05-26T22:11:32.010;599616265134365897;14399.361;165
2024-05-26T22:11:32.018;599616265142057896;14407.054;165
2024-05-26T22:11:32.025;599616265149749895;14414.745;142
2024-05-26T22:11:32.033;599616265157441894;14422.437;86
2024-05-26T22:11:32.041;599616265165133893;14430.129;86
2024-05-26T22:11:32.048;599616265172825892;14437.821;126
2024-05-26T22:11:32.056;599616265180517891;14445.514;128
2024-05-26T22:11:32.064;599616265188209890;14453.205;119
2024-05-26T22:11:32.071;599616265195901889;14460.897;133
2024-05-26T22:11:32.079;599616265203593888;14468.59;126
2024-05-26T22:11:32.087;599616265211285887;14476.281;102
2024-05-26T22:11:32.094;599616265218977886;14483.973;112
2024-05-26T22:11:32.102;599616265226669885;14491.665;133
2024-05-26T22:11:32.110;599616265234361884;14499.357;128
2024-05-26T22:11:32.118;599616265242053883;14507.049;86
2024-05-26T22:11:32.125;599616265249745882;14514.741;14
2024-05-26T22:11:32.133;599616265257437881;14522.434;-37
2024-05-26T22:11:32.141;599616265265129880;14530.125;-70
2024-05-26T22:11:32.148;599616265272821879;14537.817;-126
2024-05-26T22:11:32.156;599616265280513878;14545.51;-144
2024-05-26T22:11:32.164;599616265288205877;14553.202;-123
2024-05-26T22:11:32.171;599616265295897876;14560.893;-158
2024-05-26T22:11:32.179;599616265303589875;14568.585;-198
2024-05-26T22:11:32.187;599616265311281874;14576.277;-161
2024-05-26T22:11:32.194;599616265318973873;14583.969;-123
2024-05-26T22:11:32.202;599616265326665872;14591.661;-135
2024-05-26T22:11:32.210;599616265334357884;14599.354;-144
2024-05-26T22:11:32.218;599616265342049883;14607.046;-133
2024-05-26T22:11:32.225;599616265349741882;14614.737;-119
2024-05-26T22:11:32.233;599616265357433881;14622.429;-112
2024-05-26T22:11:32.241;599616265365125880;14630.121;-114
2024-05-26T22:11:32.248;599616265372817879;14637.8125;-147
2024-05-26T22:11:32.256;599616265380509878;14645.505;-233
2024-05-26T22:11:32.264;599616265388201877;14653.197;-303
2024-05-26T22:11:32.271;599616265395893876;14660.89;-312
2024-05-26T22:11:32.279;599616265403585875;14668.581;-312
2024-05-26T22:11:32.287;599616265411277874;14676.273;-331
2024-05-26T22:11:32.294;599616265418969873;14683.966;-383
2024-05-26T22:11:32.302;599616265426661872;14691.656;-434
2024-05-26T22:11:32.310;599616265434353871;14699.349;-406
2024-05-26T22:11:32.318;599616265442045870;14707.041;-369
2024-05-26T22:11:32.325;599616265449737869;14714.733;-355
2024-05-26T22:11:32.333;599616265457429868;14722.425;-301
2024-05-26T22:11:32.341;599616265465121867;14730.117;-231
2024-05-26T22:11:32.348;599616265472813866;14737.81;-212
2024-05-26T22:11:32.356;599616265480505865;14745.502;-224
2024-05-26T22:11:32.364;599616265488197864;14753.193;-193
2024-05-26T22:11:32.371;599616265495889863;14760.885;-133
2024-05-26T22:11:32.379;599616265503581862;14768.577;-98
2024-05-26T22:11:32.387;599616265511273861;14776.269;-86
2024-05-26T22:11:32.394;599616265518965860;14783.961;-58
2024-05-26T22:11:32.402;599616265526657859;14791.653;-25
2024-05-26T22:11:32.410;599616265534349858;14799.346;-11
2024-05-26T22:11:32.418;599616265542041857;14807.037;-2
2024-05-26T22:11:32.425;599616265549733856;14814.7295;30
2024-05-26T22:11:32.433;599616265557425855;14822.422;72
2024-05-26T22:11:32.441;599616265565117854;14830.112;79
2024-05-26T22:11:32.448;599616265572809853;14837.805;60
2024-05-26T22:11:32.456;599616265580501852;14845.497;77
2024-05-26T22:11:32.464;599616265588193851;14853.189;133
2024-05-26T22:11:32.471;599616265595885850;14860.881;165
2024-05-26T22:11:32.479;599616265603577849;14868.573;161
2024-05-26T22:11:32.487;599616265611269848;14876.266;168
2024-05-26T22:11:32.494;599616265618961847;14883.957;186
2024-05-26T22:11:32.502;599616265626653846;14891.649;189
2024-05-26T22:11:32.510;599616265634345845;14899.342;184
2024-05-26T22:11:32.518;599616265642037844;14907.033;163
2024-05-26T22:11:32.525;599616265649729843;14914.725;123
2024-05-26T22:11:32.533;599616265657421842;14922.417;100
2024-05-26T22:11:32.541;599616265665113841;14930.109;102
2024-05-26T22:11:32.548;599616265672805840;14937.801;123
2024-05-26T22:11:32.556;599616265680497839;14945.493;154
2024-05-26T22:11:32.564;599616265688189838;14953.186;156
2024-05-26T22:11:32.571;599616265695881837;14960.878;158
2024-05-26T22:11:32.579;599616265703573836;14968.568;200
2024-05-26T22:11:32.587;599616265711265835;14976.261;231
2024-05-26T22:11:32.594;599616265718957834;14983.953;221
2024-05-26T22:11:32.602;599616265726649833;14991.645;226
2024-05-26T22:11:32.610;599616265734341832;14999.337;259
2024-05-26T22:11:32.618;599616265742033831;15007.029;273
2024-05-26T22:11:32.625;599616265749725830;15014.722;268
2024-05-26T22:11:32.633;599616265757417829;15022.413;263
2024-05-26T22:11:32.641;599616265765109828;15030.105;268
2024-05-26T22:11:32.648;599616265772801827;15037.798;284
2024-05-26T22:11:32.656;599616265780493826;15045.489;289
2024-05-26T22:11:32.664;599616265788185825;15053.181;277
2024-05-26T22:11:32.671;599616265795877824;15060.873;263
2024-05-26T22:11:32.679;599616265803569823;15068.565;277
2024-05-26T22:11:32.687;599616265811261822;15076.257;455
2024-05-26T22:11:32.694;599616265818953821;15083.949;864
2024-05-26T22:11:32.702;599616265826645820;15091.642;1200
2024-05-26T22:11:32.710;599616265834337819;15099.334;1011
2024-05-26T22:11:32.718;599616265842029818;15107.024;443
2024-05-26T22:11:32.725;599616265849721817;15114.717;172
2024-05-26T22:11:32.733;599616265857413816;15122.409;289
2024-05-26T22:11:32.741;599616265865105815;15130.101;305
2024-05-26T22:11:32.748;599616265872797814;15137.793;172
2024-05-26T22:11:32.756;599616265880489813;15145.485;79
2024-05-26T22:11:32.764;599616265888181812;15153.178;-9
2024-05-26T22:11:32.771;599616265895863818;15160.859;-98
2024-05-26T22:11:32.779;599616265903555956;15168.551;-102
2024-05-26T22:11:32.787;599616265911248094;15176.243;-53
2024-05-26T22:11:32.794;599616265918940232;15183.936;-23
2024-05-26T22:11:32.802;599616265926632370;15191.628;-4
2024-05-26T22:11:32.810;599616265934324508;15199.32;9
2024-05-26T22:11:32.818;599616265942016646;15207.013;16
2024-05-26T22:11:32.825;599616265949708784;15214.704;25
2024-05-26T22:11:32.833;599616265957400922;15222.3955;-4
2024-05-26T22:11:32.841;599616265965093060;15230.088;-60
2024-05-26T22:11:32.848;599616265972785198;15237.78;-53
2024-05-26T22:11:32.856;599616265980477336;15245.473;-49
2024-05-26T22:11:32.864;599616265988169474;15253.165;-112
2024-05-26T22:11:32.871;599616265995861612;15260.857;-133
2024-05-26T22:11:32.879;599616266003553750;15268.549;-79
2024-05-26T22:11:32.887;599616266011245888;15276.241;-46
2024-05-26T22:11:32.894;599616266018938026;15283.934;-44
2024-05-26T22:11:32.902;599616266026630164;15291.625;-35
2024-05-26T22:11:32.910;599616266034322302;15299.317;-28
2024-05-26T22:11:32.918;599616266042014440;15307.01;-32
2024-05-26T22:11:32.925;599616266049706578;15314.702;-23
2024-05-26T22:11:32.933;599616266057398716;15322.394;9
2024-05-26T22:11:32.941;599616266065090854;15330.086;46
2024-05-26T22:11:32.948;599616266072782992;15337.778;60
2024-05-26T22:11:32.956;599616266080475130;15345.471;39
2024-05-26T22:11:32.964;599616266088167268;15353.163;30
2024-05-26T22:11:32.971;599616266095859406;15360.855;39
2024-05-26T22:11:32.979;599616266103551544;15368.547;2
2024-05-26T22:11:32.987;599616266111243682;15376.238;-70
2024-05-26T22:11:32.994;599616266118935820;15383.931;-133
2024-05-26T22:11:33.002;599616266126627958;15391.623;-217
2024-05-26T22:11:33.010;599616266134320096;15399.315;-305
2024-05-26T22:11:33.018;599616266142012234;15407.008;-350
2024-05-26T22:11:33.025;599616266149704372;15414.7;-338
2024-05-26T22:11:33.033;599616266157396510;15422.393;-303
2024-05-26T22:11:33.041;599616266165088648;15430.084;-305
2024-05-26T22:11:33.048;599616266172780786;15437.775;-331
2024-05-26T22:11:33.056;599616266180472924;15445.468;-312
2024-05-26T22:11:33.064;599616266188165062;15453.16;-261
2024-05-26T22:11:33.071;599616266195857200;15460.853;-242
2024-05-26T22:11:33.079;599616266203549338;15468.545;-242
2024-05-26T22:11:33.087;599616266211241476;15476.237;-221
2024-05-26T22:11:33.094;599616266218933614;15483.929;-198
2024-05-26T22:11:33.102;599616266226625752;15491.621;-191
2024-05-26T22:11:33.110;599616266234317890;15499.313;-175
2024-05-26T22:11:33.118;599616266242010028;15507.006;-130
2024-05-26T22:11:33.125;599616266249702166;15514.697;-98
2024-05-26T22:11:33.133;599616266257394304;15522.39;-98
2024-05-26T22:11:33.141;599616266265086442;15530.081;-107
2024-05-26T22:11:33.148;599616266272778580;15537.773;-79
2024-05-26T22:11:33.156;599616266280470718;15545.466;-37
2024-05-26T22:11:33.164;599616266288162856;15553.158;-25
2024-05-26T22:11:33.171;599616266295854994;15560.851;-16
2024-05-26T22:11:33.179;599616266303547132;15568.543;25
2024-05-26T22:11:33.187;599616266311239270;15576.235;37
2024-05-26T22:11:33.194;599616266318931408;15583.927;21
2024-05-26T22:11:33.202;599616266326623546;15591.618;37
2024-05-26T22:11:33.210;599616266334315684;15599.311;81
2024-05-26T22:11:33.218;599616266342007822;15607.003;105
2024-05-26T22:11:33.225;599616266349699960;15614.695;105
2024-05-26T22:11:33.233;599616266357392098;15622.388;98
2024-05-26T22:11:33.241;599616266365084236;15630.08;121
2024-05-26T22:11:33.248;599616266372776374;15637.771;161
2024-05-26T22:11:33.256;599616266380468512;15645.464;140
2024-05-26T22:11:33.264;599616266388160650;15653.156;46
2024-05-26T22:11:33.271;599616266395852788;15660.848;7
2024-05-26T22:11:33.279;599616266403544926;15668.54;37
2024-05-26T22:11:33.287;599616266411237064;15676.232;39
2024-05-26T22:11:33.294;599616266418929202;15683.925;42
2024-05-26T22:11:33.302;599616266426621340;15691.616;86
2024-05-26T22:11:33.310;599616266434313478;15699.309;119
2024-05-26T22:11:33.318;599616266442005616;15707.001;112
2024-05-26T22:11:33.325;599616266449697754;15714.693;119
2024-05-26T22:11:33.333;599616266457410018;15722.405;149
2024-05-26T22:11:33.341;599616266465101877;15730.097;165
2024-05-26T22:11:33.348;599616266472793736;15737.789;168
2024-05-26T22:11:33.356;599616266480485595;15745.48;196
2024-05-26T22:11:33.364;599616266488177454;15753.173;219
2024-05-26T22:11:33.371;599616266495869313;15760.864;147
2024-05-26T22:11:33.379;599616266503561172;15768.557;35
2024-05-26T22:11:33.387;599616266511253031;15776.249;37
2024-05-26T22:11:33.394;599616266518944890;15783.94;105
2024-05-26T22:11:33.402;599616266526636749;15791.633;107
2024-05-26T22:11:33.410;599616266534328608;15799.323;93
2024-05-26T22:11:33.418;599616266542020467;15807.016;112
2024-05-26T22:11:33.425;599616266549712326;15814.707;128
2024-05-26T22:11:33.433;599616266557404185;15822.399;135
2024-05-26T22:11:33.441;599616266565096044;15830.092;154
2024-05-26T22:11:33.448;599616266572787903;15837.783;189
2024-05-26T22:11:33.456;599616266580479762;15845.476;217
2024-05-26T22:11:33.464;599616266588171621;15853.167;203
2024-05-26T22:11:33.471;599616266595863480;15860.858;186
2024-05-26T22:11:33.479;599616266603555339;15868.551;212
2024-05-26T22:11:33.487;599616266611247198;15876.242;245
2024-05-26T22:11:33.494;599616266618939057;15883.935;247
2024-05-26T22:11:33.502;599616266626630916;15891.626;214
2024-05-26T22:11:33.510;599616266634322775;15899.318;170
2024-05-26T22:11:33.518;599616266642014634;15907.01;151
2024-05-26T22:11:33.525;599616266649706493;15914.702;165
2024-05-26T22:11:33.533;599616266657398352;15922.395;177
2024-05-26T22:11:33.541;599616266665090211;15930.085;189
