Phone timestamp;sensor timestamp [ns];timestamp [ms];ecg [uV]
2024-05-27T22:47:28.019;599617113982716424;0.0;3005
2024-05-27T22:47:28.026;599617113990408214;7.69179;3862
2024-05-27T22:47:28.034;599617113998100004;15.38358;4526
2024-05-27T22:47:28.042;599617114005791794;23.07537;5364
2024-05-27T22:47:28.049;599617114013483584;30.76716;6031
2024-05-27T22:47:28.057;599617114021175374;38.458954;6641
2024-05-27T22:47:28.065;599617114028867164;46.15074;7320
2024-05-27T22:47:28.072;599617114036558954;53.84253;7783
2024-05-27T22:47:28.080;599617114044250744;61.53432;8158
2024-05-27T22:47:28.088;599617114051942534;69.22611;8656
2024-05-27T22:47:28.095;599617114059634324;76.91791;9121
2024-05-27T22:47:28.103;599617114067326114;84.60969;9630
2024-05-27T22:47:28.111;599617114075017904;92.30148;10389
2024-05-27T22:47:28.118;599617114082709694;99.99327;11173
2024-05-27T22:47:28.126;599617114090401484;107.68506;11567
2024-05-27T22:47:28.134;599617114098093274;115.37685;11506
2024-05-27T22:47:28.142;599617114105785064;123.06864;11342
2024-05-27T22:47:28.149;599617114113476854;130.76044;11544
2024-05-27T22:47:28.157;599617114121168644;138.45222;12009
2024-05-27T22:47:28.165;599617114128860434;146.14401;12293
2024-05-27T22:47:28.172;599617114136552224;153.83582;12483
2024-05-27T22:47:28.180;599617114144244014;161.52759;12779
2024-05-27T22:47:28.188;599617114151935804;169.21938;13032
2024-05-27T22:47:28.195;599617114159627594;176.91116;13194
2024-05-27T22:47:28.203;599617114167319384;184.60297;13391
2024-05-27T22:47:28.211;599617114175011174;192.29475;13657
2024-05-27T22:47:28.218;599617114182702964;199.98654;13927
2024-05-27T22:47:28.226;599617114190394754;207.67833;14063
2024-05-27T22:47:28.234;599617114198086544;215.37012;14108
2024-05-27T22:47:28.242;599617114205778334;223.0619;14288
2024-05-27T22:47:28.249;599617114213470124;230.7537;14502
2024-05-27T22:47:28.257;599617114221161914;238.4455;14572
2024-05-27T22:47:28.265;599617114228853704;246.13728;14692
2024-05-27T22:47:28.272;599617114236545494;253.82907;14913
2024-05-27T22:47:28.280;599617114244237284;261.52087;14986
2024-05-27T22:47:28.288;599617114251929074;269.21265;14948
2024-05-27T22:47:28.295;599617114259620864;276.90445;15016
2024-05-27T22:47:28.303;599617114267312654;284.59622;15176
2024-05-27T22:47:28.311;599617114275004444;292.28802;15303
2024-05-27T22:47:28.318;599617114282696234;299.9798;15371
2024-05-27T22:47:28.326;599617114290388024;307.67163;15352
2024-05-27T22:47:28.334;599617114298079814;315.3634;15300
2024-05-27T22:47:28.342;599617114305771604;323.05518;15300
2024-05-27T22:47:28.349;599617114313463394;330.74698;15321
2024-05-27T22:47:28.357;599617114321155184;338.43875;15425
2024-05-27T22:47:28.365;599617114328846974;346.13055;15462
2024-05-27T22:47:28.372;599617114336538764;353.82233;15230
2024-05-27T22:47:28.380;599617114344230554;361.51413;15072
2024-05-27T22:47:28.388;599617114351922344;369.20593;15152
2024-05-27T22:47:28.395;599617114359614134;376.8977;15206
2024-05-27T22:47:28.403;599617114367305924;384.5895;15180
2024-05-27T22:47:28.411;599617114374997714;392.28128;15115
2024-05-27T22:47:28.418;599617114382689504;399.97308;15035
2024-05-27T22:47:28.426;599617114390381294;407.66486;15026
2024-05-27T22:47:28.434;599617114398073084;415.35666;14990
2024-05-27T22:47:28.442;599617114405764874;423.04846;14946
2024-05-27T22:47:28.449;599617114413456664;430.74023;15030
2024-05-27T22:47:28.457;599617114421148454;438.43204;14993
2024-05-27T22:47:28.465;599617114428840244;446.1238;14781
2024-05-27T22:47:28.472;599617114436532034;453.8156;14633
2024-05-27T22:47:28.480;599617114444223824;461.5074;14530
2024-05-27T22:47:28.488;599617114451915614;469.1992;14457
2024-05-27T22:47:28.495;599617114459607404;476.891;14406
2024-05-27T22:47:28.503;599617114467299194;484.5828;14272
2024-05-27T22:47:28.511;599617114474990984;492.27457;14152
2024-05-27T22:47:28.518;599617114482682774;499.96634;14115
2024-05-27T22:47:28.526;599617114490374564;507.65814;14018
2024-05-27T22:47:28.534;599617114498066354;515.3499;13887
2024-05-27T22:47:28.542;599617114505758144;523.04175;13899
2024-05-27T22:47:28.549;599617114513449934;530.7335;13875
2024-05-27T22:47:28.557;599617114521141724;538.4253;13746
2024-05-27T22:47:28.565;599617114528833514;546.1171;13734
2024-05-27T22:47:28.572;599617114536525304;553.8089;13603
2024-05-27T22:47:28.580;599617114544217106;561.5007;13267
2024-05-27T22:47:28.588;599617114551908896;569.19244;13093
2024-05-27T22:47:28.595;599617114559600686;576.8843;13065
2024-05-27T22:47:28.603;599617114567292476;584.57605;13117
2024-05-27T22:47:28.611;599617114574984266;592.2678;13328
2024-05-27T22:47:28.618;599617114582676056;599.9596;13499
2024-05-27T22:47:28.626;599617114590367846;607.65137;13417
2024-05-27T22:47:28.634;599617114598059636;615.34326;13037
2024-05-27T22:47:28.642;599617114605751426;623.03503;12530
2024-05-27T22:47:28.649;599617114613443216;630.7268;12243
2024-05-27T22:47:28.657;599617114621135006;638.4186;12248
2024-05-27T22:47:28.665;599617114628826796;646.1104;12307
2024-05-27T22:47:28.672;599617114636518586;653.8022;12178
2024-05-27T22:47:28.680;599617114644210376;661.49396;11903
2024-05-27T22:47:28.688;599617114651902166;669.1857;11774
2024-05-27T22:47:28.695;599617114659593956;676.8775;11748
2024-05-27T22:47:28.703;599617114667285746;684.56934;11628
2024-05-27T22:47:28.711;599617114674977536;692.2611;11490
2024-05-27T22:47:28.718;599617114682669326;699.9529;11450
2024-05-27T22:47:28.726;599617114690361116;707.64465;11445
2024-05-27T22:47:28.734;599617114698052906;715.3365;11342
2024-05-27T22:47:28.742;599617114705744696;723.02826;11161
2024-05-27T22:47:28.749;599617114713436486;730.7201;11081
2024-05-27T22:47:28.757;599617114721128276;738.41187;11069
2024-05-27T22:47:28.765;599617114728820066;746.10364;10964
2024-05-27T22:47:28.772;599617114736511856;753.7955;10865
2024-05-27T22:47:28.780;599617114744203646;761.48724;10844
2024-05-27T22:47:28.788;599617114751895436;769.179;10745
2024-05-27T22:47:28.795;599617114759587226;776.8708;10572
2024-05-27T22:47:28.803;599617114767279016;784.56256;10461
2024-05-27T22:47:28.811;599617114774970806;792.2544;10438
2024-05-27T22:47:28.818;599617114782662596;799.94617;10396
2024-05-27T22:47:28.826;599617114790354386;807.63794;10245
2024-05-27T22:47:28.834;599617114798046176;815.3297;10072
2024-05-27T22:47:28.842;599617114805737966;823.02155;10018
2024-05-27T22:47:28.849;599617114813429756;830.7133;10043
2024-05-27T22:47:28.857;599617114821121546;838.4051;9914
2024-05-27T22:47:28.865;599617114828813336;846.0969;9651
2024-05-27T22:47:28.872;599617114836505126;853.7887;9539
2024-05-27T22:47:28.880;599617114844196916;861.4805;9475
2024-05-27T22:47:28.888;599617114851888706;869.1723;9304
2024-05-27T22:47:28.895;599617114859580496;876.8641;9191
2024-05-27T22:47:28.903;599617114867272286;884.55585;9168
2024-05-27T22:47:28.911;599617114874964076;892.2477;9114
2024-05-27T22:47:28.918;599617114882655866;899.93945;8980
2024-05-27T22:47:28.926;599617114890347656;907.6312;8837
2024-05-27T22:47:28.934;599617114898039446;915.323;8759
2024-05-27T22:47:28.942;599617114905731236;923.0148;8670
2024-05-27T22:47:28.949;599617114913423026;930.7066;8543
2024-05-27T22:47:28.957;599617114921114816;938.3984;8494
2024-05-27T22:47:28.965;599617114928806606;946.09015;8473
2024-05-27T22:47:28.972;599617114936498396;953.782;8355
2024-05-27T22:47:28.980;599617114944190186;961.4738;8182
2024-05-27T22:47:28.988;599617114951881976;969.1656;8071
2024-05-27T22:47:28.995;599617114959573766;976.85736;8036
2024-05-27T22:47:29.003;599617114967265556;984.54913;7923
2024-05-27T22:47:29.011;599617114974957346;992.2409;7705
2024-05-27T22:47:29.018;599617114982649136;999.93274;7576
2024-05-27T22:47:29.026;599617114990340926;1007.6245;7555
2024-05-27T22:47:29.034;599617114998032716;1015.3163;7482
2024-05-27T22:47:29.042;599617115005724506;1023.00806;7343
2024-05-27T22:47:29.049;599617115013416296;1030.7;7268
2024-05-27T22:47:29.057;599617115021108086;1038.3917;7226
2024-05-27T22:47:29.065;599617115028799876;1046.0835;7137
2024-05-27T22:47:29.072;599617115036491666;1053.7753;7015
2024-05-27T22:47:29.080;599617115044183456;1061.467;6801
2024-05-27T22:47:29.088;599617115051875246;1069.1588;6660
2024-05-27T22:47:29.095;599617115059567036;1076.8506;6822
2024-05-27T22:47:29.103;599617115067258826;1084.5425;7102
2024-05-27T22:47:29.111;599617115074950616;1092.2343;7221
2024-05-27T22:47:29.118;599617115082642406;1099.926;7005
2024-05-27T22:47:29.126;599617115090334196;1107.6178;6423
2024-05-27T22:47:29.134;599617115098025986;1115.3096;5979
2024-05-27T22:47:29.142;599617115105717788;1123.0013;6033
2024-05-27T22:47:29.149;599617115113409578;1130.6931;6094
2024-05-27T22:47:29.157;599617115121101368;1138.3849;5893
2024-05-27T22:47:29.165;599617115128793158;1146.0767;5796
2024-05-27T22:47:29.172;599617115136484948;1153.7686;5862
2024-05-27T22:47:29.180;599617115144176738;1161.4603;5831
2024-05-27T22:47:29.188;599617115151868528;1169.1521;5742
2024-05-27T22:47:29.195;599617115159560318;1176.8439;5705
2024-05-27T22:47:29.203;599617115167252108;1184.5356;5679
2024-05-27T22:47:29.211;599617115174943898;1192.2274;5590
2024-05-27T22:47:29.218;599617115182635688;1199.9192;5435
2024-05-27T22:47:29.226;599617115190327478;1207.611;5367
2024-05-27T22:47:29.234;599617115198019268;1215.3027;5407
2024-05-27T22:47:29.241;599617115205711058;1222.9946;5353
2024-05-27T22:47:29.249;599617115213402848;1230.6865;5228
2024-05-27T22:47:29.257;599617115221094638;1238.3783;5216
2024-05-27T22:47:29.265;599617115228786428;1246.0701;5242
2024-05-27T22:47:29.272;599617115236478218;1253.7618;5193
2024-05-27T22:47:29.280;599617115244170008;1261.4536;5146
2024-05-27T22:47:29.288;599617115251861798;1269.1454;5132
2024-05-27T22:47:29.295;599617115259553588;1276.8372;5080
2024-05-27T22:47:29.303;599617115267245378;1284.5289;4998
2024-05-27T22:47:29.311;599617115274937168;1292.2208;4944
2024-05-27T22:47:29.318;599617115282628958;1299.9126;4932
2024-05-27T22:47:29.326;599617115290320748;1307.6044;4906
2024-05-27T22:47:29.334;599617115298012538;1315.2961;4817
2024-05-27T22:47:29.341;599617115305704328;1322.9879;4719
2024-05-27T22:47:29.349;599617115313396118;1330.6797;4641
2024-05-27T22:47:29.357;599617115321087908;1338.3715;4547
2024-05-27T22:47:29.365;599617115328779698;1346.0632;4479
2024-05-27T22:47:29.372;599617115336471488;1353.755;4456
2024-05-27T22:47:29.380;599617115344163278;1361.4469;4418
2024-05-27T22:47:29.388;599617115351855068;1369.1387;4315
2024-05-27T22:47:29.395;599617115359546858;1376.8304;4193
2024-05-27T22:47:29.403;599617115367238648;1384.5222;4143
2024-05-27T22:47:29.411;599617115374930438;1392.214;4150
2024-05-27T22:47:29.418;599617115382622228;1399.9058;4118
2024-05-27T22:47:29.426;599617115390314018;1407.5975;4024
2024-05-27T22:47:29.434;599617115398005808;1415.2893;3951
2024-05-27T22:47:29.441;599617115405697598;1422.9811;3927
2024-05-27T22:47:29.449;599617115413389388;1430.673;3880
2024-05-27T22:47:29.457;599617115421081178;1438.3647;3812
2024-05-27T22:47:29.465;599617115428772968;1446.0565;3805
2024-05-27T22:47:29.472;599617115436464758;1453.7483;3803
2024-05-27T22:47:29.480;599617115444156548;1461.4402;3728
2024-05-27T22:47:29.488;599617115451848338;1469.132;3660
2024-05-27T22:47:29.495;599617115459540128;1476.8237;3646
2024-05-27T22:47:29.503;599617115467231918;1484.5155;3634
2024-05-27T22:47:29.511;599617115474923708;1492.2073;3573
2024-05-27T22:47:29.518;599617115482615498;1499.8992;3465
2024-05-27T22:47:29.526;599617115490307288;1507.591;3387
2024-05-27T22:47:29.534;599617115497999078;1515.2827;3333
2024-05-27T22:47:29.541;599617115505690868;1522.9745;3244
2024-05-27T22:47:29.549;599617115513382658;1530.6663;3181
2024-05-27T22:47:29.557;599617115521074448;1538.358;3155
2024-05-27T22:47:29.565;599617115528766238;1546.0498;3075
2024-05-27T22:47:29.572;599617115536458028;1553.7416;2967
2024-05-27T22:47:29.580;599617115544149818;1561.4333;2981
2024-05-27T22:47:29.588;599617115551841608;1569.1251;3258
2024-05-27T22:47:29.595;599617115559533398;1576.817;3620
2024-05-27T22:47:29.603;599617115567225188;1584.5088;3606
2024-05-27T22:47:29.611;599617115574916978;1592.2006;3092
2024-05-27T22:47:29.618;599617115582608768;1599.8923;2566
2024-05-27T22:47:29.626;599617115590300558;1607.5841;2479
2024-05-27T22:47:29.634;599617115597992348;1615.2759;2577
2024-05-27T22:47:29.641;599617115605684138;1622.9677;2519
2024-05-27T22:47:29.649;599617115613375928;1630.6594;2469
2024-05-27T22:47:29.657;599617115621067718;1638.3512;2488
2024-05-27T22:47:29.665;599617115628759508;1646.0431;2462
2024-05-27T22:47:29.672;599617115636451298;1653.7349;2441
2024-05-27T22:47:29.680;599617115644143088;1661.4266;2465
2024-05-27T22:47:29.688;599617115651834878;1669.1184;2476
2024-05-27T22:47:29.695;599617115659526668;1676.8102;2462
2024-05-27T22:47:29.703;599617115667218470;1684.5021;2429
2024-05-27T22:47:29.711;599617115674910260;1692.1938;2401
2024-05-27T22:47:29.718;599617115682602050;1699.8856;2411
2024-05-27T22:47:29.726;599617115690293840;1707.5775;2422
2024-05-27T22:47:29.734;599617115697985630;1715.2693;2418
2024-05-27T22:47:29.741;599617115705677420;1722.961;2425
2024-05-27T22:47:29.749;599617115713369210;1730.6528;2371
2024-05-27T22:47:29.757;599617115721061000;1738.3446;2249
2024-05-27T22:47:29.765;599617115728752790;1746.0364;2209
2024-05-27T22:47:29.772;599617115736444580;1753.7281;2260
2024-05-27T22:47:29.780;599617115744136370;1761.4199;2267
2024-05-27T22:47:29.788;599617115751828160;1769.1117;2225
2024-05-27T22:47:29.795;599617115759519950;1776.8036;2202
2024-05-27T22:47:29.803;599617115767211740;1784.4954;2192
2024-05-27T22:47:29.811;599617115774903530;1792.1871;2164
2024-05-27T22:47:29.818;599617115782595320;1799.8789;2143
2024-05-27T22:47:29.826;599617115790287110;1807.5707;2155
2024-05-27T22:47:29.834;599617115797978900;1815.2625;2152
2024-05-27T22:47:29.841;599617115805670690;1822.9542;2075
2024-05-27T22:47:29.849;599617115813362480;1830.646;2005
2024-05-27T22:47:29.857;599617115821054270;1838.3378;2028
2024-05-27T22:47:29.865;599617115828746060;1846.0297;2061
2024-05-27T22:47:29.872;599617115836437850;1853.7214;2030
2024-05-27T22:47:29.880;599617115844129640;1861.4132;2002
2024-05-27T22:47:29.888;599617115851821430;1869.105;2014
2024-05-27T22:47:29.895;599617115859513220;1876.7968;1997
2024-05-27T22:47:29.903;599617115867205010;1884.4885;1962
2024-05-27T22:47:29.911;599617115874896800;1892.1803;1936
2024-05-27T22:47:29.918;599617115882588590;1899.8721;1887
2024-05-27T22:47:29.926;599617115890280380;1907.564;1843
2024-05-27T22:47:29.934;599617115897972170;1915.2559;1812
2024-05-27T22:47:29.941;599617115905663960;1922.9476;1774
2024-05-27T22:47:29.949;599617115913355750;1930.6394;1765
2024-05-27T22:47:29.957;599617115921047540;1938.3312;1774
2024-05-27T22:47:29.965;599617115928739330;1946.023;1753
2024-05-27T22:47:29.972;599617115936431120;1953.7147;1727
2024-05-27T22:47:29.980;599617115944122910;1961.4065;1713
2024-05-27T22:47:29.988;599617115951814700;1969.0983;1690
2024-05-27T22:47:29.995;599617115959506490;1976.79;1669
2024-05-27T22:47:30.003;599617115967198280;1984.4818;1676
2024-05-27T22:47:30.011;599617115974890070;1992.1737;1706
2024-05-27T22:47:30.018;599617115982581860;1999.8655;1697
2024-05-27T22:47:30.026;599617115990273650;2007.5573;1629
2024-05-27T22:47:30.034;599617115997965440;2015.249;1589
2024-05-27T22:47:30.041;599617116005657230;2022.9408;1575
2024-05-27T22:47:30.049;599617116013349020;2030.6326;1500
2024-05-27T22:47:30.057;599617116021040810;2038.3243;1378
2024-05-27T22:47:30.065;599617116028732600;2046.0161;1333
2024-05-27T22:47:30.072;599617116036424390;2053.708;1521
2024-05-27T22:47:30.080;599617116044116180;2061.4;1882
2024-05-27T22:47:30.088;599617116051807970;2069.0916;2073
2024-05-27T22:47:30.095;599617116059499760;2076.7834;1831
2024-05-27T22:47:30.103;599617116067191550;2084.475;1303
2024-05-27T22:47:30.111;599617116074883340;2092.167;953
2024-05-27T22:47:30.118;599617116082575130;2099.8586;967
2024-05-27T22:47:30.126;599617116090266920;2107.5505;1025
2024-05-27T22:47:30.134;599617116097958710;2115.2422;969
2024-05-27T22:47:30.141;599617116105650500;2122.934;955
2024-05-27T22:47:30.149;599617116113342290;2130.626;990
2024-05-27T22:47:30.157;599617116121034080;2138.3176;1004
2024-05-27T22:47:30.165;599617116128725870;2146.0095;997
2024-05-27T22:47:30.172;599617116136417660;2153.7012;993
2024-05-27T22:47:30.180;599617116144109450;2161.393;1021
2024-05-27T22:47:30.188;599617116151801240;2169.085;1058
2024-05-27T22:47:30.195;599617116159493030;2176.7766;1068
2024-05-27T22:47:30.203;599617116167184820;2184.4685;1061
2024-05-27T22:47:30.211;599617116174876610;2192.1602;1054
2024-05-27T22:47:30.218;599617116182568400;2199.852;1072
2024-05-27T22:47:30.226;599617116190260190;2207.5437;1105
2024-05-27T22:47:30.234;599617116197951980;2215.2356;1108
2024-05-27T22:47:30.241;599617116205643770;2222.9272;1119
2024-05-27T22:47:30.249;599617116213335560;2230.6191;1152
2024-05-27T22:47:30.257;599617116221027350;2238.3108;1141
2024-05-27T22:47:30.265;599617116228719152;2246.0027;1105
2024-05-27T22:47:30.272;599617116236410942;2253.6946;1122
2024-05-27T22:47:30.280;599617116244102732;2261.3862;1150
2024-05-27T22:47:30.288;599617116251794522;2269.0781;1143
2024-05-27T22:47:30.295;599617116259486312;2276.7698;1126
2024-05-27T22:47:30.303;599617116267178102;2284.4617;1122
2024-05-27T22:47:30.311;599617116274869892;2292.1533;1122
2024-05-27T22:47:30.318;599617116282561682;2299.8455;1089
2024-05-27T22:47:30.326;599617116290253472;2307.537;1016
2024-05-27T22:47:30.334;599617116297945262;2315.229;955
2024-05-27T22:47:30.341;599617116305637052;2322.9207;948
2024-05-27T22:47:30.349;599617116313328842;2330.6125;936
2024-05-27T22:47:30.357;599617116321020632;2338.3042;908
2024-05-27T22:47:30.364;599617116328712422;2345.996;932
2024-05-27T22:47:30.372;599617116336404212;2353.6877;979
2024-05-27T22:47:30.380;599617116344096002;2361.3796;981
2024-05-27T22:47:30.388;599617116351787792;2369.0713;967
2024-05-27T22:47:30.395;599617116359479582;2376.7632;967
2024-05-27T22:47:30.403;599617116367171372;2384.4548;962
2024-05-27T22:47:30.411;599617116374863162;2392.1467;957
2024-05-27T22:47:30.418;599617116382554952;2399.8384;967
2024-05-27T22:47:30.426;599617116390246742;2407.5303;988
2024-05-27T22:47:30.434;599617116397938532;2415.222;976
2024-05-27T22:47:30.441;599617116405630322;2422.9138;903
2024-05-27T22:47:30.449;599617116413322112;2430.6055;845
2024-05-27T22:47:30.457;599617116421013902;2438.2976;866
2024-05-27T22:47:30.464;599617116428705692;2445.9893;899
2024-05-27T22:47:30.472;599617116436397482;2453.6812;885
2024-05-27T22:47:30.480;599617116444089272;2461.373;882
2024-05-27T22:47:30.488;599617116451781062;2469.0647;899
2024-05-27T22:47:30.495;599617116459472852;2476.7566;880
2024-05-27T22:47:30.503;599617116467164642;2484.4482;856
2024-05-27T22:47:30.511;599617116474856432;2492.1401;873
2024-05-27T22:47:30.518;599617116482548222;2499.8318;903
2024-05-27T22:47:30.526;599617116490240012;2507.5237;903
2024-05-27T22:47:30.534;599617116497931802;2515.2153;861
2024-05-27T22:47:30.541;599617116505623592;2522.9072;840
2024-05-27T22:47:30.549;599617116513315382;2530.5989;831
2024-05-27T22:47:30.557;599617116521007172;2538.2908;784
2024-05-27T22:47:30.564;599617116528698962;2545.9824;817
2024-05-27T22:47:30.572;599617116536390752;2553.6743;1098
2024-05-27T22:47:30.580;599617116544082542;2561.366;1443
2024-05-27T22:47:30.588;599617116551774332;2569.0579;1413
2024-05-27T22:47:30.595;599617116559466122;2576.7498;910
2024-05-27T22:47:30.603;599617116567157912;2584.4417;396
2024-05-27T22:47:30.611;599617116574849702;2592.1333;295
2024-05-27T22:47:30.618;599617116582541492;2599.8252;382
2024-05-27T22:47:30.626;599617116590233282;2607.5168;342
2024-05-27T22:47:30.634;599617116597925072;2615.2087;302
2024-05-27T22:47:30.641;599617116605616862;2622.9004;359
2024-05-27T22:47:30.649;599617116613308652;2630.5923;392
2024-05-27T22:47:30.657;599617116621000442;2638.284;385
2024-05-27T22:47:30.664;599617116628692232;2645.9758;408
2024-05-27T22:47:30.672;599617116636384022;2653.6675;427
2024-05-27T22:47:30.680;599617116644075812;2661.3594;417
2024-05-27T22:47:30.688;599617116651767602;2669.051;439
2024-05-27T22:47:30.695;599617116659459392;2676.743;488
2024-05-27T22:47:30.703;599617116667151182;2684.4346;516
2024-05-27T22:47:30.711;599617116674842972;2692.1265;514
2024-05-27T22:47:30.718;599617116682534762;2699.8184;514
2024-05-27T22:47:30.726;599617116690226552;2707.51;539
2024-05-27T22:47:30.734;599617116697918342;2715.202;577
2024-05-27T22:47:30.741;599617116705610132;2722.8938;598
2024-05-27T22:47:30.749;599617116713301922;2730.5857;608
2024-05-27T22:47:30.757;599617116720993712;2738.2773;629
2024-05-27T22:47:30.764;599617116728685502;2745.9692;629
2024-05-27T22:47:30.772;599617116736377292;2753.661;610
2024-05-27T22:47:30.780;599617116744069082;2761.3528;622
2024-05-27T22:47:30.788;599617116751760872;2769.0444;664
2024-05-27T22:47:30.795;599617116759452662;2776.7363;676
2024-05-27T22:47:30.803;599617116767144452;2784.428;657
2024-05-27T22:47:30.811;599617116774836242;2792.1199;645
2024-05-27T22:47:30.818;599617116782528032;2799.8115;633
2024-05-27T22:47:30.826;599617116790219834;2807.5034;584
2024-05-27T22:47:30.834;599617116797911624;2815.195;539
2024-05-27T22:47:30.841;599617116805603414;2822.887;568
2024-05-27T22:47:30.849;599617116813295204;2830.5786;603
2024-05-27T22:47:30.857;599617116820986994;2838.2705;544
2024-05-27T22:47:30.864;599617116828678784;2845.9622;446
2024-05-27T22:47:30.872;599617116836370574;2853.6543;448
2024-05-27T22:47:30.880;599617116844062364;2861.346;507
2024-05-27T22:47:30.888;599617116851754154;2869.0378;497
2024-05-27T22:47:30.895;599617116859445944;2876.7295;467
2024-05-27T22:47:30.903;599617116867137734;2884.4214;483
2024-05-27T22:47:30.911;599617116874829524;2892.113;511
2024-05-27T22:47:30.918;599617116882521314;2899.805;511
2024-05-27T22:47:30.926;599617116890213104;2907.4966;507
2024-05-27T22:47:30.934;599617116897904894;2915.1885;530
2024-05-27T22:47:30.941;599617116905596684;2922.8804;554
2024-05-27T22:47:30.949;599617116913288474;2930.572;511
2024-05-27T22:47:30.957;599617116920980264;2938.264;441
2024-05-27T22:47:30.964;599617116928672054;2945.9556;439
2024-05-27T22:47:30.972;599617116936363844;2953.6475;483
2024-05-27T22:47:30.980;599617116944055634;2961.339;481
2024-05-27T22:47:30.988;599617116951747424;2969.031;460
2024-05-27T22:47:30.995;599617116959439214;2976.7227;474
2024-05-27T22:47:31.003;599617116967131004;2984.4146;488
2024-05-27T22:47:31.011;599617116974822794;2992.1064;481
2024-05-27T22:47:31.018;599617116982514584;2999.7983;490
2024-05-27T22:47:31.026;599617116990206374;3007.49;523
2024-05-27T22:47:31.034;599617116997898164;3015.182;530
2024-05-27T22:47:31.041;599617117005589954;3022.8735;500
2024-05-27T22:47:31.049;599617117013281744;3030.5654;488
2024-05-27T22:47:31.057;599617117020973534;3038.257;485
2024-05-27T22:47:31.064;599617117028665324;3045.949;434
2024-05-27T22:47:31.072;599617117036357114;3053.6406;406
2024-05-27T22:47:31.080;599617117044048904;3061.3325;584
2024-05-27T22:47:31.088;599617117051740694;3069.0242;932
2024-05-27T22:47:31.095;599617117059432484;3076.716;1021
2024-05-27T22:47:31.103;599617117067124274;3084.4077;633
2024-05-27T22:47:31.111;599617117074816064;3092.0996;122
2024-05-27T22:47:31.118;599617117082507854;3099.7913;-65
2024-05-27T22:47:31.126;599617117090199644;3107.4832;14
2024-05-27T22:47:31.134;599617117097891434;3115.1748;28
2024-05-27T22:47:31.141;599617117105583224;3122.8667;-21
2024-05-27T22:47:31.149;599617117113275014;3130.5583;14
2024-05-27T22:47:31.157;599617117120966804;3138.2505;61
2024-05-27T22:47:31.164;599617117128658594;3145.9424;56
2024-05-27T22:47:31.172;599617117136350384;3153.634;75
2024-05-27T22:47:31.180;599617117144042174;3161.326;107
2024-05-27T22:47:31.188;599617117151733964;3169.0176;115
2024-05-27T22:47:31.195;599617117159425754;3176.7095;131
2024-05-27T22:47:31.203;599617117167117544;3184.4011;178
2024-05-27T22:47:31.211;599617117174809334;3192.093;220
2024-05-27T22:47:31.218;599617117182501124;3199.7847;230
2024-05-27T22:47:31.226;599617117190192914;3207.4766;225
2024-05-27T22:47:31.234;599617117197884704;3215.1682;255
2024-05-27T22:47:31.241;599617117205576494;3222.86;307
2024-05-27T22:47:31.249;599617117213268284;3230.5518;326
2024-05-27T22:47:31.257;599617117220960074;3238.2437;342
2024-05-27T22:47:31.264;599617117228651864;3245.9353;380
2024-05-27T22:47:31.272;599617117236343654;3253.6272;394
2024-05-27T22:47:31.280;599617117244035444;3261.3188;368
2024-05-27T22:47:31.288;599617117251727234;3269.0107;377
2024-05-27T22:47:31.295;599617117259419024;3276.7026;424
2024-05-27T22:47:31.303;599617117267110814;3284.3945;457
2024-05-27T22:47:31.311;599617117274802604;3292.0862;443
2024-05-27T22:47:31.318;599617117282494394;3299.778;387
2024-05-27T22:47:31.326;599617117290186184;3307.4697;352
2024-05-27T22:47:31.334;599617117297877974;3315.1616;377
2024-05-27T22:47:31.341;599617117305569764;3322.8533;389
2024-05-27T22:47:31.349;599617117313261554;3330.5452;377
2024-05-27T22:47:31.357;599617117320953344;3338.2368;408
2024-05-27T22:47:31.364;599617117328645134;3345.9287;427
2024-05-27T22:47:31.372;599617117336336924;3353.6204;399
2024-05-27T22:47:31.380;599617117344028714;3361.3123;401
2024-05-27T22:47:31.387;599617117351710508;3368.9941;441
2024-05-27T22:47:31.395;599617117359402437;3376.686;450
2024-05-27T22:47:31.403;599617117367094366;3384.378;427
2024-05-27T22:47:31.411;599617117374786295;3392.0698;427
2024-05-27T22:47:31.418;599617117382478224;3399.762;439
2024-05-27T22:47:31.426;599617117390170153;3407.4536;408
2024-05-27T22:47:31.434;599617117397862082;3415.1458;340
2024-05-27T22:47:31.441;599617117405554011;3422.8374;331
2024-05-27T22:47:31.449;599617117413245940;3430.5295;359
2024-05-27T22:47:31.457;599617117420937869;3438.2217;309
2024-05-27T22:47:31.464;599617117428629798;3445.9133;239
2024-05-27T22:47:31.472;599617117436321727;3453.6055;262
2024-05-27T22:47:31.480;599617117444013656;3461.297;307
2024-05-27T22:47:31.487;599617117451705585;3468.9893;295
2024-05-27T22:47:31.495;599617117459397514;3476.6812;284
2024-05-27T22:47:31.503;599617117467089443;3484.373;307
2024-05-27T22:47:31.511;599617117474781372;3492.065;326
2024-05-27T22:47:31.518;599617117482473301;3499.7568;331
2024-05-27T22:47:31.526;599617117490165230;3507.4487;333
2024-05-27T22:47:31.534;599617117497857159;3515.1406;349
2024-05-27T22:47:31.541;599617117505549088;3522.8325;363
2024-05-27T22:47:31.549;599617117513241017;3530.5247;345
2024-05-27T22:47:31.557;599617117520932946;3538.2166;305
2024-05-27T22:47:31.564;599617117528624875;3545.9084;246
2024-05-27T22:47:31.572;599617117536316804;3553.6003;187
2024-05-27T22:47:31.580;599617117544008733;3561.2922;239
2024-05-27T22:47:31.587;599617117551700662;3568.9844;511
2024-05-27T22:47:31.595;599617117559392591;3576.676;856
2024-05-27T22:47:31.603;599617117567084520;3584.3682;854
2024-05-27T22:47:31.611;599617117574776449;3592.0598;373
2024-05-27T22:47:31.618;599617117582468378;3599.752;-119
2024-05-27T22:47:31.626;599617117590160307;3607.4438;-208
2024-05-27T22:47:31.634;599617117597852236;3615.1357;-91
2024-05-27T22:47:31.641;599617117605544165;3622.828;-103
2024-05-27T22:47:31.649;599617117613236094;3630.5195;-138
2024-05-27T22:47:31.657;599617117620928023;3638.2117;-79
2024-05-27T22:47:31.664;599617117628619952;3645.9036;-44
2024-05-27T22:47:31.672;599617117636311881;3653.5955;-49
2024-05-27T22:47:31.680;599617117644003810;3661.2874;-18
2024-05-27T22:47:31.687;599617117651695739;3668.9792;16
2024-05-27T22:47:31.695;599617117659387668;3676.6711;23
2024-05-27T22:47:31.703;599617117667079597;3684.3633;39
2024-05-27T22:47:31.711;599617117674771526;3692.055;79
2024-05-27T22:47:31.718;599617117682463455;3699.747;122
2024-05-27T22:47:31.726;599617117690155384;3707.439;145
2024-05-27T22:47:31.734;599617117697847313;3715.1309;147
2024-05-27T22:47:31.741;599617117705539242;3722.823;171
2024-05-27T22:47:31.749;599617117713231171;3730.5146;225
2024-05-27T22:47:31.757;599617117720923100;3738.2068;258
2024-05-27T22:47:31.764;599617117728615029;3745.8984;274
2024-05-27T22:47:31.772;599617117736306958;3753.5906;309
2024-05-27T22:47:31.780;599617117743998887;3761.2825;326
2024-05-27T22:47:31.787;599617117751690816;3768.9744;316
2024-05-27T22:47:31.795;599617117759382745;3776.6663;333
2024-05-27T22:47:31.803;599617117767074674;3784.3582;349
2024-05-27T22:47:31.811;599617117774766603;3792.0503;307
2024-05-27T22:47:31.818;599617117782458532;3799.7422;253
2024-05-27T22:47:31.826;599617117790150461;3807.434;239
2024-05-27T22:47:31.834;599617117797842390;3815.126;248
2024-05-27T22:47:31.841;599617117805534319;3822.8179;267
2024-05-27T22:47:31.849;599617117813226248;3830.5098;288
2024-05-27T22:47:31.857;599617117820918177;3838.202;298
2024-05-27T22:47:31.864;599617117828610106;3845.8936;312
2024-05-27T22:47:31.872;599617117836302035;3853.5857;312
2024-05-27T22:47:31.880;599617117843993964;3861.2773;295
2024-05-27T22:47:31.887;599617117851685893;3868.9695;314
2024-05-27T22:47:31.895;599617117859377822;3876.6616;354
2024-05-27T22:47:31.903;599617117867069751;3884.3533;366
2024-05-27T22:47:31.911;599617117874761680;3892.0454;363
2024-05-27T22:47:31.918;599617117882453609;3899.737;366
2024-05-27T22:47:31.926;599617117890145538;3907.4292;373
2024-05-27T22:47:31.934;599617117897837467;3915.121;387
2024-05-27T22:47:31.941;599617117905529396;3922.813;392
2024-05-27T22:47:31.949;599617117913226402;3930.51;392
2024-05-27T22:47:31.957;599617117920918261;3938.202;375
2024-05-27T22:47:31.964;599617117928610120;3945.8936;312
2024-05-27T22:47:31.972;599617117936301979;3953.5857;267
2024-05-27T22:47:31.980;599617117943993838;3961.2773;295
2024-05-27T22:47:31.987;599617117951685697;3968.9692;326
2024-05-27T22:47:31.995;599617117959377556;3976.6611;321
2024-05-27T22:47:32.003;599617117967069415;3984.353;314
2024-05-27T22:47:32.011;599617117974761274;3992.045;314
2024-05-27T22:47:32.018;599617117982453133;3999.7368;314
2024-05-27T22:47:32.026;599617117990144992;4007.4287;291
2024-05-27T22:47:32.034;599617117997836851;4015.1204;234
2024-05-27T22:47:32.041;599617118005528710;4022.8123;215
2024-05-27T22:47:32.049;599617118013220569;4030.5042;225
2024-05-27T22:47:32.057;599617118020912428;4038.196;176
2024-05-27T22:47:32.064;599617118028604287;4045.8877;98
2024-05-27T22:47:32.072;599617118036296146;4053.5798;75
2024-05-27T22:47:32.080;599617118043988005;4061.2715;84
2024-05-27T22:47:32.087;599617118051679864;4068.9634;215
2024-05-27T22:47:32.095;599617118059371723;4076.6553;547
2024-05-27T22:47:32.103;599617118067063582;4084.3472;800
2024-05-27T22:47:32.111;599617118074755441;4092.0388;610
2024-05-27T22:47:32.118;599617118082447300;4099.731;77
2024-05-27T22:47:32.126;599617118090139159;4107.423;-291
2024-05-27T22:47:32.134;599617118097831018;4115.1143;-241
2024-05-27T22:47:32.141;599617118105522877;4122.8066;-124
2024-05-27T22:47:32.149;599617118113214736;4130.4985;-183
2024-05-27T22:47:32.157;599617118120906595;4138.19;-206
2024-05-27T22:47:32.164;599617118128598454;4145.8823;-131
2024-05-27T22:47:32.172;599617118136290313;4153.5737;-96
2024-05-27T22:47:32.180;599617118143982172;4161.2656;-98
2024-05-27T22:47:32.187;599617118151674031;4168.9575;-70
2024-05-27T22:47:32.195;599617118159365890;4176.6494;-28
2024-05-27T22:47:32.203;599617118167057749;4184.3413;0
2024-05-27T22:47:32.211;599617118174749608;4192.033;18
2024-05-27T22:47:32.218;599617118182441467;4199.725;44
2024-05-27T22:47:32.226;599617118190133326;4207.417;84
2024-05-27T22:47:32.234;599617118197825185;4215.109;119
2024-05-27T22:47:32.241;599617118205517044;4222.801;122
2024-05-27T22:47:32.249;599617118213208903;4230.492;138
2024-05-27T22:47:32.257;599617118220900762;4238.1846;194
2024-05-27T22:47:32.264;599617118228592621;4245.8765;230
2024-05-27T22:47:32.272;599617118236284480;4253.568;234
2024-05-27T22:47:32.280;599617118243976339;4261.2603;255
2024-05-27T22:47:32.287;599617118251668198;4268.9517;281
2024-05-27T22:47:32.295;599617118259360057;4276.6436;277
2024-05-27T22:47:32.303;599617118267051916;4284.3354;246
2024-05-27T22:47:32.311;599617118274743775;4292.0273;241
2024-05-27T22:47:32.318;599617118282435634;4299.719;277
2024-05-27T22:47:32.326;599617118290127493;4307.411;286
2024-05-27T22:47:32.334;599617118297819352;4315.1025;253
2024-05-27T22:47:32.341;599617118305511211;4322.795;255
2024-05-27T22:47:32.349;599617118313203070;4330.487;291
2024-05-27T22:47:32.357;599617118320894929;4338.1787;302
2024-05-27T22:47:32.364;599617118328586788;4345.87;309
2024-05-27T22:47:32.372;599617118336278647;4353.562;331
2024-05-27T22:47:32.380;599617118343970506;4361.254;333
2024-05-27T22:47:32.387;599617118351662365;4368.9463;321
2024-05-27T22:47:32.395;599617118359354224;4376.638;333
2024-05-27T22:47:32.403;599617118367046083;4384.3296;361
2024-05-27T22:47:32.411;599617118374737942;4392.0215;377
2024-05-27T22:47:32.418;599617118382429801;4399.7134;377
2024-05-27T22:47:32.426;599617118390121660;4407.4053;366
2024-05-27T22:47:32.434;599617118397813519;4415.097;370
2024-05-27T22:47:32.441;599617118405505378;4422.789;375
2024-05-27T22:47:32.449;599617118413197237;4430.481;340
2024-05-27T22:47:32.457;599617118420889096;4438.173;300
2024-05-27T22:47:32.464;599617118428580955;4445.8643;307
2024-05-27T22:47:32.472;599617118436272814;4453.556;300
2024-05-27T22:47:32.480;599617118443964673;4461.248;267
2024-05-27T22:47:32.487;599617118451656532;4468.9404;267
2024-05-27T22:47:32.495;599617118459348391;4476.632;307
2024-05-27T22:47:32.503;599617118467040250;4484.3237;323
2024-05-27T22:47:32.511;599617118474732170;4492.0156;300
2024-05-27T22:47:32.518;599617118482424029;4499.7075;295
2024-05-27T22:47:32.526;599617118490115888;4507.4;316
2024-05-27T22:47:32.534;599617118497807747;4515.0913;335
2024-05-27T22:47:32.541;599617118505499606;4522.783;338
2024-05-27T22:47:32.549;599617118513191465;4530.475;316
2024-05-27T22:47:32.557;599617118520883324;4538.167;286
2024-05-27T22:47:32.564;599617118528575183;4545.8584;244
2024-05-27T22:47:32.572;599617118536267042;4553.551;138
2024-05-27T22:47:32.580;599617118543958901;4561.2427;35
2024-05-27T22:47:32.587;599617118551650760;4568.9346;2
2024-05-27T22:47:32.595;599617118559342619;4576.626;44
2024-05-27T22:47:32.603;599617118567034478;4584.318;255
2024-05-27T22:47:32.611;599617118574726337;4592.01;608
2024-05-27T22:47:32.618;599617118582418196;4599.702;805
2024-05-27T22:47:32.626;599617118590110055;4607.3936;544
2024-05-27T22:47:32.634;599617118597801914;4615.0854;-18
2024-05-27T22:47:32.641;599617118605493773;4622.7773;-269
2024-05-27T22:47:32.649;599617118613185632;4630.469;-131
2024-05-27T22:47:32.657;599617118620877491;4638.161;-100
2024-05-27T22:47:32.664;599617118628569350;4645.8525;-187
2024-05-27T22:47:32.672;599617118636261209;4653.545;-131
2024-05-27T22:47:32.680;599617118643953068;4661.237;-49
2024-05-27T22:47:32.687;599617118651644927;4668.9287;-51
2024-05-27T22:47:32.695;599617118659336786;4676.62;-53
2024-05-27T22:47:32.703;599617118667028645;4684.312;-28
2024-05-27T22:47:32.711;599617118674720504;4692.004;-2
2024-05-27T22:47:32.718;599617118682412363;4699.6963;18
2024-05-27T22:47:32.726;599617118690104222;4707.3877;44
2024-05-27T22:47:32.734;599617118697796081;4715.0796;84
2024-05-27T22:47:32.741;599617118705487940;4722.7715;117
2024-05-27T22:47:32.749;599617118713179799;4730.4634;117
2024-05-27T22:47:32.757;599617118720871658;4738.155;124
2024-05-27T22:47:32.764;599617118728563517;4745.847;164
2024-05-27T22:47:32.772;599617118736255376;4753.539;206
2024-05-27T22:47:32.780;599617118743947235;4761.231;218
2024-05-27T22:47:32.787;599617118751639094;4768.923;204
2024-05-27T22:47:32.795;599617118759330953;4776.6143;164
2024-05-27T22:47:32.803;599617118767022812;4784.306;131
2024-05-27T22:47:32.810;599617118774714671;4791.9985;138
2024-05-27T22:47:32.818;599617118782406530;4799.6904;176
2024-05-27T22:47:32.826;599617118790098389;4807.382;208
2024-05-27T22:47:32.834;599617118797790248;4815.0737;223
2024-05-27T22:47:32.841;599617118805482107;4822.7656;215
2024-05-27T22:47:32.849;599617118813173966;4830.4575;227
2024-05-27T22:47:32.857;599617118820865825;4838.1494;269
2024-05-27T22:47:32.864;599617118828557684;4845.8413;293
2024-05-27T22:47:32.872;599617118836249543;4853.533;298
2024-05-27T22:47:32.880;599617118843941402;4861.225;312
2024-05-27T22:47:32.887;599617118851633261;4868.9165;319
2024-05-27T22:47:32.895;599617118859325120;4876.6084;319
2024-05-27T22:47:32.903;599617118867016979;4884.301;328
2024-05-27T22:47:32.910;599617118874708838;4891.9927;347
2024-05-27T22:47:32.918;599617118882400697;4899.6846;375
2024-05-27T22:47:32.926;599617118890092556;4907.376;380
2024-05-27T22:47:32.934;599617118897784415;4915.068;323
2024-05-27T22:47:32.941;599617118905476274;4922.76;267
2024-05-27T22:47:32.949;599617118913168133;4930.4517;274
2024-05-27T22:47:32.957;599617118920859992;4938.1436;284
2024-05-27T22:47:32.964;599617118928551851;4945.8354;269
2024-05-27T22:47:32.972;599617118936243710;4953.5273;269
2024-05-27T22:47:32.980;599617118943935569;4961.219;267
2024-05-27T22:47:32.987;599617118951627428;4968.9106;251
2024-05-27T22:47:32.995;599617118959319287;4976.6025;248
2024-05-27T22:47:33.003;599617118967011146;4984.295;272
2024-05-27T22:47:33.010;599617118974703005;4991.987;298
2024-05-27T22:47:33.018;599617118982394864;4999.678;295
2024-05-27T22:47:33.026;599617118990086723;5007.37;277
2024-05-27T22:47:33.034;599617118997778582;5015.062;277
2024-05-27T22:47:33.041;599617119005470441;5022.754;262
2024-05-27T22:47:33.049;599617119013162300;5030.4463;220
2024-05-27T22:47:33.057;599617119020854159;5038.1377;192
2024-05-27T22:47:33.064;599617119028546018;5045.8296;169
2024-05-27T22:47:33.072;599617119036237938;5053.5215;131
2024-05-27T22:47:33.080;599617119043929797;5061.2134;79
2024-05-27T22:47:33.087;599617119051621656;5068.9053;39
2024-05-27T22:47:33.095;599617119059313515;5076.597;28
2024-05-27T22:47:33.103;599617119067005374;5084.289;-2
2024-05-27T22:47:33.110;599617119074697233;5091.981;-39
2024-05-27T22:47:33.118;599617119082389092;5099.6724;112
2024-05-27T22:47:33.126;599617119090080951;5107.3643;551
2024-05-27T22:47:33.134;599617119097772810;5115.0566;863
2024-05-27T22:47:33.141;599617119105464669;5122.7485;568
2024-05-27T22:47:33.149;599617119113156528;5130.4404;-61
2024-05-27T22:47:33.157;599617119120848387;5138.132;-331
2024-05-27T22:47:33.164;599617119128540246;5145.8237;-220
2024-05-27T22:47:33.172;599617119136232105;5153.5156;-183
2024-05-27T22:47:33.180;599617119143923964;5161.2075;-223
2024-05-27T22:47:33.187;599617119151615823;5168.8994;-159
2024-05-27T22:47:33.195;599617119159307682;5176.5913;-105
2024-05-27T22:47:33.203;599617119166999541;5184.283;-112
2024-05-27T22:47:33.210;599617119174691400;5191.975;-91
2024-05-27T22:47:33.218;599617119182383259;5199.6665;-39
2024-05-27T22:47:33.226;599617119190075118;5207.3584;-7
2024-05-27T22:47:33.234;599617119197766977;5215.051;14
2024-05-27T22:47:33.241;599617119205458836;5222.7427;46
2024-05-27T22:47:33.249;599617119213150695;5230.434;84
2024-05-27T22:47:33.257;599617119220842554;5238.126;89
2024-05-27T22:47:33.264;599617119228534413;5245.818;96
2024-05-27T22:47:33.272;599617119236226272;5253.51;147
2024-05-27T22:47:33.280;599617119243918131;5261.202;192
2024-05-27T22:47:33.287;599617119251609990;5268.8936;180
2024-05-27T22:47:33.295;599617119259301849;5276.5854;166
2024-05-27T22:47:33.303;599617119266993708;5284.2773;190
2024-05-27T22:47:33.310;599617119274685567;5291.969;213
2024-05-27T22:47:33.318;599617119282377426;5299.6606;227
2024-05-27T22:47:33.326;599617119290069285;5307.353;244
2024-05-27T22:47:33.334;599617119297761144;5315.045;274
2024-05-27T22:47:33.341;599617119305453003;5322.737;293
2024-05-27T22:47:33.349;599617119313144862;5330.428;281
2024-05-27T22:47:33.357;599617119320836721;5338.12;279
2024-05-27T22:47:33.364;599617119328528580;5345.812;309
2024-05-27T22:47:33.372;599617119336220439;5353.5044;333
2024-05-27T22:47:33.380;599617119343912298;5361.196;331
2024-05-27T22:47:33.387;599617119351604157;5368.8877;333
2024-05-27T22:47:33.395;599617119359296016;5376.5796;347
2024-05-27T22:47:33.403;599617119366987875;5384.2715;356
2024-05-27T22:47:33.410;599617119374679734;5391.9634;356
2024-05-27T22:47:33.418;599617119382371593;5399.6553;356
2024-05-27T22:47:33.426;599617119390063452;5407.347;340
2024-05-27T22:47:33.434;599617119397755311;5415.039;302
2024-05-27T22:47:33.441;599617119405447170;5422.731;265
2024-05-27T22:47:33.449;599617119413139029;5430.4224;253
2024-05-27T22:47:33.457;599617119420830888;5438.1143;265
2024-05-27T22:47:33.464;599617119428522747;5445.806;274
2024-05-27T22:47:33.472;599617119436214606;5453.4985;267
2024-05-27T22:47:33.480;599617119443906465;5461.19;267
2024-05-27T22:47:33.487;599617119451598324;5468.882;267
2024-05-27T22:47:33.495;599617119459290183;5476.5737;258
2024-05-27T22:47:33.503;599617119466982042;5484.2656;255
2024-05-27T22:47:33.510;599617119474673901;5491.957;262
2024-05-27T22:47:33.518;599617119482365760;5499.6494;281
2024-05-27T22:47:33.526;599617119490057619;5507.3413;288
2024-05-27T22:47:33.534;599617119497749478;5515.033;248
2024-05-27T22:47:33.541;599617119505441337;5522.725;201
2024-05-27T22:47:33.549;599617119513133196;5530.4165;197
2024-05-27T22:47:33.557;599617119520825055;5538.1084;180
2024-05-27T22:47:33.564;599617119528516914;5545.801;131
2024-05-27T22:47:33.572;599617119536208773;5553.4927;84
2024-05-27T22:47:33.580;599617119543900632;5561.184;58
2024-05-27T22:47:33.587;599617119551592491;5568.876;49
2024-05-27T22:47:33.595;599617119559284350;5576.568;49
2024-05-27T22:47:33.603;599617119566976209;5584.26;61
2024-05-27T22:47:33.610;599617119574668068;5591.9517;16
2024-05-27T22:47:33.618;599617119582359927;5599.6436;-133
2024-05-27T22:47:33.626;599617119590051786;5607.3354;-234
2024-05-27T22:47:33.634;599617119597743706;5615.0273;-68
2024-05-27T22:47:33.641;599617119605435565;5622.7188;354
2024-05-27T22:47:33.649;599617119613127424;5630.4106;767
2024-05-27T22:47:33.657;599617119620819283;5638.103;802
2024-05-27T22:47:33.664;599617119628511142;5645.795;352
2024-05-27T22:47:33.672;599617119636203001;5653.487;-147
2024-05-27T22:47:33.680;599617119643894860;5661.178;-253
2024-05-27T22:47:33.687;599617119651586719;5668.87;-157
2024-05-27T22:47:33.695;599617119659278578;5676.562;-150
2024-05-27T22:47:33.703;599617119666970437;5684.2544;-157
2024-05-27T22:47:33.710;599617119674662296;5691.946;-122
2024-05-27T22:47:33.718;599617119682354155;5699.6377;-107
2024-05-27T22:47:33.726;599617119690046014;5707.3296;-91
2024-05-27T22:47:33.734;599617119697737873;5715.0215;-42
2024-05-27T22:47:33.741;599617119705429732;5722.713;-7
2024-05-27T22:47:33.749;599617119713121591;5730.4053;16
2024-05-27T22:47:33.757;599617119720813450;5738.097;51
2024-05-27T22:47:33.764;599617119728505309;5745.789;79
2024-05-27T22:47:33.772;599617119736197168;5753.4805;89
2024-05-27T22:47:33.780;599617119743889027;5761.1724;86
2024-05-27T22:47:33.787;599617119751580886;5768.8643;93
2024-05-27T22:47:33.795;599617119759272745;5776.5566;124
2024-05-27T22:47:33.803;599617119766964604;5784.2485;145
2024-05-27T22:47:33.810;599617119774656463;5791.94;152
2024-05-27T22:47:33.818;599617119782348322;5799.632;183
2024-05-27T22:47:33.826;599617119790040181;5807.3237;215
2024-05-27T22:47:33.834;599617119797732040;5815.0156;230
2024-05-27T22:47:33.841;599617119805423899;5822.7075;255
2024-05-27T22:47:33.849;599617119813115758;5830.3994;286
2024-05-27T22:47:33.857;599617119820807617;5838.0913;277
2024-05-27T22:47:33.864;599617119828499476;5845.783;262
2024-05-27T22:47:33.872;599617119836191335;5853.4746;291
2024-05-27T22:47:33.880;599617119843883194;5861.1665;321
2024-05-27T22:47:33.887;599617119851575053;5868.859;319
2024-05-27T22:47:33.895;599617119859266912;5876.551;312
2024-05-27T22:47:33.903;599617119866958771;5884.2427;319
2024-05-27T22:47:33.910;599617119874650630;5891.934;328
2024-05-27T22:47:33.918;599617119882342489;5899.626;307
2024-05-27T22:47:33.926;599617119890034348;5907.318;267
2024-05-27T22:47:33.934;599617119897726207;5915.01;269
2024-05-27T22:47:33.941;599617119905418066;5922.7017;281
2024-05-27T22:47:33.949;599617119913109925;5930.3936;246
2024-05-27T22:47:33.957;599617119920801784;5938.0854;220
2024-05-27T22:47:33.964;599617119928493643;5945.7773;248
2024-05-27T22:47:33.972;599617119936185502;5953.4688;265
2024-05-27T22:47:33.980;599617119943877361;5961.1606;251
2024-05-27T22:47:33.987;599617119951569220;5968.853;244
2024-05-27T22:47:33.995;599617119959261079;5976.545;248
2024-05-27T22:47:34.003;599617119966952938;5984.2363;248
2024-05-27T22:47:34.010;599617119974644797;5991.928;244
2024-05-27T22:47:34.018;599617119982336656;5999.62;237
2024-05-27T22:47:34.026;599617119990028515;6007.312;213
2024-05-27T22:47:34.034;599617119997720374;6015.0044;169
2024-05-27T22:47:34.041;599617120005412233;6022.696;122
2024-05-27T22:47:34.049;599617120013104092;6030.3877;91
2024-05-27T22:47:34.057;599617120020795951;6038.0796;82
2024-05-27T22:47:34.064;599617120028487810;6045.7715;65
2024-05-27T22:47:34.072;599617120036179669;6053.463;23
2024-05-27T22:47:34.080;599617120043871528;6061.1553;0
2024-05-27T22:47:34.087;599617120051563387;6068.847;-7
2024-05-27T22:47:34.095;599617120059255246;6076.539;-14
2024-05-27T22:47:34.103;599617120066947105;6084.2305;-7
2024-05-27T22:47:34.110;599617120074638964;6091.9224;7
2024-05-27T22:47:34.118;599617120082330823;6099.6143;-32
2024-05-27T22:47:34.126;599617120090022682;6107.3066;-140
2024-05-27T22:47:34.133;599617120097714541;6114.998;-234
2024-05-27T22:47:34.141;599617120105406400;6122.69;-237
2024-05-27T22:47:34.149;599617120113098259;6130.382;-103
2024-05-27T22:47:34.157;599617120120790118;6138.0737;244
2024-05-27T22:47:34.164;599617120128481977;6145.765;687
2024-05-27T22:47:34.172;599617120136173836;6153.4575;828
2024-05-27T22:47:34.180;599617120143865695;6161.1494;439
2024-05-27T22:47:34.187;599617120151557554;6168.8413;-82
2024-05-27T22:47:34.195;599617120159254442;6176.538;-180
2024-05-27T22:47:34.203;599617120166946232;6184.23;-14
2024-05-27T22:47:34.210;599617120174638022;6191.922;4
2024-05-27T22:47:34.218;599617120182329812;6199.6133;-56
2024-05-27T22:47:34.226;599617120190021602;6207.305;-30
2024-05-27T22:47:34.233;599617120197713392;6214.997;11
2024-05-27T22:47:34.241;599617120205405182;6222.689;23
2024-05-27T22:47:34.249;599617120213096972;6230.3804;0
2024-05-27T22:47:34.257;599617120220788762;6238.0723;-25
2024-05-27T22:47:34.264;599617120228480552;6245.764;-18
2024-05-27T22:47:34.272;599617120236172342;6253.456;-37
2024-05-27T22:47:34.280;599617120243864132;6261.1475;-79
2024-05-27T22:47:34.287;599617120251555922;6268.8394;-53
2024-05-27T22:47:34.295;599617120259247712;6276.5312;9
2024-05-27T22:47:34.303;599617120266939502;6284.223;51
2024-05-27T22:47:34.310;599617120274631292;6291.9146;72
2024-05-27T22:47:34.318;599617120282323082;6299.6064;89
2024-05-27T22:47:34.326;599617120290014872;6307.2983;129
2024-05-27T22:47:34.333;599617120297706662;6314.99;169
2024-05-27T22:47:34.341;599617120305398452;6322.6816;185
2024-05-27T22:47:34.349;599617120313090242;6330.3735;213
2024-05-27T22:47:34.357;599617120320782032;6338.0654;253
2024-05-27T22:47:34.364;599617120328473822;6345.7573;260
2024-05-27T22:47:34.372;599617120336165612;6353.4487;248
2024-05-27T22:47:34.380;599617120343857402;6361.1406;269
2024-05-27T22:47:34.387;599617120351549192;6368.8325;302
2024-05-27T22:47:34.395;599617120359240982;6376.525;305
2024-05-27T22:47:34.403;599617120366932772;6384.217;291
2024-05-27T22:47:34.410;599617120374624562;6391.908;298
2024-05-27T22:47:34.418;599617120382316352;6399.6;314
2024-05-27T22:47:34.426;599617120390008142;6407.292;298
2024-05-27T22:47:34.433;599617120397699932;6414.984;260
2024-05-27T22:47:34.441;599617120405391722;6422.6753;255
2024-05-27T22:47:34.449;599617120413083512;6430.367;269
2024-05-27T22:47:34.457;599617120420775302;6438.059;246
2024-05-27T22:47:34.464;599617120428467092;6445.751;218
2024-05-27T22:47:34.472;599617120436158882;6453.4424;241
2024-05-27T22:47:34.480;599617120443850672;6461.1343;269
2024-05-27T22:47:34.487;599617120451542462;6468.826;262
2024-05-27T22:47:34.495;599617120459234252;6476.518;246
2024-05-27T22:47:34.503;599617120466926042;6484.2095;251
2024-05-27T22:47:34.510;599617120474617832;6491.9014;253
2024-05-27T22:47:34.518;599617120482309622;6499.5933;225
2024-05-27T22:47:34.526;599617120490001412;6507.285;192
2024-05-27T22:47:34.533;599617120497693202;6514.9766;208
2024-05-27T22:47:34.541;599617120505384992;6522.6685;237
2024-05-27T22:47:34.549;599617120513076782;6530.3604;197
2024-05-27T22:47:34.557;599617120520768572;6538.0522;133
2024-05-27T22:47:34.564;599617120528460362;6545.7437;126
2024-05-27T22:47:34.572;599617120536152152;6553.4355;124
2024-05-27T22:47:34.580;599617120543843942;6561.1274;77
2024-05-27T22:47:34.587;599617120551535732;6568.8193;44
2024-05-27T22:47:34.595;599617120559227522;6576.5107;44
2024-05-27T22:47:34.603;599617120566919312;6584.2026;49
2024-05-27T22:47:34.610;599617120574611102;6591.8945;56
2024-05-27T22:47:34.618;599617120582302892;6599.5864;51
2024-05-27T22:47:34.626;599617120589994682;6607.2783;-7
2024-05-27T22:47:34.633;599617120597686472;6614.9697;-91
2024-05-27T22:47:34.641;599617120605378262;6622.6616;-133
2024-05-27T22:47:34.649;599617120613070052;6630.3535;-150
2024-05-27T22:47:34.657;599617120620761842;6638.0454;-147
2024-05-27T22:47:34.664;599617120628453632;6645.737;-7
2024-05-27T22:47:34.672;599617120636145422;6653.429;368
2024-05-27T22:47:34.680;599617120643837212;6661.121;798
2024-05-27T22:47:34.687;599617120651529002;6668.813;859
2024-05-27T22:47:34.695;599617120659220792;6676.5044;415
2024-05-27T22:47:34.703;599617120666912582;6684.1963;-58
2024-05-27T22:47:34.710;599617120674604372;6691.888;-86
2024-05-27T22:47:34.718;599617120682296162;6699.58;75
2024-05-27T22:47:34.726;599617120689987952;6707.2715;49
2024-05-27T22:47:34.733;599617120697679742;6714.9634;-18
2024-05-27T22:47:34.741;599617120705371532;6722.6553;35
2024-05-27T22:47:34.749;599617120713063322;6730.347;93
2024-05-27T22:47:34.757;599617120720755126;6738.0386;93
2024-05-27T22:47:34.764;599617120728446916;6745.7305;77
2024-05-27T22:47:34.772;599617120736138706;6753.4224;68
2024-05-27T22:47:34.780;599617120743830496;6761.1143;70
2024-05-27T22:47:34.787;599617120751522286;6768.8057;51
2024-05-27T22:47:34.795;599617120759214076;6776.4976;7
2024-05-27T22:47:34.803;599617120766905866;6784.1895;28
2024-05-27T22:47:34.810;599617120774597656;6791.8813;91
2024-05-27T22:47:34.818;599617120782289446;6799.5728;100
2024-05-27T22:47:34.826;599617120789981236;6807.2646;91
2024-05-27T22:47:34.833;599617120797673026;6814.9565;131
2024-05-27T22:47:34.841;599617120805364816;6822.6484;185
2024-05-27T22:47:34.849;599617120813056606;6830.3403;204
2024-05-27T22:47:34.857;599617120820748396;6838.0317;218
2024-05-27T22:47:34.864;599617120828440186;6845.7236;248
2024-05-27T22:47:34.872;599617120836131976;6853.4155;267
2024-05-27T22:47:34.880;599617120843823766;6861.1074;265
2024-05-27T22:47:34.887;599617120851515556;6868.799;272
2024-05-27T22:47:34.895;599617120859207346;6876.4907;300
2024-05-27T22:47:34.903;599617120866899136;6884.1826;319
2024-05-27T22:47:34.910;599617120874590926;6891.8745;307
2024-05-27T22:47:34.918;599617120882282716;6899.566;288
2024-05-27T22:47:34.926;599617120889974506;6907.258;293
2024-05-27T22:47:34.933;599617120897666296;6914.9497;284
2024-05-27T22:47:34.941;599617120905358086;6922.6416;237
2024-05-27T22:47:34.949;599617120913049876;6930.3335;223
2024-05-27T22:47:34.957;599617120920741666;6938.0254;239
2024-05-27T22:47:34.964;599617120928433456;6945.7173;218
2024-05-27T22:47:34.972;599617120936125246;6953.409;187
2024-05-27T22:47:34.980;599617120943817036;6961.1006;204
2024-05-27T22:47:34.987;599617120951508826;6968.7925;234
2024-05-27T22:47:34.995;599617120959200616;6976.4844;237
2024-05-27T22:47:35.003;599617120966892406;6984.1763;204
2024-05-27T22:47:35.010;599617120974584196;6991.8677;150
2024-05-27T22:47:35.018;599617120982275986;6999.5596;117
2024-05-27T22:47:35.026;599617120989967776;7007.2515;129
2024-05-27T22:47:35.033;599617120997659566;7014.9434;140
2024-05-27T22:47:35.041;599617121005351356;7022.635;143
2024-05-27T22:47:35.049;599617121013043146;7030.3267;152
2024-05-27T22:47:35.057;599617121020734936;7038.0186;136
2024-05-27T22:47:35.064;599617121028426726;7045.7104;86
2024-05-27T22:47:35.072;599617121036118516;7053.4023;70
2024-05-27T22:47:35.080;599617121043810306;7061.0938;63
2024-05-27T22:47:35.087;599617121051502096;7068.7856;21
2024-05-27T22:47:35.095;599617121059193886;7076.4775;-11
2024-05-27T22:47:35.103;599617121066885676;7084.1694;-21
2024-05-27T22:47:35.110;599617121074577466;7091.861;-21
2024-05-27T22:47:35.118;599617121082269256;7099.5527;-14
2024-05-27T22:47:35.126;599617121089961046;7107.2446;-49
2024-05-27T22:47:35.133;599617121097652836;7114.9365;-129
2024-05-27T22:47:35.141;599617121105344626;7122.628;-161
2024-05-27T22:47:35.149;599617121113036416;7130.32;-176
2024-05-27T22:47:35.157;599617121120728206;7138.0117;-232
2024-05-27T22:47:35.164;599617121128419996;7145.7036;-187
2024-05-27T22:47:35.172;599617121136111786;7153.395;84
2024-05-27T22:47:35.180;599617121143803576;7161.087;516
2024-05-27T22:47:35.187;599617121151495366;7168.779;807
2024-05-27T22:47:35.195;599617121159187156;7176.4707;626
2024-05-27T22:47:35.203;599617121166878946;7184.162;115
2024-05-27T22:47:35.210;599617121174570736;7191.854;-176
2024-05-27T22:47:35.218;599617121182262526;7199.546;-61
2024-05-27T22:47:35.226;599617121189954316;7207.2383;51
2024-05-27T22:47:35.233;599617121197646106;7214.9297;-9
2024-05-27T22:47:35.241;599617121205337896;7222.6216;-35
2024-05-27T22:47:35.249;599617121213029686;7230.3135;0
2024-05-27T22:47:35.257;599617121220721476;7238.0054;-9
2024-05-27T22:47:35.264;599617121228413266;7245.6973;-23
2024-05-27T22:47:35.272;599617121236105056;7253.3887;4
2024-05-27T22:47:35.280;599617121243796846;7261.0806;44
2024-05-27T22:47:35.287;599617121251488636;7268.7725;63
2024-05-27T22:47:35.295;599617121259180426;7276.4644;75
2024-05-27T22:47:35.303;599617121266872216;7284.156;96
2024-05-27T22:47:35.310;599617121274564006;7291.8477;138
2024-05-27T22:47:35.318;599617121282255808;7299.5396;185
2024-05-27T22:47:35.326;599617121289947598;7307.2314;206
2024-05-27T22:47:35.333;599617121297639388;7314.923;208
2024-05-27T22:47:35.341;599617121305331178;7322.6147;234
2024-05-27T22:47:35.349;599617121313022968;7330.3066;291
2024-05-27T22:47:35.356;599617121320714758;7337.9985;323
2024-05-27T22:47:35.364;599617121328406548;7345.69;328
2024-05-27T22:47:35.372;599617121336098338;7353.382;342
2024-05-27T22:47:35.380;599617121343790128;7361.0737;354
2024-05-27T22:47:35.387;599617121351481918;7368.7656;309
2024-05-27T22:47:35.395;599617121359173708;7376.457;241
2024-05-27T22:47:35.403;599617121366865498;7384.149;234
2024-05-27T22:47:35.410;599617121374557288;7391.841;267
2024-05-27T22:47:35.418;599617121382249078;7399.5327;255
2024-05-27T22:47:35.426;599617121389940868;7407.224;218
2024-05-27T22:47:35.433;599617121397632658;7414.916;215
2024-05-27T22:47:35.441;599617121405324448;7422.608;208
2024-05-27T22:47:35.449;599617121413016238;7430.3;173
2024-05-27T22:47:35.456;599617121420708028;7437.991;161
2024-05-27T22:47:35.464;599617121428399818;7445.683;180
2024-05-27T22:47:35.472;599617121436091608;7453.375;171
2024-05-27T22:47:35.480;599617121443783398;7461.067;147
2024-05-27T22:47:35.487;599617121451475188;7468.7583;157
2024-05-27T22:47:35.495;599617121459166978;7476.45;180
2024-05-27T22:47:35.503;599617121466858768;7484.1426;143
2024-05-27T22:47:35.510;599617121474550558;7491.8345;77
2024-05-27T22:47:35.518;599617121482242348;7499.5264;70
2024-05-27T22:47:35.526;599617121489934138;7507.218;107
2024-05-27T22:47:35.533;599617121497625928;7514.9097;122
2024-05-27T22:47:35.541;599617121505317718;7522.6016;117
2024-05-27T22:47:35.549;599617121513009508;7530.2935;129
2024-05-27T22:47:35.556;599617121520701298;7537.985;147
2024-05-27T22:47:35.564;599617121528393088;7545.677;119
2024-05-27T22:47:35.572;599617121536084878;7553.3687;63
2024-05-27T22:47:35.580;599617121543776668;7561.0605;53
2024-05-27T22:47:35.587;599617121551468458;7568.752;53
2024-05-27T22:47:35.595;599617121559160248;7576.444;16
2024-05-27T22:47:35.603;599617121566852038;7584.1357;-7
2024-05-27T22:47:35.610;599617121574543828;7591.8276;2
2024-05-27T22:47:35.618;599617121582235618;7599.519;16
2024-05-27T22:47:35.626;599617121589927408;7607.211;30
2024-05-27T22:47:35.633;599617121597619198;7614.903;0
2024-05-27T22:47:35.641;599617121605310988;7622.5947;-96
2024-05-27T22:47:35.649;599617121613002778;7630.286;-176
2024-05-27T22:47:35.656;599617121620694568;7637.978;-176
2024-05-27T22:47:35.664;599617121628386358;7645.67;-4
2024-05-27T22:47:35.672;599617121636078148;7653.362;410
2024-05-27T22:47:35.680;599617121643769938;7661.053;812
2024-05-27T22:47:35.687;599617121651461728;7668.745;765
2024-05-27T22:47:35.695;599617121659153518;7676.437;265
2024-05-27T22:47:35.703;599617121666845308;7684.129;-136
2024-05-27T22:47:35.710;599617121674537098;7691.8203;-100
2024-05-27T22:47:35.718;599617121682228888;7699.512;21
2024-05-27T22:47:35.726;599617121689920678;7707.204;-18
2024-05-27T22:47:35.733;599617121697612468;7714.896;-16
2024-05-27T22:47:35.741;599617121705304258;7722.588;42
2024-05-27T22:47:35.749;599617121712996048;7730.2793;9
2024-05-27T22:47:35.756;599617121720687838;7737.971;-21
2024-05-27T22:47:35.764;599617121728379628;7745.663;39
2024-05-27T22:47:35.772;599617121736071418;7753.355;86
2024-05-27T22:47:35.780;599617121743763208;7761.0464;86
2024-05-27T22:47:35.787;599617121751454998;7768.739;105
2024-05-27T22:47:35.795;599617121759146788;7776.4307;136
2024-05-27T22:47:35.803;599617121766838578;7784.1226;147
2024-05-27T22:47:35.810;599617121774530368;7791.814;161
2024-05-27T22:47:35.818;599617121782222158;7799.506;199
2024-05-27T22:47:35.826;599617121789913948;7807.1978;253
2024-05-27T22:47:35.833;599617121797605738;7814.8896;286
2024-05-27T22:47:35.841;599617121805297528;7822.581;284
2024-05-27T22:47:35.849;599617121812989318;7830.273;291
2024-05-27T22:47:35.856;599617121820681108;7837.965;326
2024-05-27T22:47:35.864;599617121828372898;7845.6567;359
2024-05-27T22:47:35.872;599617121836064688;7853.348;368
2024-05-27T22:47:35.880;599617121843756490;7861.04;373
2024-05-27T22:47:35.887;599617121851448280;7868.732;377
2024-05-27T22:47:35.895;599617121859140070;7876.424;373
2024-05-27T22:47:35.903;599617121866831860;7884.115;361
2024-05-27T22:47:35.910;599617121874523650;7891.807;356
2024-05-27T22:47:35.918;599617121882215440;7899.499;373
2024-05-27T22:47:35.926;599617121889907230;7907.191;366
2024-05-27T22:47:35.933;599617121897599020;7914.8823;326
2024-05-27T22:47:35.941;599617121905290810;7922.574;323
2024-05-27T22:47:35.949;599617121912982600;7930.266;340
2024-05-27T22:47:35.956;599617121920674390;7937.958;272
2024-05-27T22:47:35.964;599617121928366180;7945.65;152
2024-05-27T22:47:35.972;599617121936057970;7953.3413;119
2024-05-27T22:47:35.980;599617121943749760;7961.033;143
2024-05-27T22:47:35.987;599617121951441550;7968.725;140
2024-05-27T22:47:35.995;599617121959133340;7976.417;112
2024-05-27T22:47:36.003;599617121966825130;7984.1084;86
2024-05-27T22:47:36.010;599617121974516920;7991.8003;93
2024-05-27T22:47:36.018;599617121982208710;7999.492;100
2024-05-27T22:47:36.026;599617121989900500;8007.184;79
2024-05-27T22:47:36.033;599617121997592290;8014.8755;82
2024-05-27T22:47:36.041;599617122005284080;8022.5674;115
2024-05-27T22:47:36.049;599617122012975870;8030.2593;131
2024-05-27T22:47:36.056;599617122020667660;8037.9517;129
2024-05-27T22:47:36.064;599617122028359450;8045.643;140
2024-05-27T22:47:36.072;599617122036051240;8053.335;154
2024-05-27T22:47:36.080;599617122043743030;8061.027;122
2024-05-27T22:47:36.087;599617122051434820;8068.7188;75
2024-05-27T22:47:36.095;599617122059126610;8076.41;65
2024-05-27T22:47:36.103;599617122066818400;8084.102;39
2024-05-27T22:47:36.110;599617122074510190;8091.794;-11
2024-05-27T22:47:36.118;599617122082201980;8099.486;-28
2024-05-27T22:47:36.126;599617122089893770;8107.1772;-16
2024-05-27T22:47:36.133;599617122097585560;8114.869;-21
2024-05-27T22:47:36.141;599617122105277350;8122.561;-100
2024-05-27T22:47:36.149;599617122112969140;8130.253;-178
2024-05-27T22:47:36.156;599617122120660930;8137.9443;-18
2024-05-27T22:47:36.164;599617122128352720;8145.636;408
2024-05-27T22:47:36.172;599617122136044510;8153.328;758
2024-05-27T22:47:36.180;599617122143736300;8161.02;671
2024-05-27T22:47:36.187;599617122151428090;8168.712;192
2024-05-27T22:47:36.195;599617122159119880;8176.4033;-185
2024-05-27T22:47:36.203;599617122166811670;8184.095;-161
2024-05-27T22:47:36.210;599617122174503460;8191.787;-49
2024-05-27T22:47:36.218;599617122182195250;8199.479;-77
2024-05-27T22:47:36.226;599617122189887040;8207.171;-86
2024-05-27T22:47:36.233;599617122197578830;8214.862;-56
2024-05-27T22:47:36.241;599617122205270620;8222.554;-75
2024-05-27T22:47:36.249;599617122212962410;8230.246;-96
2024-05-27T22:47:36.256;599617122220654200;8237.9375;-82
2024-05-27T22:47:36.264;599617122228345990;8245.63;-70
2024-05-27T22:47:36.272;599617122236037780;8253.321;-42
2024-05-27T22:47:36.280;599617122243729570;8261.013;11
2024-05-27T22:47:36.287;599617122251421360;8268.705;51
2024-05-27T22:47:36.295;599617122259113150;8276.396;58
2024-05-27T22:47:36.303;599617122266804940;8284.088;68
2024-05-27T22:47:36.310;599617122274496730;8291.78;103
2024-05-27T22:47:36.318;599617122282188520;8299.472;136
2024-05-27T22:47:36.326;599617122289880310;8307.164;157
2024-05-27T22:47:36.333;599617122297572100;8314.855;199
2024-05-27T22:47:36.341;599617122305263890;8322.548;237
2024-05-27T22:47:36.349;599617122312955680;8330.239;227
2024-05-27T22:47:36.356;599617122320647470;8337.932;213
2024-05-27T22:47:36.364;599617122328339260;8345.623;246
2024-05-27T22:47:36.372;599617122336031050;8353.314;281
2024-05-27T22:47:36.380;599617122343722840;8361.007;286
2024-05-27T22:47:36.387;599617122351414630;8368.698;284
2024-05-27T22:47:36.395;599617122359106420;8376.391;281
2024-05-27T22:47:36.403;599617122366798210;8384.082;277
2024-05-27T22:47:36.410;599617122374490000;8391.773;277
2024-05-27T22:47:36.418;599617122382181790;8399.466;281
2024-05-27T22:47:36.426;599617122389873580;8407.157;305
2024-05-27T22:47:36.433;599617122397565370;8414.849;328
2024-05-27T22:47:36.441;599617122405257172;8422.541;307
2024-05-27T22:47:36.449;599617122412948962;8430.232;293
2024-05-27T22:47:36.456;599617122420640752;8437.925;331
2024-05-27T22:47:36.464;599617122428332542;8445.616;340
2024-05-27T22:47:36.472;599617122436024332;8453.308;286
2024-05-27T22:47:36.479;599617122443716122;8461.0;234
2024-05-27T22:47:36.487;599617122451407912;8468.691;187
2024-05-27T22:47:36.495;599617122459099702;8476.383;98
2024-05-27T22:47:36.503;599617122466791492;8484.075;16
2024-05-27T22:47:36.510;599617122474483282;8491.767;9
2024-05-27T22:47:36.518;599617122482175072;8499.459;39
2024-05-27T22:47:36.526;599617122489866862;8507.15;30
2024-05-27T22:47:36.533;599617122497558652;8514.842;0
2024-05-27T22:47:36.541;599617122505250442;8522.534;23
2024-05-27T22:47:36.549;599617122512942232;8530.226;75
2024-05-27T22:47:36.556;599617122520634022;8537.917;89
2024-05-27T22:47:36.564;599617122528325812;8545.609;93
2024-05-27T22:47:36.572;599617122536017602;8553.301;124
2024-05-27T22:47:36.579;599617122543709392;8560.993;138
2024-05-27T22:47:36.587;599617122551401182;8568.685;119
2024-05-27T22:47:36.595;599617122559092972;8576.376;86
2024-05-27T22:47:36.603;599617122566784762;8584.068;68
2024-05-27T22:47:36.610;599617122574476552;8591.761;63
2024-05-27T22:47:36.618;599617122582168342;8599.451;18
2024-05-27T22:47:36.626;599617122589860132;8607.144;-58
2024-05-27T22:47:36.633;599617122597551922;8614.835;-105
2024-05-27T22:47:36.641;599617122605243712;8622.527;-117
2024-05-27T22:47:36.649;599617122612935502;8630.219;-18
2024-05-27T22:47:36.656;599617122620627292;8637.911;347
2024-05-27T22:47:36.664;599617122628319082;8645.603;763
2024-05-27T22:47:36.672;599617122636010872;8653.295;704
2024-05-27T22:47:36.679;599617122643702662;8660.986;152
2024-05-27T22:47:36.687;599617122651394452;8668.678;-260
2024-05-27T22:47:36.695;599617122659086242;8676.369;-192
2024-05-27T22:47:36.703;599617122666778032;8684.062;-82
2024-05-27T22:47:36.710;599617122674469822;8691.753;-164
2024-05-27T22:47:36.718;599617122682161612;8699.445;-185
2024-05-27T22:47:36.726;599617122689853402;8707.137;-122
2024-05-27T22:47:36.733;599617122697545192;8714.829;-140
2024-05-27T22:47:36.741;599617122705236982;8722.5205;-194
2024-05-27T22:47:36.749;599617122712928772;8730.212;-159
2024-05-27T22:47:36.756;599617122720620562;8737.904;-98
2024-05-27T22:47:36.764;599617122728312352;8745.596;-93
2024-05-27T22:47:36.772;599617122736004142;8753.288;-89
2024-05-27T22:47:36.779;599617122743695932;8760.9795;-44
2024-05-27T22:47:36.787;599617122751387722;8768.672;9
2024-05-27T22:47:36.795;599617122759079512;8776.363;35
2024-05-27T22:47:36.803;599617122766771302;8784.056;42
2024-05-27T22:47:36.810;599617122774463092;8791.746;56
2024-05-27T22:47:36.818;599617122782154882;8799.438;96
2024-05-27T22:47:36.826;599617122789846672;8807.13;124
2024-05-27T22:47:36.833;599617122797538462;8814.822;129
2024-05-27T22:47:36.841;599617122805230252;8822.514;152
2024-05-27T22:47:36.849;599617122812922042;8830.206;185
2024-05-27T22:47:36.856;599617122820613832;8837.897;180
2024-05-27T22:47:36.864;599617122828305622;8845.59;171
2024-05-27T22:47:36.872;599617122835997412;8853.281;204
2024-05-27T22:47:36.879;599617122843689202;8860.973;241
2024-05-27T22:47:36.887;599617122851380992;8868.664;258
2024-05-27T22:47:36.895;599617122859072782;8876.356;258
2024-05-27T22:47:36.903;599617122866764572;8884.048;262
2024-05-27T22:47:36.910;599617122874456362;8891.74;277
2024-05-27T22:47:36.918;599617122882148152;8899.432;281
2024-05-27T22:47:36.926;599617122889839942;8907.124;298
2024-05-27T22:47:36.933;599617122897531732;8914.815;335
2024-05-27T22:47:36.941;599617122905223522;8922.507;352
2024-05-27T22:47:36.949;599617122912915312;8930.198;321
2024-05-27T22:47:36.956;599617122920607102;8937.891;302
2024-05-27T22:47:36.964;599617122928298892;8945.582;331
2024-05-27T22:47:36.972;599617122935990682;8953.274;354
2024-05-27T22:47:36.979;599617122943682472;8960.966;323
2024-05-27T22:47:36.987;599617122951374262;8968.658;248
2024-05-27T22:47:36.995;599617122959066052;8976.35;187
2024-05-27T22:47:37.003;599617122966757854;8984.041;176
2024-05-27T22:47:37.010;599617122974449644;8991.732;176
2024-05-27T22:47:37.018;599617122982141434;8999.425;169
2024-05-27T22:47:37.026;599617122989833224;9007.116;183
2024-05-27T22:47:37.033;599617122997525014;9014.809;178
2024-05-27T22:47:37.041;599617123005216804;9022.501;100
2024-05-27T22:47:37.049;599617123012908594;9030.192;44
2024-05-27T22:47:37.056;599617123020600384;9037.885;86
2024-05-27T22:47:37.064;599617123028292174;9045.575;129
2024-05-27T22:47:37.072;599617123035983964;9053.268;117
2024-05-27T22:47:37.079;599617123043675754;9060.959;110
2024-05-27T22:47:37.087;599617123051367544;9068.651;129
2024-05-27T22:47:37.095;599617123059059334;9076.343;133
2024-05-27T22:47:37.103;599617123066751124;9084.035;126
2024-05-27T22:47:37.110;599617123074442914;9091.727;124
2024-05-27T22:47:37.118;599617123082134704;9099.419;112
2024-05-27T22:47:37.126;599617123089826494;9107.11;44
2024-05-27T22:47:37.133;599617123097518284;9114.802;-79
2024-05-27T22:47:37.141;599617123105210074;9122.493;-91
2024-05-27T22:47:37.149;599617123112901864;9130.186;173
2024-05-27T22:47:37.156;599617123120593654;9137.877;554
2024-05-27T22:47:37.164;599617123128285444;9145.569;737
2024-05-27T22:47:37.172;599617123135977234;9153.261;504
2024-05-27T22:47:37.179;599617123143669024;9160.953;-30
2024-05-27T22:47:37.187;599617123151360814;9168.645;-335
2024-05-27T22:47:37.195;599617123159052604;9176.336;-246
2024-05-27T22:47:37.203;599617123166744394;9184.027;-161
2024-05-27T22:47:37.210;599617123174436184;9191.72;-192
2024-05-27T22:47:37.218;599617123182127974;9199.411;-171
2024-05-27T22:47:37.226;599617123189819764;9207.104;-176
2024-05-27T22:47:37.233;599617123197511554;9214.795;-213
2024-05-27T22:47:37.241;599617123205203344;9222.487;-176
2024-05-27T22:47:37.249;599617123212895134;9230.179;-129
2024-05-27T22:47:37.256;599617123220586924;9237.87;-119
2024-05-27T22:47:37.264;599617123228278714;9245.562;-79
2024-05-27T22:47:37.272;599617123235970504;9253.254;-49
2024-05-27T22:47:37.279;599617123243662294;9260.945;-49
2024-05-27T22:47:37.287;599617123251354084;9268.638;-16
2024-05-27T22:47:37.295;599617123259045874;9276.329;44
2024-05-27T22:47:37.303;599617123266737664;9284.021;79
2024-05-27T22:47:37.310;599617123274429454;9291.714;89
2024-05-27T22:47:37.318;599617123282121244;9299.405;103
2024-05-27T22:47:37.326;599617123289813034;9307.097;131
2024-05-27T22:47:37.333;599617123297504824;9314.788;154
2024-05-27T22:47:37.341;599617123305196614;9322.48;166
2024-05-27T22:47:37.349;599617123312888404;9330.172;187
2024-05-27T22:47:37.356;599617123320580194;9337.864;213
2024-05-27T22:47:37.364;599617123328271984;9345.556;218
2024-05-27T22:47:37.372;599617123335963774;9353.248;213
2024-05-27T22:47:37.379;599617123343655564;9360.939;234
2024-05-27T22:47:37.387;599617123351347354;9368.631;269
2024-05-27T22:47:37.395;599617123359039144;9376.322;281
2024-05-27T22:47:37.403;599617123366730934;9384.015;269
2024-05-27T22:47:37.410;599617123374422724;9391.706;267
2024-05-27T22:47:37.418;599617123382114514;9399.398;295
2024-05-27T22:47:37.426;599617123389806304;9407.09;321
2024-05-27T22:47:37.433;599617123397498094;9414.782;321
2024-05-27T22:47:37.441;599617123405189884;9422.474;335
2024-05-27T22:47:37.449;599617123412881674;9430.165;359
2024-05-27T22:47:37.456;599617123420573464;9437.856;335
2024-05-27T22:47:37.464;599617123428265254;9445.549;295
2024-05-27T22:47:37.472;599617123435957044;9453.24;274
2024-05-27T22:47:37.479;599617123443648834;9460.933;255
2024-05-27T22:47:37.487;599617123451340624;9468.624;241
2024-05-27T22:47:37.495;599617123459032414;9476.316;239
2024-05-27T22:47:37.503;599617123466724204;9484.008;208
2024-05-27T22:47:37.510;599617123474415994;9491.7;171
2024-05-27T22:47:37.518;599617123482107784;9499.391;154
2024-05-27T22:47:37.526;599617123489799574;9507.083;152
2024-05-27T22:47:37.533;599617123497491364;9514.774;159
2024-05-27T22:47:37.541;599617123505183154;9522.467;166
2024-05-27T22:47:37.549;599617123512874944;9530.158;154
2024-05-27T22:47:37.556;599617123520566734;9537.851;145
2024-05-27T22:47:37.564;599617123528253568;9545.537;173
2024-05-27T22:47:37.572;599617123535945427;9553.229;213
2024-05-27T22:47:37.579;599617123543637286;9560.921;215
2024-05-27T22:47:37.587;599617123551329145;9568.612;192
2024-05-27T22:47:37.595;599617123559021004;9576.305;194
2024-05-27T22:47:37.602;599617123566712863;9583.997;197
2024-05-27T22:47:37.610;599617123574404722;9591.688;145
2024-05-27T22:47:37.618;599617123582096581;9599.381;86
2024-05-27T22:47:37.626;599617123589788440;9607.071;86
2024-05-27T22:47:37.633;599617123597480299;9614.764;37
2024-05-27T22:47:37.641;599617123605172158;9622.455;-79
2024-05-27T22:47:37.649;599617123612864017;9630.147;-65
2024-05-27T22:47:37.656;599617123620555876;9637.84;194
2024-05-27T22:47:37.664;599617123628247735;9645.531;549
2024-05-27T22:47:37.672;599617123635939594;9653.224;669
2024-05-27T22:47:37.679;599617123643631453;9660.915;323
2024-05-27T22:47:37.687;599617123651323312;9668.607;-206
2024-05-27T22:47:37.695;599617123659015171;9676.298;-380
2024-05-27T22:47:37.702;599617123666707030;9683.99;-248
2024-05-27T22:47:37.710;599617123674398889;9691.683;-230
2024-05-27T22:47:37.718;599617123682090748;9699.374;-307
2024-05-27T22:47:37.726;599617123689782607;9707.066;-321
2024-05-27T22:47:37.733;599617123697474466;9714.758;-316
2024-05-27T22:47:37.741;599617123705166325;9722.45;-298
2024-05-27T22:47:37.749;599617123712858184;9730.143;-237
2024-05-27T22:47:37.756;599617123720550043;9737.833;-194
2024-05-27T22:47:37.764;599617123728241902;9745.525;-176
2024-05-27T22:47:37.772;599617123735933761;9753.217;-140
2024-05-27T22:47:37.779;599617123743625620;9760.909;-115
2024-05-27T22:47:37.787;599617123751317479;9768.601;-100
2024-05-27T22:47:37.795;599617123759009338;9776.293;-68
2024-05-27T22:47:37.802;599617123766701197;9783.985;-21
2024-05-27T22:47:37.810;599617123774393056;9791.677;21
2024-05-27T22:47:37.818;599617123782084915;9799.369;42
2024-05-27T22:47:37.826;599617123789776774;9807.06;46
2024-05-27T22:47:37.833;599617123797468633;9814.752;75
2024-05-27T22:47:37.841;599617123805160492;9822.444;124
2024-05-27T22:47:37.849;599617123812852351;9830.136;143
2024-05-27T22:47:37.856;599617123820544210;9837.828;147
2024-05-27T22:47:37.864;599617123828236069;9845.52;176
2024-05-27T22:47:37.872;599617123835927928;9853.212;197
2024-05-27T22:47:37.879;599617123843619787;9860.903;197
2024-05-27T22:47:37.887;599617123851311646;9868.595;194
2024-05-27T22:47:37.895;599617123859003505;9876.287;208
2024-05-27T22:47:37.902;599617123866695364;9883.979;232
2024-05-27T22:47:37.910;599617123874387223;9891.671;234
2024-05-27T22:47:37.918;599617123882079082;9899.362;223
2024-05-27T22:47:37.926;599617123889770941;9907.055;246
2024-05-27T22:47:37.933;599617123897462800;9914.747;277
2024-05-27T22:47:37.941;599617123905154659;9922.438;274
2024-05-27T22:47:37.949;599617123912846518;9930.131;281
2024-05-27T22:47:37.956;599617123920538377;9937.821;300
2024-05-27T22:47:37.964;599617123928230236;9945.514;248
2024-05-27T22:47:37.972;599617123935922095;9953.205;169
2024-05-27T22:47:37.979;599617123943613954;9960.897;176
2024-05-27T22:47:37.987;599617123951305813;9968.59;225
2024-05-27T22:47:37.995;599617123958997672;9976.281;225
2024-05-27T22:47:38.002;599617123966689531;9983.974;211
2024-05-27T22:47:38.010;599617123974381390;9991.665;206
2024-05-27T22:47:38.018;599617123982073249;9999.356;192
2024-05-27T22:47:38.026;599617123989765108;10007.048;164
2024-05-27T22:47:38.033;599617123997456967;10014.74;145
2024-05-27T22:47:38.041;599617124005148826;10022.433;154
2024-05-27T22:47:38.049;599617124012840685;10030.124;161
2024-05-27T22:47:38.056;599617124020532544;10037.816;138
2024-05-27T22:47:38.064;599617124028224403;10045.508;126
2024-05-27T22:47:38.072;599617124035916262;10053.2;154
2024-05-27T22:47:38.079;599617124043608121;10060.893;178
2024-05-27T22:47:38.087;599617124051299980;10068.583;180
2024-05-27T22:47:38.095;599617124058991839;10076.275;176
2024-05-27T22:47:38.102;599617124066683698;10083.967;171
2024-05-27T22:47:38.110;599617124074375557;10091.659;180
2024-05-27T22:47:38.118;599617124082067416;10099.351;194
2024-05-27T22:47:38.126;599617124089759336;10107.043;194
2024-05-27T22:47:38.133;599617124097451195;10114.735;208
2024-05-27T22:47:38.141;599617124105143054;10122.427;194
2024-05-27T22:47:38.149;599617124112834913;10130.119;63
2024-05-27T22:47:38.156;599617124120526772;10137.81;-107
2024-05-27T22:47:38.164;599617124128218631;10145.502;-152
2024-05-27T22:47:38.172;599617124135910490;10153.194;14
2024-05-27T22:47:38.179;599617124143602349;10160.886;396
2024-05-27T22:47:38.187;599617124151294208;10168.578;664
2024-05-27T22:47:38.195;599617124158986067;10176.27;413
2024-05-27T22:47:38.202;599617124166677926;10183.962;-133
2024-05-27T22:47:38.210;599617124174369785;10191.653;-385
2024-05-27T22:47:38.218;599617124182061644;10199.345;-293
2024-05-27T22:47:38.226;599617124189753503;10207.037;-237
2024-05-27T22:47:38.233;599617124197445362;10214.729;-279
2024-05-27T22:47:38.241;599617124205137221;10222.421;-277
2024-05-27T22:47:38.249;599617124212829080;10230.112;-230
2024-05-27T22:47:38.256;599617124220520939;10237.805;-185
2024-05-27T22:47:38.264;599617124228212798;10245.497;-147
2024-05-27T22:47:38.272;599617124235904657;10253.188;-124
2024-05-27T22:47:38.279;599617124243596516;10260.881;-100
2024-05-27T22:47:38.287;599617124251288375;10268.571;-70
2024-05-27T22:47:38.295;599617124258980234;10276.264;-46
2024-05-27T22:47:38.302;599617124266672093;10283.955;-30
2024-05-27T22:47:38.310;599617124274363952;10291.647;2
2024-05-27T22:47:38.318;599617124282055811;10299.34;56
2024-05-27T22:47:38.326;599617124289747670;10307.031;91
2024-05-27T22:47:38.333;599617124297439529;10314.724;98
2024-05-27T22:47:38.341;599617124305131388;10322.415;122
2024-05-27T22:47:38.349;599617124312823247;10330.106;180
2024-05-27T22:47:38.356;599617124320515106;10337.799;215
2024-05-27T22:47:38.364;599617124328206965;10345.49;225
2024-05-27T22:47:38.372;599617124335898824;10353.183;246
2024-05-27T22:47:38.379;599617124343590683;10360.874;260
2024-05-27T22:47:38.387;599617124351282542;10368.566;262
2024-05-27T22:47:38.395;599617124358974401;10376.258;265
2024-05-27T22:47:38.402;599617124366666260;10383.95;279
2024-05-27T22:47:38.410;599617124374358119;10391.643;295
2024-05-27T22:47:38.418;599617124382049978;10399.333;284
2024-05-27T22:47:38.426;599617124389741837;10407.025;255
2024-05-27T22:47:38.433;599617124397433696;10414.717;260
2024-05-27T22:47:38.441;599617124405125555;10422.409;291
2024-05-27T22:47:38.449;599617124412817414;10430.101;312
2024-05-27T22:47:38.456;599617124420509273;10437.793;298
2024-05-27T22:47:38.464;599617124428201132;10445.485;258
2024-05-27T22:47:38.472;599617124435892991;10453.177;230
2024-05-27T22:47:38.479;599617124443584850;10460.868;234
2024-05-27T22:47:38.487;599617124451276709;10468.56;246
2024-05-27T22:47:38.495;599617124458968568;10476.252;267
2024-05-27T22:47:38.502;599617124466660427;10483.944;284
2024-05-27T22:47:38.510;599617124474352286;10491.636;274
2024-05-27T22:47:38.518;599617124482044145;10499.328;241
2024-05-27T22:47:38.526;599617124489736004;10507.02;204
2024-05-27T22:47:38.533;599617124497427863;10514.712;187
2024-05-27T22:47:38.541;599617124505119722;10522.402;190
2024-05-27T22:47:38.549;599617124512811581;10530.095;201
2024-05-27T22:47:38.556;599617124520503440;10537.787;206
2024-05-27T22:47:38.564;599617124528195299;10545.479;180
2024-05-27T22:47:38.572;599617124535887158;10553.171;161
2024-05-27T22:47:38.579;599617124543579017;10560.862;183
2024-05-27T22:47:38.587;599617124551270876;10568.555;215
2024-05-27T22:47:38.595;599617124558962735;10576.247;237
2024-05-27T22:47:38.602;599617124566654594;10583.938;230
2024-05-27T22:47:38.610;599617124574346453;10591.63;213
2024-05-27T22:47:38.618;599617124582038312;10599.321;230
2024-05-27T22:47:38.626;599617124589730171;10607.014;244
2024-05-27T22:47:38.633;599617124597422030;10614.705;234
2024-05-27T22:47:38.641;599617124605113889;10622.397;246
2024-05-27T22:47:38.649;599617124612805748;10630.09;230
2024-05-27T22:47:38.656;599617124620497607;10637.781;129
2024-05-27T22:47:38.664;599617124628189466;10645.474;-14
2024-05-27T22:47:38.672;599617124635881325;10653.164;-86
2024-05-27T22:47:38.679;599617124643573184;10660.856;79
2024-05-27T22:47:38.687;599617124651280152;10668.563;507
2024-05-27T22:47:38.695;599617124658971802;10676.256;795
2024-05-27T22:47:38.702;599617124666663452;10683.947;535
2024-05-27T22:47:38.710;599617124674355102;10691.639;-63
2024-05-27T22:47:38.718;599617124682046752;10699.33;-373
2024-05-27T22:47:38.726;599617124689738402;10707.021;-272
2024-05-27T22:47:38.733;599617124697430052;10714.714;-176
2024-05-27T22:47:38.741;599617124705121702;10722.405;-225
2024-05-27T22:47:38.749;599617124712813352;10730.097;-281
2024-05-27T22:47:38.756;599617124720505002;10737.789;-307
2024-05-27T22:47:38.764;599617124728196652;10745.48;-277
2024-05-27T22:47:38.772;599617124735888302;10753.172;-215
2024-05-27T22:47:38.779;599617124743579952;10760.863;-194
2024-05-27T22:47:38.787;599617124751271602;10768.555;-190
2024-05-27T22:47:38.795;599617124758963252;10776.247;-147
2024-05-27T22:47:38.802;599617124766654902;10783.938;-105
2024-05-27T22:47:38.810;599617124774346552;10791.63;-84
2024-05-27T22:47:38.818;599617124782038202;10799.322;-46
2024-05-27T22:47:38.826;599617124789729852;10807.014;2
2024-05-27T22:47:38.833;599617124797421502;10814.705;37
2024-05-27T22:47:38.841;599617124805113152;10822.396;51
2024-05-27T22:47:38.849;599617124812804802;10830.088;68
2024-05-27T22:47:38.856;599617124820496452;10837.78;117
2024-05-27T22:47:38.864;599617124828188102;10845.472;166
2024-05-27T22:47:38.872;599617124835879752;10853.163;185
2024-05-27T22:47:38.879;599617124843571402;10860.855;197
2024-05-27T22:47:38.887;599617124851263052;10868.547;215
2024-05-27T22:47:38.895;599617124858954702;10876.238;225
2024-05-27T22:47:38.902;599617124866646352;10883.93;232
2024-05-27T22:47:38.910;599617124874338002;10891.621;248
2024-05-27T22:47:38.918;599617124882029652;10899.313;260
2024-05-27T22:47:38.926;599617124889721302;10907.005;246
2024-05-27T22:47:38.933;599617124897412952;10914.696;218
2024-05-27T22:47:38.941;599617124905104602;10922.389;225
2024-05-27T22:47:38.949;599617124912796252;10930.08;223
2024-05-27T22:47:38.956;599617124920487902;10937.771;171
2024-05-27T22:47:38.964;599617124928179552;10945.463;152
2024-05-27T22:47:38.972;599617124935871202;10953.154;192
2024-05-27T22:47:38.979;599617124943562852;10960.847;204
2024-05-27T22:47:38.987;599617124951254502;10968.538;192
2024-05-27T22:47:38.995;599617124958946152;10976.2295;208
2024-05-27T22:47:39.002;599617124966637802;10983.922;234
2024-05-27T22:47:39.010;599617124974329452;10991.613;241
2024-05-27T22:47:39.018;599617124982021102;10999.304;206
2024-05-27T22:47:39.025;599617124989712752;11006.996;150
2024-05-27T22:47:39.033;599617124997404402;11014.6875;152
2024-05-27T22:47:39.041;599617125005096052;11022.38;180
2024-05-27T22:47:39.049;599617125012787702;11030.071;171
2024-05-27T22:47:39.056;599617125020479352;11037.763;166
2024-05-27T22:47:39.064;599617125028171002;11045.455;187
2024-05-27T22:47:39.072;599617125035862652;11053.146;180
2024-05-27T22:47:39.079;599617125043554302;11060.837;150
2024-05-27T22:47:39.087;599617125051245952;11068.529;157
2024-05-27T22:47:39.095;599617125058937602;11076.221;187
2024-05-27T22:47:39.102;599617125066629252;11083.913;201
2024-05-27T22:47:39.110;599617125074320902;11091.6045;194
2024-05-27T22:47:39.118;599617125082012552;11099.296;190
2024-05-27T22:47:39.125;599617125089704202;11106.988;208
2024-05-27T22:47:39.133;599617125097395852;11114.68;223
2024-05-27T22:47:39.141;599617125105087502;11122.372;187
2024-05-27T22:47:39.149;599617125112779152;11130.0625;143
2024-05-27T22:47:39.156;599617125120470802;11137.754;133
2024-05-27T22:47:39.164;599617125128162452;11145.446;96
2024-05-27T22:47:39.172;599617125135854102;11153.138;-18
2024-05-27T22:47:39.179;599617125143545752;11160.829;-157
2024-05-27T22:47:39.187;599617125151237402;11168.521;-190
2024-05-27T22:47:39.195;599617125158929052;11176.213;32
2024-05-27T22:47:39.202;599617125166620702;11183.904;446
2024-05-27T22:47:39.210;599617125174312352;11191.596;732
2024-05-27T22:47:39.218;599617125182004002;11199.287;561
2024-05-27T22:47:39.225;599617125189695652;11206.9795;25
2024-05-27T22:47:39.233;599617125197387302;11214.671;-312
2024-05-27T22:47:39.241;599617125205078952;11222.362;-213
2024-05-27T22:47:39.249;599617125212740566;11230.023;-100
2024-05-27T22:47:39.256;599617125220432634;11237.716;-173
2024-05-27T22:47:39.264;599617125228124702;11245.408;-183
2024-05-27T22:47:39.272;599617125235816770;11253.101;-105
2024-05-27T22:47:39.279;599617125243508838;11260.793;-70
2024-05-27T22:47:39.287;599617125251200906;11268.484;-58
2024-05-27T22:47:39.295;599617125258892974;11276.177;-39
2024-05-27T22:47:39.302;599617125266585042;11283.869;-25
2024-05-27T22:47:39.310;599617125274277110;11291.561;-4
2024-05-27T22:47:39.318;599617125281969178;11299.253;-18
2024-05-27T22:47:39.325;599617125289661246;11306.944;-63
2024-05-27T22:47:39.333;599617125297353314;11314.637;-44
2024-05-27T22:47:39.341;599617125305045382;11322.329;11
2024-05-27T22:47:39.349;599617125312737450;11330.021;16
2024-05-27T22:47:39.356;599617125320429518;11337.713;23
2024-05-27T22:47:39.364;599617125328121586;11345.405;72
2024-05-27T22:47:39.372;599617125335813654;11353.098;117
2024-05-27T22:47:39.379;599617125343505722;11360.789;133
2024-05-27T22:47:39.387;599617125351197790;11368.481;140
2024-05-27T22:47:39.395;599617125358889858;11376.173;157
2024-05-27T22:47:39.402;599617125366581926;11383.865;178
2024-05-27T22:47:39.410;599617125374273994;11391.558;185
2024-05-27T22:47:39.418;599617125381966062;11399.25;199
2024-05-27T22:47:39.425;599617125389658130;11406.942;230
2024-05-27T22:47:39.433;599617125397350198;11414.634;239
2024-05-27T22:47:39.441;599617125405042266;11422.326;197
2024-05-27T22:47:39.449;599617125412734334;11430.018;150
2024-05-27T22:47:39.456;599617125420426402;11437.71;161
2024-05-27T22:47:39.464;599617125428118470;11445.401;199
2024-05-27T22:47:39.472;599617125435810538;11453.094;208
2024-05-27T22:47:39.479;599617125443502606;11460.786;213
2024-05-27T22:47:39.487;599617125451194674;11468.479;232
2024-05-27T22:47:39.495;599617125458886742;11476.171;244
2024-05-27T22:47:39.502;599617125466578810;11483.862;234
2024-05-27T22:47:39.510;599617125474270878;11491.555;206
2024-05-27T22:47:39.518;599617125481962946;11499.247;197
2024-05-27T22:47:39.525;599617125489655014;11506.938;194
2024-05-27T22:47:39.533;599617125497347082;11514.631;166
2024-05-27T22:47:39.541;599617125505039150;11522.322;152
2024-05-27T22:47:39.549;599617125512731218;11530.015;180
2024-05-27T22:47:39.556;599617125520423286;11537.707;194
2024-05-27T22:47:39.564;599617125528115354;11545.399;180
2024-05-27T22:47:39.572;599617125535807422;11553.091;178
2024-05-27T22:47:39.579;599617125543499490;11560.783;185
2024-05-27T22:47:39.587;599617125551191558;11568.476;180
2024-05-27T22:47:39.595;599617125558883626;11576.167;176
2024-05-27T22:47:39.602;599617125566575694;11583.859;194
2024-05-27T22:47:39.610;599617125574267762;11591.551;220
2024-05-27T22:47:39.618;599617125581959830;11599.243;215
2024-05-27T22:47:39.625;599617125589651898;11606.936;199
2024-05-27T22:47:39.633;599617125597343966;11614.628;187
2024-05-27T22:47:39.641;599617125605036034;11622.319;164
2024-05-27T22:47:39.649;599617125612728102;11630.012;124
2024-05-27T22:47:39.656;599617125620420170;11637.704;82
2024-05-27T22:47:39.664;599617125628112238;11645.3955;61
2024-05-27T22:47:39.672;599617125635804306;11653.088;49
2024-05-27T22:47:39.679;599617125643496374;11660.779;-7
2024-05-27T22:47:39.687;599617125651188442;11668.472;-129
2024-05-27T22:47:39.695;599617125658880510;11676.164;-227
2024-05-27T22:47:39.702;599617125666572578;11683.856;-244
2024-05-27T22:47:39.710;599617125674264646;11691.549;-192
2024-05-27T22:47:39.718;599617125681956714;11699.24;56
2024-05-27T22:47:39.725;599617125689648782;11706.933;539
2024-05-27T22:47:39.733;599617125697340850;11714.625;868
2024-05-27T22:47:39.741;599617125705032918;11722.316;622
2024-05-27T22:47:39.749;599617125712724986;11730.008;37
2024-05-27T22:47:39.756;599617125720417054;11737.7;-227
2024-05-27T22:47:39.764;599617125728109122;11745.393;-119
2024-05-27T22:47:39.772;599617125735801190;11753.085;-89
2024-05-27T22:47:39.779;599617125743493258;11760.777;-138
2024-05-27T22:47:39.787;599617125751185326;11768.469;-79
2024-05-27T22:47:39.795;599617125758877394;11776.161;-32
2024-05-27T22:47:39.802;599617125766569462;11783.854;-46
2024-05-27T22:47:39.810;599617125774271600;11791.556;-28
2024-05-27T22:47:39.818;599617125781963529;11799.247;21
2024-05-27T22:47:39.825;599617125789655458;11806.939;49
2024-05-27T22:47:39.833;599617125797347387;11814.632;63
2024-05-27T22:47:39.841;599617125805039316;11822.322;98
2024-05-27T22:47:39.849;599617125812731245;11830.015;126
2024-05-27T22:47:39.856;599617125820423174;11837.706;93
2024-05-27T22:47:39.864;599617125828115103;11845.398;28
2024-05-27T22:47:39.872;599617125835807032;11853.091;37
2024-05-27T22:47:39.879;599617125843498961;11860.782;100
2024-05-27T22:47:39.887;599617125851190890;11868.475;124
2024-05-27T22:47:39.895;599617125858882819;11876.167;117
2024-05-27T22:47:39.902;599617125866574748;11883.858;129
2024-05-27T22:47:39.910;599617125874266677;11891.55;154
2024-05-27T22:47:39.918;599617125881958606;11899.242;164
2024-05-27T22:47:39.925;599617125889650535;11906.934;157
2024-05-27T22:47:39.933;599617125897342464;11914.626;154
2024-05-27T22:47:39.941;599617125905034393;11922.318;138
2024-05-27T22:47:39.949;599617125912726322;11930.01;103
2024-05-27T22:47:39.956;599617125920418251;11937.702;100
2024-05-27T22:47:39.964;599617125928110180;11945.395;140
2024-05-27T22:47:39.972;599617125935802109;11953.085;178
2024-05-27T22:47:39.979;599617125943494038;11960.777;190
2024-05-27T22:47:39.987;599617125951185967;11968.47;199
2024-05-27T22:47:39.995;599617125958877896;11976.161;197
2024-05-27T22:47:40.002;599617125966569825;11983.854;166
2024-05-27T22:47:40.010;599617125974261754;11991.545;143
2024-05-27T22:47:40.018;599617125981953683;11999.237;152
2024-05-27T22:47:40.025;599617125989645612;12006.93;171
2024-05-27T22:47:40.033;599617125997337541;12014.621;173
2024-05-27T22:47:40.041;599617126005029470;12022.3125;159
2024-05-27T22:47:40.049;599617126012721399;12030.005;150
2024-05-27T22:47:40.056;599617126020413328;12037.696;166
2024-05-27T22:47:40.064;599617126028105257;12045.389;183
2024-05-27T22:47:40.072;599617126035797186;12053.081;183
2024-05-27T22:47:40.079;599617126043489115;12060.772;180
2024-05-27T22:47:40.087;599617126051181044;12068.465;180
2024-05-27T22:47:40.095;599617126058872973;12076.157;178
2024-05-27T22:47:40.102;599617126066564902;12083.849;173
2024-05-27T22:47:40.110;599617126074256831;12091.54;183
2024-05-27T22:47:40.118;599617126081948760;12099.232;204
2024-05-27T22:47:40.125;599617126089640689;12106.924;176
2024-05-27T22:47:40.133;599617126097332618;12114.616;93
2024-05-27T22:47:40.141;599617126105024547;12122.309;61
2024-05-27T22:47:40.149;599617126112716476;12130.0;63
2024-05-27T22:47:40.156;599617126120408405;12137.692;35
2024-05-27T22:47:40.164;599617126128100334;12145.384;16
2024-05-27T22:47:40.172;599617126135792263;12153.076;25
2024-05-27T22:47:40.179;599617126143484192;12160.768;-2
2024-05-27T22:47:40.187;599617126151176121;12168.459;-98
2024-05-27T22:47:40.195;599617126158868050;12176.151;-190
2024-05-27T22:47:40.202;599617126166559979;12183.844;-190
2024-05-27T22:47:40.210;599617126174251908;12191.535;-136
2024-05-27T22:47:40.218;599617126181943837;12199.228;-133
2024-05-27T22:47:40.225;599617126189635766;12206.92;-154
2024-05-27T22:47:40.233;599617126197327695;12214.611;-147
2024-05-27T22:47:40.241;599617126205019624;12222.304;-140
2024-05-27T22:47:40.248;599617126212711553;12229.995;-82
2024-05-27T22:47:40.256;599617126220403482;12237.687;208
2024-05-27T22:47:40.264;599617126228095411;12245.379;694
2024-05-27T22:47:40.272;599617126235787340;12253.071;957
2024-05-27T22:47:40.279;599617126243479269;12260.763;657
2024-05-27T22:47:40.287;599617126251171198;12268.455;86
2024-05-27T22:47:40.295;599617126258863127;12276.147;-138
2024-05-27T22:47:40.302;599617126266555056;12283.839;-2
2024-05-27T22:47:40.310;599617126274246985;12291.53;42
2024-05-27T22:47:40.318;599617126281938914;12299.222;-25
2024-05-27T22:47:40.325;599617126289630843;12306.914;2
2024-05-27T22:47:40.333;599617126297322772;12314.606;63
2024-05-27T22:47:40.341;599617126305014701;12322.298;65
2024-05-27T22:47:40.348;599617126312706630;12329.99;79
2024-05-27T22:47:40.356;599617126320398559;12337.683;126
2024-05-27T22:47:40.364;599617126328090488;12345.374;140
2024-05-27T22:47:40.372;599617126335792464;12353.076;136
2024-05-27T22:47:40.379;599617126343484254;12360.768;171
2024-05-27T22:47:40.387;599617126351176044;12368.46;227
2024-05-27T22:47:40.395;599617126358867834;12376.151;248
2024-05-27T22:47:40.402;599617126366559624;12383.844;241
2024-05-27T22:47:40.410;599617126374251414;12391.534;246
2024-05-27T22:47:40.418;599617126381943204;12399.227;274
2024-05-27T22:47:40.425;599617126389634994;12406.918;269
2024-05-27T22:47:40.433;599617126397326784;12414.61;241
2024-05-27T22:47:40.441;599617126405018574;12422.302;258
2024-05-27T22:47:40.448;599617126412710364;12429.994;288
2024-05-27T22:47:40.456;599617126420402154;12437.686;248
2024-05-27T22:47:40.464;599617126428093944;12445.378;169
2024-05-27T22:47:40.472;599617126435785734;12453.068;166
2024-05-27T22:47:40.479;599617126443477524;12460.761;215
2024-05-27T22:47:40.487;599617126451169314;12468.453;225
2024-05-27T22:47:40.495;599617126458861104;12476.145;187
2024-05-27T22:47:40.502;599617126466552894;12483.837;145
2024-05-27T22:47:40.510;599617126474244684;12491.528;136
2024-05-27T22:47:40.518;599617126481936474;12499.221;152
2024-05-27T22:47:40.525;599617126489628264;12506.912;157
2024-05-27T22:47:40.533;599617126497320054;12514.6045;176
2024-05-27T22:47:40.541;599617126505011844;12522.295;197
2024-05-27T22:47:40.548;599617126512703634;12529.987;173
2024-05-27T22:47:40.556;599617126520395424;12537.679;147
2024-05-27T22:47:40.564;599617126528087214;12545.371;183
2024-05-27T22:47:40.572;599617126535779004;12553.0625;220
2024-05-27T22:47:40.579;599617126543470794;12560.755;211
2024-05-27T22:47:40.587;599617126551162584;12568.446;199
2024-05-27T22:47:40.595;599617126558854374;12576.139;201
2024-05-27T22:47:40.602;599617126566546164;12583.829;211
2024-05-27T22:47:40.610;599617126574237954;12591.521;220
2024-05-27T22:47:40.618;599617126581929744;12599.213;211
2024-05-27T22:47:40.625;599617126589621534;12606.905;178
2024-05-27T22:47:40.633;599617126597313324;12614.597;147
2024-05-27T22:47:40.641;599617126605005114;12622.289;93
2024-05-27T22:47:40.648;599617126612696904;12629.98;25
2024-05-27T22:47:40.656;599617126620388694;12637.673;18
2024-05-27T22:47:40.664;599617126628080484;12645.363;49
2024-05-27T22:47:40.672;599617126635772274;12653.056;28
2024-05-27T22:47:40.679;599617126643464064;12660.747;-30
2024-05-27T22:47:40.687;599617126651155854;12668.439;-63
2024-05-27T22:47:40.695;599617126658847644;12676.131;-117
2024-05-27T22:47:40.702;599617126666539434;12683.823;-204
2024-05-27T22:47:40.710;599617126674231224;12691.515;-199
2024-05-27T22:47:40.718;599617126681923014;12699.207;-133
2024-05-27T22:47:40.725;599617126689614804;12706.897;-126
2024-05-27T22:47:40.733;599617126697306594;12714.59;-136
2024-05-27T22:47:40.741;599617126704998384;12722.281;-98
2024-05-27T22:47:40.748;599617126712690174;12729.974;-56
2024-05-27T22:47:40.756;599617126720381964;12737.666;-37
2024-05-27T22:47:40.764;599617126728073754;12745.357;-25
2024-05-27T22:47:40.772;599617126735765544;12753.05;-2
2024-05-27T22:47:40.779;599617126743457334;12760.741;16
2024-05-27T22:47:40.787;599617126751149124;12768.434;11
2024-05-27T22:47:40.795;599617126758840914;12776.124;-7
2024-05-27T22:47:40.802;599617126766532704;12783.816;0
2024-05-27T22:47:40.810;599617126774224494;12791.508;133
2024-05-27T22:47:40.818;599617126781916284;12799.2;478
2024-05-27T22:47:40.825;599617126789608074;12806.892;901
2024-05-27T22:47:40.833;599617126797299864;12814.584;1009
2024-05-27T22:47:40.841;599617126804991654;12822.275;608
2024-05-27T22:47:40.848;599617126812683444;12829.968;103
2024-05-27T22:47:40.856;599617126820375234;12837.658;4
2024-05-27T22:47:40.864;599617126828067024;12845.351;136
2024-05-27T22:47:40.872;599617126835758814;12853.042;119
2024-05-27T22:47:40.879;599617126843450604;12860.734;61
2024-05-27T22:47:40.887;599617126851142394;12868.426;107
2024-05-27T22:47:40.895;599617126858834184;12876.118;157
2024-05-27T22:47:40.902;599617126866525974;12883.81;164
2024-05-27T22:47:40.910;599617126874217764;12891.502;166
2024-05-27T22:47:40.918;599617126881909554;12899.192;145
2024-05-27T22:47:40.925;599617126889601344;12906.885;107
2024-05-27T22:47:40.933;599617126897293146;12914.576;115
2024-05-27T22:47:40.941;599617126904984936;12922.269;145
2024-05-27T22:47:40.948;599617126912676726;12929.96;166
2024-05-27T22:47:40.956;599617126920368516;12937.652;185
2024-05-27T22:47:40.964;599617126928060306;12945.344;180
2024-05-27T22:47:40.972;599617126935752096;12953.036;131
2024-05-27T22:47:40.979;599617126943443886;12960.727;107
2024-05-27T22:47:40.987;599617126951135676;12968.419;154
2024-05-27T22:47:40.995;599617126958827466;12976.11;183
2024-05-27T22:47:41.002;599617126966519256;12983.803;136
2024-05-27T22:47:41.010;599617126974211046;12991.494;79
2024-05-27T22:47:41.018;599617126981902836;12999.187;86
2024-05-27T22:47:41.025;599617126989594626;13006.878;115
2024-05-27T22:47:41.033;599617126997286416;13014.57;112
2024-05-27T22:47:41.041;599617127004978206;13022.263;119
2024-05-27T22:47:41.048;599617127012669996;13029.953;136
2024-05-27T22:47:41.056;599617127020361786;13037.6455;119
2024-05-27T22:47:41.064;599617127028053576;13045.337;96
2024-05-27T22:47:41.072;599617127035745366;13053.029;117
2024-05-27T22:47:41.079;599617127043437156;13060.721;150
2024-05-27T22:47:41.087;599617127051128946;13068.413;143
2024-05-27T22:47:41.095;599617127058820736;13076.1045;126
2024-05-27T22:47:41.102;599617127066512526;13083.797;126
2024-05-27T22:47:41.110;599617127074204316;13091.487;136
2024-05-27T22:47:41.118;599617127081896106;13099.18;143
2024-05-27T22:47:41.125;599617127089587896;13106.871;122
2024-05-27T22:47:41.133;599617127097279686;13114.563;86
2024-05-27T22:47:41.141;599617127104971476;13122.255;56
2024-05-27T22:47:41.148;599617127112663266;13129.947;4
2024-05-27T22:47:41.156;599617127120355056;13137.639;-51
2024-05-27T22:47:41.164;599617127128046846;13145.331;-72
2024-05-27T22:47:41.172;599617127135738636;13153.021;-98
2024-05-27T22:47:41.179;599617127143430426;13160.714;-133
2024-05-27T22:47:41.187;599617127151122216;13168.405;-138
2024-05-27T22:47:41.195;599617127158814006;13176.098;-161
2024-05-27T22:47:41.202;599617127166505796;13183.789;-244
2024-05-27T22:47:41.210;599617127174197586;13191.481;-291
2024-05-27T22:47:41.218;599617127181889376;13199.173;-246
2024-05-27T22:47:41.225;599617127189581166;13206.865;-194
2024-05-27T22:47:41.233;599617127197272956;13214.557;-192
2024-05-27T22:47:41.241;599617127204964746;13222.248;-197
2024-05-27T22:47:41.248;599617127212656536;13229.939;-171
2024-05-27T22:47:41.256;599617127220348326;13237.632;-129
2024-05-27T22:47:41.264;599617127228040116;13245.323;-96
2024-05-27T22:47:41.272;599617127235731906;13253.016;-79
2024-05-27T22:47:41.279;599617127243423696;13260.707;-58
2024-05-27T22:47:41.287;599617127251115486;13268.399;-30
2024-05-27T22:47:41.295;599617127258807276;13276.091;-14
2024-05-27T22:47:41.302;599617127266499066;13283.782;7
2024-05-27T22:47:41.310;599617127274190856;13291.475;39
2024-05-27T22:47:41.318;599617127281882646;13299.166;77
2024-05-27T22:47:41.325;599617127289574436;13306.858;96
2024-05-27T22:47:41.333;599617127297266226;13314.55;86
2024-05-27T22:47:41.341;599617127304958016;13322.242;91
2024-05-27T22:47:41.348;599617127312649806;13329.934;133
2024-05-27T22:47:41.356;599617127320341596;13337.626;157
2024-05-27T22:47:41.364;599617127328033386;13345.316;131
2024-05-27T22:47:41.372;599617127335725176;13353.009;110
2024-05-27T22:47:41.379;599617127343416966;13360.7;194
2024-05-27T22:47:41.387;599617127351108756;13368.393;490
2024-05-27T22:47:41.395;599617127358800546;13376.084;908
2024-05-27T22:47:41.402;599617127366492336;13383.776;1065
2024-05-27T22:47:41.410;599617127374184126;13391.468;697
2024-05-27T22:47:41.418;599617127381875916;13399.16;136
2024-05-27T22:47:41.425;599617127389567706;13406.851;-61
2024-05-27T22:47:41.433;599617127397259496;13414.543;65
2024-05-27T22:47:41.441;599617127404951286;13422.234;122
2024-05-27T22:47:41.448;599617127412643076;13429.927;77
2024-05-27T22:47:41.456;599617127420334866;13437.618;93
2024-05-27T22:47:41.464;599617127428026656;13445.311;138
2024-05-27T22:47:41.472;599617127435718446;13453.002;150
2024-05-27T22:47:41.479;599617127443410236;13460.694;159
2024-05-27T22:47:41.487;599617127451102026;13468.386;178
2024-05-27T22:47:41.495;599617127458793828;13476.077;206
2024-05-27T22:47:41.502;599617127466485618;13483.769;239
2024-05-27T22:47:41.510;599617127474177408;13491.461;244
2024-05-27T22:47:41.518;599617127481869198;13499.152;211
2024-05-27T22:47:41.525;599617127489560988;13506.845;178
2024-05-27T22:47:41.533;599617127497252778;13514.536;164
2024-05-27T22:47:41.541;599617127504944568;13522.229;131
2024-05-27T22:47:41.548;599617127512636358;13529.92;93
2024-05-27T22:47:41.556;599617127520328148;13537.611;115
2024-05-27T22:47:41.564;599617127528019938;13545.303;145
2024-05-27T22:47:41.571;599617127535711728;13552.995;136
2024-05-27T22:47:41.579;599617127543403518;13560.687;150
2024-05-27T22:47:41.587;599617127551095308;13568.379;199
2024-05-27T22:47:41.595;599617127558787098;13576.071;223
2024-05-27T22:47:41.602;599617127566478888;13583.763;208
2024-05-27T22:47:41.610;599617127574170678;13591.455;192
2024-05-27T22:47:41.618;599617127581862468;13599.1455;194
2024-05-27T22:47:41.625;599617127589554258;13606.838;201
2024-05-27T22:47:41.633;599617127597246048;13614.529;190
2024-05-27T22:47:41.641;599617127604937838;13622.222;169
2024-05-27T22:47:41.648;599617127612629628;13629.913;140
2024-05-27T22:47:41.656;599617127620321418;13637.605;72
2024-05-27T22:47:41.664;599617127628013208;13645.297;-25
2024-05-27T22:47:41.671;599617127635704998;13652.989;-70
2024-05-27T22:47:41.679;599617127643396788;13660.681;-46
2024-05-27T22:47:41.687;599617127651088578;13668.372;-44
2024-05-27T22:47:41.695;599617127658780368;13676.063;-79
2024-05-27T22:47:41.702;599617127666472158;13683.756;-140
2024-05-27T22:47:41.710;599617127674163948;13691.447;-220
2024-05-27T22:47:41.718;599617127681855738;13699.14;-248
2024-05-27T22:47:41.725;599617127689547528;13706.831;-218
2024-05-27T22:47:41.733;599617127697239318;13714.523;-190
2024-05-27T22:47:41.741;599617127704931108;13722.215;-173
2024-05-27T22:47:41.748;599617127712622898;13729.906;-173
2024-05-27T22:47:41.756;599617127720314688;13737.598;-166
2024-05-27T22:47:41.764;599617127728006478;13745.29;-129
2024-05-27T22:47:41.771;599617127735698268;13752.981;-91
2024-05-27T22:47:41.779;599617127743390058;13760.674;-79
2024-05-27T22:47:41.787;599617127751081848;13768.365;-63
2024-05-27T22:47:41.795;599617127758773638;13776.058;-49
2024-05-27T22:47:41.802;599617127766465428;13783.749;-44
2024-05-27T22:47:41.810;599617127774157218;13791.44;-21
2024-05-27T22:47:41.818;599617127781849008;13799.132;16
2024-05-27T22:47:41.825;599617127789540798;13806.824;49
2024-05-27T22:47:41.833;599617127797232588;13814.516;68
2024-05-27T22:47:41.841;599617127804924378;13822.208;77
2024-05-27T22:47:41.848;599617127812616168;13829.899;91
2024-05-27T22:47:41.856;599617127820307958;13837.592;129
2024-05-27T22:47:41.864;599617127827999748;13845.283;157
2024-05-27T22:47:41.871;599617127835691538;13852.976;157
2024-05-27T22:47:41.879;599617127843383328;13860.667;161
2024-05-27T22:47:41.887;599617127851075118;13868.358;192
2024-05-27T22:47:41.895;599617127858766908;13876.051;204
2024-05-27T22:47:41.902;599617127866458698;13883.742;159
2024-05-27T22:47:41.910;599617127874150488;13891.435;103
2024-05-27T22:47:41.918;599617127881842278;13899.126;185
2024-05-27T22:47:41.925;599617127889534068;13906.818;516
2024-05-27T22:47:41.933;599617127897225858;13914.51;936
2024-05-27T22:47:41.941;599617127904917648;13922.201;1075
2024-05-27T22:47:41.948;599617127912609438;13929.893;727
2024-05-27T22:47:41.956;599617127920301228;13937.585;227
2024-05-27T22:47:41.964;599617127927993018;13945.276;79
2024-05-27T22:47:41.971;599617127935684808;13952.969;197
2024-05-27T22:47:41.979;599617127943376598;13960.66;211
2024-05-27T22:47:41.987;599617127951068388;13968.353;159
2024-05-27T22:47:41.995;599617127958760178;13976.044;176
2024-05-27T22:47:42.002;599617127966451968;13983.735;215
2024-05-27T22:47:42.010;599617127974143758;13991.427;246
2024-05-27T22:47:42.018;599617127981835548;13999.119;253
2024-05-27T22:47:42.025;599617127989527338;14006.811;225
2024-05-27T22:47:42.033;599617127997219128;14014.503;190
2024-05-27T22:47:42.041;599617128004910918;14022.194;183
2024-05-27T22:47:42.048;599617128012602708;14029.887;194
2024-05-27T22:47:42.056;599617128020294510;14037.578;208
2024-05-27T22:47:42.064;599617128027986300;14045.27;220
2024-05-27T22:47:42.071;599617128035678090;14052.961;223
2024-05-27T22:47:42.079;599617128043369880;14060.653;208
2024-05-27T22:47:42.087;599617128051061670;14068.345;213
2024-05-27T22:47:42.095;599617128058753460;14076.037;251
2024-05-27T22:47:42.102;599617128066445250;14083.729;286
2024-05-27T22:47:42.110;599617128074137040;14091.421;295
2024-05-27T22:47:42.118;599617128081828830;14099.112;284
2024-05-27T22:47:42.125;599617128089520620;14106.805;284
2024-05-27T22:47:42.133;599617128097212410;14114.495;284
2024-05-27T22:47:42.141;599617128104904200;14122.1875;218
2024-05-27T22:47:42.148;599617128112595990;14129.88;107
2024-05-27T22:47:42.156;599617128120287780;14137.571;25
2024-05-27T22:47:42.164;599617128127979570;14145.264;-28
2024-05-27T22:47:42.171;599617128135671360;14152.955;-93
2024-05-27T22:47:42.179;599617128143363150;14160.647;-145
2024-05-27T22:47:42.187;599617128151054940;14168.339;-140
2024-05-27T22:47:42.195;599617128158746730;14176.03;-112
2024-05-27T22:47:42.202;599617128166438520;14183.722;-138
2024-05-27T22:47:42.210;599617128174130310;14191.414;-230
2024-05-27T22:47:42.218;599617128181822100;14199.105;-269
2024-05-27T22:47:42.225;599617128189513890;14206.798;-227
2024-05-27T22:47:42.233;599617128197205680;14214.489;-204
2024-05-27T22:47:42.241;599617128204897470;14222.182;-192
2024-05-27T22:47:42.248;599617128212589260;14229.873;-157
2024-05-27T22:47:42.256;599617128220281050;14237.564;-147
2024-05-27T22:47:42.264;599617128227972840;14245.256;-152
2024-05-27T22:47:42.271;599617128235664630;14252.948;-115
2024-05-27T22:47:42.279;599617128243356420;14260.64;-65
2024-05-27T22:47:42.287;599617128251048210;14268.332;-56
2024-05-27T22:47:42.295;599617128258740000;14276.023;-56
2024-05-27T22:47:42.302;599617128266431790;14283.716;-39
2024-05-27T22:47:42.310;599617128274123580;14291.407;-18
2024-05-27T22:47:42.318;599617128281815370;14299.1;4
2024-05-27T22:47:42.325;599617128289507160;14306.79;23
2024-05-27T22:47:42.333;599617128297198950;14314.482;49
2024-05-27T22:47:42.341;599617128304890740;14322.174;79
2024-05-27T22:47:42.348;599617128312582530;14329.866;77
2024-05-27T22:47:42.356;599617128320274320;14337.558;72
2024-05-27T22:47:42.364;599617128327966110;14345.25;115
2024-05-27T22:47:42.371;599617128335657900;14352.941;161
2024-05-27T22:47:42.379;599617128343349690;14360.634;171
2024-05-27T22:47:42.387;599617128351041480;14368.324;169
2024-05-27T22:47:42.395;599617128358733270;14376.017;164
2024-05-27T22:47:42.402;599617128366425060;14383.708;122
2024-05-27T22:47:42.410;599617128374116850;14391.4;89
2024-05-27T22:47:42.418;599617128381808640;14399.092;122
2024-05-27T22:47:42.425;599617128389500430;14406.784;166
2024-05-27T22:47:42.433;599617128397192220;14414.477;154
2024-05-27T22:47:42.441;599617128404884010;14422.168;98
2024-05-27T22:47:42.448;599617128412575800;14429.859;129
2024-05-27T22:47:42.456;599617128420267590;14437.551;382
2024-05-27T22:47:42.464;599617128427959380;14445.243;833
2024-05-27T22:47:42.471;599617128435651170;14452.935;1164
2024-05-27T22:47:42.479;599617128443342960;14460.627;993
2024-05-27T22:47:42.487;599617128451034750;14468.318;439
2024-05-27T22:47:42.495;599617128458726540;14476.011;91
2024-05-27T22:47:42.502;599617128466418330;14483.702;152
2024-05-27T22:47:42.510;599617128474110120;14491.395;239
2024-05-27T22:47:42.518;599617128481801910;14499.085;204
2024-05-27T22:47:42.525;599617128489493700;14506.777;206
2024-05-27T22:47:42.533;599617128497185490;14514.469;225
2024-05-27T22:47:42.541;599617128504877280;14522.161;199
2024-05-27T22:47:42.548;599617128512569070;14529.853;178
2024-05-27T22:47:42.556;599617128520260860;14537.545;176
2024-05-27T22:47:42.564;599617128527952650;14545.236;171
2024-05-27T22:47:42.571;599617128535644440;14552.929;176
2024-05-27T22:47:42.579;599617128543336230;14560.619;183
2024-05-27T22:47:42.587;599617128551028020;14568.312;178
2024-05-27T22:47:42.595;599617128558719810;14576.003;187
2024-05-27T22:47:42.602;599617128566411600;14583.695;218
2024-05-27T22:47:42.610;599617128574103390;14591.387;248
2024-05-27T22:47:42.618;599617128581795192;14599.079;260
2024-05-27T22:47:42.625;599617128589486982;14606.7705;255
2024-05-27T22:47:42.633;599617128597178772;14614.463;262
2024-05-27T22:47:42.641;599617128604870562;14622.153;267
2024-05-27T22:47:42.648;599617128612562352;14629.846;225
2024-05-27T22:47:42.656;599617128620254142;14637.537;197
2024-05-27T22:47:42.664;599617128627945932;14645.2295;211
2024-05-27T22:47:42.671;599617128635637722;14652.921;164
2024-05-27T22:47:42.679;599617128643329512;14660.613;42
2024-05-27T22:47:42.687;599617128651021302;14668.305;-51
2024-05-27T22:47:42.694;599617128658713092;14675.997;-82
2024-05-27T22:47:42.702;599617128666404882;14683.688;-105
2024-05-27T22:47:42.710;599617128674096672;14691.38;-192
2024-05-27T22:47:42.718;599617128681788462;14699.072;-274
2024-05-27T22:47:42.725;599617128689480252;14706.764;-258
2024-05-27T22:47:42.733;599617128697172042;14714.456;-208
2024-05-27T22:47:42.741;599617128704863832;14722.147;-197
2024-05-27T22:47:42.748;599617128712555622;14729.84;-187
2024-05-27T22:47:42.756;599617128720247412;14737.531;-157
2024-05-27T22:47:42.764;599617128727939202;14745.224;-152
2024-05-27T22:47:42.771;599617128735630992;14752.914;-159
2024-05-27T22:47:42.779;599617128743322782;14760.606;-133
2024-05-27T22:47:42.787;599617128751014572;14768.298;-79
2024-05-27T22:47:42.794;599617128758706362;14775.99;-53
2024-05-27T22:47:42.802;599617128766398152;14783.682;-61
2024-05-27T22:47:42.810;599617128774089942;14791.374;-58
2024-05-27T22:47:42.818;599617128781781732;14799.065;-28
2024-05-27T22:47:42.825;599617128789473522;14806.758;-4
2024-05-27T22:47:42.833;599617128797165312;14814.448;9
2024-05-27T22:47:42.841;599617128804857102;14822.141;39
2024-05-27T22:47:42.848;599617128812548892;14829.832;63
2024-05-27T22:47:42.856;599617128820240682;14837.524;53
2024-05-27T22:47:42.864;599617128827932472;14845.216;44
2024-05-27T22:47:42.871;599617128835624262;14852.908;72
2024-05-27T22:47:42.879;599617128843316052;14860.6;112
2024-05-27T22:47:42.887;599617128851007842;14868.292;124
2024-05-27T22:47:42.894;599617128858699632;14875.982;96
2024-05-27T22:47:42.902;599617128866391422;14883.675;84
2024-05-27T22:47:42.910;599617128874083212;14891.366;119
2024-05-27T22:47:42.918;599617128881775002;14899.059;143
2024-05-27T22:47:42.925;599617128889466792;14906.75;140
2024-05-27T22:47:42.933;599617128897158582;14914.442;171
2024-05-27T22:47:42.941;599617128904850372;14922.134;211
2024-05-27T22:47:42.948;599617128912542162;14929.826;204
2024-05-27T22:47:42.956;599617128920233952;14937.517;194
2024-05-27T22:47:42.964;599617128927925742;14945.209;225
2024-05-27T22:47:42.971;599617128935617532;14952.9;239
2024-05-27T22:47:42.979;599617128943309322;14960.593;201
2024-05-27T22:47:42.987;599617128951001112;14968.285;225
2024-05-27T22:47:42.994;599617128958692902;14975.977;478
2024-05-27T22:47:43.002;599617128966384692;14983.669;936
2024-05-27T22:47:43.010;599617128974076482;14991.36;1246
2024-05-27T22:47:43.018;599617128981768272;14999.053;1044
2024-05-27T22:47:43.025;599617128989460062;15006.743;493
2024-05-27T22:47:43.033;599617128997151852;15014.436;169
2024-05-27T22:47:43.041;599617129004843642;15022.127;218
2024-05-27T22:47:43.048;599617129012535432;15029.819;262
2024-05-27T22:47:43.056;599617129020227222;15037.511;213
2024-05-27T22:47:43.064;599617129027919012;15045.203;218
2024-05-27T22:47:43.071;599617129035610802;15052.895;211
2024-05-27T22:47:43.079;599617129043302592;15060.587;166
2024-05-27T22:47:43.087;599617129050994382;15068.277;152
2024-05-27T22:47:43.094;599617129058686172;15075.97;157
2024-05-27T22:47:43.102;599617129066377962;15083.661;157
2024-05-27T22:47:43.110;599617129074069752;15091.354;173
2024-05-27T22:47:43.118;599617129081761542;15099.045;208
2024-05-27T22:47:43.125;599617129089453332;15106.737;225
2024-05-27T22:47:43.133;599617129097145122;15114.429;201
2024-05-27T22:47:43.141;599617129104836912;15122.121;164
2024-05-27T22:47:43.148;599617129112528702;15129.812;161
2024-05-27T22:47:43.156;599617129120220492;15137.504;185
2024-05-27T22:47:43.164;599617129127912282;15145.195;197
2024-05-27T22:47:43.171;599617129135604072;15152.888;201
2024-05-27T22:47:43.179;599617129143295874;15160.579;206
2024-05-27T22:47:43.187;599617129150987664;15168.271;185
2024-05-27T22:47:43.194;599617129158679454;15175.963;140
2024-05-27T22:47:43.202;599617129166371244;15183.655;119
2024-05-27T22:47:43.210;599617129174063034;15191.346;84
2024-05-27T22:47:43.218;599617129181754824;15199.038;-44
2024-05-27T22:47:43.225;599617129189446614;15206.7295;-166
2024-05-27T22:47:43.233;599617129197138404;15214.422;-145
2024-05-27T22:47:43.241;599617129204830194;15222.113;-112
2024-05-27T22:47:43.248;599617129212521984;15229.806;-180
2024-05-27T22:47:43.256;599617129220213774;15237.498;-239
2024-05-27T22:47:43.264;599617129227905564;15245.189;-206
2024-05-27T22:47:43.271;599617129235597354;15252.882;-176
2024-05-27T22:47:43.279;599617129243289144;15260.572;-190
2024-05-27T22:47:43.287;599617129250980934;15268.265;-171
2024-05-27T22:47:43.294;599617129258672724;15275.956;-119
2024-05-27T22:47:43.302;599617129266364514;15283.648;-89
2024-05-27T22:47:43.310;599617129274056304;15291.34;-93
2024-05-27T22:47:43.318;599617129281748094;15299.032;-96
2024-05-27T22:47:43.325;599617129289439884;15306.724;-70
2024-05-27T22:47:43.333;599617129297131674;15314.416;-30
2024-05-27T22:47:43.341;599617129304823464;15322.106;-18
2024-05-27T22:47:43.348;599617129312515254;15329.799;-11
2024-05-27T22:47:43.356;599617129320207044;15337.49;14
2024-05-27T22:47:43.364;599617129327898834;15345.183;23
2024-05-27T22:47:43.371;599617129335590624;15352.874;18
2024-05-27T22:47:43.379;599617129343282414;15360.566;14
2024-05-27T22:47:43.387;599617129350974204;15368.258;-4
2024-05-27T22:47:43.394;599617129358665994;15375.95;-21
2024-05-27T22:47:43.402;599617129366357784;15383.641;-14
2024-05-27T22:47:43.410;599617129374049574;15391.333;-2
2024-05-27T22:47:43.418;599617129381741364;15399.024;21
2024-05-27T22:47:43.425;599617129389433154;15406.717;56
2024-05-27T22:47:43.433;599617129397124944;15414.408;77
2024-05-27T22:47:43.441;599617129404816734;15422.101;107
2024-05-27T22:47:43.448;599617129412508524;15429.792;154
2024-05-27T22:47:43.456;599617129420200314;15437.484;157
2024-05-27T22:47:43.464;599617129427892104;15445.176;136
2024-05-27T22:47:43.471;599617129435583894;15452.867;166
2024-05-27T22:47:43.479;599617129443275684;15460.559;215
2024-05-27T22:47:43.487;599617129450967474;15468.251;230
2024-05-27T22:47:43.494;599617129458659264;15475.942;225
2024-05-27T22:47:43.502;599617129466351054;15483.635;225
2024-05-27T22:47:43.510;599617129474042844;15491.326;211
2024-05-27T22:47:43.518;599617129481734634;15499.019;190
2024-05-27T22:47:43.525;599617129489426424;15506.71;248
2024-05-27T22:47:43.533;599617129497118214;15514.401;537
2024-05-27T22:47:43.541;599617129504810004;15522.094;1007
2024-05-27T22:47:43.548;599617129512501794;15529.785;1270
2024-05-27T22:47:43.556;599617129520193584;15537.478;983
2024-05-27T22:47:43.564;599617129527885374;15545.169;408
2024-05-27T22:47:43.571;599617129535577164;15552.861;150
2024-05-27T22:47:43.579;599617129543268954;15560.553;248
2024-05-27T22:47:43.587;599617129550960744;15568.245;277
2024-05-27T22:47:43.594;599617129558652534;15575.936;201
2024-05-27T22:47:43.602;599617129566344324;15583.628;192
2024-05-27T22:47:43.610;599617129574036114;15591.319;178
2024-05-27T22:47:43.618;599617129581727904;15599.012;145
2024-05-27T22:47:43.625;599617129589419694;15606.703;147
2024-05-27T22:47:43.633;599617129597111484;15614.3955;112
2024-05-27T22:47:43.641;599617129604803274;15622.087;46
2024-05-27T22:47:43.648;599617129612495064;15629.779;51
2024-05-27T22:47:43.656;599617129620186854;15637.47;103
2024-05-27T22:47:43.664;599617129627878644;15645.162;126
2024-05-27T22:47:43.671;599617129635570434;15652.854;133
2024-05-27T22:47:43.679;599617129643262224;15660.546;147
2024-05-27T22:47:43.687;599617129650954014;15668.237;166
2024-05-27T22:47:43.694;599617129658645804;15675.93;176
2024-05-27T22:47:43.702;599617129666337594;15683.621;180
2024-05-27T22:47:43.710;599617129674029384;15691.313;204
2024-05-27T22:47:43.718;599617129681721174;15699.005;206
2024-05-27T22:47:43.725;599617129689412964;15706.696;100
2024-05-27T22:47:43.733;599617129697104754;15714.388;-23
2024-05-27T22:47:43.741;599617129704796556;15722.08;-37
2024-05-27T22:47:43.748;599617129712488346;15729.771;-23
2024-05-27T22:47:43.756;599617129720180136;15737.464;-72
2024-05-27T22:47:43.764;599617129727871926;15745.155;-105
2024-05-27T22:47:43.771;599617129735563716;15752.848;-91
2024-05-27T22:47:43.779;599617129743255506;15760.539;-91
2024-05-27T22:47:43.787;599617129750947296;15768.23;-140
2024-05-27T22:47:43.794;599617129758639086;15775.922;-192
2024-05-27T22:47:43.802;599617129766330876;15783.614;-187
2024-05-27T22:47:43.810;599617129774022666;15791.307;-147
2024-05-27T22:47:43.817;599617129781714456;15798.998;-140
2024-05-27T22:47:43.825;599617129789406246;15806.69;-159
2024-05-27T22:47:43.833;599617129797098036;15814.382;-136
2024-05-27T22:47:43.841;599617129804789826;15822.074;-86
2024-05-27T22:47:43.848;599617129812481616;15829.765;-72
2024-05-27T22:47:43.856;599617129820173406;15837.457;-68
2024-05-27T22:47:43.864;599617129827865196;15845.148;-39
2024-05-27T22:47:43.871;599617129835556986;15852.841;-46
2024-05-27T22:47:43.879;599617129843248776;15860.532;-107
2024-05-27T22:47:43.887;599617129850940566;15868.225;-122
2024-05-27T22:47:43.894;599617129858632356;15875.916;-65
2024-05-27T22:47:43.902;599617129866324146;15883.608;-25
2024-05-27T22:47:43.910;599617129874015936;15891.3;-37
2024-05-27T22:47:43.917;599617129881707726;15898.991;-39
2024-05-27T22:47:43.925;599617129889399516;15906.683;-2
2024-05-27T22:47:43.933;599617129897091306;15914.375;35
2024-05-27T22:47:43.941;599617129904783096;15922.066;44
2024-05-27T22:47:43.948;599617129912474886;15929.759;58
2024-05-27T22:47:43.956;599617129920166676;15937.45;86
2024-05-27T22:47:43.964;599617129927858466;15945.143;96
2024-05-27T22:47:43.971;599617129935550256;15952.834;93
2024-05-27T22:47:43.979;599617129943242046;15960.525;119
