Phone timestamp;sensor timestamp [ns];timestamp [ms];ecg [uV]
2024-05-27T22:45:34.352;599617000312006636;0.0;32
2024-05-27T22:45:34.359;599617000319698565;7.691929;44
2024-05-27T22:45:34.367;599617000327390494;15.383858;659
2024-05-27T22:45:34.375;599617000335082423;23.075788;2216
2024-05-27T22:45:34.382;599617000342774352;30.767715;3791
2024-05-27T22:45:34.390;599617000350466281;38.459644;4867
2024-05-27T22:45:34.398;599617000358158210;46.151577;5756
2024-05-27T22:45:34.405;599617000365850139;53.843506;6254
2024-05-27T22:45:34.413;599617000373542068;61.53543;6456
2024-05-27T22:45:34.421;599617000381233997;69.22736;6998
2024-05-27T22:45:34.428;599617000388925926;76.91929;7691
2024-05-27T22:45:34.436;599617000396617855;84.61121;8123
2024-05-27T22:45:34.444;599617000404309784;92.303154;8541
2024-05-27T22:45:34.451;599617000412001713;99.99508;9090
2024-05-27T22:45:34.459;599617000419693642;107.68701;9579
2024-05-27T22:45:34.467;599617000427385571;115.37894;9935
2024-05-27T22:45:34.475;599617000435077500;123.07086;10285
2024-05-27T22:45:34.482;599617000442769429;130.76279;10703
2024-05-27T22:45:34.490;599617000450461358;138.45473;11077
2024-05-27T22:45:34.498;599617000458153287;146.14665;11361
2024-05-27T22:45:34.505;599617000465845216;153.83858;11694
2024-05-27T22:45:34.513;599617000473537145;161.53052;12060
2024-05-27T22:45:34.521;599617000481229074;169.22243;12302
2024-05-27T22:45:34.528;599617000488921003;176.91437;12471
2024-05-27T22:45:34.536;599617000496612932;184.60631;12755
2024-05-27T22:45:34.544;599617000504304861;192.29822;13119
2024-05-27T22:45:34.551;599617000511996790;199.99016;13323
2024-05-27T22:45:34.559;599617000519688719;207.68208;13361
2024-05-27T22:45:34.567;599617000527380648;215.37402;13481
2024-05-27T22:45:34.575;599617000535072577;223.06593;13795
2024-05-27T22:45:34.582;599617000542764506;230.75787;14089
2024-05-27T22:45:34.590;599617000550456435;238.4498;14122
2024-05-27T22:45:34.598;599617000558148364;246.14172;14150
2024-05-27T22:45:34.605;599617000565840293;253.83366;14368
2024-05-27T22:45:34.613;599617000573532222;261.52557;14469
2024-05-27T22:45:34.621;599617000581224151;269.2175;14436
2024-05-27T22:45:34.628;599617000588916080;276.90945;14544
2024-05-27T22:45:34.636;599617000596608009;284.60138;14734
2024-05-27T22:45:34.644;599617000604299938;292.2933;14859
2024-05-27T22:45:34.651;599617000611991867;299.98523;14875
2024-05-27T22:45:34.659;599617000619683796;307.67715;14903
2024-05-27T22:45:34.667;599617000627375725;315.36908;15068
2024-05-27T22:45:34.675;599617000635067654;323.06104;15124
2024-05-27T22:45:34.682;599617000642759583;330.75296;15063
2024-05-27T22:45:34.690;599617000650451512;338.44485;15190
2024-05-27T22:45:34.698;599617000658143441;346.1368;15227
2024-05-27T22:45:34.705;599617000665835370;353.82874;15007
2024-05-27T22:45:34.713;599617000673527299;361.52066;14918
2024-05-27T22:45:34.721;599617000681219228;369.21262;14983
2024-05-27T22:45:34.728;599617000688911157;376.9045;14964
2024-05-27T22:45:34.736;599617000696603086;384.59644;15007
2024-05-27T22:45:34.744;599617000704295015;392.2884;15286
2024-05-27T22:45:34.751;599617000711986944;399.98032;15558
2024-05-27T22:45:34.759;599617000719678873;407.6722;15465
2024-05-27T22:45:34.767;599617000727370802;415.36417;15026
2024-05-27T22:45:34.775;599617000735062731;423.0561;14756
2024-05-27T22:45:34.782;599617000742754660;430.74805;14882
2024-05-27T22:45:34.790;599617000750446589;438.43997;14915
2024-05-27T22:45:34.798;599617000758138518;446.13187;14664
2024-05-27T22:45:34.805;599617000765830447;453.82382;14549
2024-05-27T22:45:34.813;599617000773522376;461.51575;14601
2024-05-27T22:45:34.821;599617000781214305;469.20767;14645
2024-05-27T22:45:34.828;599617000788906234;476.8996;14833
2024-05-27T22:45:34.836;599617000796598163;484.59152;14817
2024-05-27T22:45:34.844;599617000804290092;492.28345;14333
2024-05-27T22:45:34.851;599617000811982021;499.9754;14037
2024-05-27T22:45:34.859;599617000819673950;507.66733;14077
2024-05-27T22:45:34.867;599617000827365879;515.35925;14037
2024-05-27T22:45:34.875;599617000835057808;523.05115;14011
2024-05-27T22:45:34.882;599617000842749737;530.7431;14009
2024-05-27T22:45:34.890;599617000850441666;538.435;13882
2024-05-27T22:45:34.898;599617000858133595;546.12695;13753
2024-05-27T22:45:34.905;599617000865825524;553.8189;13666
2024-05-27T22:45:34.913;599617000873522530;561.5159;13556
2024-05-27T22:45:34.921;599617000881214389;569.20776;13457
2024-05-27T22:45:34.928;599617000888906248;576.8996;13399
2024-05-27T22:45:34.936;599617000896598107;584.5915;13340
2024-05-27T22:45:34.944;599617000904289966;592.2833;13241
2024-05-27T22:45:34.951;599617000911981825;599.97516;13114
2024-05-27T22:45:34.959;599617000919673684;607.66705;13039
2024-05-27T22:45:34.967;599617000927365543;615.3589;13037
2024-05-27T22:45:34.975;599617000935057402;623.0508;12927
2024-05-27T22:45:34.982;599617000942749261;630.7427;12701
2024-05-27T22:45:34.990;599617000950441120;638.4345;12664
2024-05-27T22:45:34.998;599617000958132979;646.12634;12746
2024-05-27T22:45:35.005;599617000965824838;653.8182;12558
2024-05-27T22:45:35.013;599617000973516697;661.5101;12316
2024-05-27T22:45:35.021;599617000981208556;669.2019;12358
2024-05-27T22:45:35.028;599617000988900415;676.89374;12326
2024-05-27T22:45:35.036;599617000996592274;684.5857;12009
2024-05-27T22:45:35.044;599617001004284133;692.2775;11708
2024-05-27T22:45:35.051;599617001011975992;699.96936;11600
2024-05-27T22:45:35.059;599617001019667851;707.6612;11565
2024-05-27T22:45:35.067;599617001027359710;715.3531;11457
2024-05-27T22:45:35.075;599617001035051569;723.0449;11302
2024-05-27T22:45:35.082;599617001042743428;730.73676;11086
2024-05-27T22:45:35.090;599617001050435287;738.42865;10877
2024-05-27T22:45:35.098;599617001058127146;746.1205;10912
2024-05-27T22:45:35.105;599617001065819005;753.8124;11208
2024-05-27T22:45:35.113;599617001073510864;761.5043;11344
2024-05-27T22:45:35.121;599617001081202723;769.1961;10959
2024-05-27T22:45:35.128;599617001088894582;776.88794;10426
2024-05-27T22:45:35.136;599617001096586441;784.5798;10292
2024-05-27T22:45:35.144;599617001104278300;792.27167;10363
2024-05-27T22:45:35.151;599617001111970159;799.9635;10267
2024-05-27T22:45:35.159;599617001119662018;807.65533;10081
2024-05-27T22:45:35.167;599617001127353877;815.3473;9975
2024-05-27T22:45:35.175;599617001135045736;823.0391;9950
2024-05-27T22:45:35.182;599617001142737595;830.73096;9886
2024-05-27T22:45:35.190;599617001150429454;838.42285;9741
2024-05-27T22:45:35.198;599617001158121313;846.1147;9680
2024-05-27T22:45:35.205;599617001165813172;853.8065;9687
2024-05-27T22:45:35.213;599617001173505031;861.49835;9567
2024-05-27T22:45:35.221;599617001181196890;869.19025;9403
2024-05-27T22:45:35.228;599617001188888749;876.88214;9367
2024-05-27T22:45:35.236;599617001196580608;884.574;9388
2024-05-27T22:45:35.244;599617001204272467;892.26587;9320
2024-05-27T22:45:35.251;599617001211964326;899.9577;9109
2024-05-27T22:45:35.259;599617001219656185;907.64954;8921
2024-05-27T22:45:35.267;599617001227348044;915.34143;8872
2024-05-27T22:45:35.275;599617001235039903;923.03326;8794
2024-05-27T22:45:35.282;599617001242731762;930.7251;8675
2024-05-27T22:45:35.290;599617001250423621;938.41693;8661
2024-05-27T22:45:35.298;599617001258115480;946.1089;8625
2024-05-27T22:45:35.305;599617001265807339;953.8007;8440
2024-05-27T22:45:35.313;599617001273499198;961.49255;8334
2024-05-27T22:45:35.321;599617001281191057;969.18445;8348
2024-05-27T22:45:35.328;599617001288882916;976.8763;8257
2024-05-27T22:45:35.336;599617001296574775;984.5681;8116
2024-05-27T22:45:35.344;599617001304266634;992.25995;7947
2024-05-27T22:45:35.351;599617001311958493;999.95184;7743
2024-05-27T22:45:35.359;599617001319650352;1007.64374;7679
2024-05-27T22:45:35.367;599617001327342211;1015.3356;7642
2024-05-27T22:45:35.375;599617001335034070;1023.02747;7487
2024-05-27T22:45:35.382;599617001342725929;1030.7192;7397
2024-05-27T22:45:35.390;599617001350417788;1038.4111;7362
2024-05-27T22:45:35.398;599617001358109647;1046.103;7181
2024-05-27T22:45:35.405;599617001365801506;1053.7949;7036
2024-05-27T22:45:35.413;599617001373493365;1061.4867;7041
2024-05-27T22:45:35.421;599617001381185224;1069.1786;6984
2024-05-27T22:45:35.428;599617001388877083;1076.8704;6848
2024-05-27T22:45:35.436;599617001396568942;1084.5623;6726
2024-05-27T22:45:35.444;599617001404260801;1092.2542;6613
2024-05-27T22:45:35.451;599617001411952660;1099.946;6604
2024-05-27T22:45:35.459;599617001419644519;1107.638;6820
2024-05-27T22:45:35.467;599617001427336378;1115.3298;7090
2024-05-27T22:45:35.475;599617001435018218;1123.0116;7031
2024-05-27T22:45:35.482;599617001442710217;1130.7036;6585
2024-05-27T22:45:35.490;599617001450402216;1138.3955;6219
2024-05-27T22:45:35.498;599617001458094215;1146.0875;6235
2024-05-27T22:45:35.505;599617001465786214;1153.7795;6299
2024-05-27T22:45:35.513;599617001473478213;1161.4716;6181
2024-05-27T22:45:35.521;599617001481170212;1169.1636;6085
2024-05-27T22:45:35.528;599617001488862211;1176.8556;6071
2024-05-27T22:45:35.536;599617001496554210;1184.5476;6031
2024-05-27T22:45:35.544;599617001504246209;1192.2396;5893
2024-05-27T22:45:35.551;599617001511938208;1199.9315;5723
2024-05-27T22:45:35.559;599617001519630207;1207.6235;5707
2024-05-27T22:45:35.567;599617001527322206;1215.3156;5728
2024-05-27T22:45:35.575;599617001535014205;1223.0076;5587
2024-05-27T22:45:35.582;599617001542706204;1230.6995;5461
2024-05-27T22:45:35.590;599617001550398203;1238.3916;5482
2024-05-27T22:45:35.598;599617001558090202;1246.0836;5463
2024-05-27T22:45:35.605;599617001565782201;1253.7756;5313
2024-05-27T22:45:35.613;599617001573474200;1261.4675;5214
2024-05-27T22:45:35.621;599617001581166199;1269.1595;5209
2024-05-27T22:45:35.628;599617001588858198;1276.8516;5158
2024-05-27T22:45:35.636;599617001596550197;1284.5436;5068
2024-05-27T22:45:35.644;599617001604242196;1292.2355;5029
2024-05-27T22:45:35.651;599617001611934195;1299.9276;5040
2024-05-27T22:45:35.659;599617001619626194;1307.6196;5043
2024-05-27T22:45:35.667;599617001627318193;1315.3116;4977
2024-05-27T22:45:35.675;599617001635010192;1323.0035;4888
2024-05-27T22:45:35.682;599617001642702191;1330.6956;4859
2024-05-27T22:45:35.690;599617001650394190;1338.3876;4834
2024-05-27T22:45:35.698;599617001658086189;1346.0796;4754
2024-05-27T22:45:35.705;599617001665778188;1353.7715;4700
2024-05-27T22:45:35.713;599617001673470187;1361.4635;4712
2024-05-27T22:45:35.721;599617001681162186;1369.1556;4667
2024-05-27T22:45:35.728;599617001688854185;1376.8475;4531
2024-05-27T22:45:35.736;599617001696546184;1384.5396;4435
2024-05-27T22:45:35.744;599617001704238183;1392.2316;4383
2024-05-27T22:45:35.751;599617001711930182;1399.9236;4282
2024-05-27T22:45:35.759;599617001719622181;1407.6155;4197
2024-05-27T22:45:35.767;599617001727314180;1415.3075;4160
2024-05-27T22:45:35.774;599617001735006179;1422.9995;4113
2024-05-27T22:45:35.782;599617001742698178;1430.6915;4057
2024-05-27T22:45:35.790;599617001750390177;1438.3835;3993
2024-05-27T22:45:35.798;599617001758082176;1446.0756;3902
2024-05-27T22:45:35.805;599617001765774175;1453.7676;3838
2024-05-27T22:45:35.813;599617001773466174;1461.4596;3951
2024-05-27T22:45:35.821;599617001781158173;1469.1515;4247
2024-05-27T22:45:35.828;599617001788850172;1476.8435;4442
2024-05-27T22:45:35.836;599617001796542171;1484.5355;4237
2024-05-27T22:45:35.844;599617001804234170;1492.2275;3740
2024-05-27T22:45:35.851;599617001811926169;1499.9194;3416
2024-05-27T22:45:35.859;599617001819618168;1507.6116;3437
2024-05-27T22:45:35.867;599617001827310167;1515.3036;3477
2024-05-27T22:45:35.874;599617001835002166;1522.9956;3371
2024-05-27T22:45:35.882;599617001842694165;1530.6875;3333
2024-05-27T22:45:35.890;599617001850386164;1538.3795;3392
2024-05-27T22:45:35.898;599617001858078163;1546.0715;3376
2024-05-27T22:45:35.905;599617001865770162;1553.7635;3296
2024-05-27T22:45:35.913;599617001873462161;1561.4554;3256
2024-05-27T22:45:35.921;599617001881154160;1569.1475;3256
2024-05-27T22:45:35.928;599617001888846159;1576.8396;3275
2024-05-27T22:45:35.936;599617001896538158;1584.5316;3277
2024-05-27T22:45:35.944;599617001904230157;1592.2235;3232
2024-05-27T22:45:35.951;599617001911922156;1599.9155;3148
2024-05-27T22:45:35.959;599617001919614155;1607.6075;3059
2024-05-27T22:45:35.967;599617001927306154;1615.2994;3014
2024-05-27T22:45:35.974;599617001934998153;1622.9915;3014
2024-05-27T22:45:35.982;599617001942690152;1630.6835;3002
2024-05-27T22:45:35.990;599617001950382151;1638.3756;2958
2024-05-27T22:45:35.998;599617001958074150;1646.0675;2906
2024-05-27T22:45:36.005;599617001965766149;1653.7595;2908
2024-05-27T22:45:36.013;599617001973458148;1661.4515;2951
2024-05-27T22:45:36.021;599617001981150147;1669.1436;2965
2024-05-27T22:45:36.028;599617001988842146;1676.8354;2920
2024-05-27T22:45:36.036;599617001996549208;1684.5426;2866
2024-05-27T22:45:36.044;599617002004240998;1692.2344;2864
2024-05-27T22:45:36.051;599617002011932788;1699.9261;2871
2024-05-27T22:45:36.059;599617002019624578;1707.6179;2793
2024-05-27T22:45:36.067;599617002027316368;1715.3097;2690
2024-05-27T22:45:36.075;599617002035008158;1723.0015;2645
2024-05-27T22:45:36.082;599617002042699948;1730.6934;2580
2024-05-27T22:45:36.090;599617002050391738;1738.3851;2467
2024-05-27T22:45:36.098;599617002058083528;1746.0769;2401
2024-05-27T22:45:36.105;599617002065775318;1753.7687;2373
2024-05-27T22:45:36.113;599617002073467108;1761.4604;2296
2024-05-27T22:45:36.121;599617002081158898;1769.1522;2197
2024-05-27T22:45:36.128;599617002088850688;1776.844;2138
2024-05-27T22:45:36.136;599617002096542478;1784.5358;2108
2024-05-27T22:45:36.144;599617002104234268;1792.2275;2077
2024-05-27T22:45:36.151;599617002111926058;1799.9193;2049
2024-05-27T22:45:36.159;599617002119617848;1807.6112;2005
2024-05-27T22:45:36.167;599617002127309638;1815.3031;2009
2024-05-27T22:45:36.174;599617002135001428;1822.9949;2223
2024-05-27T22:45:36.182;599617002142693218;1830.6866;2615
2024-05-27T22:45:36.190;599617002150385008;1838.3784;2803
2024-05-27T22:45:36.198;599617002158076798;1846.0702;2469
2024-05-27T22:45:36.205;599617002165768588;1853.762;1974
2024-05-27T22:45:36.213;599617002173460378;1861.4537;1901
2024-05-27T22:45:36.221;599617002181152168;1869.1455;2040
2024-05-27T22:45:36.228;599617002188843958;1876.8374;1972
2024-05-27T22:45:36.236;599617002196535748;1884.5292;1889
2024-05-27T22:45:36.244;599617002204227538;1892.221;1939
2024-05-27T22:45:36.251;599617002211919328;1899.9127;1979
2024-05-27T22:45:36.259;599617002219611118;1907.6045;1951
2024-05-27T22:45:36.267;599617002227302908;1915.2963;1908
2024-05-27T22:45:36.274;599617002234994698;1922.988;1913
2024-05-27T22:45:36.282;599617002242686488;1930.6798;1946
2024-05-27T22:45:36.290;599617002250378278;1938.3716;1953
2024-05-27T22:45:36.298;599617002258070068;1946.0635;1948
2024-05-27T22:45:36.305;599617002265761858;1953.7552;1908
2024-05-27T22:45:36.313;599617002273453648;1961.447;1781
2024-05-27T22:45:36.321;599617002281145438;1969.1388;1664
2024-05-27T22:45:36.328;599617002288837228;1976.8306;1655
2024-05-27T22:45:36.336;599617002296529018;1984.5223;1678
2024-05-27T22:45:36.344;599617002304220808;1992.2141;1638
2024-05-27T22:45:36.351;599617002311912598;1999.9059;1540
2024-05-27T22:45:36.359;599617002319604388;2007.5977;1479
2024-05-27T22:45:36.367;599617002327296178;2015.2896;1511
2024-05-27T22:45:36.374;599617002334987968;2022.9813;1554
2024-05-27T22:45:36.382;599617002342679758;2030.6731;1547
2024-05-27T22:45:36.390;599617002350371548;2038.3649;1554
2024-05-27T22:45:36.398;599617002358063338;2046.0568;1580
2024-05-27T22:45:36.405;599617002365755128;2053.7485;1556
2024-05-27T22:45:36.413;599617002373446918;2061.4402;1516
2024-05-27T22:45:36.421;599617002381138708;2069.132;1533
2024-05-27T22:45:36.428;599617002388830498;2076.8237;1554
2024-05-27T22:45:36.436;599617002396522288;2084.5156;1497
2024-05-27T22:45:36.444;599617002404214078;2092.2075;1441
2024-05-27T22:45:36.451;599617002411905868;2099.8992;1422
2024-05-27T22:45:36.459;599617002419597658;2107.591;1385
2024-05-27T22:45:36.467;599617002427289448;2115.2827;1340
2024-05-27T22:45:36.474;599617002434981238;2122.9746;1303
2024-05-27T22:45:36.482;599617002442673028;2130.6663;1310
2024-05-27T22:45:36.490;599617002450364818;2138.3582;1342
2024-05-27T22:45:36.498;599617002458056608;2146.0498;1303
2024-05-27T22:45:36.505;599617002465748398;2153.742;1246
2024-05-27T22:45:36.513;599617002473440188;2161.4336;1244
2024-05-27T22:45:36.521;599617002481131978;2169.1255;1218
2024-05-27T22:45:36.528;599617002488823768;2176.8171;1270
2024-05-27T22:45:36.536;599617002496515558;2184.509;1584
2024-05-27T22:45:36.544;599617002504207348;2192.2007;1948
2024-05-27T22:45:36.551;599617002511899138;2199.8926;1915
2024-05-27T22:45:36.559;599617002519590928;2207.5842;1441
2024-05-27T22:45:36.567;599617002527282718;2215.2761;1063
2024-05-27T22:45:36.574;599617002534974508;2222.9678;1112
2024-05-27T22:45:36.582;599617002542666298;2230.6597;1218
2024-05-27T22:45:36.590;599617002550358088;2238.3513;1148
2024-05-27T22:45:36.598;599617002558049890;2246.0432;1108
2024-05-27T22:45:36.605;599617002565741680;2253.735;1159
2024-05-27T22:45:36.613;599617002573433470;2261.427;1185
2024-05-27T22:45:36.621;599617002581125260;2269.1187;1178
2024-05-27T22:45:36.628;599617002588817050;2276.8105;1190
2024-05-27T22:45:36.636;599617002596508840;2284.5022;1199
2024-05-27T22:45:36.644;599617002604200630;2292.194;1185
2024-05-27T22:45:36.651;599617002611892420;2299.8857;1138
2024-05-27T22:45:36.659;599617002619584210;2307.5776;1051
2024-05-27T22:45:36.667;599617002627276000;2315.2693;988
2024-05-27T22:45:36.674;599617002634967790;2322.9612;976
2024-05-27T22:45:36.682;599617002642659580;2330.6528;948
2024-05-27T22:45:36.690;599617002650351370;2338.3447;929
2024-05-27T22:45:36.698;599617002658043160;2346.0364;953
2024-05-27T22:45:36.705;599617002665734950;2353.7283;964
2024-05-27T22:45:36.713;599617002673426740;2361.42;964
2024-05-27T22:45:36.721;599617002681118530;2369.1118;1023
2024-05-27T22:45:36.728;599617002688810320;2376.8035;1056
2024-05-27T22:45:36.736;599617002696502110;2384.4954;997
2024-05-27T22:45:36.744;599617002704193900;2392.1875;986
2024-05-27T22:45:36.751;599617002711885690;2399.8792;1065
2024-05-27T22:45:36.759;599617002719577480;2407.571;1112
2024-05-27T22:45:36.767;599617002727269270;2415.2627;1077
2024-05-27T22:45:36.774;599617002734961060;2422.9546;1011
2024-05-27T22:45:36.782;599617002742652850;2430.6462;981
2024-05-27T22:45:36.790;599617002750344640;2438.3381;990
2024-05-27T22:45:36.798;599617002758036430;2446.0298;943
2024-05-27T22:45:36.805;599617002765728220;2453.7217;835
2024-05-27T22:45:36.813;599617002773420010;2461.4133;770
2024-05-27T22:45:36.821;599617002781111800;2469.1052;765
2024-05-27T22:45:36.828;599617002788803590;2476.7969;755
2024-05-27T22:45:36.836;599617002796495380;2484.4888;725
2024-05-27T22:45:36.844;599617002804187170;2492.1804;709
2024-05-27T22:45:36.851;599617002811878960;2499.8723;659
2024-05-27T22:45:36.859;599617002819570750;2507.564;565
2024-05-27T22:45:36.867;599617002827262540;2515.2559;521
2024-05-27T22:45:36.874;599617002834954330;2522.9475;497
2024-05-27T22:45:36.882;599617002842646120;2530.6394;467
2024-05-27T22:45:36.890;599617002850337910;2538.3313;647
2024-05-27T22:45:36.898;599617002858029700;2546.0232;1072
2024-05-27T22:45:36.905;599617002865721490;2553.7148;1349
2024-05-27T22:45:36.913;599617002873413280;2561.4067;1138
2024-05-27T22:45:36.921;599617002881105070;2569.0984;687
2024-05-27T22:45:36.928;599617002888796860;2576.7903;549
2024-05-27T22:45:36.936;599617002896488650;2584.482;690
2024-05-27T22:45:36.944;599617002904180440;2592.1738;734
2024-05-27T22:45:36.951;599617002911872230;2599.8655;680
2024-05-27T22:45:36.959;599617002919564020;2607.5574;687
2024-05-27T22:45:36.967;599617002927255810;2615.2493;727
2024-05-27T22:45:36.974;599617002934947600;2622.941;734
2024-05-27T22:45:36.982;599617002942639390;2630.6328;732
2024-05-27T22:45:36.990;599617002950331180;2638.3245;758
2024-05-27T22:45:36.998;599617002958022970;2646.0164;798
2024-05-27T22:45:37.005;599617002965714760;2653.708;805
2024-05-27T22:45:37.013;599617002973406550;2661.4;753
2024-05-27T22:45:37.021;599617002981098340;2669.0916;704
2024-05-27T22:45:37.028;599617002988790130;2676.7837;723
2024-05-27T22:45:37.036;599617002996481920;2684.4753;758
2024-05-27T22:45:37.044;599617003004173710;2692.1672;718
2024-05-27T22:45:37.051;599617003011865500;2699.859;624
2024-05-27T22:45:37.059;599617003019557290;2707.5508;601
2024-05-27T22:45:37.067;599617003027249080;2715.2424;650
2024-05-27T22:45:37.074;599617003034940870;2722.9343;657
2024-05-27T22:45:37.082;599617003042632660;2730.626;666
2024-05-27T22:45:37.090;599617003050324450;2738.3179;727
2024-05-27T22:45:37.098;599617003058016240;2746.0095;737
2024-05-27T22:45:37.105;599617003065708030;2753.7014;687
2024-05-27T22:45:37.113;599617003073399820;2761.393;704
2024-05-27T22:45:37.121;599617003081091610;2769.085;760
2024-05-27T22:45:37.128;599617003088783400;2776.7766;748
2024-05-27T22:45:37.136;599617003096475190;2784.4685;687
2024-05-27T22:45:37.144;599617003104166980;2792.1602;659
2024-05-27T22:45:37.151;599617003111858770;2799.852;652
2024-05-27T22:45:37.159;599617003119545604;2807.539;603
2024-05-27T22:45:37.167;599617003127237463;2815.2307;549
2024-05-27T22:45:37.174;599617003134929322;2822.9229;563
2024-05-27T22:45:37.182;599617003142621181;2830.6145;563
2024-05-27T22:45:37.190;599617003150313040;2838.3064;469
2024-05-27T22:45:37.197;599617003158004899;2845.9983;387
2024-05-27T22:45:37.205;599617003165696758;2853.6902;408
2024-05-27T22:45:37.213;599617003173388617;2861.3818;443
2024-05-27T22:45:37.221;599617003181080476;2869.074;439
2024-05-27T22:45:37.228;599617003188772335;2876.7656;408
2024-05-27T22:45:37.236;599617003196464194;2884.4575;326
2024-05-27T22:45:37.244;599617003204156053;2892.1494;335
2024-05-27T22:45:37.251;599617003211847912;2899.8413;645
2024-05-27T22:45:37.259;599617003219539771;2907.533;1063
2024-05-27T22:45:37.267;599617003227231630;2915.225;1119
2024-05-27T22:45:37.274;599617003234923489;2922.9167;739
2024-05-27T22:45:37.282;599617003242615348;2930.6086;403
2024-05-27T22:45:37.290;599617003250307207;2938.3008;417
2024-05-27T22:45:37.297;599617003257999066;2945.9924;483
2024-05-27T22:45:37.305;599617003265690925;2953.6843;417
2024-05-27T22:45:37.313;599617003273382784;2961.3762;408
2024-05-27T22:45:37.321;599617003281074643;2969.068;462
2024-05-27T22:45:37.328;599617003288766502;2976.7598;457
2024-05-27T22:45:37.336;599617003296458361;2984.452;450
2024-05-27T22:45:37.344;599617003304150220;2992.1436;490
2024-05-27T22:45:37.351;599617003311842079;2999.8354;511
2024-05-27T22:45:37.359;599617003319533938;3007.5273;464
2024-05-27T22:45:37.367;599617003327225797;3015.2192;370
2024-05-27T22:45:37.374;599617003334917656;3022.911;314
2024-05-27T22:45:37.382;599617003342609515;3030.6028;328
2024-05-27T22:45:37.390;599617003350301374;3038.2947;352
2024-05-27T22:45:37.397;599617003357993233;3045.9866;354
2024-05-27T22:45:37.405;599617003365685092;3053.6782;359
2024-05-27T22:45:37.413;599617003373376951;3061.3704;382
2024-05-27T22:45:37.421;599617003381068810;3069.0623;394
2024-05-27T22:45:37.428;599617003388760669;3076.754;406
2024-05-27T22:45:37.436;599617003396452528;3084.446;446
2024-05-27T22:45:37.444;599617003404144387;3092.1377;500
2024-05-27T22:45:37.451;599617003411836246;3099.8296;547
2024-05-27T22:45:37.459;599617003419528105;3107.5215;556
2024-05-27T22:45:37.467;599617003427219964;3115.2134;525
2024-05-27T22:45:37.474;599617003434911823;3122.905;525
2024-05-27T22:45:37.482;599617003442603682;3130.5972;563
2024-05-27T22:45:37.490;599617003450295541;3138.2888;568
2024-05-27T22:45:37.497;599617003457987400;3145.9807;523
2024-05-27T22:45:37.505;599617003465679259;3153.6726;476
2024-05-27T22:45:37.513;599617003473371118;3161.3645;431
2024-05-27T22:45:37.521;599617003481062977;3169.0562;385
2024-05-27T22:45:37.528;599617003488754836;3176.7483;366
2024-05-27T22:45:37.536;599617003496446695;3184.4402;354
2024-05-27T22:45:37.544;599617003504138554;3192.1318;307
2024-05-27T22:45:37.551;599617003511830413;3199.824;279
2024-05-27T22:45:37.559;599617003519522272;3207.5156;281
2024-05-27T22:45:37.567;599617003527214131;3215.2075;291
2024-05-27T22:45:37.574;599617003534905990;3222.8994;316
2024-05-27T22:45:37.582;599617003542597849;3230.5913;326
2024-05-27T22:45:37.590;599617003550289708;3238.283;279
2024-05-27T22:45:37.597;599617003557981567;3245.975;230
2024-05-27T22:45:37.605;599617003565673426;3253.6667;323
2024-05-27T22:45:37.613;599617003573365285;3261.3586;659
2024-05-27T22:45:37.621;599617003581057144;3269.0505;1056
2024-05-27T22:45:37.628;599617003588749003;3276.7424;1072
2024-05-27T22:45:37.636;599617003596440862;3284.434;622
2024-05-27T22:45:37.644;599617003604132721;3292.1262;272
2024-05-27T22:45:37.651;599617003611824580;3299.8179;354
2024-05-27T22:45:37.659;599617003619516439;3307.5098;471
2024-05-27T22:45:37.667;599617003627208298;3315.2014;413
2024-05-27T22:45:37.674;599617003634900157;3322.8936;394
2024-05-27T22:45:37.682;599617003642592016;3330.5854;455
2024-05-27T22:45:37.690;599617003650283875;3338.277;481
2024-05-27T22:45:37.697;599617003657975734;3345.9692;467
2024-05-27T22:45:37.705;599617003665667593;3353.661;467
2024-05-27T22:45:37.713;599617003673359452;3361.3528;478
2024-05-27T22:45:37.721;599617003681031284;3369.0247;476
2024-05-27T22:45:37.728;599617003688723422;3376.7168;455
2024-05-27T22:45:37.736;599617003696415560;3384.409;434
2024-05-27T22:45:37.744;599617003704107698;3392.101;413
2024-05-27T22:45:37.751;599617003711799836;3399.7932;399
2024-05-27T22:45:37.759;599617003719491974;3407.4854;349
2024-05-27T22:45:37.767;599617003727184112;3415.1775;279
2024-05-27T22:45:37.774;599617003734876250;3422.8694;269
2024-05-27T22:45:37.782;599617003742568388;3430.5618;253
2024-05-27T22:45:37.790;599617003750260526;3438.254;194
2024-05-27T22:45:37.797;599617003757952664;3445.946;206
2024-05-27T22:45:37.805;599617003765644802;3453.6382;286
2024-05-27T22:45:37.813;599617003773336940;3461.3303;333
2024-05-27T22:45:37.821;599617003781029078;3469.0225;349
2024-05-27T22:45:37.828;599617003788721216;3476.7146;361
2024-05-27T22:45:37.836;599617003796413354;3484.4067;359
2024-05-27T22:45:37.844;599617003804105492;3492.0989;349
2024-05-27T22:45:37.851;599617003811797630;3499.791;305
2024-05-27T22:45:37.859;599617003819489768;3507.4832;199
2024-05-27T22:45:37.867;599617003827181906;3515.175;84
2024-05-27T22:45:37.874;599617003834874044;3522.8674;44
2024-05-27T22:45:37.882;599617003842566182;3530.5596;61
2024-05-27T22:45:37.890;599617003850258320;3538.2517;65
2024-05-27T22:45:37.897;599617003857950458;3545.9438;82
2024-05-27T22:45:37.905;599617003865642596;3553.6357;119
2024-05-27T22:45:37.913;599617003873334734;3561.3281;136
2024-05-27T22:45:37.921;599617003881026872;3569.0203;133
2024-05-27T22:45:37.928;599617003888719010;3576.7124;140
2024-05-27T22:45:37.936;599617003896411148;3584.4045;159
2024-05-27T22:45:37.944;599617003904103286;3592.0967;173
2024-05-27T22:45:37.951;599617003911795424;3599.7888;154
2024-05-27T22:45:37.959;599617003919487562;3607.4807;115
2024-05-27T22:45:37.967;599617003927179700;3615.173;227
2024-05-27T22:45:37.974;599617003934871838;3622.8652;601
2024-05-27T22:45:37.982;599617003942563976;3630.5574;1007
2024-05-27T22:45:37.990;599617003950256114;3638.2495;995
2024-05-27T22:45:37.997;599617003957948252;3645.9414;514
2024-05-27T22:45:38.005;599617003965640390;3653.6338;164
2024-05-27T22:45:38.013;599617003973332528;3661.326;279
2024-05-27T22:45:38.021;599617003981024666;3669.018;387
2024-05-27T22:45:38.028;599617003988716804;3676.7102;288
2024-05-27T22:45:38.036;599617003996408942;3684.4023;265
2024-05-27T22:45:38.044;599617004004101080;3692.0945;328
2024-05-27T22:45:38.051;599617004011793218;3699.7864;354
2024-05-27T22:45:38.059;599617004019485356;3707.4788;366
2024-05-27T22:45:38.067;599617004027177494;3715.171;385
2024-05-27T22:45:38.074;599617004034869632;3722.863;399
2024-05-27T22:45:38.082;599617004042561770;3730.5552;385
2024-05-27T22:45:38.090;599617004050253908;3738.247;342
2024-05-27T22:45:38.097;599617004057946046;3745.9395;326
2024-05-27T22:45:38.105;599617004065638184;3753.6316;347
2024-05-27T22:45:38.113;599617004073330322;3761.3237;347
2024-05-27T22:45:38.121;599617004081022460;3769.0159;326
2024-05-27T22:45:38.128;599617004088714598;3776.7078;323
2024-05-27T22:45:38.136;599617004096406736;3784.4001;338
2024-05-27T22:45:38.144;599617004104098874;3792.092;345
2024-05-27T22:45:38.151;599617004111791012;3799.7844;342
2024-05-27T22:45:38.159;599617004119483150;3807.4766;361
2024-05-27T22:45:38.167;599617004127175288;3815.1687;410
2024-05-27T22:45:38.174;599617004134867426;3822.8608;453
2024-05-27T22:45:38.182;599617004142559564;3830.5527;474
2024-05-27T22:45:38.190;599617004150251702;3838.245;495
2024-05-27T22:45:38.197;599617004157943840;3845.9373;497
2024-05-27T22:45:38.205;599617004165635978;3853.6294;450
2024-05-27T22:45:38.213;599617004173328116;3861.3215;375
2024-05-27T22:45:38.221;599617004181020254;3869.0134;356
2024-05-27T22:45:38.228;599617004188712392;3876.7058;368
2024-05-27T22:45:38.236;599617004196404530;3884.3977;331
2024-05-27T22:45:38.244;599617004204096668;3892.09;281
2024-05-27T22:45:38.251;599617004211788806;3899.7822;260
2024-05-27T22:45:38.259;599617004219480944;3907.4744;260
2024-05-27T22:45:38.267;599617004227173082;3915.1665;274
2024-05-27T22:45:38.274;599617004234865220;3922.8584;267
2024-05-27T22:45:38.282;599617004242582454;3930.576;234
2024-05-27T22:45:38.290;599617004250274244;3938.2676;227
2024-05-27T22:45:38.297;599617004257966034;3945.9595;211
2024-05-27T22:45:38.305;599617004265657824;3953.6511;147
2024-05-27T22:45:38.313;599617004273349614;3961.343;119
2024-05-27T22:45:38.321;599617004281041404;3969.0347;180
2024-05-27T22:45:38.328;599617004288733194;3976.7266;417
2024-05-27T22:45:38.336;599617004296424984;3984.4182;817
2024-05-27T22:45:38.344;599617004304116774;3992.11;1016
2024-05-27T22:45:38.351;599617004311808564;3999.8018;718
2024-05-27T22:45:38.359;599617004319500354;4007.4937;213
2024-05-27T22:45:38.367;599617004327192144;4015.1853;44
2024-05-27T22:45:38.374;599617004334883934;4022.8772;176
2024-05-27T22:45:38.382;599617004342575724;4030.5688;199
2024-05-27T22:45:38.390;599617004350267514;4038.261;93
2024-05-27T22:45:38.397;599617004357959304;4045.953;61
2024-05-27T22:45:38.405;599617004365651094;4053.6445;112
2024-05-27T22:45:38.413;599617004373342884;4061.3364;157
2024-05-27T22:45:38.421;599617004381034674;4069.028;159
2024-05-27T22:45:38.428;599617004388726464;4076.72;171
2024-05-27T22:45:38.436;599617004396418254;4084.4116;201
2024-05-27T22:45:38.444;599617004404110044;4092.1035;199
2024-05-27T22:45:38.451;599617004411801834;4099.7954;169
2024-05-27T22:45:38.459;599617004419493624;4107.487;171
2024-05-27T22:45:38.467;599617004427185414;4115.1787;197
2024-05-27T22:45:38.474;599617004434877204;4122.8706;218
2024-05-27T22:45:38.482;599617004442568994;4130.5625;199
2024-05-27T22:45:38.490;599617004450260784;4138.254;180
2024-05-27T22:45:38.497;599617004457952574;4145.946;208
2024-05-27T22:45:38.505;599617004465644364;4153.6377;234
2024-05-27T22:45:38.513;599617004473336154;4161.3296;227
2024-05-27T22:45:38.521;599617004481027944;4169.021;223
2024-05-27T22:45:38.528;599617004488719734;4176.7134;225
2024-05-27T22:45:38.536;599617004496411524;4184.405;220
2024-05-27T22:45:38.544;599617004504103314;4192.0967;227
2024-05-27T22:45:38.551;599617004511795104;4199.7886;248
2024-05-27T22:45:38.559;599617004519486894;4207.4805;260
2024-05-27T22:45:38.567;599617004527178684;4215.172;232
2024-05-27T22:45:38.574;599617004534870474;4222.864;187
2024-05-27T22:45:38.582;599617004542562264;4230.5557;173
2024-05-27T22:45:38.590;599617004550254054;4238.2476;131
2024-05-27T22:45:38.597;599617004557945844;4245.939;75
2024-05-27T22:45:38.605;599617004565637634;4253.631;96
2024-05-27T22:45:38.613;599617004573329424;4261.3228;138
2024-05-27T22:45:38.621;599617004581021214;4269.0146;122
2024-05-27T22:45:38.628;599617004588713004;4276.7065;107
2024-05-27T22:45:38.636;599617004596404794;4284.398;122
2024-05-27T22:45:38.644;599617004604096584;4292.09;129
2024-05-27T22:45:38.651;599617004611788374;4299.7817;143
2024-05-27T22:45:38.659;599617004619480164;4307.4736;136
2024-05-27T22:45:38.667;599617004627171954;4315.165;72
2024-05-27T22:45:38.674;599617004634863744;4322.857;35
2024-05-27T22:45:38.682;599617004642555534;4330.549;164
2024-05-27T22:45:38.690;599617004650247324;4338.2407;481
2024-05-27T22:45:38.697;599617004657939114;4345.932;819
2024-05-27T22:45:38.705;599617004665630904;4353.624;863
2024-05-27T22:45:38.713;599617004673322694;4361.316;504
2024-05-27T22:45:38.721;599617004681014484;4369.008;152
2024-05-27T22:45:38.728;599617004688706274;4376.699;171
2024-05-27T22:45:38.736;599617004696398064;4384.3916;293
2024-05-27T22:45:38.744;599617004704089854;4392.0835;279
2024-05-27T22:45:38.751;599617004711781644;4399.7754;253
2024-05-27T22:45:38.759;599617004719473434;4407.467;262
2024-05-27T22:45:38.767;599617004727165224;4415.1587;260
2024-05-27T22:45:38.774;599617004734857014;4422.8506;239
2024-05-27T22:45:38.782;599617004742548804;4430.5425;223
2024-05-27T22:45:38.790;599617004750240594;4438.234;239
2024-05-27T22:45:38.797;599617004757932384;4445.926;251
2024-05-27T22:45:38.805;599617004765624174;4453.6177;230
2024-05-27T22:45:38.813;599617004773315964;4461.3096;208
2024-05-27T22:45:38.821;599617004781007754;4469.001;215
2024-05-27T22:45:38.828;599617004788699544;4476.693;237
2024-05-27T22:45:38.836;599617004796391334;4484.385;251
2024-05-27T22:45:38.844;599617004804083136;4492.0767;251
2024-05-27T22:45:38.851;599617004811774926;4499.7686;241
2024-05-27T22:45:38.859;599617004819466716;4507.46;241
2024-05-27T22:45:38.867;599617004827158506;4515.152;227
2024-05-27T22:45:38.874;599617004834850296;4522.8438;178
2024-05-27T22:45:38.882;599617004842542086;4530.5356;176
2024-05-27T22:45:38.890;599617004850233876;4538.227;220
2024-05-27T22:45:38.897;599617004857925666;4545.919;187
2024-05-27T22:45:38.905;599617004865617456;4553.611;91
2024-05-27T22:45:38.913;599617004873309246;4561.3027;75
2024-05-27T22:45:38.920;599617004881001036;4568.994;105
2024-05-27T22:45:38.928;599617004888692826;4576.686;70
2024-05-27T22:45:38.936;599617004896384616;4584.378;14
2024-05-27T22:45:38.944;599617004904076406;4592.07;-7
2024-05-27T22:45:38.951;599617004911768196;4599.761;-32
2024-05-27T22:45:38.959;599617004919459986;4607.453;-65
2024-05-27T22:45:38.967;599617004927151776;4615.145;-56
2024-05-27T22:45:38.974;599617004934843566;4622.837;-7
2024-05-27T22:45:38.982;599617004942535356;4630.5283;0
2024-05-27T22:45:38.990;599617004950227146;4638.22;-49
2024-05-27T22:45:38.997;599617004957918936;4645.912;-46
2024-05-27T22:45:39.005;599617004965610726;4653.604;11
2024-05-27T22:45:39.013;599617004973302516;4661.296;7
2024-05-27T22:45:39.020;599617004980994306;4668.988;-82
2024-05-27T22:45:39.028;599617004988686096;4676.6797;-159
2024-05-27T22:45:39.036;599617004996377886;4684.3716;-161
2024-05-27T22:45:39.044;599617005004069676;4692.063;11
2024-05-27T22:45:39.051;599617005011761466;4699.755;387
2024-05-27T22:45:39.059;599617005019453256;4707.447;673
2024-05-27T22:45:39.067;599617005027145046;4715.1387;542
2024-05-27T22:45:39.074;599617005034836836;4722.8306;152
2024-05-27T22:45:39.082;599617005042528626;4730.522;-23
2024-05-27T22:45:39.090;599617005050220416;4738.214;53
2024-05-27T22:45:39.097;599617005057912206;4745.906;115
2024-05-27T22:45:39.105;599617005065603996;4753.5977;112
2024-05-27T22:45:39.113;599617005073295786;4761.289;126
2024-05-27T22:45:39.120;599617005080987576;4768.981;143
2024-05-27T22:45:39.128;599617005088679366;4776.673;147
2024-05-27T22:45:39.136;599617005096371156;4784.3647;164
2024-05-27T22:45:39.144;599617005104062946;4792.056;197
2024-05-27T22:45:39.151;599617005111754736;4799.748;230
2024-05-27T22:45:39.159;599617005119446526;4807.44;211
2024-05-27T22:45:39.167;599617005127138316;4815.132;157
2024-05-27T22:45:39.174;599617005134830106;4822.823;147
2024-05-27T22:45:39.182;599617005142521896;4830.515;171
2024-05-27T22:45:39.190;599617005150213686;4838.207;183
2024-05-27T22:45:39.197;599617005157905476;4845.899;180
2024-05-27T22:45:39.205;599617005165597266;4853.5903;169
2024-05-27T22:45:39.213;599617005173289056;4861.282;171
2024-05-27T22:45:39.220;599617005180980846;4868.974;180
2024-05-27T22:45:39.228;599617005188672636;4876.666;185
2024-05-27T22:45:39.236;599617005196364426;4884.3574;225
2024-05-27T22:45:39.244;599617005204056216;4892.0493;298
2024-05-27T22:45:39.251;599617005211748006;4899.741;331
2024-05-27T22:45:39.259;599617005219439796;4907.433;300
2024-05-27T22:45:39.267;599617005227131586;4915.1245;244
2024-05-27T22:45:39.274;599617005234823376;4922.8164;234
2024-05-27T22:45:39.282;599617005242515166;4930.5083;260
2024-05-27T22:45:39.290;599617005250206956;4938.2;220
2024-05-27T22:45:39.297;599617005257898746;4945.8926;159
2024-05-27T22:45:39.305;599617005265590536;4953.584;143
2024-05-27T22:45:39.313;599617005273282326;4961.276;107
2024-05-27T22:45:39.320;599617005280974116;4968.968;61
2024-05-27T22:45:39.328;599617005288665906;4976.6597;89
2024-05-27T22:45:39.336;599617005296357696;4984.351;145
2024-05-27T22:45:39.344;599617005304049486;4992.043;136
2024-05-27T22:45:39.351;599617005311741276;4999.735;103
2024-05-27T22:45:39.359;599617005319433066;5007.427;96
2024-05-27T22:45:39.367;599617005327124856;5015.118;72
2024-05-27T22:45:39.374;599617005334816646;5022.81;0
2024-05-27T22:45:39.382;599617005342508436;5030.502;-61
2024-05-27T22:45:39.390;599617005350200226;5038.194;-77
2024-05-27T22:45:39.397;599617005357892016;5045.8853;-72
2024-05-27T22:45:39.405;599617005365583818;5053.577;49
2024-05-27T22:45:39.413;599617005373275608;5061.269;408
2024-05-27T22:45:39.420;599617005380967398;5068.961;770
2024-05-27T22:45:39.428;599617005388659188;5076.6523;678
2024-05-27T22:45:39.436;599617005396350978;5084.344;215
2024-05-27T22:45:39.444;599617005404042768;5092.036;-14
2024-05-27T22:45:39.451;599617005411734558;5099.728;110
2024-05-27T22:45:39.459;599617005419426348;5107.4194;166
2024-05-27T22:45:39.467;599617005427118138;5115.1113;77
2024-05-27T22:45:39.474;599617005434809928;5122.803;25
2024-05-27T22:45:39.482;599617005442501718;5130.495;51
2024-05-27T22:45:39.490;599617005450193508;5138.1865;93
2024-05-27T22:45:39.497;599617005457885298;5145.8784;117
2024-05-27T22:45:39.505;599617005465577088;5153.5703;131
2024-05-27T22:45:39.513;599617005473268878;5161.262;112
2024-05-27T22:45:39.520;599617005480960668;5168.9536;56
2024-05-27T22:45:39.528;599617005488652458;5176.6455;2
2024-05-27T22:45:39.536;599617005496344248;5184.3374;-35
2024-05-27T22:45:39.544;599617005504036038;5192.0293;-44
2024-05-27T22:45:39.551;599617005511727828;5199.721;-18
2024-05-27T22:45:39.559;599617005519419618;5207.4126;-9
2024-05-27T22:45:39.567;599617005527111408;5215.105;-7
2024-05-27T22:45:39.574;599617005534803198;5222.797;44
2024-05-27T22:45:39.582;599617005542494988;5230.489;91
2024-05-27T22:45:39.590;599617005550186778;5238.18;91
2024-05-27T22:45:39.597;599617005557878568;5245.872;124
2024-05-27T22:45:39.605;599617005565570358;5253.564;211
2024-05-27T22:45:39.613;599617005573262148;5261.256;248
2024-05-27T22:45:39.620;599617005580953938;5268.9473;234
2024-05-27T22:45:39.628;599617005588645728;5276.639;246
2024-05-27T22:45:39.636;599617005596337518;5284.331;267
2024-05-27T22:45:39.644;599617005604029308;5292.023;234
2024-05-27T22:45:39.651;599617005611721098;5299.7144;178
2024-05-27T22:45:39.659;599617005619412888;5307.4062;164
2024-05-27T22:45:39.667;599617005627104678;5315.098;152
2024-05-27T22:45:39.674;599617005634796468;5322.79;119
2024-05-27T22:45:39.682;599617005642488258;5330.4814;103
2024-05-27T22:45:39.690;599617005650180048;5338.1733;129
2024-05-27T22:45:39.697;599617005657871838;5345.865;171
2024-05-27T22:45:39.705;599617005665563628;5353.557;159
2024-05-27T22:45:39.713;599617005673255418;5361.2485;126
2024-05-27T22:45:39.720;599617005680947208;5368.9404;150
2024-05-27T22:45:39.728;599617005688638998;5376.6323;176
2024-05-27T22:45:39.736;599617005696330788;5384.324;171
2024-05-27T22:45:39.744;599617005704022578;5392.016;164
2024-05-27T22:45:39.751;599617005711714368;5399.7075;93
2024-05-27T22:45:39.759;599617005719406158;5407.3994;23
2024-05-27T22:45:39.767;599617005727097948;5415.0913;173
2024-05-27T22:45:39.774;599617005734789738;5422.783;563
2024-05-27T22:45:39.782;599617005742481528;5430.4746;908
2024-05-27T22:45:39.790;599617005750173318;5438.1665;812
2024-05-27T22:45:39.797;599617005757865108;5445.8584;305
2024-05-27T22:45:39.805;599617005765556898;5453.5503;11
2024-05-27T22:45:39.813;599617005773248688;5461.2417;157
2024-05-27T22:45:39.820;599617005780940478;5468.9336;260
2024-05-27T22:45:39.828;599617005788632268;5476.6255;192
2024-05-27T22:45:39.836;599617005796324058;5484.3174;208
2024-05-27T22:45:39.844;599617005804015848;5492.009;291
2024-05-27T22:45:39.851;599617005811707638;5499.701;319
2024-05-27T22:45:39.859;599617005819399428;5507.393;309
2024-05-27T22:45:39.867;599617005827091218;5515.085;305
2024-05-27T22:45:39.874;599617005834783008;5522.7764;291
2024-05-27T22:45:39.882;599617005842474798;5530.4683;192
2024-05-27T22:45:39.890;599617005850166588;5538.16;103
2024-05-27T22:45:39.897;599617005857858378;5545.852;152
2024-05-27T22:45:39.905;599617005865550168;5553.5435;197
2024-05-27T22:45:39.913;599617005873241958;5561.2354;157
2024-05-27T22:45:39.920;599617005880933748;5568.9272;136
2024-05-27T22:45:39.928;599617005888625538;5576.619;164
2024-05-27T22:45:39.936;599617005896317328;5584.3105;211
2024-05-27T22:45:39.944;599617005904009118;5592.0024;258
2024-05-27T22:45:39.951;599617005911700908;5599.6943;284
2024-05-27T22:45:39.959;599617005919392698;5607.386;286
2024-05-27T22:45:39.967;599617005927084500;5615.078;300
2024-05-27T22:45:39.974;599617005934776290;5622.7695;349
2024-05-27T22:45:39.982;599617005942468080;5630.4614;394
2024-05-27T22:45:39.990;599617005950159870;5638.1533;408
2024-05-27T22:45:39.997;599617005957851660;5645.845;392
2024-05-27T22:45:40.005;599617005965543450;5653.5366;309
2024-05-27T22:45:40.013;599617005973235240;5661.2285;171
2024-05-27T22:45:40.020;599617005980927030;5668.9204;72
2024-05-27T22:45:40.028;599617005988618820;5676.6123;63
2024-05-27T22:45:40.036;599617005996310610;5684.3037;79
2024-05-27T22:45:40.043;599617006004002400;5691.9956;77
2024-05-27T22:45:40.051;599617006011694190;5699.6875;70
2024-05-27T22:45:40.059;599617006019385980;5707.3794;70
2024-05-27T22:45:40.067;599617006027077770;5715.071;110
2024-05-27T22:45:40.074;599617006034769560;5722.7627;154
2024-05-27T22:45:40.082;599617006042461350;5730.4546;154
2024-05-27T22:45:40.090;599617006050153140;5738.1465;143
2024-05-27T22:45:40.097;599617006057844930;5745.838;154
2024-05-27T22:45:40.105;599617006065536720;5753.53;143
2024-05-27T22:45:40.113;599617006073228510;5761.2217;79
2024-05-27T22:45:40.120;599617006080920300;5768.914;86
2024-05-27T22:45:40.128;599617006088612090;5776.6055;363
2024-05-27T22:45:40.136;599617006096303880;5784.2974;814
2024-05-27T22:45:40.143;599617006103995670;5791.9893;1016
2024-05-27T22:45:40.151;599617006111687460;5799.681;720
2024-05-27T22:45:40.159;599617006119379250;5807.3726;248
2024-05-27T22:45:40.167;599617006127071040;5815.0645;131
2024-05-27T22:45:40.174;599617006134762830;5822.7563;298
2024-05-27T22:45:40.182;599617006142454620;5830.448;331
2024-05-27T22:45:40.190;599617006150146410;5838.14;239
2024-05-27T22:45:40.197;599617006157838200;5845.8315;239
2024-05-27T22:45:40.205;599617006165529990;5853.5234;316
2024-05-27T22:45:40.213;599617006173221780;5861.2153;356
2024-05-27T22:45:40.220;599617006180913570;5868.907;345
2024-05-27T22:45:40.228;599617006188605360;5876.5986;340
2024-05-27T22:45:40.236;599617006196297150;5884.2905;340
2024-05-27T22:45:40.243;599617006203988940;5891.9824;312
2024-05-27T22:45:40.251;599617006211680730;5899.6743;248
2024-05-27T22:45:40.259;599617006219372520;5907.3657;194
2024-05-27T22:45:40.267;599617006227064310;5915.0576;220
2024-05-27T22:45:40.274;599617006234756100;5922.7495;267
2024-05-27T22:45:40.282;599617006242447890;5930.4414;255
2024-05-27T22:45:40.290;599617006250139680;5938.133;232
2024-05-27T22:45:40.297;599617006257831470;5945.8247;218
2024-05-27T22:45:40.305;599617006265523260;5953.5166;208
2024-05-27T22:45:40.313;599617006273215050;5961.2085;253
2024-05-27T22:45:40.320;599617006280906840;5968.9;302
2024-05-27T22:45:40.328;599617006288598630;5976.592;316
2024-05-27T22:45:40.336;599617006296290420;5984.2837;323
2024-05-27T22:45:40.343;599617006303982210;5991.9756;349
2024-05-27T22:45:40.351;599617006311674000;5999.667;385
2024-05-27T22:45:40.359;599617006319365790;6007.359;389
2024-05-27T22:45:40.367;599617006327057580;6015.051;300
2024-05-27T22:45:40.374;599617006334749370;6022.7427;183
2024-05-27T22:45:40.382;599617006342441160;6030.434;124
2024-05-27T22:45:40.390;599617006350132950;6038.126;44
2024-05-27T22:45:40.397;599617006357824740;6045.818;-44
2024-05-27T22:45:40.405;599617006365516530;6053.5103;-25
2024-05-27T22:45:40.413;599617006373208320;6061.202;16
2024-05-27T22:45:40.420;599617006380900110;6068.8936;-7
2024-05-27T22:45:40.428;599617006388591900;6076.5854;-30
2024-05-27T22:45:40.436;599617006396283690;6084.2773;0
2024-05-27T22:45:40.443;599617006403975480;6091.969;46
2024-05-27T22:45:40.451;599617006411667270;6099.6606;58
2024-05-27T22:45:40.459;599617006419359060;6107.3525;42
2024-05-27T22:45:40.467;599617006427050850;6115.0444;-4
2024-05-27T22:45:40.474;599617006434742640;6122.7363;-39
2024-05-27T22:45:40.482;599617006442434430;6130.4277;82
2024-05-27T22:45:40.490;599617006450126220;6138.1196;434
2024-05-27T22:45:40.497;599617006457818010;6145.8115;767
2024-05-27T22:45:40.505;599617006465509800;6153.5034;723
2024-05-27T22:45:40.513;599617006473201590;6161.195;323
2024-05-27T22:45:40.520;599617006480893380;6168.8867;16
2024-05-27T22:45:40.528;599617006488585182;6176.5786;63
2024-05-27T22:45:40.536;599617006496276972;6184.2705;173
2024-05-27T22:45:40.543;599617006503968762;6191.962;147
2024-05-27T22:45:40.551;599617006511660552;6199.654;150
2024-05-27T22:45:40.559;599617006519352342;6207.3457;220
2024-05-27T22:45:40.567;599617006527044132;6215.0376;227
2024-05-27T22:45:40.574;599617006534735922;6222.729;171
2024-05-27T22:45:40.582;599617006542427712;6230.421;129
2024-05-27T22:45:40.590;599617006550119502;6238.113;126
2024-05-27T22:45:40.597;599617006557811292;6245.8047;129
2024-05-27T22:45:40.605;599617006565503082;6253.496;98
2024-05-27T22:45:40.613;599617006573194872;6261.188;72
2024-05-27T22:45:40.620;599617006580886662;6268.88;96
2024-05-27T22:45:40.628;599617006588578452;6276.572;147
2024-05-27T22:45:40.636;599617006596270242;6284.263;180
2024-05-27T22:45:40.643;599617006603962032;6291.955;169
2024-05-27T22:45:40.651;599617006611653822;6299.647;145
2024-05-27T22:45:40.659;599617006619345612;6307.339;161
2024-05-27T22:45:40.667;599617006627037402;6315.031;215
2024-05-27T22:45:40.674;599617006634729192;6322.722;251
2024-05-27T22:45:40.682;599617006642420982;6330.4146;260
2024-05-27T22:45:40.690;599617006650112772;6338.1064;272
2024-05-27T22:45:40.697;599617006657804562;6345.7983;281
2024-05-27T22:45:40.705;599617006665496352;6353.4897;291
2024-05-27T22:45:40.713;599617006673188142;6361.1816;302
2024-05-27T22:45:40.720;599617006680879932;6368.8735;277
2024-05-27T22:45:40.728;599617006688571722;6376.5654;227
2024-05-27T22:45:40.736;599617006696263512;6384.257;178
2024-05-27T22:45:40.743;599617006703955302;6391.9487;91
2024-05-27T22:45:40.751;599617006711647092;6399.6406;32
2024-05-27T22:45:40.759;599617006719338882;6407.3325;53
2024-05-27T22:45:40.767;599617006727030672;6415.024;72
2024-05-27T22:45:40.774;599617006734722462;6422.716;86
2024-05-27T22:45:40.782;599617006742414252;6430.4077;117
2024-05-27T22:45:40.790;599617006750106042;6438.0996;100
2024-05-27T22:45:40.797;599617006757797832;6445.791;77
2024-05-27T22:45:40.805;599617006765489622;6453.483;126
2024-05-27T22:45:40.813;599617006773181412;6461.175;176
2024-05-27T22:45:40.820;599617006780873202;6468.8667;143
2024-05-27T22:45:40.828;599617006788564992;6476.558;68
2024-05-27T22:45:40.836;599617006796256782;6484.25;28
2024-05-27T22:45:40.843;599617006803948572;6491.942;154
2024-05-27T22:45:40.851;599617006811640362;6499.634;490
2024-05-27T22:45:40.859;599617006819332152;6507.3257;805
2024-05-27T22:45:40.867;599617006827023942;6515.017;772
2024-05-27T22:45:40.874;599617006834715732;6522.709;415
2024-05-27T22:45:40.882;599617006842407522;6530.401;150
2024-05-27T22:45:40.890;599617006850099312;6538.093;152
2024-05-27T22:45:40.897;599617006857791102;6545.784;124
2024-05-27T22:45:40.905;599617006865482892;6553.476;9
2024-05-27T22:45:40.913;599617006873174682;6561.168;28
2024-05-27T22:45:40.920;599617006880866472;6568.86;93
2024-05-27T22:45:40.928;599617006888558262;6576.5513;84
2024-05-27T22:45:40.936;599617006896250052;6584.243;86
2024-05-27T22:45:40.943;599617006903941842;6591.935;129
2024-05-27T22:45:40.951;599617006911633632;6599.627;161
2024-05-27T22:45:40.959;599617006919325422;6607.319;161
2024-05-27T22:45:40.967;599617006927017212;6615.0107;133
2024-05-27T22:45:40.974;599617006934709002;6622.7026;100
2024-05-27T22:45:40.982;599617006942400792;6630.3945;82
2024-05-27T22:45:40.990;599617006950092582;6638.086;68
2024-05-27T22:45:40.997;599617006957784372;6645.778;61
2024-05-27T22:45:41.005;599617006965476162;6653.4697;58
2024-05-27T22:45:41.013;599617006973167952;6661.1616;68
2024-05-27T22:45:41.020;599617006980859742;6668.853;93
2024-05-27T22:45:41.028;599617006988551532;6676.545;115
2024-05-27T22:45:41.036;599617006996243322;6684.237;152
2024-05-27T22:45:41.043;599617007003935112;6691.9287;208
2024-05-27T22:45:41.051;599617007011626902;6699.62;241
2024-05-27T22:45:41.059;599617007019318692;6707.312;248
2024-05-27T22:45:41.067;599617007027010482;6715.004;241
2024-05-27T22:45:41.074;599617007034702272;6722.696;234
2024-05-27T22:45:41.082;599617007042394062;6730.3877;218
2024-05-27T22:45:41.090;599617007050075856;6738.069;187
2024-05-27T22:45:41.097;599617007057767785;6745.761;150
2024-05-27T22:45:41.105;599617007065459714;6753.453;96
2024-05-27T22:45:41.113;599617007073151643;6761.145;39
2024-05-27T22:45:41.120;599617007080843572;6768.837;-28
2024-05-27T22:45:41.128;599617007088535501;6776.529;-84
2024-05-27T22:45:41.136;599617007096227430;6784.2207;-70
2024-05-27T22:45:41.143;599617007103919359;6791.913;-28
2024-05-27T22:45:41.151;599617007111611288;6799.6045;-25
2024-05-27T22:45:41.159;599617007119303217;6807.2964;-23
2024-05-27T22:45:41.166;599617007126995146;6814.9883;4
2024-05-27T22:45:41.174;599617007134687075;6822.6807;21
2024-05-27T22:45:41.182;599617007142379004;6830.3726;2
2024-05-27T22:45:41.190;599617007150070933;6838.064;-28
2024-05-27T22:45:41.197;599617007157762862;6845.7563;-28
2024-05-27T22:45:41.205;599617007165454791;6853.448;105
2024-05-27T22:45:41.213;599617007173146720;6861.14;457
2024-05-27T22:45:41.220;599617007180838649;6868.832;817
2024-05-27T22:45:41.228;599617007188530578;6876.524;746
2024-05-27T22:45:41.236;599617007196222507;6884.216;246
2024-05-27T22:45:41.243;599617007203914436;6891.9077;-77
2024-05-27T22:45:41.251;599617007211606365;6899.6;37
2024-05-27T22:45:41.259;599617007219298294;6907.2915;147
2024-05-27T22:45:41.266;599617007226990223;6914.9834;68
2024-05-27T22:45:41.274;599617007234682152;6922.676;68
2024-05-27T22:45:41.282;599617007242374081;6930.3677;166
2024-05-27T22:45:41.290;599617007250066010;6938.059;176
2024-05-27T22:45:41.297;599617007257757939;6945.7515;140
2024-05-27T22:45:41.305;599617007265449868;6953.4434;176
2024-05-27T22:45:41.313;599617007273141797;6961.1353;223
2024-05-27T22:45:41.320;599617007280833726;6968.8267;187
2024-05-27T22:45:41.328;599617007288525655;6976.519;150
2024-05-27T22:45:41.336;599617007296217584;6984.211;176
2024-05-27T22:45:41.343;599617007303909513;6991.903;180
2024-05-27T22:45:41.351;599617007311601442;6999.595;150
2024-05-27T22:45:41.359;599617007319293371;7007.2866;147
2024-05-27T22:45:41.366;599617007326985300;7014.9785;180
2024-05-27T22:45:41.374;599617007334677229;7022.671;220
2024-05-27T22:45:41.382;599617007342369158;7030.363;223
2024-05-27T22:45:41.390;599617007350061087;7038.054;201
2024-05-27T22:45:41.397;599617007357753016;7045.746;218
2024-05-27T22:45:41.405;599617007365444945;7053.4385;232
2024-05-27T22:45:41.413;599617007373136874;7061.1304;178
2024-05-27T22:45:41.420;599617007380828803;7068.822;140
2024-05-27T22:45:41.428;599617007388520732;7076.514;159
2024-05-27T22:45:41.436;599617007396212661;7084.206;161
2024-05-27T22:45:41.443;599617007403904590;7091.898;145
2024-05-27T22:45:41.451;599617007411596519;7099.59;136
2024-05-27T22:45:41.459;599617007419288448;7107.2817;86
2024-05-27T22:45:41.466;599617007426980377;7114.9736;39
2024-05-27T22:45:41.474;599617007434672306;7122.6655;49
2024-05-27T22:45:41.482;599617007442364235;7130.358;32
2024-05-27T22:45:41.490;599617007450056164;7138.0493;-25
2024-05-27T22:45:41.497;599617007457748093;7145.741;-16
2024-05-27T22:45:41.505;599617007465440022;7153.4336;58
2024-05-27T22:45:41.513;599617007473131951;7161.1255;91
2024-05-27T22:45:41.520;599617007480823880;7168.8174;79
2024-05-27T22:45:41.528;599617007488515809;7176.509;75
2024-05-27T22:45:41.536;599617007496207738;7184.201;79
2024-05-27T22:45:41.543;599617007503899667;7191.893;84
2024-05-27T22:45:41.551;599617007511591596;7199.585;53
2024-05-27T22:45:41.559;599617007519283525;7207.277;37
2024-05-27T22:45:41.566;599617007526975454;7214.9688;192
2024-05-27T22:45:41.574;599617007534667383;7222.6606;554
2024-05-27T22:45:41.582;599617007542359312;7230.353;936
2024-05-27T22:45:41.590;599617007550051241;7238.0444;946
2024-05-27T22:45:41.597;599617007557743170;7245.7363;446
2024-05-27T22:45:41.605;599617007565435099;7253.428;42
2024-05-27T22:45:41.613;599617007573127028;7261.1206;157
2024-05-27T22:45:41.620;599617007580818957;7268.8125;293
2024-05-27T22:45:41.628;599617007588510886;7276.504;194
2024-05-27T22:45:41.636;599617007596202815;7284.1963;192
2024-05-27T22:45:41.643;599617007603894744;7291.888;288
2024-05-27T22:45:41.651;599617007611576702;7299.5703;302
2024-05-27T22:45:41.659;599617007619268770;7307.2617;284
2024-05-27T22:45:41.666;599617007626960838;7314.954;277
2024-05-27T22:45:41.674;599617007634652906;7322.646;267
2024-05-27T22:45:41.682;599617007642344974;7330.3384;255
2024-05-27T22:45:41.690;599617007650037042;7338.031;227
2024-05-27T22:45:41.697;599617007657729110;7345.722;220
2024-05-27T22:45:41.705;599617007665421178;7353.4146;251
2024-05-27T22:45:41.713;599617007673113246;7361.1064;251
2024-05-27T22:45:41.720;599617007680805314;7368.799;211
2024-05-27T22:45:41.728;599617007688497382;7376.4907;180
2024-05-27T22:45:41.736;599617007696189450;7384.1826;183
2024-05-27T22:45:41.743;599617007703881518;7391.875;180
2024-05-27T22:45:41.751;599617007711573586;7399.567;122
2024-05-27T22:45:41.759;599617007719265654;7407.2593;84
2024-05-27T22:45:41.766;599617007726957722;7414.9507;169
2024-05-27T22:45:41.774;599617007734649790;7422.643;260
2024-05-27T22:45:41.782;599617007742341858;7430.335;253
2024-05-27T22:45:41.790;599617007750033926;7438.0273;253
2024-05-27T22:45:41.797;599617007757725994;7445.7197;265
2024-05-27T22:45:41.805;599617007765418062;7453.411;197
2024-05-27T22:45:41.813;599617007773110130;7461.1035;136
2024-05-27T22:45:41.820;599617007780802198;7468.7954;138
2024-05-27T22:45:41.828;599617007788494266;7476.488;133
2024-05-27T22:45:41.836;599617007796186334;7484.1797;117
2024-05-27T22:45:41.843;599617007803878402;7491.8716;117
2024-05-27T22:45:41.851;599617007811570470;7499.564;119
2024-05-27T22:45:41.859;599617007819262538;7507.256;110
2024-05-27T22:45:41.866;599617007826954606;7514.948;105
2024-05-27T22:45:41.874;599617007834646674;7522.6396;115
2024-05-27T22:45:41.882;599617007842338742;7530.332;157
2024-05-27T22:45:41.890;599617007850030810;7538.024;197
2024-05-27T22:45:41.897;599617007857722878;7545.7163;169
2024-05-27T22:45:41.905;599617007865414946;7553.4087;75
2024-05-27T22:45:41.913;599617007873107014;7561.1;-16
2024-05-27T22:45:41.920;599617007880799082;7568.7925;-9
2024-05-27T22:45:41.928;599617007888491150;7576.4844;194
2024-05-27T22:45:41.936;599617007896183218;7584.177;584
2024-05-27T22:45:41.943;599617007903875286;7591.8687;866
2024-05-27T22:45:41.951;599617007911567354;7599.5605;676
2024-05-27T22:45:41.959;599617007919259422;7607.253;173
2024-05-27T22:45:41.966;599617007926951490;7614.945;-28
2024-05-27T22:45:41.974;599617007934643558;7622.637;115
2024-05-27T22:45:41.982;599617007942335626;7630.3286;124
2024-05-27T22:45:41.990;599617007950027694;7638.021;28
2024-05-27T22:45:41.997;599617007957719762;7645.713;72
2024-05-27T22:45:42.005;599617007965411830;7653.4053;122
2024-05-27T22:45:42.013;599617007973103898;7661.0977;122
2024-05-27T22:45:42.020;599617007980795966;7668.789;166
2024-05-27T22:45:42.028;599617007988488034;7676.4814;178
2024-05-27T22:45:42.036;599617007996180102;7684.1733;115
2024-05-27T22:45:42.043;599617008003872170;7691.8657;100
2024-05-27T22:45:42.051;599617008011564238;7699.5576;138
2024-05-27T22:45:42.059;599617008019256306;7707.2495;159
2024-05-27T22:45:42.066;599617008026948374;7714.942;164
2024-05-27T22:45:42.074;599617008034640442;7722.634;152
2024-05-27T22:45:42.082;599617008042332510;7730.326;126
2024-05-27T22:45:42.090;599617008050024578;7738.0176;129
2024-05-27T22:45:42.097;599617008057716646;7745.71;147
2024-05-27T22:45:42.105;599617008065408714;7753.402;147
2024-05-27T22:45:42.113;599617008073100782;7761.094;150
2024-05-27T22:45:42.120;599617008080792850;7768.7866;194
2024-05-27T22:45:42.128;599617008088484918;7776.478;241
2024-05-27T22:45:42.136;599617008096176986;7784.1704;241
2024-05-27T22:45:42.143;599617008103869054;7791.8623;225
2024-05-27T22:45:42.151;599617008111561122;7799.5547;246
2024-05-27T22:45:42.159;599617008119253190;7807.246;274
2024-05-27T22:45:42.166;599617008126945258;7814.9385;232
2024-05-27T22:45:42.174;599617008134637326;7822.631;129
2024-05-27T22:45:42.182;599617008142329394;7830.3228;68
2024-05-27T22:45:42.190;599617008150021462;7838.015;77
2024-05-27T22:45:42.197;599617008157713530;7845.7065;82
2024-05-27T22:45:42.205;599617008165405598;7853.399;75
2024-05-27T22:45:42.213;599617008173117746;7861.1113;77
2024-05-27T22:45:42.220;599617008180809536;7868.803;30
2024-05-27T22:45:42.228;599617008188501326;7876.4946;-23
2024-05-27T22:45:42.236;599617008196193116;7884.1865;7
2024-05-27T22:45:42.243;599617008203884906;7891.8784;53
2024-05-27T22:45:42.251;599617008211576696;7899.5703;61
2024-05-27T22:45:42.259;599617008219268486;7907.2617;58
2024-05-27T22:45:42.266;599617008226960276;7914.9536;28
2024-05-27T22:45:42.274;599617008234652066;7922.6455;-35
2024-05-27T22:45:42.282;599617008242343856;7930.3374;-32
2024-05-27T22:45:42.290;599617008250035646;7938.0293;171
2024-05-27T22:45:42.297;599617008257727436;7945.7207;537
2024-05-27T22:45:42.305;599617008265419226;7953.4126;734
2024-05-27T22:45:42.313;599617008273111016;7961.1045;460
2024-05-27T22:45:42.320;599617008280802806;7968.7964;7
2024-05-27T22:45:42.328;599617008288494596;7976.488;-79
2024-05-27T22:45:42.336;599617008296186386;7984.1797;100
2024-05-27T22:45:42.343;599617008303878176;7991.8716;124
2024-05-27T22:45:42.351;599617008311569966;7999.5635;56
2024-05-27T22:45:42.359;599617008319261756;8007.255;105
2024-05-27T22:45:42.366;599617008326953546;8014.947;178
2024-05-27T22:45:42.374;599617008334645336;8022.6387;183
2024-05-27T22:45:42.382;599617008342337126;8030.3306;173
2024-05-27T22:45:42.390;599617008350028916;8038.022;171
2024-05-27T22:45:42.397;599617008357720706;8045.714;159
2024-05-27T22:45:42.405;599617008365412496;8053.406;166
2024-05-27T22:45:42.413;599617008373104286;8061.0977;133
2024-05-27T22:45:42.420;599617008380796076;8068.789;51
2024-05-27T22:45:42.428;599617008388487866;8076.481;58
2024-05-27T22:45:42.436;599617008396179656;8084.173;110
2024-05-27T22:45:42.443;599617008403871446;8091.8647;98
2024-05-27T22:45:42.451;599617008411563236;8099.556;82
2024-05-27T22:45:42.459;599617008419255026;8107.2485;89
2024-05-27T22:45:42.466;599617008426946816;8114.9404;49
2024-05-27T22:45:42.474;599617008434638606;8122.6323;28
2024-05-27T22:45:42.482;599617008442330396;8130.3237;98
2024-05-27T22:45:42.490;599617008450022186;8138.0156;161
2024-05-27T22:45:42.497;599617008457713976;8145.7075;154
2024-05-27T22:45:42.505;599617008465405766;8153.3994;140
2024-05-27T22:45:42.513;599617008473097556;8161.0913;147
2024-05-27T22:45:42.520;599617008480789346;8168.7827;136
2024-05-27T22:45:42.528;599617008488481136;8176.4746;112
2024-05-27T22:45:42.536;599617008496172926;8184.1665;65
2024-05-27T22:45:42.543;599617008503864716;8191.8584;7
2024-05-27T22:45:42.551;599617008511556506;8199.55;11
2024-05-27T22:45:42.559;599617008519248296;8207.242;37
2024-05-27T22:45:42.566;599617008526940086;8214.934;30
2024-05-27T22:45:42.574;599617008534631876;8222.625;49
2024-05-27T22:45:42.582;599617008542323666;8230.317;86
2024-05-27T22:45:42.590;599617008550015456;8238.009;65
2024-05-27T22:45:42.597;599617008557707246;8245.7;30
2024-05-27T22:45:42.605;599617008565399036;8253.393;53
2024-05-27T22:45:42.613;599617008573090826;8261.084;107
2024-05-27T22:45:42.620;599617008580782616;8268.776;124
2024-05-27T22:45:42.628;599617008588474406;8276.468;91
2024-05-27T22:45:42.636;599617008596166196;8284.159;35
2024-05-27T22:45:42.643;599617008603857986;8291.852;61
2024-05-27T22:45:42.651;599617008611549776;8299.543;314
2024-05-27T22:45:42.659;599617008619241566;8307.234;692
2024-05-27T22:45:42.666;599617008626933356;8314.927;817
2024-05-27T22:45:42.674;599617008634625146;8322.618;523
2024-05-27T22:45:42.682;599617008642316936;8330.311;159
2024-05-27T22:45:42.690;599617008650008726;8338.002;133
2024-05-27T22:45:42.697;599617008657700516;8345.693;267
2024-05-27T22:45:42.705;599617008665392306;8353.386;234
2024-05-27T22:45:42.713;599617008673084096;8361.077;161
2024-05-27T22:45:42.720;599617008680775886;8368.769;169
2024-05-27T22:45:42.728;599617008688467676;8376.461;171
2024-05-27T22:45:42.736;599617008696159466;8384.152;173
2024-05-27T22:45:42.743;599617008703851256;8391.845;199
2024-05-27T22:45:42.751;599617008711543046;8399.537;206
2024-05-27T22:45:42.759;599617008719234836;8407.229;199
2024-05-27T22:45:42.766;599617008726926626;8414.92;192
2024-05-27T22:45:42.774;599617008734623468;8422.617;166
2024-05-27T22:45:42.782;599617008742315188;8430.309;157
2024-05-27T22:45:42.790;599617008750006908;8438.0;178
2024-05-27T22:45:42.797;599617008757698628;8445.692;190
2024-05-27T22:45:42.805;599617008765390348;8453.384;199
2024-05-27T22:45:42.813;599617008773082068;8461.075;206
2024-05-27T22:45:42.820;599617008780773788;8468.768;178
2024-05-27T22:45:42.828;599617008788465508;8476.459;133
2024-05-27T22:45:42.836;599617008796157228;8484.15;112
2024-05-27T22:45:42.843;599617008803848948;8491.843;152
2024-05-27T22:45:42.851;599617008811540668;8499.534;199
2024-05-27T22:45:42.859;599617008819232388;8507.226;185
2024-05-27T22:45:42.866;599617008826924108;8514.917;180
2024-05-27T22:45:42.874;599617008834615828;8522.609;206
2024-05-27T22:45:42.882;599617008842307548;8530.301;178
2024-05-27T22:45:42.889;599617008849999268;8537.993;129
2024-05-27T22:45:42.897;599617008857690988;8545.685;98
2024-05-27T22:45:42.905;599617008865382708;8553.376;61
2024-05-27T22:45:42.913;599617008873074428;8561.068;39
2024-05-27T22:45:42.920;599617008880766148;8568.76;14
2024-05-27T22:45:42.928;599617008888457868;8576.451;-70
2024-05-27T22:45:42.936;599617008896149588;8584.143;-93
2024-05-27T22:45:42.943;599617008903841308;8591.835;-30
2024-05-27T22:45:42.951;599617008911533028;8599.526;-37
2024-05-27T22:45:42.959;599617008919224748;8607.218;-112
2024-05-27T22:45:42.966;599617008926916468;8614.91;-96
2024-05-27T22:45:42.974;599617008934608188;8622.602;-23
2024-05-27T22:45:42.982;599617008942299908;8630.294;-23
2024-05-27T22:45:42.989;599617008949991628;8637.984;-56
2024-05-27T22:45:42.997;599617008957683348;8645.677;-79
2024-05-27T22:45:43.005;599617008965375068;8653.368;-77
2024-05-27T22:45:43.013;599617008973066788;8661.061;131
2024-05-27T22:45:43.020;599617008980758508;8668.752;575
2024-05-27T22:45:43.028;599617008988450228;8676.443;817
2024-05-27T22:45:43.036;599617008996141948;8684.136;523
2024-05-27T22:45:43.043;599617009003833668;8691.827;91
2024-05-27T22:45:43.051;599617009011525388;8699.519;32
2024-05-27T22:45:43.059;599617009019217108;8707.21;161
2024-05-27T22:45:43.066;599617009026908828;8714.902;154
2024-05-27T22:45:43.074;599617009034600548;8722.594;119
2024-05-27T22:45:43.082;599617009042292268;8730.286;159
2024-05-27T22:45:43.089;599617009049983988;8737.978;183
2024-05-27T22:45:43.097;599617009057675708;8745.669;171
2024-05-27T22:45:43.105;599617009065367428;8753.361;192
2024-05-27T22:45:43.113;599617009073059148;8761.052;215
2024-05-27T22:45:43.120;599617009080750868;8768.744;187
2024-05-27T22:45:43.128;599617009088442588;8776.436;161
2024-05-27T22:45:43.136;599617009096134308;8784.128;171
2024-05-27T22:45:43.143;599617009103826028;8791.819;171
2024-05-27T22:45:43.151;599617009111517748;8799.512;169
2024-05-27T22:45:43.159;599617009119209468;8807.203;171
2024-05-27T22:45:43.166;599617009126901188;8814.895;164
2024-05-27T22:45:43.174;599617009134592908;8822.586;190
2024-05-27T22:45:43.182;599617009142284628;8830.277;225
2024-05-27T22:45:43.189;599617009149976348;8837.97;213
2024-05-27T22:45:43.197;599617009157668068;8845.661;197
2024-05-27T22:45:43.205;599617009165359788;8853.354;206
2024-05-27T22:45:43.213;599617009173051508;8861.045;220
2024-05-27T22:45:43.220;599617009180743228;8868.737;234
2024-05-27T22:45:43.228;599617009188434948;8876.429;232
2024-05-27T22:45:43.236;599617009196126668;8884.119;213
2024-05-27T22:45:43.243;599617009203818388;8891.812;180
2024-05-27T22:45:43.251;599617009211510108;8899.503;152
2024-05-27T22:45:43.259;599617009219201828;8907.195;150
2024-05-27T22:45:43.266;599617009226893548;8914.887;119
2024-05-27T22:45:43.274;599617009234585268;8922.579;53
2024-05-27T22:45:43.282;599617009242276988;8930.2705;32
2024-05-27T22:45:43.289;599617009249968708;8937.963;68
2024-05-27T22:45:43.297;599617009257660428;8945.653;105
2024-05-27T22:45:43.305;599617009265352148;8953.345;117
2024-05-27T22:45:43.313;599617009273043868;8961.037;112
2024-05-27T22:45:43.320;599617009280735588;8968.729;107
2024-05-27T22:45:43.328;599617009288427308;8976.421;96
2024-05-27T22:45:43.336;599617009296109054;8984.103;91
2024-05-27T22:45:43.343;599617009303800913;8991.794;103
2024-05-27T22:45:43.351;599617009311492772;8999.486;112
2024-05-27T22:45:43.359;599617009319184631;9007.178;100
2024-05-27T22:45:43.366;599617009326876490;9014.87;79
2024-05-27T22:45:43.374;599617009334568349;9022.562;225
2024-05-27T22:45:43.382;599617009342260208;9030.254;638
2024-05-27T22:45:43.389;599617009349952067;9037.946;988
2024-05-27T22:45:43.397;599617009357643926;9045.637;763
2024-05-27T22:45:43.405;599617009365335785;9053.329;140
2024-05-27T22:45:43.413;599617009373027644;9061.0205;-98
2024-05-27T22:45:43.420;599617009380719503;9068.713;70
2024-05-27T22:45:43.428;599617009388411362;9076.404;14
2024-05-27T22:45:43.436;599617009396103221;9084.097;-161
2024-05-27T22:45:43.443;599617009403795080;9091.789;-98
2024-05-27T22:45:43.451;599617009411486939;9099.48;-46
2024-05-27T22:45:43.459;599617009419178798;9107.172;-115
2024-05-27T22:45:43.466;599617009426870657;9114.863;-103
2024-05-27T22:45:43.474;599617009434562516;9122.556;-79
2024-05-27T22:45:43.482;599617009442254375;9130.248;-119
2024-05-27T22:45:43.489;599617009449946234;9137.939;-122
2024-05-27T22:45:43.497;599617009457638093;9145.632;-86
2024-05-27T22:45:43.505;599617009465329952;9153.323;-53
2024-05-27T22:45:43.513;599617009473021811;9161.016;-35
2024-05-27T22:45:43.520;599617009480713670;9168.707;-37
2024-05-27T22:45:43.528;599617009488405529;9176.398;-16
2024-05-27T22:45:43.536;599617009496097388;9184.091;25
2024-05-27T22:45:43.543;599617009503789247;9191.782;25
2024-05-27T22:45:43.551;599617009511481106;9199.475;7
2024-05-27T22:45:43.559;599617009519172965;9207.166;49
2024-05-27T22:45:43.566;599617009526864824;9214.858;131
2024-05-27T22:45:43.574;599617009534556683;9222.551;164
2024-05-27T22:45:43.582;599617009542248542;9230.242;150
2024-05-27T22:45:43.589;599617009549940401;9237.934;159
2024-05-27T22:45:43.597;599617009557632260;9245.625;180
2024-05-27T22:45:43.605;599617009565324119;9253.317;150
2024-05-27T22:45:43.613;599617009573015978;9261.009;103
2024-05-27T22:45:43.620;599617009580707837;9268.701;75
2024-05-27T22:45:43.628;599617009588399696;9276.394;65
2024-05-27T22:45:43.636;599617009596091555;9284.085;79
2024-05-27T22:45:43.643;599617009603783414;9291.777;61
2024-05-27T22:45:43.651;599617009611475273;9299.469;28
2024-05-27T22:45:43.659;599617009619167132;9307.16;65
2024-05-27T22:45:43.666;599617009626858991;9314.853;110
2024-05-27T22:45:43.674;599617009634550850;9322.544;105
2024-05-27T22:45:43.682;599617009642242709;9330.236;112
2024-05-27T22:45:43.689;599617009649934568;9337.928;98
2024-05-27T22:45:43.697;599617009657626427;9345.62;37
2024-05-27T22:45:43.705;599617009665318286;9353.312;16
2024-05-27T22:45:43.713;599617009673010145;9361.004;23
2024-05-27T22:45:43.720;599617009680702004;9368.696;-21
2024-05-27T22:45:43.728;599617009688393863;9376.387;-44
2024-05-27T22:45:43.736;599617009696085722;9384.079;145
2024-05-27T22:45:43.743;599617009703777581;9391.7705;563
2024-05-27T22:45:43.751;599617009711469440;9399.463;882
2024-05-27T22:45:43.759;599617009719161299;9407.154;737
2024-05-27T22:45:43.766;599617009726853158;9414.847;255
2024-05-27T22:45:43.774;599617009734545017;9422.539;25
2024-05-27T22:45:43.782;599617009742236876;9430.23;169
2024-05-27T22:45:43.789;599617009749928735;9437.922;220
2024-05-27T22:45:43.797;599617009757620594;9445.613;124
2024-05-27T22:45:43.805;599617009765312453;9453.306;150
2024-05-27T22:45:43.812;599617009773004312;9460.998;232
2024-05-27T22:45:43.820;599617009780696171;9468.689;237
2024-05-27T22:45:43.828;599617009788388030;9476.382;208
2024-05-27T22:45:43.836;599617009796079889;9484.073;183
2024-05-27T22:45:43.843;599617009803771748;9491.766;185
2024-05-27T22:45:43.851;599617009811463607;9499.456;213
2024-05-27T22:45:43.859;599617009819155466;9507.148;223
2024-05-27T22:45:43.866;599617009826847325;9514.841;225
2024-05-27T22:45:43.874;599617009834539184;9522.532;241
2024-05-27T22:45:43.882;599617009842231043;9530.225;239
2024-05-27T22:45:43.889;599617009849922902;9537.916;204
2024-05-27T22:45:43.897;599617009857619790;9545.613;192
2024-05-27T22:45:43.905;599617009865311580;9553.305;208
2024-05-27T22:45:43.912;599617009873003370;9560.997;213
2024-05-27T22:45:43.920;599617009880695160;9568.688;241
2024-05-27T22:45:43.928;599617009888386950;9576.381;281
2024-05-27T22:45:43.936;599617009896078740;9584.071;197
2024-05-27T22:45:43.943;599617009903770530;9591.764;44
2024-05-27T22:45:43.951;599617009911462320;9599.455;18
2024-05-27T22:45:43.959;599617009919154110;9607.147;68
2024-05-27T22:45:43.966;599617009926845900;9614.839;7
2024-05-27T22:45:43.974;599617009934537690;9622.531;-115
2024-05-27T22:45:43.982;599617009942229480;9630.223;-150
2024-05-27T22:45:43.989;599617009949921270;9637.915;-136
2024-05-27T22:45:43.997;599617009957613060;9645.606;-161
2024-05-27T22:45:44.005;599617009965304850;9653.298;-173
2024-05-27T22:45:44.012;599617009972996640;9660.99;-133
2024-05-27T22:45:44.020;599617009980688430;9668.682;-124
2024-05-27T22:45:44.028;599617009988380220;9676.374;-147
2024-05-27T22:45:44.036;599617009996072010;9684.065;-110
2024-05-27T22:45:44.043;599617010003763800;9691.758;-25
2024-05-27T22:45:44.051;599617010011455590;9699.449;23
2024-05-27T22:45:44.059;599617010019147380;9707.142;7
2024-05-27T22:45:44.066;599617010026839170;9714.832;-39
2024-05-27T22:45:44.074;599617010034530960;9722.524;-53
2024-05-27T22:45:44.082;599617010042222750;9730.216;-77
2024-05-27T22:45:44.089;599617010049914540;9737.908;-107
2024-05-27T22:45:44.097;599617010057606330;9745.6;79
2024-05-27T22:45:44.105;599617010065298120;9753.292;511
2024-05-27T22:45:44.112;599617010072989910;9760.983;798
2024-05-27T22:45:44.120;599617010080681700;9768.676;631
2024-05-27T22:45:44.128;599617010088373490;9776.366;208
2024-05-27T22:45:44.136;599617010096065280;9784.059;37
2024-05-27T22:45:44.143;599617010103757070;9791.75;136
2024-05-27T22:45:44.151;599617010111448860;9799.442;136
2024-05-27T22:45:44.159;599617010119140650;9807.134;77
2024-05-27T22:45:44.166;599617010126832440;9814.826;145
2024-05-27T22:45:44.174;599617010134524230;9822.518;220
2024-05-27T22:45:44.182;599617010142216020;9830.21;213
2024-05-27T22:45:44.189;599617010149907810;9837.9;154
2024-05-27T22:45:44.197;599617010157599600;9845.593;91
2024-05-27T22:45:44.205;599617010165291390;9853.284;77
2024-05-27T22:45:44.212;599617010172983180;9860.977;103
2024-05-27T22:45:44.220;599617010180674970;9868.668;138
2024-05-27T22:45:44.228;599617010188366760;9876.36;164
2024-05-27T22:45:44.236;599617010196058550;9884.052;154
2024-05-27T22:45:44.243;599617010203750340;9891.744;124
2024-05-27T22:45:44.251;599617010211442130;9899.435;112
2024-05-27T22:45:44.259;599617010219133920;9907.127;161
2024-05-27T22:45:44.266;599617010226825710;9914.819;215
2024-05-27T22:45:44.274;599617010234517500;9922.511;206
2024-05-27T22:45:44.282;599617010242209290;9930.203;185
2024-05-27T22:45:44.289;599617010249901080;9937.895;213
2024-05-27T22:45:44.297;599617010257592870;9945.587;239
2024-05-27T22:45:44.305;599617010265284660;9953.278;237
2024-05-27T22:45:44.312;599617010272976450;9960.971;237
2024-05-27T22:45:44.320;599617010280668240;9968.661;232
2024-05-27T22:45:44.328;599617010288360030;9976.354;199
2024-05-27T22:45:44.336;599617010296051820;9984.045;147
2024-05-27T22:45:44.343;599617010303743610;9991.737;91
2024-05-27T22:45:44.351;599617010311435400;9999.429;68
2024-05-27T22:45:44.359;599617010319127190;10007.121;63
2024-05-27T22:45:44.366;599617010326818980;10014.8125;68
2024-05-27T22:45:44.374;599617010334510770;10022.505;105
2024-05-27T22:45:44.382;599617010342202560;10030.195;131
2024-05-27T22:45:44.389;599617010349894350;10037.888;107
2024-05-27T22:45:44.397;599617010357586140;10045.579;89
2024-05-27T22:45:44.405;599617010365277930;10053.271;112
2024-05-27T22:45:44.412;599617010372969720;10060.963;136
2024-05-27T22:45:44.420;599617010380661510;10068.655;136
2024-05-27T22:45:44.428;599617010388353300;10076.347;129
2024-05-27T22:45:44.436;599617010396045090;10084.039;65
2024-05-27T22:45:44.443;599617010403736880;10091.7295;-77
2024-05-27T22:45:44.451;599617010411428670;10099.422;-164
2024-05-27T22:45:44.459;599617010419120474;10107.113;-56
2024-05-27T22:45:44.466;599617010426812264;10114.806;272
2024-05-27T22:45:44.474;599617010434504054;10122.497;615
2024-05-27T22:45:44.482;599617010442195844;10130.189;568
2024-05-27T22:45:44.489;599617010449887634;10137.881;147
2024-05-27T22:45:44.497;599617010457579424;10145.573;-105
2024-05-27T22:45:44.505;599617010465271214;10153.264;-37
2024-05-27T22:45:44.512;599617010472963004;10160.956;7
2024-05-27T22:45:44.520;599617010480654794;10168.647;-30
2024-05-27T22:45:44.528;599617010488346584;10176.34;18
2024-05-27T22:45:44.536;599617010496038374;10184.031;77
2024-05-27T22:45:44.543;599617010503730164;10191.724;53
2024-05-27T22:45:44.551;599617010511421954;10199.416;53
2024-05-27T22:45:44.559;599617010519113744;10207.107;86
2024-05-27T22:45:44.566;599617010526805534;10214.8;77
2024-05-27T22:45:44.574;599617010534497324;10222.49;44
2024-05-27T22:45:44.582;599617010542189114;10230.183;58
2024-05-27T22:45:44.589;599617010549880904;10237.874;103
2024-05-27T22:45:44.597;599617010557572694;10245.566;107
2024-05-27T22:45:44.605;599617010565264484;10253.258;115
2024-05-27T22:45:44.612;599617010572956274;10260.95;143
2024-05-27T22:45:44.620;599617010580648064;10268.642;143
2024-05-27T22:45:44.628;599617010588339854;10276.334;124
2024-05-27T22:45:44.636;599617010596031644;10284.024;115
2024-05-27T22:45:44.643;599617010603723434;10291.717;136
2024-05-27T22:45:44.651;599617010611415224;10299.408;183
2024-05-27T22:45:44.659;599617010619107014;10307.101;199
2024-05-27T22:45:44.666;599617010626798804;10314.792;173
2024-05-27T22:45:44.674;599617010634490594;10322.484;147
2024-05-27T22:45:44.682;599617010642182384;10330.176;112
2024-05-27T22:45:44.689;599617010649874174;10337.868;61
2024-05-27T22:45:44.697;599617010657565964;10345.559;16
2024-05-27T22:45:44.705;599617010665257754;10353.251;-9
2024-05-27T22:45:44.712;599617010672949544;10360.942;-42
2024-05-27T22:45:44.720;599617010680641334;10368.635;-79
2024-05-27T22:45:44.728;599617010688333124;10376.326;-75
2024-05-27T22:45:44.736;599617010696024914;10384.019;-28
2024-05-27T22:45:44.743;599617010703716704;10391.71;-2
2024-05-27T22:45:44.751;599617010711408494;10399.402;4
2024-05-27T22:45:44.759;599617010719100284;10407.093;4
2024-05-27T22:45:44.766;599617010726792074;10414.785;7
2024-05-27T22:45:44.774;599617010734483864;10422.477;11
2024-05-27T22:45:44.782;599617010742175654;10430.169;14
2024-05-27T22:45:44.789;599617010749867444;10437.86;35
2024-05-27T22:45:44.797;599617010757559234;10445.553;63
2024-05-27T22:45:44.805;599617010765251024;10453.244;46
2024-05-27T22:45:44.812;599617010772942814;10460.937;-25
2024-05-27T22:45:44.820;599617010780634604;10468.629;-46
2024-05-27T22:45:44.828;599617010788326394;10476.319;178
2024-05-27T22:45:44.836;599617010796018184;10484.012;586
2024-05-27T22:45:44.843;599617010803709974;10491.703;788
2024-05-27T22:45:44.851;599617010811401764;10499.3955;561
2024-05-27T22:45:44.859;599617010819093554;10507.087;201
2024-05-27T22:45:44.866;599617010826785344;10514.779;105
2024-05-27T22:45:44.874;599617010834477134;10522.471;169
2024-05-27T22:45:44.882;599617010842168924;10530.163;166
2024-05-27T22:45:44.889;599617010849860714;10537.854;190
2024-05-27T22:45:44.897;599617010857552504;10545.546;246
2024-05-27T22:45:44.905;599617010865244294;10553.237;197
2024-05-27T22:45:44.912;599617010872936084;10560.93;157
2024-05-27T22:45:44.920;599617010880627874;10568.621;194
2024-05-27T22:45:44.928;599617010888319664;10576.313;152
2024-05-27T22:45:44.936;599617010896011454;10584.005;37
2024-05-27T22:45:44.943;599617010903703244;10591.697;-46
2024-05-27T22:45:44.951;599617010911395034;10599.388;-65
2024-05-27T22:45:44.959;599617010919086824;10607.08;-28
2024-05-27T22:45:44.966;599617010926778614;10614.771;-9
2024-05-27T22:45:44.974;599617010934470404;10622.464;2
2024-05-27T22:45:44.982;599617010942162194;10630.155;44
2024-05-27T22:45:44.989;599617010949853984;10637.848;49
2024-05-27T22:45:44.997;599617010957545774;10645.539;28
2024-05-27T22:45:45.005;599617010965237564;10653.231;68
2024-05-27T22:45:45.012;599617010972929354;10660.923;140
2024-05-27T22:45:45.020;599617010980621156;10668.614;194
2024-05-27T22:45:45.028;599617010988312946;10676.306;230
2024-05-27T22:45:45.035;599617010996004736;10683.998;230
2024-05-27T22:45:45.043;599617011003696526;10691.689;197
2024-05-27T22:45:45.051;599617011011388316;10699.382;154
2024-05-27T22:45:45.059;599617011019080106;10707.073;140
2024-05-27T22:45:45.066;599617011026771896;10714.766;152
2024-05-27T22:45:45.074;599617011034463686;10722.457;131
2024-05-27T22:45:45.082;599617011042155476;10730.148;37
2024-05-27T22:45:45.089;599617011049847266;10737.84;-35
2024-05-27T22:45:45.097;599617011057539056;10745.532;23
2024-05-27T22:45:45.105;599617011065230846;10753.225;79
2024-05-27T22:45:45.112;599617011072922636;10760.916;61
2024-05-27T22:45:45.120;599617011080614426;10768.608;72
2024-05-27T22:45:45.128;599617011088306216;10776.3;124
2024-05-27T22:45:45.135;599617011095998006;10783.992;145
2024-05-27T22:45:45.143;599617011103689796;10791.683;140
2024-05-27T22:45:45.151;599617011111381586;10799.375;159
2024-05-27T22:45:45.159;599617011119073376;10807.066;208
2024-05-27T22:45:45.166;599617011126765166;10814.759;225
2024-05-27T22:45:45.174;599617011134456956;10822.45;169
2024-05-27T22:45:45.182;599617011142148746;10830.143;89
2024-05-27T22:45:45.189;599617011149840536;10837.834;93
2024-05-27T22:45:45.197;599617011157532326;10845.526;277
2024-05-27T22:45:45.205;599617011165224116;10853.217;645
2024-05-27T22:45:45.212;599617011172915906;10860.909;953
2024-05-27T22:45:45.220;599617011180607696;10868.601;817
2024-05-27T22:45:45.228;599617011188299486;10876.293;352
2024-05-27T22:45:45.235;599617011195991276;10883.984;124
2024-05-27T22:45:45.243;599617011203683066;10891.677;230
2024-05-27T22:45:45.251;599617011211374856;10899.368;319
2024-05-27T22:45:45.259;599617011219066646;10907.061;295
2024-05-27T22:45:45.266;599617011226758436;10914.752;248
2024-05-27T22:45:45.274;599617011234450226;10922.443;201
2024-05-27T22:45:45.282;599617011242142016;10930.135;176
2024-05-27T22:45:45.289;599617011249833806;10937.827;183
2024-05-27T22:45:45.297;599617011257525596;10945.519;194
2024-05-27T22:45:45.305;599617011265217386;10953.211;183
2024-05-27T22:45:45.312;599617011272909176;10960.902;154
2024-05-27T22:45:45.320;599617011280600966;10968.595;131
2024-05-27T22:45:45.328;599617011288292756;10976.286;140
2024-05-27T22:45:45.335;599617011295984546;10983.978;169
2024-05-27T22:45:45.343;599617011303676336;10991.669;183
2024-05-27T22:45:45.351;599617011311368126;10999.361;145
2024-05-27T22:45:45.359;599617011319059916;11007.053;98
2024-05-27T22:45:45.366;599617011326751706;11014.745;103
2024-05-27T22:45:45.374;599617011334443496;11022.437;124
2024-05-27T22:45:45.382;599617011342135286;11030.129;115
2024-05-27T22:45:45.389;599617011349827076;11037.821;115
2024-05-27T22:45:45.397;599617011357518866;11045.512;124
2024-05-27T22:45:45.405;599617011365210656;11053.204;91
2024-05-27T22:45:45.412;599617011372902446;11060.8955;28
2024-05-27T22:45:45.420;599617011380594236;11068.588;-49
2024-05-27T22:45:45.428;599617011388286026;11076.279;-105
2024-05-27T22:45:45.435;599617011395977816;11083.972;-126
2024-05-27T22:45:45.443;599617011403669606;11091.663;-201
2024-05-27T22:45:45.451;599617011411361396;11099.355;-293
2024-05-27T22:45:45.459;599617011419053186;11107.047;-272
2024-05-27T22:45:45.466;599617011426744976;11114.738;-232
2024-05-27T22:45:45.474;599617011434436766;11122.43;-230
2024-05-27T22:45:45.482;599617011442128556;11130.122;-199
2024-05-27T22:45:45.489;599617011449820346;11137.813;-161
2024-05-27T22:45:45.497;599617011457512136;11145.506;-164
2024-05-27T22:45:45.505;599617011465203926;11153.197;-171
2024-05-27T22:45:45.512;599617011472895716;11160.89;-133
2024-05-27T22:45:45.520;599617011480587506;11168.581;-77
2024-05-27T22:45:45.528;599617011488279296;11176.272;-68
2024-05-27T22:45:45.535;599617011495971086;11183.964;-70
2024-05-27T22:45:45.543;599617011503662876;11191.656;-32
2024-05-27T22:45:45.551;599617011511354666;11199.348;-37
2024-05-27T22:45:45.559;599617011519046456;11207.04;-105
2024-05-27T22:45:45.566;599617011526738246;11214.731;-39
2024-05-27T22:45:45.574;599617011534430036;11222.424;323
2024-05-27T22:45:45.582;599617011542121838;11230.115;765
2024-05-27T22:45:45.589;599617011549813628;11237.807;807
2024-05-27T22:45:45.597;599617011557505418;11245.498;377
2024-05-27T22:45:45.605;599617011565197208;11253.19;46
2024-05-27T22:45:45.612;599617011572888998;11260.882;117
2024-05-27T22:45:45.620;599617011580580788;11268.574;201
2024-05-27T22:45:45.628;599617011588272578;11276.266;122
2024-05-27T22:45:45.635;599617011595964368;11283.958;91
2024-05-27T22:45:45.643;599617011603656158;11291.649;105
2024-05-27T22:45:45.651;599617011611347948;11299.342;49
2024-05-27T22:45:45.659;599617011619039738;11307.033;-28
2024-05-27T22:45:45.666;599617011626731528;11314.725;-72
2024-05-27T22:45:45.674;599617011634423318;11322.417;-105
2024-05-27T22:45:45.682;599617011642115108;11330.108;-131
2024-05-27T22:45:45.689;599617011649806898;11337.801;-112
2024-05-27T22:45:45.697;599617011657498688;11345.492;-49
2024-05-27T22:45:45.705;599617011665190478;11353.185;-18
2024-05-27T22:45:45.712;599617011672882268;11360.876;-25
2024-05-27T22:45:45.720;599617011680574058;11368.567;-30
2024-05-27T22:45:45.728;599617011688265848;11376.259;-28
2024-05-27T22:45:45.735;599617011695957638;11383.951;-37
2024-05-27T22:45:45.743;599617011703649428;11391.643;-37
2024-05-27T22:45:45.751;599617011711341218;11399.335;-11
2024-05-27T22:45:45.759;599617011719033008;11407.026;-7
2024-05-27T22:45:45.766;599617011726724798;11414.719;-58
2024-05-27T22:45:45.774;599617011734416588;11422.41;-110
2024-05-27T22:45:45.782;599617011742108378;11430.102;-124
2024-05-27T22:45:45.789;599617011749800168;11437.793;-126
2024-05-27T22:45:45.797;599617011757491958;11445.485;-138
2024-05-27T22:45:45.805;599617011765183748;11453.177;-154
2024-05-27T22:45:45.812;599617011772875538;11460.869;-140
2024-05-27T22:45:45.820;599617011780567328;11468.561;-115
2024-05-27T22:45:45.828;599617011788259118;11476.253;-117
2024-05-27T22:45:45.835;599617011795950908;11483.944;-133
2024-05-27T22:45:45.843;599617011803642698;11491.636;-110
2024-05-27T22:45:45.851;599617011811334488;11499.327;-72
2024-05-27T22:45:45.859;599617011819026278;11507.02;-65
2024-05-27T22:45:45.866;599617011826718068;11514.711;-53
2024-05-27T22:45:45.874;599617011834409858;11522.403;-28
2024-05-27T22:45:45.882;599617011842101648;11530.095;-4
2024-05-27T22:45:45.889;599617011849793438;11537.787;-4
2024-05-27T22:45:45.897;599617011857485228;11545.479;-32
2024-05-27T22:45:45.905;599617011865177018;11553.171;-25
2024-05-27T22:45:45.912;599617011872868808;11560.861;-42
2024-05-27T22:45:45.920;599617011880560598;11568.554;-136
2024-05-27T22:45:45.928;599617011888252388;11576.245;-206
2024-05-27T22:45:45.935;599617011895944178;11583.9375;-201
2024-05-27T22:45:45.943;599617011903635968;11591.63;-82
2024-05-27T22:45:45.951;599617011911327758;11599.321;215
2024-05-27T22:45:45.959;599617011919019548;11607.014;455
2024-05-27T22:45:45.966;599617011926711338;11614.705;253
2024-05-27T22:45:45.974;599617011934403128;11622.396;-150
2024-05-27T22:45:45.982;599617011942094918;11630.088;-223
2024-05-27T22:45:45.989;599617011949786708;11637.78;-105
2024-05-27T22:45:45.997;599617011957478498;11645.472;-157
2024-05-27T22:45:46.005;599617011965170288;11653.164;-258
2024-05-27T22:45:46.012;599617011972862078;11660.855;-241
2024-05-27T22:45:46.020;599617011980553868;11668.548;-183
2024-05-27T22:45:46.028;599617011988245658;11676.239;-131
2024-05-27T22:45:46.035;599617011995937448;11683.931;-110
2024-05-27T22:45:46.043;599617012003629238;11691.622;-122
2024-05-27T22:45:46.051;599617012011321028;11699.314;-105
2024-05-27T22:45:46.059;599617012019012818;11707.006;-44
2024-05-27T22:45:46.066;599617012026704608;11714.698;0
2024-05-27T22:45:46.074;599617012034396398;11722.39;7
2024-05-27T22:45:46.082;599617012042088188;11730.082;9
2024-05-27T22:45:46.089;599617012049779978;11737.773;53
2024-05-27T22:45:46.097;599617012057471768;11745.466;82
2024-05-27T22:45:46.105;599617012065163558;11753.156;46
2024-05-27T22:45:46.112;599617012072855348;11760.849;44
2024-05-27T22:45:46.120;599617012080547138;11768.54;65
2024-05-27T22:45:46.128;599617012088238928;11776.232;21
2024-05-27T22:45:46.135;599617012095930718;11783.924;-32
2024-05-27T22:45:46.143;599617012103592424;11791.585;-58
2024-05-27T22:45:46.151;599617012111284632;11799.277;-79
2024-05-27T22:45:46.158;599617012118976840;11806.97;-75
2024-05-27T22:45:46.166;599617012126669048;11814.662;-46
2024-05-27T22:45:46.174;599617012134361256;11822.3545;9
2024-05-27T22:45:46.182;599617012142053464;11830.047;32
2024-05-27T22:45:46.189;599617012149745672;11837.739;-56
2024-05-27T22:45:46.197;599617012157437880;11845.432;-129
2024-05-27T22:45:46.205;599617012165130088;11853.124;-89
2024-05-27T22:45:46.212;599617012172822296;11860.815;-42
2024-05-27T22:45:46.220;599617012180514504;11868.508;-32
2024-05-27T22:45:46.228;599617012188206712;11876.2;-16
2024-05-27T22:45:46.235;599617012195898920;11883.893;2
2024-05-27T22:45:46.243;599617012203591128;11891.584;35
2024-05-27T22:45:46.251;599617012211283336;11899.276;77
2024-05-27T22:45:46.258;599617012218975544;11906.969;110
2024-05-27T22:45:46.266;599617012226667752;11914.661;140
2024-05-27T22:45:46.274;599617012234359960;11922.354;154
2024-05-27T22:45:46.282;599617012242052168;11930.046;126
2024-05-27T22:45:46.289;599617012249744376;11937.737;133
2024-05-27T22:45:46.297;599617012257436584;11945.43;173
2024-05-27T22:45:46.305;599617012265128792;11953.122;129
2024-05-27T22:45:46.312;599617012272821000;11960.814;150
2024-05-27T22:45:46.320;599617012280513208;11968.507;453
2024-05-27T22:45:46.328;599617012288205416;11976.199;847
2024-05-27T22:45:46.335;599617012295897624;11983.892;906
2024-05-27T22:45:46.343;599617012303589832;11991.583;530
2024-05-27T22:45:46.351;599617012311282040;11999.275;164
2024-05-27T22:45:46.358;599617012318974248;12006.968;136
2024-05-27T22:45:46.366;599617012326666456;12014.659;161
2024-05-27T22:45:46.374;599617012334358664;12022.352;70
2024-05-27T22:45:46.382;599617012342050872;12030.044;39
2024-05-27T22:45:46.389;599617012349743080;12037.736;89
2024-05-27T22:45:46.397;599617012357435288;12045.429;103
2024-05-27T22:45:46.405;599617012365127496;12053.121;77
2024-05-27T22:45:46.412;599617012372819704;12060.813;51
2024-05-27T22:45:46.420;599617012380511912;12068.506;44
2024-05-27T22:45:46.428;599617012388204120;12076.198;44
2024-05-27T22:45:46.435;599617012395896328;12083.891;35
2024-05-27T22:45:46.443;599617012403588536;12091.581;-11
2024-05-27T22:45:46.451;599617012411280744;12099.273;-77
2024-05-27T22:45:46.458;599617012418972952;12106.966;-98
2024-05-27T22:45:46.466;599617012426665160;12114.658;-82
2024-05-27T22:45:46.474;599617012434357368;12122.351;-72
2024-05-27T22:45:46.482;599617012442049576;12130.043;-79
2024-05-27T22:45:46.489;599617012449741784;12137.735;-124
2024-05-27T22:45:46.497;599617012457433992;12145.428;-157
2024-05-27T22:45:46.505;599617012465126200;12153.12;-152
2024-05-27T22:45:46.512;599617012472818408;12160.8125;-164
2024-05-27T22:45:46.520;599617012480510616;12168.504;-187
2024-05-27T22:45:46.528;599617012488202824;12176.196;-164
2024-05-27T22:45:46.535;599617012495895032;12183.889;-119
2024-05-27T22:45:46.543;599617012503587240;12191.58;-89
2024-05-27T22:45:46.551;599617012511279448;12199.272;-82
2024-05-27T22:45:46.558;599617012518971656;12206.965;-89
2024-05-27T22:45:46.566;599617012526663864;12214.657;-79
2024-05-27T22:45:46.574;599617012534356072;12222.35;-58
2024-05-27T22:45:46.582;599617012542048280;12230.042;-53
2024-05-27T22:45:46.589;599617012549740488;12237.734;-28
2024-05-27T22:45:46.597;599617012557432696;12245.426;14
2024-05-27T22:45:46.605;599617012565124904;12253.118;9
2024-05-27T22:45:46.612;599617012572817112;12260.811;4
2024-05-27T22:45:46.620;599617012580509320;12268.503;32
2024-05-27T22:45:46.628;599617012588201528;12276.195;51
2024-05-27T22:45:46.635;599617012595893736;12283.887;72
2024-05-27T22:45:46.643;599617012603585944;12291.579;79
2024-05-27T22:45:46.651;599617012611278152;12299.271;25
2024-05-27T22:45:46.658;599617012618970360;12306.964;-18
2024-05-27T22:45:46.666;599617012626662568;12314.655;-16
2024-05-27T22:45:46.674;599617012634354776;12322.348;-75
2024-05-27T22:45:46.682;599617012642046984;12330.04;-84
2024-05-27T22:45:46.689;599617012649739192;12337.732;190
2024-05-27T22:45:46.697;599617012657431400;12345.425;617
2024-05-27T22:45:46.705;599617012665153720;12353.146;812
2024-05-27T22:45:46.712;599617012672845510;12360.839;549
2024-05-27T22:45:46.720;599617012680537300;12368.53;98
2024-05-27T22:45:46.728;599617012688229090;12376.223;-39
2024-05-27T22:45:46.735;599617012695920880;12383.914;49
2024-05-27T22:45:46.743;599617012703612670;12391.606;14
2024-05-27T22:45:46.751;599617012711304460;12399.298;-53
2024-05-27T22:45:46.758;599617012718996250;12406.99;-72
2024-05-27T22:45:46.766;599617012726688040;12414.681;-124
2024-05-27T22:45:46.774;599617012734379830;12422.373;-110
2024-05-27T22:45:46.782;599617012742071620;12430.064;-23
2024-05-27T22:45:46.789;599617012749763410;12437.757;-11
2024-05-27T22:45:46.797;599617012757455200;12445.448;-42
2024-05-27T22:45:46.805;599617012765146990;12453.141;-25
2024-05-27T22:45:46.812;599617012772838780;12460.832;18
2024-05-27T22:45:46.820;599617012780530570;12468.524;70
2024-05-27T22:45:46.828;599617012788222360;12476.215;100
2024-05-27T22:45:46.835;599617012795914150;12483.907;86
2024-05-27T22:45:46.843;599617012803605940;12491.599;70
2024-05-27T22:45:46.851;599617012811297730;12499.291;58
2024-05-27T22:45:46.858;599617012818989520;12506.982;23
2024-05-27T22:45:46.866;599617012826681310;12514.675;-28
2024-05-27T22:45:46.874;599617012834373100;12522.367;-46
2024-05-27T22:45:46.882;599617012842064890;12530.059;-35
2024-05-27T22:45:46.889;599617012849756680;12537.751;-37
2024-05-27T22:45:46.897;599617012857448470;12545.441;-72
2024-05-27T22:45:46.905;599617012865140260;12553.134;-103
2024-05-27T22:45:46.912;599617012872832050;12560.825;-98
2024-05-27T22:45:46.920;599617012880523840;12568.518;-86
2024-05-27T22:45:46.928;599617012888215630;12576.209;-77
2024-05-27T22:45:46.935;599617012895907420;12583.901;-65
2024-05-27T22:45:46.943;599617012903599210;12591.593;-84
2024-05-27T22:45:46.951;599617012911291000;12599.285;-119
2024-05-27T22:45:46.958;599617012918982790;12606.976;-98
2024-05-27T22:45:46.966;599617012926674580;12614.668;-86
2024-05-27T22:45:46.974;599617012934366370;12622.359;-112
2024-05-27T22:45:46.982;599617012942058160;12630.052;-75
2024-05-27T22:45:46.989;599617012949749950;12637.743;7
2024-05-27T22:45:46.997;599617012957441740;12645.436;44
2024-05-27T22:45:47.005;599617012965133530;12653.127;46
2024-05-27T22:45:47.012;599617012972825320;12660.819;72
2024-05-27T22:45:47.020;599617012980517110;12668.51;119
2024-05-27T22:45:47.028;599617012988208900;12676.202;136
2024-05-27T22:45:47.035;599617012995900690;12683.894;124
2024-05-27T22:45:47.043;599617013003592480;12691.586;122
2024-05-27T22:45:47.051;599617013011284270;12699.277;157
2024-05-27T22:45:47.058;599617013018976060;12706.97;342
2024-05-27T22:45:47.066;599617013026667850;12714.661;685
2024-05-27T22:45:47.074;599617013034359640;12722.354;927
2024-05-27T22:45:47.082;599617013042051430;12730.044;779
2024-05-27T22:45:47.089;599617013049743220;12737.736;352
2024-05-27T22:45:47.097;599617013057435010;12745.428;117
2024-05-27T22:45:47.105;599617013065126800;12753.12;192
2024-05-27T22:45:47.112;599617013072818590;12760.812;232
2024-05-27T22:45:47.120;599617013080510380;12768.504;150
2024-05-27T22:45:47.128;599617013088202170;12776.195;145
2024-05-27T22:45:47.135;599617013095893960;12783.888;248
2024-05-27T22:45:47.143;599617013103585750;12791.579;293
2024-05-27T22:45:47.151;599617013111277540;12799.2705;190
2024-05-27T22:45:47.158;599617013118969330;12806.963;107
2024-05-27T22:45:47.166;599617013126661120;12814.654;176
2024-05-27T22:45:47.174;599617013134352910;12822.347;255
2024-05-27T22:45:47.182;599617013142044700;12830.038;239
2024-05-27T22:45:47.189;599617013149736490;12837.73;241
2024-05-27T22:45:47.197;599617013157428280;12845.422;307
2024-05-27T22:45:47.205;599617013165120070;12853.114;298
2024-05-27T22:45:47.212;599617013172811860;12860.805;197
2024-05-27T22:45:47.220;599617013180503650;12868.497;154
2024-05-27T22:45:47.228;599617013188195440;12876.188;169
2024-05-27T22:45:47.235;599617013195887230;12883.881;136
2024-05-27T22:45:47.243;599617013203579020;12891.572;91
2024-05-27T22:45:47.251;599617013211270810;12899.265;91
2024-05-27T22:45:47.258;599617013218962600;12906.956;122
2024-05-27T22:45:47.266;599617013226654402;12914.648;136
2024-05-27T22:45:47.274;599617013234346192;12922.339;105
2024-05-27T22:45:47.282;599617013242037982;12930.031;100
2024-05-27T22:45:47.289;599617013249729772;12937.723;119
2024-05-27T22:45:47.297;599617013257421562;12945.415;63
2024-05-27T22:45:47.305;599617013265113352;12953.106;-11
2024-05-27T22:45:47.312;599617013272805142;12960.799;2
2024-05-27T22:45:47.320;599617013280496932;12968.49;35
2024-05-27T22:45:47.328;599617013288188722;12976.183;37
2024-05-27T22:45:47.335;599617013295880512;12983.874;28
2024-05-27T22:45:47.343;599617013303572302;12991.565;23
2024-05-27T22:45:47.351;599617013311264092;12999.257;44
2024-05-27T22:45:47.358;599617013318955882;13006.949;68
2024-05-27T22:45:47.366;599617013326647672;13014.641;68
2024-05-27T22:45:47.374;599617013334339462;13022.333;84
2024-05-27T22:45:47.382;599617013342031252;13030.024;103
2024-05-27T22:45:47.389;599617013349723042;13037.717;56
2024-05-27T22:45:47.397;599617013357414832;13045.408;-7
2024-05-27T22:45:47.405;599617013365106622;13053.1;-2
2024-05-27T22:45:47.412;599617013372798412;13060.791;2
2024-05-27T22:45:47.420;599617013380490202;13068.483;-30
2024-05-27T22:45:47.428;599617013388181992;13076.175;61
2024-05-27T22:45:47.435;599617013395873782;13083.867;389
2024-05-27T22:45:47.443;599617013403565572;13091.56;709
2024-05-27T22:45:47.451;599617013411257362;13099.251;615
2024-05-27T22:45:47.458;599617013418949152;13106.943;161
2024-05-27T22:45:47.466;599617013426640942;13114.634;-119
2024-05-27T22:45:47.474;599617013434332732;13122.326;-70
2024-05-27T22:45:47.482;599617013442024522;13130.018;-32
2024-05-27T22:45:47.489;599617013449716312;13137.71;-56
2024-05-27T22:45:47.497;599617013457408102;13145.401;9
2024-05-27T22:45:47.505;599617013465099892;13153.094;14
2024-05-27T22:45:47.512;599617013472791682;13160.785;-37
2024-05-27T22:45:47.520;599617013480483472;13168.478;32
2024-05-27T22:45:47.528;599617013488175262;13176.168;112
2024-05-27T22:45:47.535;599617013495867052;13183.86;70
2024-05-27T22:45:47.543;599617013503558842;13191.552;63
2024-05-27T22:45:47.551;599617013511250632;13199.244;154
2024-05-27T22:45:47.558;599617013518942422;13206.936;215
2024-05-27T22:45:47.566;599617013526634212;13214.628;204
2024-05-27T22:45:47.574;599617013534326002;13222.319;166
2024-05-27T22:45:47.582;599617013542017792;13230.012;129
2024-05-27T22:45:47.589;599617013549709582;13237.703;89
2024-05-27T22:45:47.597;599617013557401372;13245.395;96
2024-05-27T22:45:47.605;599617013565093162;13253.086;126
2024-05-27T22:45:47.612;599617013572784952;13260.778;51
2024-05-27T22:45:47.620;599617013580476742;13268.47;-21
2024-05-27T22:45:47.628;599617013588168532;13276.162;35
2024-05-27T22:45:47.635;599617013595860322;13283.854;58
2024-05-27T22:45:47.643;599617013603552112;13291.546;2
2024-05-27T22:45:47.651;599617013611243902;13299.237;35
2024-05-27T22:45:47.658;599617013618935692;13306.929;103
2024-05-27T22:45:47.666;599617013626627482;13314.62;91
2024-05-27T22:45:47.674;599617013634319272;13322.3125;77
2024-05-27T22:45:47.682;599617013642011062;13330.004;115
2024-05-27T22:45:47.689;599617013649702852;13337.696;154
2024-05-27T22:45:47.697;599617013657394642;13345.388;150
2024-05-27T22:45:47.705;599617013665086432;13353.08;133
2024-05-27T22:45:47.712;599617013672778222;13360.772;147
2024-05-27T22:45:47.720;599617013680470012;13368.463;176
2024-05-27T22:45:47.728;599617013688161802;13376.155;208
2024-05-27T22:45:47.735;599617013695853592;13383.847;213
2024-05-27T22:45:47.743;599617013703545382;13391.539;199
2024-05-27T22:45:47.751;599617013711237172;13399.23;208
2024-05-27T22:45:47.758;599617013718928962;13406.923;230
2024-05-27T22:45:47.766;599617013726620752;13414.614;255
2024-05-27T22:45:47.774;599617013734312542;13422.307;265
2024-05-27T22:45:47.781;599617013742004332;13429.998;225
2024-05-27T22:45:47.789;599617013749696122;13437.689;180
2024-05-27T22:45:47.797;599617013757387912;13445.381;244
2024-05-27T22:45:47.805;599617013765079702;13453.073;471
2024-05-27T22:45:47.812;599617013772771492;13460.765;798
2024-05-27T22:45:47.820;599617013780463282;13468.457;936
2024-05-27T22:45:47.828;599617013788145076;13476.138;617
2024-05-27T22:45:47.835;599617013795837005;13483.83;199
2024-05-27T22:45:47.843;599617013803528934;13491.522;161
2024-05-27T22:45:47.851;599617013811220863;13499.214;251
2024-05-27T22:45:47.858;599617013818912792;13506.906;201
2024-05-27T22:45:47.866;599617013826604721;13514.599;173
2024-05-27T22:45:47.874;599617013834296650;13522.29;133
2024-05-27T22:45:47.881;599617013841988579;13529.982;25
2024-05-27T22:45:47.889;599617013849680508;13537.674;11
2024-05-27T22:45:47.897;599617013857372437;13545.365;63
2024-05-27T22:45:47.905;599617013865064366;13553.058;56
2024-05-27T22:45:47.912;599617013872756295;13560.75;70
2024-05-27T22:45:47.920;599617013880448224;13568.441;133
2024-05-27T22:45:47.928;599617013888140153;13576.134;129
2024-05-27T22:45:47.935;599617013895832082;13583.826;53
2024-05-27T22:45:47.943;599617013903524011;13591.518;35
2024-05-27T22:45:47.951;599617013911215940;13599.209;42
2024-05-27T22:45:47.958;599617013918907869;13606.9;-30
2024-05-27T22:45:47.966;599617013926599798;13614.593;-138
2024-05-27T22:45:47.974;599617013934291727;13622.285;-159
2024-05-27T22:45:47.981;599617013941983656;13629.977;-129
2024-05-27T22:45:47.989;599617013949675585;13637.669;-159
2024-05-27T22:45:47.997;599617013957367514;13645.361;-157
2024-05-27T22:45:48.005;599617013965059443;13653.053;-53
2024-05-27T22:45:48.012;599617013972751372;13660.745;-14
2024-05-27T22:45:48.020;599617013980443301;13668.437;-46
2024-05-27T22:45:48.028;599617013988135230;13676.128;-28
2024-05-27T22:45:48.035;599617013995827159;13683.82;25
2024-05-27T22:45:48.043;599617014003519088;13691.513;51
2024-05-27T22:45:48.051;599617014011211017;13699.204;46
2024-05-27T22:45:48.058;599617014018902946;13706.896;53
2024-05-27T22:45:48.066;599617014026594875;13714.589;86
2024-05-27T22:45:48.074;599617014034286804;13722.28;96
2024-05-27T22:45:48.081;599617014041978733;13729.973;75
2024-05-27T22:45:48.089;599617014049670662;13737.664;77
2024-05-27T22:45:48.097;599617014057362591;13745.355;143
2024-05-27T22:45:48.105;599617014065054520;13753.048;208
2024-05-27T22:45:48.112;599617014072746449;13760.739;201
2024-05-27T22:45:48.120;599617014080438378;13768.432;173
2024-05-27T22:45:48.128;599617014088130307;13776.124;161
2024-05-27T22:45:48.135;599617014095822236;13783.815;133
2024-05-27T22:45:48.143;599617014103514165;13791.508;117
2024-05-27T22:45:48.151;599617014111206094;13799.2;126
2024-05-27T22:45:48.158;599617014118898023;13806.891;115
2024-05-27T22:45:48.166;599617014126589952;13814.583;115
2024-05-27T22:45:48.174;599617014134281881;13822.275;260
2024-05-27T22:45:48.181;599617014141973810;13829.967;619
2024-05-27T22:45:48.189;599617014149665739;13837.659;934
2024-05-27T22:45:48.197;599617014157357668;13845.352;767
2024-05-27T22:45:48.205;599617014165049597;13853.043;267
2024-05-27T22:45:48.212;599617014172741526;13860.735;58
2024-05-27T22:45:48.220;599617014180433455;13868.428;185
2024-05-27T22:45:48.228;599617014188125384;13876.118;204
2024-05-27T22:45:48.235;599617014195817313;13883.811;138
2024-05-27T22:45:48.243;599617014203509242;13891.503;183
2024-05-27T22:45:48.251;599617014211201171;13899.194;230
2024-05-27T22:45:48.258;599617014218893100;13906.887;211
2024-05-27T22:45:48.266;599617014226585029;13914.578;201
2024-05-27T22:45:48.274;599617014234276958;13922.2705;227
2024-05-27T22:45:48.281;599617014241968887;13929.963;262
2024-05-27T22:45:48.289;599617014249660816;13937.653;274
2024-05-27T22:45:48.297;599617014257352745;13945.346;246
2024-05-27T22:45:48.305;599617014265044674;13953.038;211
2024-05-27T22:45:48.312;599617014272736603;13960.7295;199
2024-05-27T22:45:48.320;599617014280428532;13968.422;152
2024-05-27T22:45:48.328;599617014288120461;13976.114;79
2024-05-27T22:45:48.335;599617014295812390;13983.806;68
2024-05-27T22:45:48.343;599617014303504319;13991.498;86
2024-05-27T22:45:48.351;599617014311196248;13999.19;79
2024-05-27T22:45:48.358;599617014318888177;14006.881;72
2024-05-27T22:45:48.366;599617014326580106;14014.573;86
2024-05-27T22:45:48.374;599617014334272035;14022.266;77
2024-05-27T22:45:48.381;599617014341963964;14029.957;44
2024-05-27T22:45:48.389;599617014349645922;14037.64;61
2024-05-27T22:45:48.397;599617014357337990;14045.331;93
2024-05-27T22:45:48.405;599617014365030058;14053.023;82
2024-05-27T22:45:48.412;599617014372722126;14060.715;93
2024-05-27T22:45:48.420;599617014380414194;14068.407;117
2024-05-27T22:45:48.428;599617014388106262;14076.1;119
2024-05-27T22:45:48.435;599617014395798330;14083.792;143
2024-05-27T22:45:48.443;599617014403490398;14091.484;178
2024-05-27T22:45:48.451;599617014411182466;14099.176;183
2024-05-27T22:45:48.458;599617014418874534;14106.868;166
2024-05-27T22:45:48.466;599617014426566602;14114.56;84
2024-05-27T22:45:48.474;599617014434258670;14122.252;-53
2024-05-27T22:45:48.481;599617014441950738;14129.944;-77
2024-05-27T22:45:48.489;599617014449642806;14137.636;-4
2024-05-27T22:45:48.497;599617014457334874;14145.328;-7
2024-05-27T22:45:48.505;599617014465026942;14153.0205;-32
2024-05-27T22:45:48.512;599617014472719010;14160.713;35
2024-05-27T22:45:48.520;599617014480411078;14168.404;82
2024-05-27T22:45:48.528;599617014488103146;14176.097;9
2024-05-27T22:45:48.535;599617014495795214;14183.788;-53
2024-05-27T22:45:48.543;599617014503487282;14191.48;68
2024-05-27T22:45:48.551;599617014511179350;14199.173;424
2024-05-27T22:45:48.558;599617014518871418;14206.864;779
2024-05-27T22:45:48.566;599617014526563486;14214.557;720
2024-05-27T22:45:48.574;599617014534255554;14222.249;279
2024-05-27T22:45:48.581;599617014541947622;14229.941;-4
2024-05-27T22:45:48.589;599617014549639690;14237.634;53
2024-05-27T22:45:48.597;599617014557331758;14245.325;98
2024-05-27T22:45:48.605;599617014565023826;14253.017;39
2024-05-27T22:45:48.612;599617014572715894;14260.709;58
2024-05-27T22:45:48.620;599617014580407962;14268.401;93
2024-05-27T22:45:48.628;599617014588100030;14276.093;63
2024-05-27T22:45:48.635;599617014595792098;14283.785;49
2024-05-27T22:45:48.643;599617014603484166;14291.478;91
2024-05-27T22:45:48.651;599617014611176234;14299.17;122
2024-05-27T22:45:48.658;599617014618868302;14306.862;126
2024-05-27T22:45:48.666;599617014626560370;14314.554;131
2024-05-27T22:45:48.674;599617014634252438;14322.246;117
2024-05-27T22:45:48.681;599617014641944506;14329.9375;75
2024-05-27T22:45:48.689;599617014649636574;14337.63;35
2024-05-27T22:45:48.697;599617014657328642;14345.322;14
2024-05-27T22:45:48.705;599617014665020710;14353.014;-14
2024-05-27T22:45:48.712;599617014672712778;14360.706;-35
2024-05-27T22:45:48.720;599617014680404846;14368.398;-16
2024-05-27T22:45:48.728;599617014688096914;14376.091;-4
2024-05-27T22:45:48.735;599617014695788982;14383.782;-2
2024-05-27T22:45:48.743;599617014703481050;14391.475;28
2024-05-27T22:45:48.751;599617014711173118;14399.166;70
2024-05-27T22:45:48.758;599617014718865186;14406.858;105
2024-05-27T22:45:48.766;599617014726557254;14414.551;133
2024-05-27T22:45:48.774;599617014734249322;14422.242;129
2024-05-27T22:45:48.781;599617014741941390;14429.935;131
2024-05-27T22:45:48.789;599617014749633458;14437.627;176
2024-05-27T22:45:48.797;599617014757325526;14445.319;190
2024-05-27T22:45:48.805;599617014765017594;14453.012;171
2024-05-27T22:45:48.812;599617014772709662;14460.703;197
2024-05-27T22:45:48.820;599617014780401730;14468.395;220
2024-05-27T22:45:48.828;599617014788093798;14476.087;208
2024-05-27T22:45:48.835;599617014795785866;14483.779;239
2024-05-27T22:45:48.843;599617014803477934;14491.471;295
2024-05-27T22:45:48.851;599617014811170002;14499.163;309
2024-05-27T22:45:48.858;599617014818862070;14506.855;319
2024-05-27T22:45:48.866;599617014826554138;14514.548;302
2024-05-27T22:45:48.874;599617014834246206;14522.24;248
2024-05-27T22:45:48.881;599617014841938274;14529.932;255
2024-05-27T22:45:48.889;599617014849630342;14537.624;288
2024-05-27T22:45:48.897;599617014857322410;14545.315;244
2024-05-27T22:45:48.905;599617014865014478;14553.008;183
2024-05-27T22:45:48.912;599617014872706546;14560.7;239
2024-05-27T22:45:48.920;599617014880398614;14568.392;495
2024-05-27T22:45:48.928;599617014888090682;14576.084;842
2024-05-27T22:45:48.935;599617014895782750;14583.776;932
2024-05-27T22:45:48.943;599617014903474818;14591.469;582
2024-05-27T22:45:48.951;599617014911186966;14599.181;201
2024-05-27T22:45:48.958;599617014918878756;14606.873;173
2024-05-27T22:45:48.966;599617014926570546;14614.563;220
2024-05-27T22:45:48.974;599617014934262336;14622.256;103
2024-05-27T22:45:48.981;599617014941954126;14629.947;56
2024-05-27T22:45:48.989;599617014949645916;14637.64;122
2024-05-27T22:45:48.997;599617014957337706;14645.331;136
2024-05-27T22:45:49.005;599617014965029496;14653.023;103
2024-05-27T22:45:49.012;599617014972721286;14660.715;68
2024-05-27T22:45:49.020;599617014980413076;14668.407;53
2024-05-27T22:45:49.028;599617014988104866;14676.098;82
2024-05-27T22:45:49.035;599617014995796656;14683.79;124
2024-05-27T22:45:49.043;599617015003488446;14691.481;110
2024-05-27T22:45:49.051;599617015011180236;14699.174;53
2024-05-27T22:45:49.058;599617015018872026;14706.865;35
2024-05-27T22:45:49.066;599617015026563816;14714.558;28
2024-05-27T22:45:49.074;599617015034255606;14722.249;0
2024-05-27T22:45:49.081;599617015041947396;14729.941;-14
2024-05-27T22:45:49.089;599617015049639186;14737.632;-4
2024-05-27T22:45:49.097;599617015057330976;14745.324;-11
2024-05-27T22:45:49.105;599617015065022766;14753.016;-18
2024-05-27T22:45:49.112;599617015072714556;14760.708;-2
2024-05-27T22:45:49.120;599617015080406346;14768.399;11
2024-05-27T22:45:49.128;599617015088098136;14776.092;11
2024-05-27T22:45:49.135;599617015095789926;14783.783;14
2024-05-27T22:45:49.143;599617015103481716;14791.476;28
2024-05-27T22:45:49.151;599617015111173506;14799.166;53
2024-05-27T22:45:49.158;599617015118865296;14806.858;72
2024-05-27T22:45:49.166;599617015126557086;14814.55;82
2024-05-27T22:45:49.174;599617015134248876;14822.242;107
2024-05-27T22:45:49.181;599617015141940666;14829.934;131
2024-05-27T22:45:49.189;599617015149632456;14837.626;117
2024-05-27T22:45:49.197;599617015157324246;14845.317;112
2024-05-27T22:45:49.205;599617015165016036;14853.01;161
2024-05-27T22:45:49.212;599617015172707826;14860.702;211
2024-05-27T22:45:49.220;599617015180399616;14868.393;225
2024-05-27T22:45:49.228;599617015188091406;14876.085;230
2024-05-27T22:45:49.235;599617015195783196;14883.776;239
2024-05-27T22:45:49.243;599617015203474986;14891.469;246
2024-05-27T22:45:49.251;599617015211166776;14899.16;258
2024-05-27T22:45:49.258;599617015218858566;14906.853;272
2024-05-27T22:45:49.266;599617015226550356;14914.544;274
2024-05-27T22:45:49.274;599617015234242146;14922.236;223
2024-05-27T22:45:49.281;599617015241933936;14929.927;178
2024-05-27T22:45:49.289;599617015249625726;14937.619;331
2024-05-27T22:45:49.297;599617015257317516;14945.311;690
2024-05-27T22:45:49.305;599617015265009306;14953.003;917
2024-05-27T22:45:49.312;599617015272701096;14960.694;685
2024-05-27T22:45:49.320;599617015280392886;14968.387;269
2024-05-27T22:45:49.328;599617015288084676;14976.078;157
2024-05-27T22:45:49.335;599617015295776466;14983.7705;251
2024-05-27T22:45:49.343;599617015303468256;14991.461;232
2024-05-27T22:45:49.351;599617015311160046;14999.153;180
2024-05-27T22:45:49.358;599617015318851836;15006.845;190
2024-05-27T22:45:49.366;599617015326543626;15014.537;159
2024-05-27T22:45:49.374;599617015334235416;15022.229;117
2024-05-27T22:45:49.381;599617015341927206;15029.921;140
2024-05-27T22:45:49.389;599617015349618996;15037.612;185
2024-05-27T22:45:49.397;599617015357310786;15045.305;201
2024-05-27T22:45:49.404;599617015365002576;15052.995;206
2024-05-27T22:45:49.412;599617015372694366;15060.6875;190
2024-05-27T22:45:49.420;599617015380386156;15068.379;138
2024-05-27T22:45:49.428;599617015388077946;15076.071;93
2024-05-27T22:45:49.435;599617015395769736;15083.763;63
2024-05-27T22:45:49.443;599617015403461526;15091.455;42
2024-05-27T22:45:49.451;599617015411153316;15099.146;46
2024-05-27T22:45:49.458;599617015418845106;15106.839;30
2024-05-27T22:45:49.466;599617015426536896;15114.53;-44
2024-05-27T22:45:49.474;599617015434228686;15122.222;-126
2024-05-27T22:45:49.481;599617015441920476;15129.913;-136
2024-05-27T22:45:49.489;599617015449612266;15137.605;-98
2024-05-27T22:45:49.497;599617015457304056;15145.298;-77
2024-05-27T22:45:49.504;599617015464995846;15152.989;-58
2024-05-27T22:45:49.512;599617015472662592;15160.656;-44
2024-05-27T22:45:49.520;599617015480354730;15168.349;-51
2024-05-27T22:45:49.528;599617015488046868;15176.04;-39
2024-05-27T22:45:49.535;599617015495739006;15183.732;-7
2024-05-27T22:45:49.543;599617015503431144;15191.424;9
2024-05-27T22:45:49.551;599617015511123282;15199.116;2
2024-05-27T22:45:49.558;599617015518815420;15206.809;2
2024-05-27T22:45:49.566;599617015526507558;15214.501;28
2024-05-27T22:45:49.574;599617015534199696;15222.193;49
2024-05-27T22:45:49.581;599617015541891834;15229.886;11
2024-05-27T22:45:49.589;599617015549583972;15237.578;-21
2024-05-27T22:45:49.597;599617015557276110;15245.269;2
2024-05-27T22:45:49.604;599617015564968248;15252.961;-21
2024-05-27T22:45:49.612;599617015572660386;15260.653;-82
2024-05-27T22:45:49.620;599617015580352524;15268.346;-53
2024-05-27T22:45:49.628;599617015588044662;15276.038;14
2024-05-27T22:45:49.635;599617015595736800;15283.73;28
2024-05-27T22:45:49.643;599617015603428938;15291.423;-7
2024-05-27T22:45:49.651;599617015611121076;15299.114;-56
2024-05-27T22:45:49.658;599617015618813214;15306.807;-18
2024-05-27T22:45:49.666;599617015626505352;15314.499;239
2024-05-27T22:45:49.674;599617015634197490;15322.19;615
2024-05-27T22:45:49.681;599617015641889628;15329.883;732
2024-05-27T22:45:49.689;599617015649581766;15337.575;410
2024-05-27T22:45:49.697;599617015657273904;15345.268;30
2024-05-27T22:45:49.704;599617015664966042;15352.959;0
2024-05-27T22:45:49.712;599617015672658180;15360.651;119
2024-05-27T22:45:49.720;599617015680350318;15368.344;107
2024-05-27T22:45:49.728;599617015688042456;15376.036;93
2024-05-27T22:45:49.735;599617015695734594;15383.729;126
2024-05-27T22:45:49.743;599617015703426732;15391.421;119
2024-05-27T22:45:49.751;599617015711118870;15399.112;124
2024-05-27T22:45:49.758;599617015718811008;15406.804;178
2024-05-27T22:45:49.766;599617015726503146;15414.496;215
2024-05-27T22:45:49.774;599617015734195284;15422.188;237
2024-05-27T22:45:49.781;599617015741887422;15429.881;241
2024-05-27T22:45:49.789;599617015749579560;15437.573;215
2024-05-27T22:45:49.797;599617015757271698;15445.266;199
2024-05-27T22:45:49.804;599617015764963836;15452.958;187
2024-05-27T22:45:49.812;599617015772655974;15460.649;150
2024-05-27T22:45:49.820;599617015780348112;15468.341;107
2024-05-27T22:45:49.828;599617015788040250;15476.033;86
2024-05-27T22:45:49.835;599617015795732388;15483.726;86
2024-05-27T22:45:49.843;599617015803424526;15491.418;103
2024-05-27T22:45:49.851;599617015811116664;15499.11;107
2024-05-27T22:45:49.858;599617015818808802;15506.802;98
2024-05-27T22:45:49.866;599617015826500940;15514.494;122
2024-05-27T22:45:49.874;599617015834193078;15522.187;152
2024-05-27T22:45:49.881;599617015841885216;15529.879;138
2024-05-27T22:45:49.889;599617015849577354;15537.571;133
2024-05-27T22:45:49.897;599617015857269492;15545.263;173
2024-05-27T22:45:49.904;599617015864961630;15552.955;194
2024-05-27T22:45:49.912;599617015872653768;15560.646;183
2024-05-27T22:45:49.920;599617015880345906;15568.339;190
2024-05-27T22:45:49.928;599617015888038044;15576.031;208
2024-05-27T22:45:49.935;599617015895730182;15583.724;208
2024-05-27T22:45:49.943;599617015903422320;15591.416;208
2024-05-27T22:45:49.951;599617015911114458;15599.108;232
2024-05-27T22:45:49.958;599617015918806596;15606.801;269
2024-05-27T22:45:49.966;599617015926498734;15614.491;288
2024-05-27T22:45:49.974;599617015934190872;15622.184;225
2024-05-27T22:45:49.981;599617015941883010;15629.876;129
2024-05-27T22:45:49.989;599617015949575148;15637.568;124
2024-05-27T22:45:49.997;599617015957267286;15645.261;178
2024-05-27T22:45:50.004;599617015964959424;15652.953;185
2024-05-27T22:45:50.012;599617015972651562;15660.6455;180
2024-05-27T22:45:50.020;599617015980343700;15668.337;159
2024-05-27T22:45:50.028;599617015988035838;15676.029;84
2024-05-27T22:45:50.035;599617015995727976;15683.722;112
2024-05-27T22:45:50.043;599617016003420114;15691.413;441
2024-05-27T22:45:50.051;599617016011112252;15699.105;868
2024-05-27T22:45:50.058;599617016018804390;15706.798;887
2024-05-27T22:45:50.066;599617016026496528;15714.49;417
2024-05-27T22:45:50.074;599617016034208792;15722.202;42
2024-05-27T22:45:50.081;599617016041900651;15729.895;115
2024-05-27T22:45:50.089;599617016049592510;15737.586;230
2024-05-27T22:45:50.097;599617016057284369;15745.278;133
2024-05-27T22:45:50.104;599617016064976228;15752.969;65
2024-05-27T22:45:50.112;599617016072668087;15760.661;84
2024-05-27T22:45:50.120;599617016080359946;15768.354;21
2024-05-27T22:45:50.128;599617016088051805;15776.045;-61
2024-05-27T22:45:50.135;599617016095743664;15783.737;-21
2024-05-27T22:45:50.143;599617016103435523;15791.429;46
2024-05-27T22:45:50.151;599617016111127382;15799.121;32
2024-05-27T22:45:50.158;599617016118819241;15806.8125;-9
2024-05-27T22:45:50.166;599617016126511100;15814.505;-16
2024-05-27T22:45:50.174;599617016134202959;15822.196;-18
2024-05-27T22:45:50.181;599617016141894818;15829.888;-49
2024-05-27T22:45:50.189;599617016149586677;15837.58;-68
2024-05-27T22:45:50.197;599617016157278536;15845.271;-61
2024-05-27T22:45:50.204;599617016164970395;15852.964;-56
2024-05-27T22:45:50.212;599617016172662254;15860.656;-53
2024-05-27T22:45:50.220;599617016180354113;15868.348;-23
2024-05-27T22:45:50.228;599617016188045972;15876.04;28
2024-05-27T22:45:50.235;599617016195737831;15883.73;65
2024-05-27T22:45:50.243;599617016203429690;15891.423;79
2024-05-27T22:45:50.251;599617016211121549;15899.114;86
2024-05-27T22:45:50.258;599617016218813408;15906.807;100
2024-05-27T22:45:50.266;599617016226505267;15914.499;124
2024-05-27T22:45:50.274;599617016234197126;15922.19;143
2024-05-27T22:45:50.281;599617016241888985;15929.883;157
2024-05-27T22:45:50.289;599617016249580844;15937.574;173
2024-05-27T22:45:50.297;599617016257272703;15945.267;173
2024-05-27T22:45:50.304;599617016264964562;15952.957;166
2024-05-27T22:45:50.312;599617016272656421;15960.649;183
2024-05-27T22:45:50.320;599617016280348280;15968.342;218
2024-05-27T22:45:50.328;599617016288040139;15976.033;246
2024-05-27T22:45:50.335;599617016295731998;15983.726;241
2024-05-27T22:45:50.343;599617016303423857;15991.417;206
