Phone timestamp;sensor timestamp [ns];timestamp [ms];ecg [uV]
2024-05-27T22:32:55.551;599616241486320844;0.0;453
2024-05-27T22:32:55.558;599616241494012564;7.69172;1448
2024-05-27T22:32:55.566;599616241501704284;15.38344;2509
2024-05-27T22:32:55.574;599616241509396004;23.07516;3256
2024-05-27T22:32:55.581;599616241517087724;30.76688;3970
2024-05-27T22:32:55.589;599616241524779444;38.4586;4733
2024-05-27T22:32:55.597;599616241532471164;46.15032;5392
2024-05-27T22:32:55.604;599616241540162884;53.84204;6019
2024-05-27T22:32:55.612;599616241547854604;61.53376;6665
2024-05-27T22:32:55.620;599616241555546324;69.22548;7219
2024-05-27T22:32:55.627;599616241563238044;76.9172;7684
2024-05-27T22:32:55.635;599616241570929764;84.60892;8191
2024-05-27T22:32:55.643;599616241578621484;92.30064;8689
2024-05-27T22:32:55.650;599616241586313204;99.99236;9090
2024-05-27T22:32:55.658;599616241594004924;107.68408;9515
2024-05-27T22:32:55.666;599616241601696644;115.3758;9980
2024-05-27T22:32:55.674;599616241609388364;123.06752;10330
2024-05-27T22:32:55.681;599616241617080084;130.75925;10607
2024-05-27T22:32:55.689;599616241624771804;138.45096;10952
2024-05-27T22:32:55.697;599616241632463524;146.14268;11347
2024-05-27T22:32:55.704;599616241640155244;153.8344;11680
2024-05-27T22:32:55.712;599616241647846964;161.52611;11915
2024-05-27T22:32:55.720;599616241655538684;169.21783;12135
2024-05-27T22:32:55.727;599616241663230404;176.90956;12434
2024-05-27T22:32:55.735;599616241670922124;184.60127;12694
2024-05-27T22:32:55.743;599616241678613844;192.293;12859
2024-05-27T22:32:55.750;599616241686305564;199.98473;13110
2024-05-27T22:32:55.758;599616241693997284;207.67645;13406
2024-05-27T22:32:55.766;599616241701689004;215.36816;13525
2024-05-27T22:32:55.774;599616241709380724;223.05988;13589
2024-05-27T22:32:55.781;599616241717072444;230.7516;13800
2024-05-27T22:32:55.789;599616241724764164;238.44333;14042
2024-05-27T22:32:55.797;599616241732455884;246.13504;14176
2024-05-27T22:32:55.804;599616241740147604;253.82675;14267
2024-05-27T22:32:55.812;599616241747839324;261.5185;14471
2024-05-27T22:32:55.820;599616241755531044;269.2102;14673
2024-05-27T22:32:55.827;599616241763222764;276.90192;14582
2024-05-27T22:32:55.835;599616241770914484;284.59363;14476
2024-05-27T22:32:55.843;599616241778606204;292.28537;14702
2024-05-27T22:32:55.850;599616241786297924;299.97708;14892
2024-05-27T22:32:55.858;599616241793989644;307.6688;14795
2024-05-27T22:32:55.866;599616241801681364;315.3605;14763
2024-05-27T22:32:55.874;599616241809373084;323.05222;14934
2024-05-27T22:32:55.881;599616241817064804;330.74396;15030
2024-05-27T22:32:55.889;599616241824756524;338.43567;15011
2024-05-27T22:32:55.897;599616241832448244;346.12738;15021
2024-05-27T22:32:55.904;599616241840139964;353.81912;15061
2024-05-27T22:32:55.912;599616241847831684;361.51083;15075
2024-05-27T22:32:55.920;599616241855523404;369.20255;15026
2024-05-27T22:32:55.927;599616241863215124;376.8943;14993
2024-05-27T22:32:55.935;599616241870906844;384.586;15075
2024-05-27T22:32:55.943;599616241878598564;392.27774;15103
2024-05-27T22:32:55.950;599616241886290284;399.96945;15021
2024-05-27T22:32:55.958;599616241893982004;407.66116;15216
2024-05-27T22:32:55.966;599616241901673724;415.3529;15690
2024-05-27T22:32:55.974;599616241909365444;423.04462;15836
2024-05-27T22:32:55.981;599616241917057164;430.73633;15394
2024-05-27T22:32:55.989;599616241924748884;438.42804;14856
2024-05-27T22:32:55.997;599616241932440604;446.11975;14699
2024-05-27T22:32:56.004;599616241940132324;453.8115;14746
2024-05-27T22:32:56.012;599616241947824044;461.5032;14640
2024-05-27T22:32:56.020;599616241955515764;469.19492;14542
2024-05-27T22:32:56.027;599616241963207484;476.88666;14629
2024-05-27T22:32:56.035;599616241970899204;484.57837;14608
2024-05-27T22:32:56.043;599616241978590924;492.27008;14375
2024-05-27T22:32:56.050;599616241986282644;499.9618;14284
2024-05-27T22:32:56.058;599616241993974364;507.6535;14450
2024-05-27T22:32:56.066;599616242001666084;515.3453;14509
2024-05-27T22:32:56.074;599616242009357804;523.037;14209
2024-05-27T22:32:56.081;599616242017049524;530.7287;13934
2024-05-27T22:32:56.089;599616242024741244;538.4204;13922
2024-05-27T22:32:56.097;599616242032432964;546.1121;13835
2024-05-27T22:32:56.104;599616242040124684;553.80383;13631
2024-05-27T22:32:56.112;599616242047796352;561.4755;13593
2024-05-27T22:32:56.120;599616242055488351;569.1675;13661
2024-05-27T22:32:56.127;599616242063180350;576.8595;13589
2024-05-27T22:32:56.135;599616242070872349;584.5515;13434
2024-05-27T22:32:56.143;599616242078564348;592.2435;13319
2024-05-27T22:32:56.150;599616242086256347;599.9355;13190
2024-05-27T22:32:56.158;599616242093948346;607.6275;13035
2024-05-27T22:32:56.166;599616242101640345;615.31946;12943
2024-05-27T22:32:56.174;599616242109332344;623.01154;12962
2024-05-27T22:32:56.181;599616242117024343;630.7035;12896
2024-05-27T22:32:56.189;599616242124716342;638.3955;12570
2024-05-27T22:32:56.197;599616242132408341;646.08746;12283
2024-05-27T22:32:56.204;599616242140100340;653.77954;12288
2024-05-27T22:32:56.212;599616242147792339;661.4715;12295
2024-05-27T22:32:56.220;599616242155484338;669.1635;12091
2024-05-27T22:32:56.227;599616242163176337;676.85547;11896
2024-05-27T22:32:56.235;599616242170868336;684.54755;11868
2024-05-27T22:32:56.243;599616242178560335;692.2395;11823
2024-05-27T22:32:56.250;599616242186252334;699.9315;11682
2024-05-27T22:32:56.258;599616242193944333;707.6235;11656
2024-05-27T22:32:56.266;599616242201636332;715.3154;11642
2024-05-27T22:32:56.274;599616242209328331;723.0075;11433
2024-05-27T22:32:56.281;599616242217020330;730.69946;11231
2024-05-27T22:32:56.289;599616242224712329;738.3915;11088
2024-05-27T22:32:56.297;599616242232404328;746.08344;10926
2024-05-27T22:32:56.304;599616242240096327;753.7755;10893
2024-05-27T22:32:56.312;599616242247788326;761.46747;10842
2024-05-27T22:32:56.320;599616242255480325;769.1595;10562
2024-05-27T22:32:56.327;599616242263172324;776.85144;10377
2024-05-27T22:32:56.335;599616242270864323;784.5435;10342
2024-05-27T22:32:56.343;599616242278556322;792.2355;10205
2024-05-27T22:32:56.350;599616242286248321;799.9275;10107
2024-05-27T22:32:56.358;599616242293940320;807.61945;10088
2024-05-27T22:32:56.366;599616242301632319;815.31146;9928
2024-05-27T22:32:56.374;599616242309324318;823.0035;9748
2024-05-27T22:32:56.381;599616242317016317;830.6955;9717
2024-05-27T22:32:56.389;599616242324708316;838.38745;9691
2024-05-27T22:32:56.397;599616242332400315;846.07947;9581
2024-05-27T22:32:56.404;599616242340092314;853.7715;9454
2024-05-27T22:32:56.412;599616242347784313;861.4635;9353
2024-05-27T22:32:56.420;599616242355476312;869.15546;9283
2024-05-27T22:32:56.427;599616242363168311;876.8475;9179
2024-05-27T22:32:56.435;599616242370860310;884.5394;9067
2024-05-27T22:32:56.443;599616242378552309;892.2315;9046
2024-05-27T22:32:56.450;599616242386244308;899.92346;9003
2024-05-27T22:32:56.458;599616242393936307;907.6155;8823
2024-05-27T22:32:56.466;599616242401628306;915.30743;8684
2024-05-27T22:32:56.473;599616242409320305;922.9995;8682
2024-05-27T22:32:56.481;599616242417012304;930.69147;8644
2024-05-27T22:32:56.489;599616242424704303;938.3835;8517
2024-05-27T22:32:56.497;599616242432396302;946.07544;8414
2024-05-27T22:32:56.504;599616242440088301;953.7675;8348
2024-05-27T22:32:56.512;599616242447780300;961.4595;8266
2024-05-27T22:32:56.520;599616242455472299;969.1514;8149
2024-05-27T22:32:56.527;599616242463164298;976.84344;8064
2024-05-27T22:32:56.535;599616242470856297;984.5354;8055
2024-05-27T22:32:56.543;599616242478548296;992.2275;7994
2024-05-27T22:32:56.550;599616242486240295;999.91943;7862
2024-05-27T22:32:56.558;599616242493932294;1007.61145;7757
2024-05-27T22:32:56.566;599616242501624293;1015.3034;7663
2024-05-27T22:32:56.573;599616242509316292;1022.9955;7576
2024-05-27T22:32:56.581;599616242517008291;1030.6874;7416
2024-05-27T22:32:56.589;599616242524700290;1038.3795;7179
2024-05-27T22:32:56.597;599616242532392289;1046.0714;7085
2024-05-27T22:32:56.604;599616242540084288;1053.7634;7064
2024-05-27T22:32:56.612;599616242547776287;1061.4554;6954
2024-05-27T22:32:56.620;599616242555468286;1069.1475;6900
2024-05-27T22:32:56.627;599616242563160285;1076.8395;6921
2024-05-27T22:32:56.635;599616242570852284;1084.5315;6832
2024-05-27T22:32:56.643;599616242578544283;1092.2235;6670
2024-05-27T22:32:56.650;599616242586236282;1099.9154;6625
2024-05-27T22:32:56.658;599616242593928281;1107.6074;6630
2024-05-27T22:32:56.666;599616242601620280;1115.2994;6552
2024-05-27T22:32:56.673;599616242609282195;1122.9614;6463
2024-05-27T22:32:56.681;599616242616974612;1130.6538;6411
2024-05-27T22:32:56.689;599616242624667029;1138.3462;6313
2024-05-27T22:32:56.697;599616242632359446;1146.0387;6212
2024-05-27T22:32:56.704;599616242640051863;1153.7311;6296
2024-05-27T22:32:56.712;599616242647744280;1161.4235;6632
2024-05-27T22:32:56.720;599616242655436697;1169.1158;6944
2024-05-27T22:32:56.727;599616242663129114;1176.8083;6768
2024-05-27T22:32:56.735;599616242670821531;1184.5007;6132
2024-05-27T22:32:56.743;599616242678513948;1192.1931;5733
2024-05-27T22:32:56.750;599616242686206365;1199.8856;5773
2024-05-27T22:32:56.758;599616242693898782;1207.578;5672
2024-05-27T22:32:56.766;599616242701591199;1215.2704;5414
2024-05-27T22:32:56.773;599616242709283616;1222.9628;5381
2024-05-27T22:32:56.781;599616242716976033;1230.6553;5371
2024-05-27T22:32:56.789;599616242724668450;1238.3477;5242
2024-05-27T22:32:56.797;599616242732360867;1246.04;5205
2024-05-27T22:32:56.804;599616242740053284;1253.7324;5205
2024-05-27T22:32:56.812;599616242747745701;1261.4249;5073
2024-05-27T22:32:56.820;599616242755438118;1269.1173;4928
2024-05-27T22:32:56.827;599616242763130535;1276.8097;4881
2024-05-27T22:32:56.835;599616242770822952;1284.5022;4869
2024-05-27T22:32:56.843;599616242778515369;1292.1946;4824
2024-05-27T22:32:56.850;599616242786207786;1299.887;4763
2024-05-27T22:32:56.858;599616242793900203;1307.5793;4744
2024-05-27T22:32:56.866;599616242801592620;1315.2719;4726
2024-05-27T22:32:56.873;599616242809285037;1322.9642;4643
2024-05-27T22:32:56.881;599616242816977454;1330.6566;4568
2024-05-27T22:32:56.889;599616242824669871;1338.349;4559
2024-05-27T22:32:56.897;599616242832362288;1346.0415;4557
2024-05-27T22:32:56.904;599616242840054705;1353.7339;4507
2024-05-27T22:32:56.912;599616242847747122;1361.4263;4423
2024-05-27T22:32:56.920;599616242855439539;1369.1188;4369
2024-05-27T22:32:56.927;599616242863131956;1376.8112;4338
2024-05-27T22:32:56.935;599616242870824373;1384.5035;4233
2024-05-27T22:32:56.943;599616242878516790;1392.1959;4108
2024-05-27T22:32:56.950;599616242886209207;1399.8884;4082
2024-05-27T22:32:56.958;599616242893901624;1407.5808;4054
2024-05-27T22:32:56.966;599616242901594041;1415.2732;3941
2024-05-27T22:32:56.973;599616242909286458;1422.9656;3864
2024-05-27T22:32:56.981;599616242916978875;1430.6581;3866
2024-05-27T22:32:56.989;599616242924671292;1438.3505;3848
2024-05-27T22:32:56.997;599616242932363709;1446.0428;3779
2024-05-27T22:32:57.004;599616242940056126;1453.7354;3693
2024-05-27T22:32:57.012;599616242947748543;1461.4277;3632
2024-05-27T22:32:57.020;599616242955440960;1469.1201;3610
2024-05-27T22:32:57.027;599616242963133377;1476.8125;3563
2024-05-27T22:32:57.035;599616242970825794;1484.505;3512
2024-05-27T22:32:57.043;599616242978518211;1492.1974;3514
2024-05-27T22:32:57.050;599616242986210628;1499.8898;3458
2024-05-27T22:32:57.058;599616242993903045;1507.5822;3279
2024-05-27T22:32:57.066;599616243001595462;1515.2747;3167
2024-05-27T22:32:57.073;599616243009287879;1522.967;3153
2024-05-27T22:32:57.081;599616243016980296;1530.6594;2984
2024-05-27T22:32:57.089;599616243024672713;1538.3519;2737
2024-05-27T22:32:57.097;599616243032365130;1546.0443;2674
2024-05-27T22:32:57.104;599616243040057547;1553.7367;2683
2024-05-27T22:32:57.112;599616243047749964;1561.4291;2610
2024-05-27T22:32:57.120;599616243055442381;1569.1216;2549
2024-05-27T22:32:57.127;599616243063134798;1576.814;2563
2024-05-27T22:32:57.135;599616243070827215;1584.5063;2568
2024-05-27T22:32:57.143;599616243078519632;1592.1987;2505
2024-05-27T22:32:57.150;599616243086212049;1599.8912;2444
2024-05-27T22:32:57.158;599616243093904466;1607.5836;2453
2024-05-27T22:32:57.166;599616243101596883;1615.276;2467
2024-05-27T22:32:57.173;599616243109289300;1622.9685;2441
2024-05-27T22:32:57.181;599616243116981717;1630.6609;2418
2024-05-27T22:32:57.189;599616243124674134;1638.3533;2404
2024-05-27T22:32:57.197;599616243132366551;1646.0457;2383
2024-05-27T22:32:57.204;599616243140058968;1653.7382;2364
2024-05-27T22:32:57.212;599616243147751385;1661.4305;2352
2024-05-27T22:32:57.220;599616243155443802;1669.1229;2352
2024-05-27T22:32:57.227;599616243163136219;1676.8153;2357
2024-05-27T22:32:57.235;599616243170933992;1684.6132;2317
2024-05-27T22:32:57.243;599616243178624946;1692.3041;2265
2024-05-27T22:32:57.250;599616243186315900;1699.995;2275
2024-05-27T22:32:57.258;599616243194006854;1707.686;2293
2024-05-27T22:32:57.266;599616243201697808;1715.3771;2260
2024-05-27T22:32:57.274;599616243209388762;1723.0679;2232
2024-05-27T22:32:57.281;599616243217079716;1730.7589;2232
2024-05-27T22:32:57.289;599616243224770670;1738.4498;2216
2024-05-27T22:32:57.297;599616243232461624;1746.1407;2171
2024-05-27T22:32:57.304;599616243240152578;1753.8317;2110
2024-05-27T22:32:57.312;599616243247843532;1761.5227;2087
2024-05-27T22:32:57.320;599616243255534486;1769.2137;2063
2024-05-27T22:32:57.327;599616243263225440;1776.9045;1946
2024-05-27T22:32:57.335;599616243270916394;1784.5956;1861
2024-05-27T22:32:57.343;599616243278607348;1792.2865;1904
2024-05-27T22:32:57.350;599616243286298302;1799.9774;1925
2024-05-27T22:32:57.358;599616243293989256;1807.6683;1887
2024-05-27T22:32:57.366;599616243301680210;1815.3594;1899
2024-05-27T22:32:57.374;599616243309371164;1823.0504;1908
2024-05-27T22:32:57.381;599616243317062118;1830.7412;1861
2024-05-27T22:32:57.389;599616243324753072;1838.4323;1838
2024-05-27T22:32:57.397;599616243332444026;1846.1232;1861
2024-05-27T22:32:57.404;599616243340134980;1853.8141;1880
2024-05-27T22:32:57.412;599616243347825934;1861.5051;1866
2024-05-27T22:32:57.420;599616243355516888;1869.196;1824
2024-05-27T22:32:57.427;599616243363207842;1876.8871;1786
2024-05-27T22:32:57.435;599616243370898796;1884.5779;1770
2024-05-27T22:32:57.443;599616243378589750;1892.2689;1791
2024-05-27T22:32:57.450;599616243386280704;1899.9598;1967
2024-05-27T22:32:57.458;599616243393971658;1907.6508;2338
2024-05-27T22:32:57.466;599616243401662612;1915.3418;2591
2024-05-27T22:32:57.474;599616243409353566;1923.0327;2347
2024-05-27T22:32:57.481;599616243417044520;1930.7238;1814
2024-05-27T22:32:57.489;599616243424735474;1938.4146;1584
2024-05-27T22:32:57.497;599616243432426428;1946.1056;1690
2024-05-27T22:32:57.504;599616243440117382;1953.7965;1690
2024-05-27T22:32:57.512;599616243447808336;1961.4875;1575
2024-05-27T22:32:57.520;599616243455499290;1969.1785;1577
2024-05-27T22:32:57.527;599616243463190244;1976.8694;1615
2024-05-27T22:32:57.535;599616243470881198;1984.5604;1575
2024-05-27T22:32:57.543;599616243478572152;1992.2512;1516
2024-05-27T22:32:57.550;599616243486263106;1999.9423;1476
2024-05-27T22:32:57.558;599616243493954060;2007.6332;1443
2024-05-27T22:32:57.566;599616243501645014;2015.3242;1413
2024-05-27T22:32:57.574;599616243509335968;2023.0151;1403
2024-05-27T22:32:57.581;599616243517026922;2030.706;1357
2024-05-27T22:32:57.589;599616243524717876;2038.3971;1241
2024-05-27T22:32:57.597;599616243532408830;2046.0879;1185
2024-05-27T22:32:57.604;599616243540099784;2053.779;1202
2024-05-27T22:32:57.612;599616243547790738;2061.47;1204
2024-05-27T22:32:57.620;599616243555481692;2069.161;1206
2024-05-27T22:32:57.627;599616243563172646;2076.8518;1225
2024-05-27T22:32:57.635;599616243570863600;2084.5427;1239
2024-05-27T22:32:57.643;599616243578554554;2092.2336;1249
2024-05-27T22:32:57.650;599616243586245508;2099.9246;1237
2024-05-27T22:32:57.658;599616243593936462;2107.6157;1211
2024-05-27T22:32:57.666;599616243601627416;2115.3066;1218
2024-05-27T22:32:57.673;599616243609318370;2122.9976;1241
2024-05-27T22:32:57.681;599616243617009324;2130.6885;1241
2024-05-27T22:32:57.689;599616243624700278;2138.3794;1223
2024-05-27T22:32:57.697;599616243632391232;2146.0703;1209
2024-05-27T22:32:57.704;599616243640082186;2153.7612;1204
2024-05-27T22:32:57.712;599616243647773140;2161.4524;1197
2024-05-27T22:32:57.720;599616243655464094;2169.1433;1190
2024-05-27T22:32:57.727;599616243663155048;2176.8342;1178
2024-05-27T22:32:57.735;599616243670846002;2184.5251;1133
2024-05-27T22:32:57.743;599616243678536956;2192.216;1056
2024-05-27T22:32:57.750;599616243686227910;2199.907;1014
2024-05-27T22:32:57.758;599616243693918864;2207.5981;1023
2024-05-27T22:32:57.766;599616243701609818;2215.289;1028
2024-05-27T22:32:57.773;599616243709300772;2222.9797;1002
2024-05-27T22:32:57.781;599616243716991726;2230.671;969
2024-05-27T22:32:57.789;599616243724682680;2238.3618;917
2024-05-27T22:32:57.796;599616243732313446;2245.9927;852
2024-05-27T22:32:57.804;599616243740005236;2253.6846;826
2024-05-27T22:32:57.812;599616243747697026;2261.3762;845
2024-05-27T22:32:57.820;599616243755388816;2269.068;863
2024-05-27T22:32:57.827;599616243763080606;2276.7598;859
2024-05-27T22:32:57.835;599616243770772396;2284.4517;824
2024-05-27T22:32:57.843;599616243778464186;2292.1433;812
2024-05-27T22:32:57.850;599616243786155976;2299.8352;828
2024-05-27T22:32:57.858;599616243793847766;2307.5269;767
2024-05-27T22:32:57.866;599616243801539556;2315.2188;622
2024-05-27T22:32:57.873;599616243809231346;2322.9104;525
2024-05-27T22:32:57.881;599616243816923136;2330.6023;476
2024-05-27T22:32:57.889;599616243824614926;2338.294;422
2024-05-27T22:32:57.896;599616243832306716;2345.9858;403
2024-05-27T22:32:57.904;599616243839998506;2353.6775;429
2024-05-27T22:32:57.912;599616243847690296;2361.3694;450
2024-05-27T22:32:57.920;599616243855382086;2369.061;441
2024-05-27T22:32:57.927;599616243863073876;2376.7532;408
2024-05-27T22:32:57.935;599616243870765666;2384.4448;415
2024-05-27T22:32:57.943;599616243878457456;2392.1367;457
2024-05-27T22:32:57.950;599616243886149246;2399.8284;467
2024-05-27T22:32:57.958;599616243893841036;2407.5203;453
2024-05-27T22:32:57.966;599616243901532826;2415.212;460
2024-05-27T22:32:57.973;599616243909224616;2422.9038;474
2024-05-27T22:32:57.981;599616243916916406;2430.5957;474
2024-05-27T22:32:57.989;599616243924608196;2438.2874;476
2024-05-27T22:32:57.996;599616243932299986;2445.9792;502
2024-05-27T22:32:58.004;599616243939991776;2453.671;535
2024-05-27T22:32:58.012;599616243947683566;2461.3628;532
2024-05-27T22:32:58.020;599616243955375356;2469.0544;511
2024-05-27T22:32:58.027;599616243963067146;2476.7463;521
2024-05-27T22:32:58.035;599616243970758936;2484.438;504
2024-05-27T22:32:58.043;599616243978450726;2492.13;439
2024-05-27T22:32:58.050;599616243986142516;2499.8215;429
2024-05-27T22:32:58.058;599616243993834306;2507.5134;471
2024-05-27T22:32:58.066;599616244001526096;2515.2053;467
2024-05-27T22:32:58.073;599616244009217886;2522.8972;436
2024-05-27T22:32:58.081;599616244016909676;2530.5889;394
2024-05-27T22:32:58.089;599616244024601466;2538.2808;328
2024-05-27T22:32:58.096;599616244032293256;2545.9724;316
2024-05-27T22:32:58.104;599616244039985046;2553.6643;340
2024-05-27T22:32:58.112;599616244047676836;2561.356;323
2024-05-27T22:32:58.120;599616244055368626;2569.0479;333
2024-05-27T22:32:58.127;599616244063060416;2576.7395;382
2024-05-27T22:32:58.135;599616244070752206;2584.4314;401
2024-05-27T22:32:58.143;599616244078443996;2592.123;415
2024-05-27T22:32:58.150;599616244086135786;2599.815;446
2024-05-27T22:32:58.158;599616244093827576;2607.5066;436
2024-05-27T22:32:58.166;599616244101519366;2615.1985;396
2024-05-27T22:32:58.173;599616244109211156;2622.8901;408
2024-05-27T22:32:58.181;599616244116902946;2630.582;539
2024-05-27T22:32:58.189;599616244124594736;2638.2737;833
2024-05-27T22:32:58.196;599616244132286526;2645.9656;1199
2024-05-27T22:32:58.204;599616244139978316;2653.6577;1303
2024-05-27T22:32:58.212;599616244147670106;2661.3494;932
2024-05-27T22:32:58.220;599616244155361896;2669.0413;485
2024-05-27T22:32:58.227;599616244163053686;2676.733;427
2024-05-27T22:32:58.235;599616244170745476;2684.4248;563
2024-05-27T22:32:58.243;599616244178437266;2692.1165;554
2024-05-27T22:32:58.250;599616244186129056;2699.8083;483
2024-05-27T22:32:58.258;599616244193820846;2707.5;488
2024-05-27T22:32:58.266;599616244201512636;2715.192;525
2024-05-27T22:32:58.273;599616244209204426;2722.8835;544
2024-05-27T22:32:58.281;599616244216896216;2730.5754;530
2024-05-27T22:32:58.289;599616244224588006;2738.267;502
2024-05-27T22:32:58.296;599616244232279796;2745.959;497
2024-05-27T22:32:58.304;599616244239971586;2753.6506;516
2024-05-27T22:32:58.312;599616244247663376;2761.3425;523
2024-05-27T22:32:58.320;599616244255355166;2769.0342;530
2024-05-27T22:32:58.327;599616244263046956;2776.726;563
2024-05-27T22:32:58.335;599616244270738746;2784.4177;593
2024-05-27T22:32:58.343;599616244278430536;2792.1096;579
2024-05-27T22:32:58.350;599616244286122326;2799.8015;561
2024-05-27T22:32:58.358;599616244293814128;2807.4934;589
2024-05-27T22:32:58.366;599616244301505918;2815.185;624
2024-05-27T22:32:58.373;599616244309197708;2822.877;622
2024-05-27T22:32:58.381;599616244316889498;2830.5686;612
2024-05-27T22:32:58.389;599616244324581288;2838.2605;612
2024-05-27T22:32:58.396;599616244332273078;2845.9521;591
2024-05-27T22:32:58.404;599616244339964868;2853.644;523
2024-05-27T22:32:58.412;599616244347656658;2861.3357;471
2024-05-27T22:32:58.420;599616244355348448;2869.0276;490
2024-05-27T22:32:58.427;599616244363040238;2876.7192;504
2024-05-27T22:32:58.435;599616244370732028;2884.4111;469
2024-05-27T22:32:58.443;599616244378423818;2892.103;464
2024-05-27T22:32:58.450;599616244386115608;2899.7947;502
2024-05-27T22:32:58.458;599616244393807398;2907.4866;516
2024-05-27T22:32:58.466;599616244401499188;2915.1782;507
2024-05-27T22:32:58.473;599616244409190978;2922.87;511
2024-05-27T22:32:58.481;599616244416882768;2930.562;516
2024-05-27T22:32:58.489;599616244424574558;2938.254;497
2024-05-27T22:32:58.496;599616244432266348;2945.9456;485
2024-05-27T22:32:58.504;599616244439958138;2953.6375;502
2024-05-27T22:32:58.512;599616244447649928;2961.329;535
2024-05-27T22:32:58.520;599616244455341718;2969.021;539
2024-05-27T22:32:58.527;599616244463033508;2976.7126;483
2024-05-27T22:32:58.535;599616244470725298;2984.4045;389
2024-05-27T22:32:58.543;599616244478417088;2992.0962;345
2024-05-27T22:32:58.550;599616244486108878;2999.788;347
2024-05-27T22:32:58.558;599616244493800668;3007.4797;335
2024-05-27T22:32:58.566;599616244501492458;3015.1716;321
2024-05-27T22:32:58.573;599616244509184248;3022.8633;312
2024-05-27T22:32:58.581;599616244516876038;3030.5552;253
2024-05-27T22:32:58.589;599616244524567828;3038.2468;166
2024-05-27T22:32:58.596;599616244532259618;3045.9387;150
2024-05-27T22:32:58.604;599616244539951408;3053.6304;190
2024-05-27T22:32:58.612;599616244547643198;3061.3223;190
2024-05-27T22:32:58.620;599616244555334988;3069.014;166
2024-05-27T22:32:58.627;599616244563026778;3076.706;183
2024-05-27T22:32:58.635;599616244570718568;3084.3977;208
2024-05-27T22:32:58.643;599616244578410358;3092.0896;213
2024-05-27T22:32:58.650;599616244586102148;3099.7815;215
2024-05-27T22:32:58.658;599616244593793938;3107.4731;220
2024-05-27T22:32:58.666;599616244601485728;3115.165;180
2024-05-27T22:32:58.673;599616244609177518;3122.8567;119
2024-05-27T22:32:58.681;599616244616869308;3130.5486;82
2024-05-27T22:32:58.689;599616244624561098;3138.2402;58
2024-05-27T22:32:58.696;599616244632252888;3145.9321;49
2024-05-27T22:32:58.704;599616244639944678;3153.6238;30
2024-05-27T22:32:58.712;599616244647636468;3161.3157;7
2024-05-27T22:32:58.720;599616244655328258;3169.0073;18
2024-05-27T22:32:58.727;599616244663020048;3176.6992;42
2024-05-27T22:32:58.735;599616244670711838;3184.3909;37
2024-05-27T22:32:58.743;599616244678403628;3192.0828;51
2024-05-27T22:32:58.750;599616244686095418;3199.7744;77
2024-05-27T22:32:58.758;599616244693787208;3207.4663;63
2024-05-27T22:32:58.766;599616244701478998;3215.1582;25
2024-05-27T22:32:58.773;599616244709170788;3222.85;0
2024-05-27T22:32:58.781;599616244716862578;3230.5417;-16
2024-05-27T22:32:58.789;599616244724554368;3238.2336;-14
2024-05-27T22:32:58.796;599616244732246158;3245.9253;-4
2024-05-27T22:32:58.804;599616244739937948;3253.6172;0
2024-05-27T22:32:58.812;599616244747629738;3261.3088;35
2024-05-27T22:32:58.820;599616244755321528;3269.0007;77
2024-05-27T22:32:58.827;599616244763013318;3276.6924;84
2024-05-27T22:32:58.835;599616244770705108;3284.3843;98
2024-05-27T22:32:58.843;599616244778396898;3292.076;133
2024-05-27T22:32:58.850;599616244786088688;3299.7678;133
2024-05-27T22:32:58.858;599616244793780478;3307.4595;119
2024-05-27T22:32:58.866;599616244801472268;3315.1514;154
2024-05-27T22:32:58.873;599616244809164058;3322.843;192
2024-05-27T22:32:58.881;599616244816855848;3330.535;173
2024-05-27T22:32:58.889;599616244824547638;3338.2268;147
2024-05-27T22:32:58.896;599616244832239428;3345.9185;234
2024-05-27T22:32:58.904;599616244839931218;3353.6106;525
2024-05-27T22:32:58.912;599616244847623008;3361.3022;913
2024-05-27T22:32:58.919;599616244855314810;3368.9941;1037
2024-05-27T22:32:58.927;599616244863006600;3376.6858;701
2024-05-27T22:32:58.935;599616244870698390;3384.3777;234
2024-05-27T22:32:58.943;599616244878390180;3392.0693;56
2024-05-27T22:32:58.950;599616244886081970;3399.7612;77
2024-05-27T22:32:58.958;599616244893773760;3407.453;86
2024-05-27T22:32:58.966;599616244901465550;3415.1448;96
2024-05-27T22:32:58.973;599616244909157340;3422.8364;124
2024-05-27T22:32:58.981;599616244916849130;3430.5283;136
2024-05-27T22:32:58.989;599616244924540920;3438.22;140
2024-05-27T22:32:58.996;599616244932232710;3445.9119;157
2024-05-27T22:32:59.004;599616244939924500;3453.6035;178
2024-05-27T22:32:59.012;599616244947616290;3461.2954;197
2024-05-27T22:32:59.019;599616244955308080;3468.987;187
2024-05-27T22:32:59.027;599616244962999870;3476.679;143
2024-05-27T22:32:59.035;599616244970691660;3484.3708;122
2024-05-27T22:32:59.043;599616244978383450;3492.0627;147
2024-05-27T22:32:59.050;599616244986075240;3499.7544;187
2024-05-27T22:32:59.058;599616244993767030;3507.4463;215
2024-05-27T22:32:59.066;599616245001458820;3515.138;230
2024-05-27T22:32:59.073;599616245009150610;3522.8298;253
2024-05-27T22:32:59.081;599616245016842400;3530.5215;244
2024-05-27T22:32:59.089;599616245024534190;3538.2134;152
2024-05-27T22:32:59.096;599616245032225980;3545.9053;58
2024-05-27T22:32:59.104;599616245039917770;3553.597;77
2024-05-27T22:32:59.112;599616245047609560;3561.2888;138
2024-05-27T22:32:59.119;599616245055301350;3568.9805;133
2024-05-27T22:32:59.127;599616245062993140;3576.6724;110
2024-05-27T22:32:59.135;599616245070684930;3584.364;140
2024-05-27T22:32:59.143;599616245078376720;3592.056;183
2024-05-27T22:32:59.150;599616245086068510;3599.7476;187
2024-05-27T22:32:59.158;599616245093760300;3607.4395;190
2024-05-27T22:32:59.166;599616245101452090;3615.131;215
2024-05-27T22:32:59.173;599616245109143880;3622.823;237
2024-05-27T22:32:59.181;599616245116835670;3630.515;241
2024-05-27T22:32:59.189;599616245124527460;3638.2068;248
2024-05-27T22:32:59.196;599616245132219250;3645.8984;269
2024-05-27T22:32:59.204;599616245139911040;3653.5903;300
2024-05-27T22:32:59.212;599616245147602830;3661.282;307
2024-05-27T22:32:59.219;599616245155294620;3668.9739;279
2024-05-27T22:32:59.227;599616245162986410;3676.6655;284
2024-05-27T22:32:59.235;599616245170678200;3684.3574;323
2024-05-27T22:32:59.243;599616245178369990;3692.049;335
2024-05-27T22:32:59.250;599616245186061780;3699.741;335
2024-05-27T22:32:59.258;599616245193753570;3707.4326;349
2024-05-27T22:32:59.266;599616245201445360;3715.1245;305
2024-05-27T22:32:59.273;599616245209137150;3722.8162;220
2024-05-27T22:32:59.281;599616245216828940;3730.508;220
2024-05-27T22:32:59.289;599616245224520730;3738.1997;279
2024-05-27T22:32:59.296;599616245232212520;3745.8916;286
2024-05-27T22:32:59.304;599616245239904310;3753.5833;227
2024-05-27T22:32:59.312;599616245247596100;3761.2751;178
2024-05-27T22:32:59.319;599616245255287890;3768.9673;178
2024-05-27T22:32:59.327;599616245262979680;3776.659;194
2024-05-27T22:32:59.335;599616245270671470;3784.3508;187
2024-05-27T22:32:59.343;599616245278363260;3792.0425;197
2024-05-27T22:32:59.350;599616245286055050;3799.7344;220
2024-05-27T22:32:59.358;599616245293746840;3807.426;206
2024-05-27T22:32:59.366;599616245301438630;3815.118;185
2024-05-27T22:32:59.373;599616245309130420;3822.8096;211
2024-05-27T22:32:59.381;599616245316822210;3830.5015;239
2024-05-27T22:32:59.389;599616245324514000;3838.193;239
2024-05-27T22:32:59.396;599616245332205790;3845.885;234
2024-05-27T22:32:59.404;599616245339897580;3853.5767;232
2024-05-27T22:32:59.412;599616245347589370;3861.2686;239
2024-05-27T22:32:59.419;599616245355281160;3868.9602;234
2024-05-27T22:32:59.427;599616245362972950;3876.652;192
2024-05-27T22:32:59.435;599616245370664740;3884.3438;157
2024-05-27T22:32:59.443;599616245378356530;3892.0356;133
2024-05-27T22:32:59.450;599616245386048320;3899.7273;53
2024-05-27T22:32:59.458;599616245393740110;3907.4194;-14
2024-05-27T22:32:59.466;599616245401431900;3915.111;11
2024-05-27T22:32:59.473;599616245409123690;3922.803;44
2024-05-27T22:32:59.481;599616245416815492;3930.4946;30
2024-05-27T22:32:59.489;599616245424507282;3938.1865;23
2024-05-27T22:32:59.496;599616245432199072;3945.8782;18
2024-05-27T22:32:59.504;599616245439890862;3953.57;9
2024-05-27T22:32:59.512;599616245447582652;3961.2617;-21
2024-05-27T22:32:59.519;599616245455274442;3968.9536;-56
2024-05-27T22:32:59.527;599616245462966232;3976.6453;-39
2024-05-27T22:32:59.535;599616245470658022;3984.3372;-28
2024-05-27T22:32:59.543;599616245478349812;3992.0288;-117
2024-05-27T22:32:59.550;599616245486041602;3999.7207;-211
2024-05-27T22:32:59.558;599616245493733392;4007.4126;-194
2024-05-27T22:32:59.566;599616245501425182;4015.1042;-77
2024-05-27T22:32:59.573;599616245509116972;4022.7961;185
2024-05-27T22:32:59.581;599616245516808762;4030.4878;561
2024-05-27T22:32:59.589;599616245524500552;4038.1797;662
2024-05-27T22:32:59.596;599616245532192342;4045.8716;218
2024-05-27T22:32:59.604;599616245539884132;4053.5635;-302
2024-05-27T22:32:59.612;599616245547575922;4061.2551;-363
2024-05-27T22:32:59.619;599616245555267712;4068.947;-194
2024-05-27T22:32:59.627;599616245562959502;4076.6387;-190
2024-05-27T22:32:59.635;599616245570651292;4084.3306;-239
2024-05-27T22:32:59.643;599616245578343082;4092.0222;-185
2024-05-27T22:32:59.650;599616245586034872;4099.714;-119
2024-05-27T22:32:59.658;599616245593726662;4107.406;-98
2024-05-27T22:32:59.666;599616245601418452;4115.0977;-70
2024-05-27T22:32:59.673;599616245609110242;4122.7896;-32
2024-05-27T22:32:59.681;599616245616802032;4130.481;-11
2024-05-27T22:32:59.689;599616245624493822;4138.173;2
2024-05-27T22:32:59.696;599616245632185612;4145.8647;30
2024-05-27T22:32:59.704;599616245639877402;4153.5566;72
2024-05-27T22:32:59.712;599616245647569192;4161.248;112
2024-05-27T22:32:59.719;599616245655260982;4168.94;124
2024-05-27T22:32:59.727;599616245662952772;4176.632;112
2024-05-27T22:32:59.735;599616245670644562;4184.3237;133
2024-05-27T22:32:59.743;599616245678336352;4192.0156;185
2024-05-27T22:32:59.750;599616245686028142;4199.7075;218
2024-05-27T22:32:59.758;599616245693719932;4207.399;199
2024-05-27T22:32:59.766;599616245701411722;4215.091;161
2024-05-27T22:32:59.773;599616245709103512;4222.7827;161
2024-05-27T22:32:59.781;599616245716795302;4230.4746;173
2024-05-27T22:32:59.789;599616245724487092;4238.1665;173
2024-05-27T22:32:59.796;599616245732178882;4245.858;199
2024-05-27T22:32:59.804;599616245739870672;4253.55;234
2024-05-27T22:32:59.812;599616245747562462;4261.2417;230
2024-05-27T22:32:59.819;599616245755254252;4268.9336;211
2024-05-27T22:32:59.827;599616245762946042;4276.625;230
2024-05-27T22:32:59.835;599616245770637832;4284.317;265
2024-05-27T22:32:59.843;599616245778329622;4292.009;267
2024-05-27T22:32:59.850;599616245786021412;4299.7007;272
2024-05-27T22:32:59.858;599616245793713202;4307.3926;295
2024-05-27T22:32:59.866;599616245801404992;4315.0845;295
2024-05-27T22:32:59.873;599616245809096782;4322.776;269
2024-05-27T22:32:59.881;599616245816788572;4330.468;269
2024-05-27T22:32:59.889;599616245824480362;4338.1597;302
2024-05-27T22:32:59.896;599616245832172152;4345.8516;331
2024-05-27T22:32:59.904;599616245839863942;4353.543;328
2024-05-27T22:32:59.912;599616245847555732;4361.235;314
2024-05-27T22:32:59.919;599616245855247522;4368.927;323
2024-05-27T22:32:59.927;599616245862939312;4376.6187;345
2024-05-27T22:32:59.935;599616245870631102;4384.31;352
2024-05-27T22:32:59.943;599616245878322892;4392.002;359
2024-05-27T22:32:59.950;599616245886014682;4399.694;375
2024-05-27T22:32:59.958;599616245893706472;4407.3857;368
2024-05-27T22:32:59.966;599616245901398262;4415.077;345
2024-05-27T22:32:59.973;599616245909090052;4422.769;354
2024-05-27T22:32:59.981;599616245916781842;4430.461;387
2024-05-27T22:32:59.989;599616245924473632;4438.153;392
2024-05-27T22:32:59.996;599616245932165422;4445.844;363
2024-05-27T22:33:00.004;599616245939857212;4453.536;309
2024-05-27T22:33:00.012;599616245947549002;4461.228;258
2024-05-27T22:33:00.019;599616245955240792;4468.92;248
2024-05-27T22:33:00.027;599616245962932582;4476.612;255
2024-05-27T22:33:00.035;599616245970624372;4484.303;267
2024-05-27T22:33:00.042;599616245978316174;4491.995;281
2024-05-27T22:33:00.050;599616245986007964;4499.687;241
2024-05-27T22:33:00.058;599616245993699754;4507.379;171
2024-05-27T22:33:00.066;599616246001391544;4515.0703;159
2024-05-27T22:33:00.073;599616246009083334;4522.762;187
2024-05-27T22:33:00.081;599616246016775124;4530.4546;190
2024-05-27T22:33:00.089;599616246024466914;4538.1465;169
2024-05-27T22:33:00.096;599616246032158704;4545.838;105
2024-05-27T22:33:00.104;599616246039850494;4553.53;-25
2024-05-27T22:33:00.112;599616246047542284;4561.2217;-176
2024-05-27T22:33:00.119;599616246055234074;4568.9136;-241
2024-05-27T22:33:00.127;599616246062925864;4576.605;-206
2024-05-27T22:33:00.135;599616246070617654;4584.297;-166
2024-05-27T22:33:00.142;599616246078309444;4591.989;-183
2024-05-27T22:33:00.150;599616246086001234;4599.6807;-183
2024-05-27T22:33:00.158;599616246093693024;4607.372;-136
2024-05-27T22:33:00.166;599616246101384814;4615.064;-129
2024-05-27T22:33:00.173;599616246109076604;4622.756;-164
2024-05-27T22:33:00.181;599616246116768394;4630.4478;-93
2024-05-27T22:33:00.189;599616246124460184;4638.139;201
2024-05-27T22:33:00.196;599616246132151974;4645.831;547
2024-05-27T22:33:00.204;599616246139843764;4653.523;525
2024-05-27T22:33:00.212;599616246147535554;4661.215;70
2024-05-27T22:33:00.219;599616246155227344;4668.9067;-335
2024-05-27T22:33:00.227;599616246162919134;4676.598;-361
2024-05-27T22:33:00.235;599616246170610924;4684.29;-274
2024-05-27T22:33:00.242;599616246178302714;4691.982;-305
2024-05-27T22:33:00.250;599616246185994504;4699.674;-342
2024-05-27T22:33:00.258;599616246193686294;4707.365;-338
2024-05-27T22:33:00.266;599616246201378084;4715.057;-333
2024-05-27T22:33:00.273;599616246209069874;4722.749;-314
2024-05-27T22:33:00.281;599616246216761664;4730.441;-284
2024-05-27T22:33:00.289;599616246224453454;4738.1323;-260
2024-05-27T22:33:00.296;599616246232145244;4745.824;-237
2024-05-27T22:33:00.304;599616246239837034;4753.516;-204
2024-05-27T22:33:00.312;599616246247528824;4761.208;-159
2024-05-27T22:33:00.319;599616246255220614;4768.8994;-140
2024-05-27T22:33:00.327;599616246262912404;4776.5913;-145
2024-05-27T22:33:00.335;599616246270604194;4784.283;-117
2024-05-27T22:33:00.342;599616246278295984;4791.975;-56
2024-05-27T22:33:00.350;599616246285987774;4799.6665;-28
2024-05-27T22:33:00.358;599616246293679564;4807.3584;-18
2024-05-27T22:33:00.366;599616246301371354;4815.051;14
2024-05-27T22:33:00.373;599616246309063144;4822.7427;37
2024-05-27T22:33:00.381;599616246316754934;4830.434;37
2024-05-27T22:33:00.389;599616246324446724;4838.126;53
2024-05-27T22:33:00.396;599616246332138514;4845.818;96
2024-05-27T22:33:00.404;599616246339830304;4853.51;126
2024-05-27T22:33:00.412;599616246347522094;4861.201;124
2024-05-27T22:33:00.419;599616246355213884;4868.893;115
2024-05-27T22:33:00.427;599616246362905674;4876.585;131
2024-05-27T22:33:00.435;599616246370597464;4884.277;169
2024-05-27T22:33:00.442;599616246378289254;4891.9688;183
2024-05-27T22:33:00.450;599616246385981044;4899.66;197
2024-05-27T22:33:00.458;599616246393672834;4907.352;220
2024-05-27T22:33:00.466;599616246401364624;4915.044;213
2024-05-27T22:33:00.473;599616246409056414;4922.736;192
2024-05-27T22:33:00.481;599616246416748204;4930.4272;204
2024-05-27T22:33:00.489;599616246424439994;4938.119;227
2024-05-27T22:33:00.496;599616246432131784;4945.811;192
2024-05-27T22:33:00.504;599616246439823574;4953.503;122
2024-05-27T22:33:00.512;599616246447515364;4961.1943;107
2024-05-27T22:33:00.519;599616246455207154;4968.886;147
2024-05-27T22:33:00.527;599616246462898944;4976.578;166
2024-05-27T22:33:00.535;599616246470590734;4984.27;171
2024-05-27T22:33:00.542;599616246478282524;4991.9614;199
2024-05-27T22:33:00.550;599616246485974314;4999.6533;230
2024-05-27T22:33:00.558;599616246493666104;5007.345;220
2024-05-27T22:33:00.566;599616246501357894;5015.037;206
2024-05-27T22:33:00.573;599616246509049684;5022.7285;237
2024-05-27T22:33:00.581;599616246516741474;5030.4204;277
2024-05-27T22:33:00.589;599616246524433264;5038.1123;284
2024-05-27T22:33:00.596;599616246532125054;5045.804;269
2024-05-27T22:33:00.604;599616246539816856;5053.4956;220
2024-05-27T22:33:00.612;599616246547508646;5061.1875;126
2024-05-27T22:33:00.619;599616246555200436;5068.8794;70
2024-05-27T22:33:00.627;599616246562892226;5076.5713;93
2024-05-27T22:33:00.635;599616246570584016;5084.263;126
2024-05-27T22:33:00.642;599616246578275806;5091.955;126
2024-05-27T22:33:00.650;599616246585967596;5099.647;70
2024-05-27T22:33:00.658;599616246593659386;5107.339;-4
2024-05-27T22:33:00.666;599616246601351176;5115.031;2
2024-05-27T22:33:00.673;599616246609042966;5122.722;53
2024-05-27T22:33:00.681;599616246616734756;5130.414;65
2024-05-27T22:33:00.689;599616246624426546;5138.106;65
2024-05-27T22:33:00.696;599616246632118336;5145.798;91
2024-05-27T22:33:00.704;599616246639810126;5153.4893;119
2024-05-27T22:33:00.712;599616246647501916;5161.181;131
2024-05-27T22:33:00.719;599616246655193706;5168.873;143
2024-05-27T22:33:00.727;599616246662885496;5176.565;178
2024-05-27T22:33:00.735;599616246670577286;5184.2563;204
2024-05-27T22:33:00.742;599616246678269076;5191.948;171
2024-05-27T22:33:00.750;599616246685960866;5199.64;126
2024-05-27T22:33:00.758;599616246693652656;5207.332;140
2024-05-27T22:33:00.766;599616246701344446;5215.0234;157
2024-05-27T22:33:00.773;599616246709036236;5222.7153;126
2024-05-27T22:33:00.781;599616246716728026;5230.407;157
2024-05-27T22:33:00.789;599616246724419816;5238.099;375
2024-05-27T22:33:00.796;599616246732111606;5245.7905;732
2024-05-27T22:33:00.804;599616246739803396;5253.4824;943
2024-05-27T22:33:00.812;599616246747495186;5261.1743;723
2024-05-27T22:33:00.819;599616246755186976;5268.866;225
2024-05-27T22:33:00.827;599616246762878766;5276.5576;-51
2024-05-27T22:33:00.835;599616246770570556;5284.2495;9
2024-05-27T22:33:00.842;599616246778262346;5291.9414;68
2024-05-27T22:33:00.850;599616246785954136;5299.6333;28
2024-05-27T22:33:00.858;599616246793645926;5307.3247;37
2024-05-27T22:33:00.866;599616246801337716;5315.0166;72
2024-05-27T22:33:00.873;599616246809029506;5322.7085;75
2024-05-27T22:33:00.881;599616246816721296;5330.4004;72
2024-05-27T22:33:00.889;599616246824413086;5338.092;82
2024-05-27T22:33:00.896;599616246832104876;5345.7837;89
2024-05-27T22:33:00.904;599616246839796666;5353.4756;112
2024-05-27T22:33:00.912;599616246847488456;5361.1675;145
2024-05-27T22:33:00.919;599616246855180246;5368.86;124
2024-05-27T22:33:00.927;599616246862872036;5376.5513;58
2024-05-27T22:33:00.935;599616246870563826;5384.243;28
2024-05-27T22:33:00.942;599616246878255616;5391.935;16
2024-05-27T22:33:00.950;599616246885947406;5399.627;-32
2024-05-27T22:33:00.958;599616246893639196;5407.3184;-53
2024-05-27T22:33:00.966;599616246901330986;5415.0103;-39
2024-05-27T22:33:00.973;599616246909022776;5422.702;-44
2024-05-27T22:33:00.981;599616246916714566;5430.394;-51
2024-05-27T22:33:00.989;599616246924406356;5438.0854;-61
2024-05-27T22:33:00.996;599616246932098146;5445.7773;-98
2024-05-27T22:33:01.004;599616246939789936;5453.469;-115
2024-05-27T22:33:01.012;599616246947481726;5461.161;-107
2024-05-27T22:33:01.019;599616246955173516;5468.8525;-124
2024-05-27T22:33:01.027;599616246962865306;5476.5444;-117
2024-05-27T22:33:01.035;599616246970557096;5484.2363;-77
2024-05-27T22:33:01.042;599616246978248886;5491.928;-63
2024-05-27T22:33:01.050;599616246985940676;5499.6196;-58
2024-05-27T22:33:01.058;599616246993632466;5507.3115;-28
2024-05-27T22:33:01.066;599616247001324256;5515.0034;-18
2024-05-27T22:33:01.073;599616247009016046;5522.6953;-35
2024-05-27T22:33:01.081;599616247016707836;5530.3867;-23
2024-05-27T22:33:01.089;599616247024399626;5538.0786;14
2024-05-27T22:33:01.096;599616247032091416;5545.7705;37
2024-05-27T22:33:01.104;599616247039783206;5553.4624;16
2024-05-27T22:33:01.112;599616247047474996;5561.154;-70
2024-05-27T22:33:01.119;599616247055166786;5568.8457;-122
2024-05-27T22:33:01.127;599616247062858576;5576.5376;-84
2024-05-27T22:33:01.135;599616247070550366;5584.2295;-53
2024-05-27T22:33:01.142;599616247078242156;5591.9214;-44
2024-05-27T22:33:01.150;599616247085933946;5599.613;-9
2024-05-27T22:33:01.158;599616247093625736;5607.3047;2
2024-05-27T22:33:01.165;599616247101317538;5614.9966;-9
2024-05-27T22:33:01.173;599616247109009328;5622.6885;21
2024-05-27T22:33:01.181;599616247116701118;5630.38;68
2024-05-27T22:33:01.189;599616247124392908;5638.0723;86
2024-05-27T22:33:01.196;599616247132084698;5645.764;79
2024-05-27T22:33:01.204;599616247139776488;5653.456;82
2024-05-27T22:33:01.212;599616247147468278;5661.1475;103
2024-05-27T22:33:01.219;599616247155160068;5668.8394;75
2024-05-27T22:33:01.227;599616247162851858;5676.5312;-16
2024-05-27T22:33:01.235;599616247170543648;5684.223;-70
2024-05-27T22:33:01.242;599616247178235438;5691.9146;-79
2024-05-27T22:33:01.250;599616247185927228;5699.6064;-105
2024-05-27T22:33:01.258;599616247193619018;5707.2983;-107
2024-05-27T22:33:01.265;599616247201310808;5714.99;-58
2024-05-27T22:33:01.273;599616247209002598;5722.6816;-9
2024-05-27T22:33:01.281;599616247216694388;5730.3735;7
2024-05-27T22:33:01.289;599616247224386178;5738.0654;11
2024-05-27T22:33:01.296;599616247232077968;5745.7573;25
2024-05-27T22:33:01.304;599616247239769758;5753.4487;51
2024-05-27T22:33:01.312;599616247247461548;5761.1406;84
2024-05-27T22:33:01.319;599616247255153338;5768.8325;110
2024-05-27T22:33:01.327;599616247262845128;5776.5244;147
2024-05-27T22:33:01.335;599616247270536918;5784.216;187
2024-05-27T22:33:01.342;599616247278228708;5791.9077;173
2024-05-27T22:33:01.350;599616247285920498;5799.5996;157
2024-05-27T22:33:01.358;599616247293612288;5807.2915;199
2024-05-27T22:33:01.365;599616247301304078;5814.9834;239
2024-05-27T22:33:01.373;599616247308995868;5822.675;248
2024-05-27T22:33:01.381;599616247316687658;5830.3667;253
2024-05-27T22:33:01.389;599616247324379448;5838.0586;253
2024-05-27T22:33:01.396;599616247332071238;5845.7505;234
2024-05-27T22:33:01.404;599616247339763028;5853.442;223
2024-05-27T22:33:01.412;599616247347454818;5861.134;312
2024-05-27T22:33:01.419;599616247355146608;5868.8257;622
2024-05-27T22:33:01.427;599616247362838398;5876.5176;1021
2024-05-27T22:33:01.435;599616247370530188;5884.209;1108
2024-05-27T22:33:01.442;599616247378221978;5891.901;709
2024-05-27T22:33:01.450;599616247385913768;5899.593;258
2024-05-27T22:33:01.458;599616247393605558;5907.2847;192
2024-05-27T22:33:01.465;599616247401297348;5914.976;300
2024-05-27T22:33:01.473;599616247408989138;5922.6685;267
2024-05-27T22:33:01.481;599616247416680928;5930.3604;178
2024-05-27T22:33:01.489;599616247424372718;5938.0522;136
2024-05-27T22:33:01.496;599616247432064508;5945.7437;124
2024-05-27T22:33:01.504;599616247439756298;5953.4355;140
2024-05-27T22:33:01.512;599616247447448088;5961.1274;187
2024-05-27T22:33:01.519;599616247455139878;5968.8193;206
2024-05-27T22:33:01.527;599616247462831668;5976.5107;166
2024-05-27T22:33:01.535;599616247470523458;5984.2026;122
2024-05-27T22:33:01.542;599616247478215248;5991.8945;115
2024-05-27T22:33:01.550;599616247485907038;5999.5864;117
2024-05-27T22:33:01.558;599616247493598828;6007.2783;110
2024-05-27T22:33:01.565;599616247501290618;6014.9697;117
2024-05-27T22:33:01.573;599616247508982408;6022.6616;124
2024-05-27T22:33:01.581;599616247516674198;6030.3535;110
2024-05-27T22:33:01.589;599616247524365988;6038.0454;110
2024-05-27T22:33:01.596;599616247532057778;6045.737;140
2024-05-27T22:33:01.604;599616247539749568;6053.4287;166
2024-05-27T22:33:01.612;599616247547441358;6061.1206;143
2024-05-27T22:33:01.619;599616247555133148;6068.8125;49
2024-05-27T22:33:01.627;599616247562824938;6076.504;-16
2024-05-27T22:33:01.635;599616247570516728;6084.196;4
2024-05-27T22:33:01.642;599616247578208518;6091.8877;25
2024-05-27T22:33:01.650;599616247585900308;6099.5796;4
2024-05-27T22:33:01.658;599616247593592098;6107.271;-25
2024-05-27T22:33:01.665;599616247601283888;6114.963;-68
2024-05-27T22:33:01.673;599616247608975678;6122.655;-122
2024-05-27T22:33:01.681;599616247616667468;6130.3467;-166
2024-05-27T22:33:01.689;599616247624359258;6138.038;-171
2024-05-27T22:33:01.696;599616247632051048;6145.73;-152
2024-05-27T22:33:01.704;599616247639742838;6153.422;-169
2024-05-27T22:33:01.712;599616247647434628;6161.114;-201
2024-05-27T22:33:01.719;599616247655126418;6168.805;-197
2024-05-27T22:33:01.727;599616247662818218;6176.497;-192
2024-05-27T22:33:01.735;599616247670510008;6184.189;-208
2024-05-27T22:33:01.742;599616247678201798;6191.881;-192
2024-05-27T22:33:01.750;599616247685893588;6199.5728;-161
2024-05-27T22:33:01.758;599616247693585378;6207.2646;-211
2024-05-27T22:33:01.765;599616247701277168;6214.9565;-295
2024-05-27T22:33:01.773;599616247708968958;6222.6484;-291
2024-05-27T22:33:01.781;599616247716660748;6230.3403;-225
2024-05-27T22:33:01.789;599616247724352538;6238.0317;-206
2024-05-27T22:33:01.796;599616247732044328;6245.7236;-218
2024-05-27T22:33:01.804;599616247739736118;6253.4155;-201
2024-05-27T22:33:01.812;599616247747427908;6261.1074;-161
2024-05-27T22:33:01.819;599616247755119698;6268.799;-131
2024-05-27T22:33:01.827;599616247762811488;6276.4907;-115
2024-05-27T22:33:01.835;599616247770503278;6284.1826;-86
2024-05-27T22:33:01.842;599616247778195068;6291.8745;-46
2024-05-27T22:33:01.850;599616247785886858;6299.566;-42
2024-05-27T22:33:01.858;599616247793578648;6307.258;-44
2024-05-27T22:33:01.865;599616247801270438;6314.9497;-7
2024-05-27T22:33:01.873;599616247808962228;6322.6416;37
2024-05-27T22:33:01.881;599616247816654018;6330.333;53
2024-05-27T22:33:01.889;599616247824345808;6338.025;56
2024-05-27T22:33:01.896;599616247832037598;6345.717;65
2024-05-27T22:33:01.904;599616247839729388;6353.4087;84
2024-05-27T22:33:01.912;599616247847421178;6361.1;100
2024-05-27T22:33:01.919;599616247855112968;6368.792;117
2024-05-27T22:33:01.927;599616247862804758;6376.484;150
2024-05-27T22:33:01.935;599616247870496548;6384.176;169
2024-05-27T22:33:01.942;599616247878188338;6391.867;159
2024-05-27T22:33:01.950;599616247885880128;6399.559;159
2024-05-27T22:33:01.958;599616247893571918;6407.251;194
2024-05-27T22:33:01.965;599616247901263708;6414.943;237
2024-05-27T22:33:01.973;599616247908955498;6422.6343;234
2024-05-27T22:33:01.981;599616247916647288;6430.326;183
2024-05-27T22:33:01.989;599616247924339078;6438.018;159
2024-05-27T22:33:01.996;599616247932030868;6445.71;185
2024-05-27T22:33:02.004;599616247939722658;6453.4014;201
2024-05-27T22:33:02.012;599616247947414448;6461.0933;208
2024-05-27T22:33:02.019;599616247955106238;6468.785;241
2024-05-27T22:33:02.027;599616247962798028;6476.4775;251
2024-05-27T22:33:02.035;599616247970489818;6484.1694;199
2024-05-27T22:33:02.042;599616247978181608;6491.861;192
2024-05-27T22:33:02.050;599616247985873398;6499.5527;361
2024-05-27T22:33:02.058;599616247993565188;6507.2446;706
2024-05-27T22:33:02.065;599616248001256978;6514.9365;1040
2024-05-27T22:33:02.073;599616248008948768;6522.628;1028
2024-05-27T22:33:02.081;599616248016640558;6530.32;575
2024-05-27T22:33:02.089;599616248024332348;6538.0117;161
2024-05-27T22:33:02.096;599616248032024138;6545.7036;166
2024-05-27T22:33:02.104;599616248039715928;6553.395;277
2024-05-27T22:33:02.112;599616248047407718;6561.087;215
2024-05-27T22:33:02.119;599616248055099508;6568.779;96
2024-05-27T22:33:02.127;599616248062791298;6576.4707;14
2024-05-27T22:33:02.135;599616248070483088;6584.162;14
2024-05-27T22:33:02.142;599616248078174878;6591.854;65
2024-05-27T22:33:02.150;599616248085866668;6599.546;79
2024-05-27T22:33:02.158;599616248093558458;6607.238;89
2024-05-27T22:33:02.165;599616248101250248;6614.929;124
2024-05-27T22:33:02.173;599616248108942038;6622.621;138
2024-05-27T22:33:02.181;599616248116633828;6630.313;126
2024-05-27T22:33:02.189;599616248124325618;6638.005;140
2024-05-27T22:33:02.196;599616248132017408;6645.6963;178
2024-05-27T22:33:02.204;599616248139709198;6653.388;218
2024-05-27T22:33:02.212;599616248147400988;6661.08;234
2024-05-27T22:33:02.219;599616248155092778;6668.772;204
2024-05-27T22:33:02.227;599616248162784568;6676.4634;159
2024-05-27T22:33:02.235;599616248170476358;6684.1553;161
2024-05-27T22:33:02.242;599616248178168148;6691.847;161
2024-05-27T22:33:02.250;599616248185859938;6699.539;107
2024-05-27T22:33:02.258;599616248193551728;6707.231;75
2024-05-27T22:33:02.265;599616248201243518;6714.9224;70
2024-05-27T22:33:02.273;599616248208935308;6722.6143;42
2024-05-27T22:33:02.281;599616248216627098;6730.306;42
2024-05-27T22:33:02.288;599616248224318902;6737.998;82
2024-05-27T22:33:02.296;599616248232010692;6745.6895;91
2024-05-27T22:33:02.304;599616248239702482;6753.382;65
2024-05-27T22:33:02.312;599616248247394272;6761.0737;51
2024-05-27T22:33:02.319;599616248255086062;6768.7656;65
2024-05-27T22:33:02.327;599616248262777852;6776.457;58
2024-05-27T22:33:02.335;599616248270469642;6784.149;-11
2024-05-27T22:33:02.342;599616248278161432;6791.841;-61
2024-05-27T22:33:02.350;599616248285853222;6799.5327;-35
2024-05-27T22:33:02.358;599616248293545012;6807.224;-30
2024-05-27T22:33:02.365;599616248301236802;6814.916;-70
2024-05-27T22:33:02.373;599616248308928592;6822.608;-91
2024-05-27T22:33:02.381;599616248316620382;6830.3;-96
2024-05-27T22:33:02.388;599616248324312172;6837.991;-117
2024-05-27T22:33:02.396;599616248332003962;6845.683;-173
2024-05-27T22:33:02.404;599616248339695752;6853.375;-215
2024-05-27T22:33:02.412;599616248347387542;6861.067;-199
2024-05-27T22:33:02.419;599616248355079332;6868.7583;-178
2024-05-27T22:33:02.427;599616248362771122;6876.45;-185
2024-05-27T22:33:02.435;599616248370462912;6884.142;-166
2024-05-27T22:33:02.442;599616248378154702;6891.834;-140
2024-05-27T22:33:02.450;599616248385846492;6899.5254;-157
2024-05-27T22:33:02.458;599616248393538282;6907.2173;-176
2024-05-27T22:33:02.465;599616248401230072;6914.909;-180
2024-05-27T22:33:02.473;599616248408921862;6922.601;-211
2024-05-27T22:33:02.481;599616248416613652;6930.293;-230
2024-05-27T22:33:02.488;599616248424305442;6937.9844;-213
2024-05-27T22:33:02.496;599616248431997232;6945.6763;-197
2024-05-27T22:33:02.504;599616248439689022;6953.368;-178
2024-05-27T22:33:02.512;599616248447380812;6961.06;-152
2024-05-27T22:33:02.519;599616248455072602;6968.7515;-129
2024-05-27T22:33:02.527;599616248462764392;6976.4434;-91
2024-05-27T22:33:02.535;599616248470456182;6984.1353;-61
2024-05-27T22:33:02.542;599616248478147972;6991.827;-68
2024-05-27T22:33:02.550;599616248485839762;6999.5186;-65
2024-05-27T22:33:02.558;599616248493531552;7007.2104;-14
2024-05-27T22:33:02.565;599616248501223342;7014.9023;25
2024-05-27T22:33:02.573;599616248508915132;7022.594;32
2024-05-27T22:33:02.581;599616248516606922;7030.2856;44
2024-05-27T22:33:02.588;599616248524298712;7037.978;63
2024-05-27T22:33:02.596;599616248531990502;7045.67;75
2024-05-27T22:33:02.604;599616248539682292;7053.362;82
2024-05-27T22:33:02.612;599616248547374082;7061.053;100
2024-05-27T22:33:02.619;599616248555065872;7068.745;77
2024-05-27T22:33:02.627;599616248562757662;7076.437;-28
2024-05-27T22:33:02.635;599616248570449452;7084.129;-100
2024-05-27T22:33:02.642;599616248578141242;7091.8203;-56
2024-05-27T22:33:02.650;599616248585833032;7099.512;7
2024-05-27T22:33:02.658;599616248593524822;7107.204;18
2024-05-27T22:33:02.665;599616248601216612;7114.896;44
2024-05-27T22:33:02.673;599616248608908402;7122.588;89
2024-05-27T22:33:02.681;599616248616600192;7130.2793;98
2024-05-27T22:33:02.688;599616248624291982;7137.971;89
2024-05-27T22:33:02.696;599616248631983772;7145.663;105
2024-05-27T22:33:02.704;599616248639675562;7153.355;136
2024-05-27T22:33:02.712;599616248647367352;7161.0464;126
2024-05-27T22:33:02.719;599616248655059142;7168.7383;65
2024-05-27T22:33:02.727;599616248662750932;7176.43;23
2024-05-27T22:33:02.735;599616248670442722;7184.122;30
2024-05-27T22:33:02.742;599616248678134512;7191.8135;56
2024-05-27T22:33:02.750;599616248685826302;7199.5054;152
2024-05-27T22:33:02.758;599616248693518092;7207.1973;448
2024-05-27T22:33:02.765;599616248701209882;7214.889;847
2024-05-27T22:33:02.773;599616248708901672;7222.5806;946
2024-05-27T22:33:02.781;599616248716593462;7230.2725;547
2024-05-27T22:33:02.788;599616248724285252;7237.9644;100
2024-05-27T22:33:02.796;599616248731977042;7245.6562;72
2024-05-27T22:33:02.804;599616248739668832;7253.3477;215
2024-05-27T22:33:02.812;599616248747360622;7261.0396;183
2024-05-27T22:33:02.819;599616248755052412;7268.7314;122
2024-05-27T22:33:02.827;599616248762744202;7276.4233;169
2024-05-27T22:33:02.835;599616248770435992;7284.1147;208
2024-05-27T22:33:02.842;599616248778127782;7291.8066;201
2024-05-27T22:33:02.850;599616248785819584;7299.4985;215
2024-05-27T22:33:02.858;599616248793511374;7307.191;248
2024-05-27T22:33:02.865;599616248801203164;7314.8823;251
2024-05-27T22:33:02.873;599616248808894954;7322.574;244
2024-05-27T22:33:02.881;599616248816586744;7330.266;265
2024-05-27T22:33:02.888;599616248824278534;7337.958;298
2024-05-27T22:33:02.896;599616248831970324;7345.65;316
2024-05-27T22:33:02.904;599616248839662114;7353.3413;307
2024-05-27T22:33:02.912;599616248847353904;7361.033;267
2024-05-27T22:33:02.919;599616248855045694;7368.725;225
2024-05-27T22:33:02.927;599616248862737484;7376.417;180
2024-05-27T22:33:02.935;599616248870429274;7384.1084;103
2024-05-27T22:33:02.942;599616248878121064;7391.8003;56
2024-05-27T22:33:02.950;599616248885812854;7399.492;72
2024-05-27T22:33:02.958;599616248893504644;7407.184;44
2024-05-27T22:33:02.965;599616248901196434;7414.8755;-30
2024-05-27T22:33:02.973;599616248908888224;7422.5674;-28
2024-05-27T22:33:02.981;599616248916580014;7430.2593;21
2024-05-27T22:33:02.988;599616248924271804;7437.951;28
2024-05-27T22:33:02.996;599616248931963594;7445.6426;9
2024-05-27T22:33:03.004;599616248939655384;7453.3345;9
2024-05-27T22:33:03.012;599616248947347174;7461.0264;28
2024-05-27T22:33:03.019;599616248955038964;7468.7183;49
2024-05-27T22:33:03.027;599616248962730754;7476.4097;65
2024-05-27T22:33:03.035;599616248970422544;7484.1016;72
2024-05-27T22:33:03.042;599616248978114334;7491.7935;44
2024-05-27T22:33:03.050;599616248985806124;7499.4854;-28
2024-05-27T22:33:03.058;599616248993497914;7507.177;-91
2024-05-27T22:33:03.065;599616249001189704;7514.8687;-119
2024-05-27T22:33:03.073;599616249008881494;7522.5605;-126
2024-05-27T22:33:03.081;599616249016573284;7530.2524;-129
2024-05-27T22:33:03.088;599616249024265074;7537.944;-143
2024-05-27T22:33:03.096;599616249031956864;7545.6357;-157
2024-05-27T22:33:03.104;599616249039648654;7553.3276;-154
2024-05-27T22:33:03.112;599616249047340444;7561.0195;-154
2024-05-27T22:33:03.119;599616249055032234;7568.711;-154
2024-05-27T22:33:03.127;599616249062724024;7576.403;-173
2024-05-27T22:33:03.135;599616249070415814;7584.0947;-262
2024-05-27T22:33:03.142;599616249078107604;7591.787;-349
2024-05-27T22:33:03.150;599616249085799394;7599.479;-333
2024-05-27T22:33:03.158;599616249093491184;7607.1704;-274
2024-05-27T22:33:03.165;599616249101182974;7614.8623;-244
2024-05-27T22:33:03.173;599616249108874764;7622.554;-227
2024-05-27T22:33:03.181;599616249116566554;7630.246;-206
2024-05-27T22:33:03.188;599616249124258344;7637.9375;-185
2024-05-27T22:33:03.196;599616249131950134;7645.6294;-161
2024-05-27T22:33:03.204;599616249139641924;7653.3213;-157
2024-05-27T22:33:03.212;599616249147333714;7661.013;-173
2024-05-27T22:33:03.219;599616249155025504;7668.7046;-154
2024-05-27T22:33:03.227;599616249162717294;7676.3965;-122
2024-05-27T22:33:03.235;599616249170409084;7684.0884;-124
2024-05-27T22:33:03.242;599616249178100874;7691.7803;-110
2024-05-27T22:33:03.250;599616249185792664;7699.4717;-53
2024-05-27T22:33:03.258;599616249193484454;7707.1636;-16
2024-05-27T22:33:03.265;599616249201176244;7714.8555;-9
2024-05-27T22:33:03.273;599616249208868034;7722.5474;16
2024-05-27T22:33:03.281;599616249216559824;7730.239;42
2024-05-27T22:33:03.288;599616249224251614;7737.9307;49
2024-05-27T22:33:03.296;599616249231943404;7745.6226;58
2024-05-27T22:33:03.304;599616249239635194;7753.3145;96
2024-05-27T22:33:03.312;599616249247326984;7761.006;140
2024-05-27T22:33:03.319;599616249255018774;7768.6978;152
2024-05-27T22:33:03.327;599616249262710564;7776.3896;133
2024-05-27T22:33:03.335;599616249270402354;7784.0815;147
2024-05-27T22:33:03.342;599616249278094144;7791.773;190
2024-05-27T22:33:03.350;599616249285785934;7799.465;208
2024-05-27T22:33:03.358;599616249293477724;7807.1567;215
2024-05-27T22:33:03.365;599616249301169514;7814.8486;234
2024-05-27T22:33:03.373;599616249308861304;7822.5405;239
2024-05-27T22:33:03.381;599616249316553094;7830.232;230
2024-05-27T22:33:03.388;599616249324244884;7837.924;232
2024-05-27T22:33:03.396;599616249331936674;7845.6157;262
2024-05-27T22:33:03.404;599616249339628464;7853.3076;295
2024-05-27T22:33:03.412;599616249347330346;7861.0093;293
2024-05-27T22:33:03.419;599616249355021996;7868.701;274
2024-05-27T22:33:03.427;599616249362713646;7876.393;300
2024-05-27T22:33:03.435;599616249370405296;7884.084;340
2024-05-27T22:33:03.442;599616249378096946;7891.776;326
2024-05-27T22:33:03.450;599616249385788596;7899.468;277
2024-05-27T22:33:03.458;599616249393480246;7907.1597;234
2024-05-27T22:33:03.465;599616249401171896;7914.8506;187
2024-05-27T22:33:03.473;599616249408863546;7922.5425;100
2024-05-27T22:33:03.481;599616249416555196;7930.2344;32
2024-05-27T22:33:03.488;599616249424246846;7937.9263;42
2024-05-27T22:33:03.496;599616249431938496;7945.617;58
2024-05-27T22:33:03.504;599616249439630146;7953.309;93
2024-05-27T22:33:03.512;599616249447321796;7961.001;314
2024-05-27T22:33:03.519;599616249455013446;7968.693;718
2024-05-27T22:33:03.527;599616249462705096;7976.384;913
2024-05-27T22:33:03.535;599616249470396746;7984.0757;579
2024-05-27T22:33:03.542;599616249478088396;7991.7676;68
2024-05-27T22:33:03.550;599616249485780046;7999.4595;-70
2024-05-27T22:33:03.558;599616249493471696;8007.151;37
2024-05-27T22:33:03.565;599616249501163346;8014.8423;21
2024-05-27T22:33:03.573;599616249508854996;8022.534;-30
2024-05-27T22:33:03.581;599616249516546646;8030.226;23
2024-05-27T22:33:03.588;599616249524238296;8037.9175;63
2024-05-27T22:33:03.596;599616249531929946;8045.609;39
2024-05-27T22:33:03.604;599616249539621596;8053.301;37
2024-05-27T22:33:03.611;599616249547313246;8060.9927;68
2024-05-27T22:33:03.619;599616249555004896;8068.684;84
2024-05-27T22:33:03.627;599616249562696546;8076.3755;79
2024-05-27T22:33:03.635;599616249570388196;8084.0674;30
2024-05-27T22:33:03.642;599616249578079846;8091.7593;-56
2024-05-27T22:33:03.650;599616249585771496;8099.4507;-115
2024-05-27T22:33:03.658;599616249593463146;8107.142;-143
2024-05-27T22:33:03.665;599616249601154796;8114.834;-159
2024-05-27T22:33:03.673;599616249608846446;8122.526;-171
2024-05-27T22:33:03.681;599616249616538096;8130.2173;-206
2024-05-27T22:33:03.688;599616249624229746;8137.9087;-244
2024-05-27T22:33:03.696;599616249631921396;8145.6006;-277
2024-05-27T22:33:03.704;599616249639613046;8153.2925;-326
2024-05-27T22:33:03.711;599616249647304696;8160.984;-345
2024-05-27T22:33:03.719;599616249654996346;8168.6753;-316
2024-05-27T22:33:03.727;599616249662687996;8176.367;-281
2024-05-27T22:33:03.735;599616249670379646;8184.059;-272
2024-05-27T22:33:03.742;599616249678071296;8191.7505;-288
2024-05-27T22:33:03.750;599616249685762946;8199.442;-279
2024-05-27T22:33:03.758;599616249693454596;8207.134;-232
2024-05-27T22:33:03.765;599616249701146246;8214.825;-192
2024-05-27T22:33:03.773;599616249708837896;8222.518;-178
2024-05-27T22:33:03.781;599616249716529546;8230.209;-159
2024-05-27T22:33:03.788;599616249724221196;8237.9;-131
2024-05-27T22:33:03.796;599616249731912846;8245.592;-110
2024-05-27T22:33:03.804;599616249739604496;8253.284;-96
2024-05-27T22:33:03.811;599616249747296146;8260.976;-72
2024-05-27T22:33:03.819;599616249754987796;8268.667;-30
2024-05-27T22:33:03.827;599616249762679446;8276.358;-7
2024-05-27T22:33:03.835;599616249770371096;8284.051;-18
2024-05-27T22:33:03.842;599616249778062746;8291.741;-16
2024-05-27T22:33:03.850;599616249785754396;8299.434;35
2024-05-27T22:33:03.858;599616249793446046;8307.125;72
2024-05-27T22:33:03.865;599616249801137696;8314.817;77
2024-05-27T22:33:03.873;599616249808829346;8322.508;91
2024-05-27T22:33:03.881;599616249816520996;8330.2;115
2024-05-27T22:33:03.888;599616249824212646;8337.892;119
2024-05-27T22:33:03.896;599616249831904296;8345.584;131
2024-05-27T22:33:03.904;599616249839595946;8353.274;169
2024-05-27T22:33:03.911;599616249847287596;8360.967;201
2024-05-27T22:33:03.919;599616249854979246;8368.658;204
2024-05-27T22:33:03.927;599616249862670896;8376.351;190
2024-05-27T22:33:03.935;599616249870362546;8384.041;192
2024-05-27T22:33:03.942;599616249878054196;8391.733;192
2024-05-27T22:33:03.950;599616249885745846;8399.425;147
2024-05-27T22:33:03.958;599616249893437496;8407.117;117
2024-05-27T22:33:03.965;599616249901129146;8414.808;145
2024-05-27T22:33:03.973;599616249908830862;8422.51;164
2024-05-27T22:33:03.981;599616249916522373;8430.201;157
2024-05-27T22:33:03.988;599616249924213884;8437.894;169
2024-05-27T22:33:03.996;599616249931905395;8445.584;206
2024-05-27T22:33:04.004;599616249939596906;8453.276;239
2024-05-27T22:33:04.011;599616249947288417;8460.968;237
2024-05-27T22:33:04.019;599616249954979928;8468.659;213
2024-05-27T22:33:04.027;599616249962671439;8476.351;223
2024-05-27T22:33:04.035;599616249970362950;8484.042;253
2024-05-27T22:33:04.042;599616249978054461;8491.733;208
2024-05-27T22:33:04.050;599616249985745972;8499.425;138
2024-05-27T22:33:04.058;599616249993437483;8507.116;150
2024-05-27T22:33:04.065;599616250001128994;8514.809;171
2024-05-27T22:33:04.073;599616250008820505;8522.5;150
2024-05-27T22:33:04.081;599616250016512016;8530.191;159
2024-05-27T22:33:04.088;599616250024203527;8537.883;206
2024-05-27T22:33:04.096;599616250031895038;8545.574;227
2024-05-27T22:33:04.104;599616250039586549;8553.266;204
2024-05-27T22:33:04.111;599616250047278060;8560.957;187
2024-05-27T22:33:04.119;599616250054969571;8568.648;211
2024-05-27T22:33:04.127;599616250062661082;8576.341;241
2024-05-27T22:33:04.135;599616250070352593;8584.032;192
2024-05-27T22:33:04.142;599616250078044104;8591.724;61
2024-05-27T22:33:04.150;599616250085735615;8599.415;-23
2024-05-27T22:33:04.158;599616250093427126;8607.106;-23
2024-05-27T22:33:04.165;599616250101118637;8614.797;-37
2024-05-27T22:33:04.173;599616250108810148;8622.489;-42
2024-05-27T22:33:04.181;599616250116501659;8630.181;2
2024-05-27T22:33:04.188;599616250124193170;8637.872;14
2024-05-27T22:33:04.196;599616250131884681;8645.563;-37
2024-05-27T22:33:04.204;599616250139576192;8653.256;-44
2024-05-27T22:33:04.211;599616250147267703;8660.947;7
2024-05-27T22:33:04.219;599616250154959214;8668.639;21
2024-05-27T22:33:04.227;599616250162650725;8676.329;9
2024-05-27T22:33:04.235;599616250170342236;8684.021;46
2024-05-27T22:33:04.242;599616250178033747;8691.713;84
2024-05-27T22:33:04.250;599616250185725258;8699.404;61
2024-05-27T22:33:04.258;599616250193416769;8707.096;18
2024-05-27T22:33:04.265;599616250201108280;8714.788;-11
2024-05-27T22:33:04.273;599616250208799791;8722.4795;-58
2024-05-27T22:33:04.281;599616250216491302;8730.17;-107
2024-05-27T22:33:04.288;599616250224182813;8737.861;-23
2024-05-27T22:33:04.296;599616250231874324;8745.554;307
2024-05-27T22:33:04.304;599616250239565835;8753.245;659
2024-05-27T22:33:04.311;599616250247257346;8760.937;615
2024-05-27T22:33:04.319;599616250254948857;8768.628;145
2024-05-27T22:33:04.327;599616250262640368;8776.32;-223
2024-05-27T22:33:04.335;599616250270331879;8784.012;-185
2024-05-27T22:33:04.342;599616250278023390;8791.702;-105
2024-05-27T22:33:04.350;599616250285714901;8799.394;-161
2024-05-27T22:33:04.358;599616250293406412;8807.086;-150
2024-05-27T22:33:04.365;599616250301097923;8814.777;-84
2024-05-27T22:33:04.373;599616250308789434;8822.469;-86
2024-05-27T22:33:04.381;599616250316480945;8830.16;-86
2024-05-27T22:33:04.388;599616250324172456;8837.852;-51
2024-05-27T22:33:04.396;599616250331863967;8845.543;-37
2024-05-27T22:33:04.404;599616250339555478;8853.234;-32
2024-05-27T22:33:04.411;599616250347246989;8860.926;-4
2024-05-27T22:33:04.419;599616250354938500;8868.617;42
2024-05-27T22:33:04.427;599616250362630011;8876.31;70
2024-05-27T22:33:04.435;599616250370321522;8884.001;51
2024-05-27T22:33:04.442;599616250378013033;8891.692;11
2024-05-27T22:33:04.450;599616250385704544;8899.383;16
2024-05-27T22:33:04.458;599616250393396055;8907.075;53
2024-05-27T22:33:04.465;599616250401087566;8914.767;72
2024-05-27T22:33:04.473;599616250408779077;8922.458;86
2024-05-27T22:33:04.481;599616250416470588;8930.149;105
2024-05-27T22:33:04.488;599616250424162099;8937.842;115
2024-05-27T22:33:04.496;599616250431853610;8945.533;122
2024-05-27T22:33:04.504;599616250439545121;8953.225;147
2024-05-27T22:33:04.511;599616250447236632;8960.915;187
2024-05-27T22:33:04.519;599616250454928143;8968.607;192
2024-05-27T22:33:04.527;599616250462619654;8976.299;161
2024-05-27T22:33:04.534;599616250470291112;8983.97;166
2024-05-27T22:33:04.542;599616250477982902;8991.662;206
2024-05-27T22:33:04.550;599616250485674692;8999.354;218
2024-05-27T22:33:04.558;599616250493366482;9007.046;220
2024-05-27T22:33:04.565;599616250501058272;9014.738;237
2024-05-27T22:33:04.573;599616250508750062;9022.429;227
2024-05-27T22:33:04.581;599616250516441852;9030.121;154
2024-05-27T22:33:04.588;599616250524133642;9037.8125;82
2024-05-27T22:33:04.596;599616250531825432;9045.505;96
2024-05-27T22:33:04.604;599616250539517222;9053.196;136
2024-05-27T22:33:04.611;599616250547209012;9060.889;124
2024-05-27T22:33:04.619;599616250554900802;9068.58;105
2024-05-27T22:33:04.627;599616250562592592;9076.272;136
2024-05-27T22:33:04.634;599616250570284382;9083.964;180
2024-05-27T22:33:04.642;599616250577976172;9091.655;178
2024-05-27T22:33:04.650;599616250585667962;9099.347;105
2024-05-27T22:33:04.658;599616250593359752;9107.039;49
2024-05-27T22:33:04.665;599616250601051542;9114.73;63
2024-05-27T22:33:04.673;599616250608743332;9122.423;75
2024-05-27T22:33:04.681;599616250616435122;9130.114;46
2024-05-27T22:33:04.688;599616250624126912;9137.807;14
2024-05-27T22:33:04.696;599616250631818702;9145.498;21
2024-05-27T22:33:04.704;599616250639510492;9153.189;37
2024-05-27T22:33:04.711;599616250647202282;9160.881;37
2024-05-27T22:33:04.719;599616250654894072;9168.573;63
2024-05-27T22:33:04.727;599616250662585862;9176.265;103
2024-05-27T22:33:04.734;599616250670277652;9183.957;117
2024-05-27T22:33:04.742;599616250677969442;9191.648;138
2024-05-27T22:33:04.750;599616250685661232;9199.341;169
2024-05-27T22:33:04.758;599616250693353022;9207.032;150
2024-05-27T22:33:04.765;599616250701044812;9214.724;96
2024-05-27T22:33:04.773;599616250708736602;9222.415;79
2024-05-27T22:33:04.781;599616250716428392;9230.107;115
2024-05-27T22:33:04.788;599616250724120182;9237.799;133
2024-05-27T22:33:04.796;599616250731811972;9245.491;112
2024-05-27T22:33:04.804;599616250739503762;9253.183;100
2024-05-27T22:33:04.811;599616250747195552;9260.875;115
2024-05-27T22:33:04.819;599616250754887342;9268.566;131
2024-05-27T22:33:04.827;599616250762579132;9276.259;136
2024-05-27T22:33:04.834;599616250770270922;9283.949;150
2024-05-27T22:33:04.842;599616250777962712;9291.642;176
2024-05-27T22:33:04.850;599616250785654502;9299.334;164
2024-05-27T22:33:04.858;599616250793346292;9307.025;143
2024-05-27T22:33:04.865;599616250801038082;9314.718;176
2024-05-27T22:33:04.873;599616250808729872;9322.409;213
2024-05-27T22:33:04.881;599616250816421662;9330.102;194
2024-05-27T22:33:04.888;599616250824113452;9337.793;138
2024-05-27T22:33:04.896;599616250831805242;9345.484;91
2024-05-27T22:33:04.904;599616250839497032;9353.176;56
2024-05-27T22:33:04.911;599616250847188822;9360.868;0
2024-05-27T22:33:04.919;599616250854880612;9368.56;-51
2024-05-27T22:33:04.927;599616250862572402;9376.252;-72
2024-05-27T22:33:04.934;599616250870264192;9383.943;-126
2024-05-27T22:33:04.942;599616250877955982;9391.636;-199
2024-05-27T22:33:04.950;599616250885647772;9399.327;-204
2024-05-27T22:33:04.958;599616250893339562;9407.019;-159
2024-05-27T22:33:04.965;599616250901031352;9414.71;-133
2024-05-27T22:33:04.973;599616250908723142;9422.402;-126
2024-05-27T22:33:04.981;599616250916414932;9430.094;-105
2024-05-27T22:33:04.988;599616250924106722;9437.786;-79
2024-05-27T22:33:04.996;599616250931798512;9445.478;-75
2024-05-27T22:33:05.004;599616250939490302;9453.17;-82
2024-05-27T22:33:05.011;599616250947182092;9460.861;-63
2024-05-27T22:33:05.019;599616250954873882;9468.553;-21
2024-05-27T22:33:05.027;599616250962565672;9476.244;2
2024-05-27T22:33:05.034;599616250970257462;9483.937;-7
2024-05-27T22:33:05.042;599616250977949252;9491.628;-11
2024-05-27T22:33:05.050;599616250985641042;9499.32;-4
2024-05-27T22:33:05.058;599616250993332832;9507.012;9
2024-05-27T22:33:05.065;599616251001024622;9514.704;131
2024-05-27T22:33:05.073;599616251008716412;9522.3955;464
2024-05-27T22:33:05.081;599616251016408202;9530.088;840
2024-05-27T22:33:05.088;599616251024099992;9537.778;861
2024-05-27T22:33:05.096;599616251031791794;9545.471;424
2024-05-27T22:33:05.104;599616251039483584;9553.162;14
2024-05-27T22:33:05.111;599616251047175374;9560.8545;25
2024-05-27T22:33:05.119;599616251054867164;9568.547;136
2024-05-27T22:33:05.127;599616251062558954;9576.238;46
2024-05-27T22:33:05.134;599616251070250744;9583.931;7
2024-05-27T22:33:05.142;599616251077942534;9591.622;84
2024-05-27T22:33:05.150;599616251085634324;9599.313;61
2024-05-27T22:33:05.158;599616251093326114;9607.005;-35
2024-05-27T22:33:05.165;599616251101017904;9614.697;-39
2024-05-27T22:33:05.173;599616251108709694;9622.389;-37
2024-05-27T22:33:05.181;599616251116401484;9630.081;-161
2024-05-27T22:33:05.188;599616251124093274;9637.772;-258
2024-05-27T22:33:05.196;599616251131785064;9645.465;-199
2024-05-27T22:33:05.204;599616251139476854;9653.156;-124
2024-05-27T22:33:05.211;599616251147168644;9660.848;-126
2024-05-27T22:33:05.219;599616251154860434;9668.539;-126
2024-05-27T22:33:05.227;599616251162552224;9676.231;-82
2024-05-27T22:33:05.234;599616251170244014;9683.923;-30
2024-05-27T22:33:05.242;599616251177935804;9691.615;-2
2024-05-27T22:33:05.250;599616251185627594;9699.307;25
2024-05-27T22:33:05.257;599616251193319384;9706.999;63
2024-05-27T22:33:05.265;599616251201011174;9714.69;77
2024-05-27T22:33:05.273;599616251208702964;9722.383;77
2024-05-27T22:33:05.281;599616251216394754;9730.073;96
2024-05-27T22:33:05.288;599616251224086544;9737.766;138
2024-05-27T22:33:05.296;599616251231778334;9745.457;171
2024-05-27T22:33:05.304;599616251239470124;9753.149;173
2024-05-27T22:33:05.311;599616251247161914;9760.841;159
2024-05-27T22:33:05.319;599616251254853704;9768.533;176
2024-05-27T22:33:05.327;599616251262545494;9776.225;208
2024-05-27T22:33:05.334;599616251270237284;9783.917;211
2024-05-27T22:33:05.342;599616251277929074;9791.607;223
2024-05-27T22:33:05.350;599616251285620864;9799.3;248
2024-05-27T22:33:05.357;599616251293312654;9806.991;246
2024-05-27T22:33:05.365;599616251301004444;9814.684;230
2024-05-27T22:33:05.373;599616251308696234;9822.375;251
2024-05-27T22:33:05.381;599616251316388024;9830.067;291
2024-05-27T22:33:05.388;599616251324079814;9837.759;307
2024-05-27T22:33:05.396;599616251331771604;9845.451;274
2024-05-27T22:33:05.404;599616251339463394;9853.143;211
2024-05-27T22:33:05.411;599616251347155184;9860.834;190
2024-05-27T22:33:05.419;599616251354846974;9868.526;192
2024-05-27T22:33:05.427;599616251362538764;9876.218;154
2024-05-27T22:33:05.434;599616251370230554;9883.91;133
2024-05-27T22:33:05.442;599616251377922344;9891.602;154
2024-05-27T22:33:05.450;599616251385614134;9899.294;133
2024-05-27T22:33:05.457;599616251393305924;9906.985;98
2024-05-27T22:33:05.465;599616251400997714;9914.678;133
2024-05-27T22:33:05.473;599616251408689504;9922.368;178
2024-05-27T22:33:05.481;599616251416381294;9930.061;171
2024-05-27T22:33:05.488;599616251424073084;9937.752;159
2024-05-27T22:33:05.496;599616251431764874;9945.444;166
2024-05-27T22:33:05.504;599616251439456664;9953.136;173
2024-05-27T22:33:05.511;599616251447148454;9960.828;173
2024-05-27T22:33:05.519;599616251454840244;9968.52;166
2024-05-27T22:33:05.527;599616251462532034;9976.212;145
2024-05-27T22:33:05.534;599616251470223824;9983.902;105
2024-05-27T22:33:05.542;599616251477915614;9991.595;37
2024-05-27T22:33:05.550;599616251485607404;9999.286;-25
2024-05-27T22:33:05.557;599616251493299194;10006.979;-30
2024-05-27T22:33:05.565;599616251500990984;10014.67;-14
2024-05-27T22:33:05.573;599616251508682774;10022.362;-28
2024-05-27T22:33:05.581;599616251516374564;10030.054;-42
2024-05-27T22:33:05.588;599616251524066354;10037.746;-37
2024-05-27T22:33:05.596;599616251531758144;10045.437;-37
2024-05-27T22:33:05.604;599616251539449934;10053.129;-39
2024-05-27T22:33:05.611;599616251547141724;10060.82;-28
2024-05-27T22:33:05.619;599616251554833514;10068.513;-2
2024-05-27T22:33:05.627;599616251562525304;10076.204;11
2024-05-27T22:33:05.634;599616251570217094;10083.896;0
2024-05-27T22:33:05.642;599616251577908884;10091.588;2
2024-05-27T22:33:05.650;599616251585600674;10099.28;30
2024-05-27T22:33:05.657;599616251593292476;10106.971;2
2024-05-27T22:33:05.665;599616251600984266;10114.663;-115
2024-05-27T22:33:05.673;599616251608676056;10122.355;-211
2024-05-27T22:33:05.681;599616251616367846;10130.047;-218
2024-05-27T22:33:05.688;599616251624059636;10137.739;-241
2024-05-27T22:33:05.696;599616251631751426;10145.431;-319
2024-05-27T22:33:05.704;599616251639443216;10153.123;-319
2024-05-27T22:33:05.711;599616251647135006;10160.814;-239
2024-05-27T22:33:05.719;599616251654826796;10168.507;-220
2024-05-27T22:33:05.727;599616251662518586;10176.197;-241
2024-05-27T22:33:05.734;599616251670210376;10183.89;-208
2024-05-27T22:33:05.742;599616251677902166;10191.581;-150
2024-05-27T22:33:05.750;599616251685593956;10199.273;-122
2024-05-27T22:33:05.757;599616251693285746;10206.965;-96
2024-05-27T22:33:05.765;599616251700977536;10214.657;-53
2024-05-27T22:33:05.773;599616251708669326;10222.349;-18
2024-05-27T22:33:05.781;599616251716361116;10230.041;-2
2024-05-27T22:33:05.788;599616251724052906;10237.731;14
2024-05-27T22:33:05.796;599616251731744696;10245.424;46
2024-05-27T22:33:05.804;599616251739436486;10253.115;91
2024-05-27T22:33:05.811;599616251747128276;10260.808;105
2024-05-27T22:33:05.819;599616251754820066;10268.499;96
2024-05-27T22:33:05.827;599616251762511856;10276.191;117
2024-05-27T22:33:05.834;599616251770203646;10283.883;152
2024-05-27T22:33:05.842;599616251777895436;10291.575;136
2024-05-27T22:33:05.850;599616251785587226;10299.266;124
2024-05-27T22:33:05.857;599616251793279016;10306.958;244
2024-05-27T22:33:05.865;599616251800970806;10314.649;544
2024-05-27T22:33:05.873;599616251808662596;10322.342;899
2024-05-27T22:33:05.881;599616251816354386;10330.033;990
2024-05-27T22:33:05.888;599616251824046176;10337.726;640
2024-05-27T22:33:05.896;599616251831737966;10345.417;211
2024-05-27T22:33:05.904;599616251839429756;10353.109;138
2024-05-27T22:33:05.911;599616251847121546;10360.8;211
2024-05-27T22:33:05.919;599616251854813336;10368.492;122
2024-05-27T22:33:05.927;599616251862505126;10376.184;44
2024-05-27T22:33:05.934;599616251870196916;10383.876;89
2024-05-27T22:33:05.942;599616251877888706;10391.567;122
2024-05-27T22:33:05.950;599616251885580496;10399.26;131
2024-05-27T22:33:05.957;599616251893272286;10406.952;145
2024-05-27T22:33:05.965;599616251900964076;10414.644;150
2024-05-27T22:33:05.973;599616251908655866;10422.336;171
2024-05-27T22:33:05.981;599616251916347656;10430.026;215
2024-05-27T22:33:05.988;599616251924039446;10437.719;241
2024-05-27T22:33:05.996;599616251931731236;10445.41;237
2024-05-27T22:33:06.004;599616251939423026;10453.103;241
2024-05-27T22:33:06.011;599616251947114816;10460.794;262
2024-05-27T22:33:06.019;599616251954806606;10468.486;281
2024-05-27T22:33:06.027;599616251962498396;10476.178;295
2024-05-27T22:33:06.034;599616251970190186;10483.87;316
2024-05-27T22:33:06.042;599616251977881976;10491.561;335
2024-05-27T22:33:06.050;599616251985573766;10499.253;326
2024-05-27T22:33:06.057;599616251993265556;10506.944;314
2024-05-27T22:33:06.065;599616252000957346;10514.637;338
2024-05-27T22:33:06.073;599616252008649136;10522.328;366
2024-05-27T22:33:06.081;599616252016340926;10530.0205;366
2024-05-27T22:33:06.088;599616252024032716;10537.712;352
2024-05-27T22:33:06.096;599616252031724506;10545.404;319
2024-05-27T22:33:06.104;599616252039416296;10553.095;260
2024-05-27T22:33:06.111;599616252047108086;10560.787;206
2024-05-27T22:33:06.119;599616252054799876;10568.479;190
2024-05-27T22:33:06.127;599616252062491666;10576.171;204
2024-05-27T22:33:06.134;599616252070183456;10583.862;204
2024-05-27T22:33:06.142;599616252077875246;10591.555;164
2024-05-27T22:33:06.150;599616252085567036;10599.246;138
2024-05-27T22:33:06.157;599616252093258826;10606.938;140
2024-05-27T22:33:06.165;599616252100950616;10614.629;72
2024-05-27T22:33:06.173;599616252108642406;10622.321;-35
2024-05-27T22:33:06.181;599616252116334196;10630.013;-46
2024-05-27T22:33:06.188;599616252124025986;10637.705;-16
2024-05-27T22:33:06.196;599616252131717776;10645.396;-18
2024-05-27T22:33:06.204;599616252139409566;10653.089;-9
2024-05-27T22:33:06.211;599616252147101356;10660.78;23
2024-05-27T22:33:06.219;599616252154793158;10668.473;49
2024-05-27T22:33:06.227;599616252162484948;10676.165;21
2024-05-27T22:33:06.234;599616252170176738;10683.855;-49
2024-05-27T22:33:06.242;599616252177868528;10691.548;-96
2024-05-27T22:33:06.250;599616252185560318;10699.239;-112
2024-05-27T22:33:06.257;599616252193252108;10706.932;-136
2024-05-27T22:33:06.265;599616252200943898;10714.623;-145
2024-05-27T22:33:06.273;599616252208635688;10722.315;-140
2024-05-27T22:33:06.281;599616252216327478;10730.007;-150
2024-05-27T22:33:06.288;599616252224019268;10737.699;-199
2024-05-27T22:33:06.296;599616252231711058;10745.39;-265
2024-05-27T22:33:06.304;599616252239402848;10753.082;-274
2024-05-27T22:33:06.311;599616252247094638;10760.773;-227
2024-05-27T22:33:06.319;599616252254786428;10768.466;-215
2024-05-27T22:33:06.327;599616252262478218;10776.157;-241
2024-05-27T22:33:06.334;599616252270170008;10783.85;-225
2024-05-27T22:33:06.342;599616252277861798;10791.541;-171
2024-05-27T22:33:06.350;599616252285553588;10799.233;-147
2024-05-27T22:33:06.357;599616252293245378;10806.924;-138
2024-05-27T22:33:06.365;599616252300937168;10814.616;-110
2024-05-27T22:33:06.373;599616252308628958;10822.308;-89
2024-05-27T22:33:06.380;599616252316320748;10830.0;-86
2024-05-27T22:33:06.388;599616252324012538;10837.691;-70
2024-05-27T22:33:06.396;599616252331704328;10845.384;-28
2024-05-27T22:33:06.404;599616252339396118;10853.075;-16
2024-05-27T22:33:06.411;599616252347087908;10860.768;-77
2024-05-27T22:33:06.419;599616252354779698;10868.458;-126
2024-05-27T22:33:06.427;599616252362471488;10876.15;-93
2024-05-27T22:33:06.434;599616252370163278;10883.842;-42
2024-05-27T22:33:06.442;599616252377855068;10891.534;-28
2024-05-27T22:33:06.450;599616252385546858;10899.226;-9
2024-05-27T22:33:06.457;599616252393238648;10906.918;30
2024-05-27T22:33:06.465;599616252400930438;10914.609;44
2024-05-27T22:33:06.473;599616252408622228;10922.302;39
2024-05-27T22:33:06.480;599616252416314018;10929.993;61
2024-05-27T22:33:06.488;599616252424005808;10937.685;107
2024-05-27T22:33:06.496;599616252431697598;10945.376;138
2024-05-27T22:33:06.504;599616252439389388;10953.068;138
2024-05-27T22:33:06.511;599616252447081178;10960.761;136
2024-05-27T22:33:06.519;599616252454772968;10968.452;157
2024-05-27T22:33:06.527;599616252462464758;10976.145;185
2024-05-27T22:33:06.534;599616252470156548;10983.836;192
2024-05-27T22:33:06.542;599616252477848338;10991.528;204
2024-05-27T22:33:06.550;599616252485540128;10999.219;230
2024-05-27T22:33:06.557;599616252493231918;11006.911;232
2024-05-27T22:33:06.565;599616252500923708;11014.603;223
2024-05-27T22:33:06.573;599616252508615498;11022.295;251
2024-05-27T22:33:06.580;599616252516307288;11029.986;305
2024-05-27T22:33:06.588;599616252523999078;11037.679;323
2024-05-27T22:33:06.596;599616252531690868;11045.37;300
2024-05-27T22:33:06.604;599616252539382658;11053.0625;286
2024-05-27T22:33:06.611;599616252547074448;11060.753;307
2024-05-27T22:33:06.619;599616252554766238;11068.445;321
2024-05-27T22:33:06.627;599616252562458028;11076.137;319
2024-05-27T22:33:06.634;599616252570149818;11083.829;333
2024-05-27T22:33:06.642;599616252577841608;11091.5205;340
2024-05-27T22:33:06.650;599616252585533398;11099.213;284
2024-05-27T22:33:06.657;599616252593225188;11106.904;265
2024-05-27T22:33:06.665;599616252600916978;11114.597;457
2024-05-27T22:33:06.673;599616252608608768;11122.288;779
2024-05-27T22:33:06.680;599616252616300558;11129.9795;892
2024-05-27T22:33:06.688;599616252623992348;11137.671;593
2024-05-27T22:33:06.696;599616252631684138;11145.363;119
2024-05-27T22:33:06.704;599616252639375928;11153.055;-56
2024-05-27T22:33:06.711;599616252647067718;11160.747;58
2024-05-27T22:33:06.719;599616252654759508;11168.438;96
2024-05-27T22:33:06.727;599616252662451298;11176.131;58
2024-05-27T22:33:06.734;599616252670143088;11183.822;96
2024-05-27T22:33:06.742;599616252677834878;11191.514;110
2024-05-27T22:33:06.750;599616252685526668;11199.205;91
2024-05-27T22:33:06.757;599616252693218458;11206.897;131
2024-05-27T22:33:06.765;599616252700910248;11214.589;185
2024-05-27T22:33:06.773;599616252708602038;11222.281;190
2024-05-27T22:33:06.780;599616252716293840;11229.974;190
2024-05-27T22:33:06.788;599616252723985630;11237.665;204
2024-05-27T22:33:06.796;599616252731677420;11245.357;218
2024-05-27T22:33:06.804;599616252739369210;11253.048;223
2024-05-27T22:33:06.811;599616252747061000;11260.74;239
2024-05-27T22:33:06.819;599616252754752790;11268.432;279
2024-05-27T22:33:06.827;599616252762444580;11276.124;295
2024-05-27T22:33:06.834;599616252770136370;11283.815;267
2024-05-27T22:33:06.842;599616252777828160;11291.508;260
2024-05-27T22:33:06.850;599616252785519950;11299.199;288
2024-05-27T22:33:06.857;599616252793211740;11306.892;239
2024-05-27T22:33:06.865;599616252800903530;11314.583;93
2024-05-27T22:33:06.873;599616252808595320;11322.274;16
2024-05-27T22:33:06.880;599616252816287110;11329.966;30
2024-05-27T22:33:06.888;599616252823978900;11337.658;39
2024-05-27T22:33:06.896;599616252831670690;11345.35;25
2024-05-27T22:33:06.904;599616252839362480;11353.042;-7
2024-05-27T22:33:06.911;599616252847054270;11360.733;-28
2024-05-27T22:33:06.919;599616252854746060;11368.426;-25
2024-05-27T22:33:06.927;599616252862437850;11376.117;-46
2024-05-27T22:33:06.934;599616252870129640;11383.809;-46
2024-05-27T22:33:06.942;599616252877821430;11391.5;2
2024-05-27T22:33:06.950;599616252885513220;11399.192;23
2024-05-27T22:33:06.957;599616252893205010;11406.884;14
2024-05-27T22:33:06.965;599616252900896800;11414.576;25
2024-05-27T22:33:06.973;599616252908588590;11422.268;30
2024-05-27T22:33:06.980;599616252916280380;11429.96;-9
2024-05-27T22:33:06.988;599616252923972170;11437.651;-53
2024-05-27T22:33:06.996;599616252931663960;11445.343;-63
2024-05-27T22:33:07.004;599616252939355750;11453.034;-82
2024-05-27T22:33:07.011;599616252947047540;11460.727;-143
2024-05-27T22:33:07.019;599616252954739330;11468.418;-183
2024-05-27T22:33:07.027;599616252962431120;11476.11;-166
2024-05-27T22:33:07.034;599616252970122910;11483.802;-140
2024-05-27T22:33:07.042;599616252977814700;11491.494;-143
2024-05-27T22:33:07.050;599616252985506490;11499.186;-138
2024-05-27T22:33:07.057;599616252993198280;11506.877;-117
2024-05-27T22:33:07.065;599616253000890070;11514.569;-117
2024-05-27T22:33:07.073;599616253008581860;11522.261;-131
2024-05-27T22:33:07.080;599616253016273650;11529.953;-119
2024-05-27T22:33:07.088;599616253023965440;11537.645;-84
2024-05-27T22:33:07.096;599616253031657230;11545.337;-65
2024-05-27T22:33:07.104;599616253039349020;11553.028;-82
2024-05-27T22:33:07.111;599616253047040810;11560.721;-93
2024-05-27T22:33:07.119;599616253054732600;11568.412;-70
2024-05-27T22:33:07.127;599616253062424390;11576.104;-46
2024-05-27T22:33:07.134;599616253070116180;11583.795;-46
2024-05-27T22:33:07.142;599616253077807970;11591.487;-56
2024-05-27T22:33:07.150;599616253085499760;11599.179;-84
2024-05-27T22:33:07.157;599616253093191550;11606.871;-122
2024-05-27T22:33:07.165;599616253100883340;11614.5625;-133
2024-05-27T22:33:07.173;599616253108575130;11622.255;-171
2024-05-27T22:33:07.180;599616253116266920;11629.946;-246
2024-05-27T22:33:07.188;599616253123958710;11637.638;-255
2024-05-27T22:33:07.196;599616253131650500;11645.329;-218
2024-05-27T22:33:07.204;599616253139342290;11653.021;-208
2024-05-27T22:33:07.211;599616253147034080;11660.713;-183
2024-05-27T22:33:07.219;599616253154725870;11668.405;-136
2024-05-27T22:33:07.227;599616253162417660;11676.097;-115
2024-05-27T22:33:07.234;599616253170109450;11683.789;-86
2024-05-27T22:33:07.242;599616253177801240;11691.48;-35
2024-05-27T22:33:07.250;599616253185493030;11699.172;-28
2024-05-27T22:33:07.257;599616253193184820;11706.863;-35
2024-05-27T22:33:07.265;599616253200876610;11714.556;7
2024-05-27T22:33:07.273;599616253208568400;11722.247;58
2024-05-27T22:33:07.280;599616253216260190;11729.939;72
2024-05-27T22:33:07.288;599616253223951980;11737.631;77
2024-05-27T22:33:07.296;599616253231643770;11745.323;91
2024-05-27T22:33:07.304;599616253239335560;11753.015;115
2024-05-27T22:33:07.311;599616253247027350;11760.707;129
2024-05-27T22:33:07.319;599616253254719140;11768.397;138
2024-05-27T22:33:07.327;599616253262410930;11776.09;169
2024-05-27T22:33:07.334;599616253270102720;11783.781;199
2024-05-27T22:33:07.342;599616253277824618;11791.503;192
2024-05-27T22:33:07.350;599616253285515990;11799.195;180
2024-05-27T22:33:07.357;599616253293207362;11806.887;225
2024-05-27T22:33:07.365;599616253300898734;11814.578;274
2024-05-27T22:33:07.373;599616253308590106;11822.27;269
2024-05-27T22:33:07.380;599616253316281478;11829.961;253
2024-05-27T22:33:07.388;599616253323972850;11837.652;230
2024-05-27T22:33:07.396;599616253331664222;11845.343;150
2024-05-27T22:33:07.404;599616253339355594;11853.034;46
2024-05-27T22:33:07.411;599616253347046966;11860.726;16
2024-05-27T22:33:07.419;599616253354738338;11868.417;42
2024-05-27T22:33:07.427;599616253362429710;11876.109;30
2024-05-27T22:33:07.434;599616253370121082;11883.801;7
2024-05-27T22:33:07.442;599616253377812454;11891.492;161
2024-05-27T22:33:07.450;599616253385503826;11899.183;556
2024-05-27T22:33:07.457;599616253393195198;11906.874;906
2024-05-27T22:33:07.465;599616253400886570;11914.565;824
2024-05-27T22:33:07.473;599616253408577942;11922.257;359
2024-05-27T22:33:07.480;599616253416269314;11929.948;30
2024-05-27T22:33:07.488;599616253423960686;11937.64;75
2024-05-27T22:33:07.496;599616253431652058;11945.332;161
2024-05-27T22:33:07.504;599616253439343430;11953.023;124
2024-05-27T22:33:07.511;599616253447034802;11960.714;136
2024-05-27T22:33:07.519;599616253454726174;11968.405;180
2024-05-27T22:33:07.527;599616253462417546;11976.097;161
2024-05-27T22:33:07.534;599616253470108918;11983.788;157
2024-05-27T22:33:07.542;599616253477800290;11991.4795;208
2024-05-27T22:33:07.550;599616253485491662;11999.171;232
2024-05-27T22:33:07.557;599616253493183034;12006.862;230
2024-05-27T22:33:07.565;599616253500874406;12014.553;248
2024-05-27T22:33:07.573;599616253508565778;12022.245;255
2024-05-27T22:33:07.580;599616253516257150;12029.937;248
2024-05-27T22:33:07.588;599616253523948522;12037.628;258
2024-05-27T22:33:07.596;599616253531639894;12045.319;288
2024-05-27T22:33:07.604;599616253539331266;12053.011;316
2024-05-27T22:33:07.611;599616253547022638;12060.702;314
2024-05-27T22:33:07.619;599616253554714010;12068.393;293
2024-05-27T22:33:07.627;599616253562405382;12076.084;300
2024-05-27T22:33:07.634;599616253570096754;12083.775;300
2024-05-27T22:33:07.642;599616253577788126;12091.468;230
2024-05-27T22:33:07.650;599616253585479498;12099.159;166
2024-05-27T22:33:07.657;599616253593170870;12106.851;178
2024-05-27T22:33:07.665;599616253600862242;12114.542;176
2024-05-27T22:33:07.673;599616253608553614;12122.232;131
2024-05-27T22:33:07.680;599616253616244986;12129.924;63
2024-05-27T22:33:07.688;599616253623936358;12137.615;-21
2024-05-27T22:33:07.696;599616253631627730;12145.307;-49
2024-05-27T22:33:07.703;599616253639319102;12152.998;-37
2024-05-27T22:33:07.711;599616253647010474;12160.689;-46
2024-05-27T22:33:07.719;599616253654701846;12168.382;-35
2024-05-27T22:33:07.727;599616253662393218;12176.072;2
2024-05-27T22:33:07.734;599616253670084590;12183.764;11
2024-05-27T22:33:07.742;599616253677775962;12191.455;18
2024-05-27T22:33:07.750;599616253685467334;12199.146;42
2024-05-27T22:33:07.757;599616253693158706;12206.838;25
2024-05-27T22:33:07.765;599616253700850078;12214.529;-37
2024-05-27T22:33:07.773;599616253708541450;12222.221;-72
2024-05-27T22:33:07.780;599616253716232822;12229.911;-77
2024-05-27T22:33:07.788;599616253723924194;12237.604;-119
2024-05-27T22:33:07.796;599616253731615566;12245.295;-171
2024-05-27T22:33:07.803;599616253739306938;12252.986;-178
2024-05-27T22:33:07.811;599616253746998310;12260.678;-164
2024-05-27T22:33:07.819;599616253754689682;12268.369;-164
2024-05-27T22:33:07.827;599616253762381054;12276.061;-166
2024-05-27T22:33:07.834;599616253770072426;12283.751;-145
2024-05-27T22:33:07.842;599616253777763798;12291.442;-117
2024-05-27T22:33:07.850;599616253785455170;12299.134;-133
2024-05-27T22:33:07.857;599616253793146542;12306.825;-150
2024-05-27T22:33:07.865;599616253800837914;12314.518;-112
2024-05-27T22:33:07.873;599616253808529286;12322.209;-70
2024-05-27T22:33:07.880;599616253816220658;12329.9;-72
2024-05-27T22:33:07.888;599616253823912030;12337.591;-115
2024-05-27T22:33:07.896;599616253831603402;12345.282;-143
2024-05-27T22:33:07.903;599616253839264686;12352.944;-122
2024-05-27T22:33:07.911;599616253846956476;12360.636;-98
2024-05-27T22:33:07.919;599616253854648266;12368.328;-91
2024-05-27T22:33:07.927;599616253862340056;12376.019;-53
2024-05-27T22:33:07.934;599616253870031846;12383.711;-35
2024-05-27T22:33:07.942;599616253877723636;12391.402;-122
2024-05-27T22:33:07.950;599616253885415426;12399.095;-208
2024-05-27T22:33:07.957;599616253893107216;12406.786;-169
2024-05-27T22:33:07.965;599616253900799006;12414.479;-110
2024-05-27T22:33:07.973;599616253908490796;12422.17;-105
2024-05-27T22:33:07.980;599616253916182586;12429.862;-93
2024-05-27T22:33:07.988;599616253923874376;12437.553;-65
2024-05-27T22:33:07.996;599616253931566166;12445.245;-49
2024-05-27T22:33:08.003;599616253939257956;12452.937;-32
2024-05-27T22:33:08.011;599616253946949746;12460.629;-2
2024-05-27T22:33:08.019;599616253954641536;12468.32;32
2024-05-27T22:33:08.027;599616253962333326;12476.013;58
2024-05-27T22:33:08.034;599616253970025116;12483.704;56
2024-05-27T22:33:08.042;599616253977716906;12491.396;61
2024-05-27T22:33:08.050;599616253985408696;12499.087;98
2024-05-27T22:33:08.057;599616253993100486;12506.779;126
2024-05-27T22:33:08.065;599616254000792276;12514.472;131
2024-05-27T22:33:08.073;599616254008484066;12522.163;147
2024-05-27T22:33:08.080;599616254016175856;12529.855;164
2024-05-27T22:33:08.088;599616254023867646;12537.547;169
2024-05-27T22:33:08.096;599616254031559436;12545.239;180
2024-05-27T22:33:08.103;599616254039251226;12552.931;208
2024-05-27T22:33:08.111;599616254046943016;12560.623;225
2024-05-27T22:33:08.119;599616254054634806;12568.313;223
2024-05-27T22:33:08.127;599616254062326596;12576.006;180
2024-05-27T22:33:08.134;599616254070018386;12583.697;124
2024-05-27T22:33:08.142;599616254077710176;12591.39;110
2024-05-27T22:33:08.150;599616254085401966;12599.081;126
2024-05-27T22:33:08.157;599616254093093756;12606.773;110
2024-05-27T22:33:08.165;599616254100785546;12614.465;82
2024-05-27T22:33:08.173;599616254108477336;12622.157;115
2024-05-27T22:33:08.180;599616254116169126;12629.848;298
2024-05-27T22:33:08.188;599616254123860916;12637.54;631
2024-05-27T22:33:08.196;599616254131552706;12645.231;863
2024-05-27T22:33:08.203;599616254139244496;12652.924;716
2024-05-27T22:33:08.211;599616254146936286;12660.615;237
2024-05-27T22:33:08.219;599616254154628076;12668.308;-107
2024-05-27T22:33:08.226;599616254162319866;12675.999;-42
2024-05-27T22:33:08.234;599616254170011656;12683.691;86
2024-05-27T22:33:08.242;599616254177703446;12691.382;42
2024-05-27T22:33:08.250;599616254185395236;12699.074;32
2024-05-27T22:33:08.257;599616254193087026;12706.766;98
2024-05-27T22:33:08.265;599616254200778816;12714.458;100
2024-05-27T22:33:08.273;599616254208470606;12722.149;84
2024-05-27T22:33:08.280;599616254216162396;12729.842;122
2024-05-27T22:33:08.288;599616254223854186;12737.533;164
2024-05-27T22:33:08.296;599616254231545976;12745.226;185
2024-05-27T22:33:08.303;599616254239237766;12752.916;190
2024-05-27T22:33:08.311;599616254246929556;12760.608;185
2024-05-27T22:33:08.319;599616254254621346;12768.3;204
2024-05-27T22:33:08.326;599616254262313136;12775.992;234
2024-05-27T22:33:08.334;599616254270004926;12783.684;241
2024-05-27T22:33:08.342;599616254277696716;12791.376;255
2024-05-27T22:33:08.350;599616254285388506;12799.068;284
2024-05-27T22:33:08.357;599616254293080296;12806.76;284
2024-05-27T22:33:08.365;599616254300772086;12814.452;265
2024-05-27T22:33:08.373;599616254308463876;12822.143;260
2024-05-27T22:33:08.380;599616254316155666;12829.835;230
2024-05-27T22:33:08.388;599616254323847456;12837.526;192
2024-05-27T22:33:08.396;599616254331539246;12845.219;183
2024-05-27T22:33:08.403;599616254339231036;12852.91;183
2024-05-27T22:33:08.411;599616254346922826;12860.603;164
2024-05-27T22:33:08.419;599616254354614616;12868.294;119
2024-05-27T22:33:08.426;599616254362306406;12875.986;77
2024-05-27T22:33:08.434;599616254369998196;12883.677;84
2024-05-27T22:33:08.442;599616254377689986;12891.369;103
2024-05-27T22:33:08.450;599616254385381776;12899.061;82
2024-05-27T22:33:08.457;599616254393073566;12906.753;65
2024-05-27T22:33:08.465;599616254400765368;12914.444;91
2024-05-27T22:33:08.473;599616254408457158;12922.137;117
2024-05-27T22:33:08.480;599616254416148948;12929.828;110
2024-05-27T22:33:08.488;599616254423840738;12937.5205;93
2024-05-27T22:33:08.496;599616254431532528;12945.211;84
2024-05-27T22:33:08.503;599616254439224318;12952.903;75
2024-05-27T22:33:08.511;599616254446916108;12960.595;32
2024-05-27T22:33:08.519;599616254454607898;12968.287;-30
2024-05-27T22:33:08.526;599616254462299688;12975.979;-21
2024-05-27T22:33:08.534;599616254469991478;12983.671;14
2024-05-27T22:33:08.542;599616254477683268;12991.362;-39
2024-05-27T22:33:08.550;599616254485375058;12999.055;-103
2024-05-27T22:33:08.557;599616254493066848;13006.745;-98
2024-05-27T22:33:08.565;599616254500758638;13014.4375;-122
2024-05-27T22:33:08.573;599616254508450428;13022.129;-171
2024-05-27T22:33:08.580;599616254516142218;13029.821;-180
2024-05-27T22:33:08.588;599616254523834008;13037.513;-171
2024-05-27T22:33:08.596;599616254531525798;13045.205;-169
2024-05-27T22:33:08.603;599616254539217588;13052.896;-164
2024-05-27T22:33:08.611;599616254546909378;13060.589;-154
2024-05-27T22:33:08.619;599616254554601168;13068.281;-147
2024-05-27T22:33:08.626;599616254562292958;13075.972;-199
2024-05-27T22:33:08.634;599616254569984748;13083.664;-272
2024-05-27T22:33:08.642;599616254577676538;13091.355;-255
2024-05-27T22:33:08.650;599616254585368328;13099.048;-194
2024-05-27T22:33:08.657;599616254593060118;13106.739;-178
2024-05-27T22:33:08.665;599616254600751908;13114.432;-176
2024-05-27T22:33:08.673;599616254608443698;13122.123;-150
2024-05-27T22:33:08.680;599616254616135488;13129.815;-131
2024-05-27T22:33:08.688;599616254623827278;13137.506;-126
2024-05-27T22:33:08.696;599616254631519068;13145.198;-166
2024-05-27T22:33:08.703;599616254639210858;13152.89;-227
2024-05-27T22:33:08.711;599616254646902648;13160.582;-208
2024-05-27T22:33:08.719;599616254654594438;13168.273;-169
2024-05-27T22:33:08.726;599616254662286228;13175.966;-185
2024-05-27T22:33:08.734;599616254669978018;13183.657;-171
2024-05-27T22:33:08.742;599616254677669808;13191.35;-107
2024-05-27T22:33:08.750;599616254685361598;13199.04;-77
2024-05-27T22:33:08.757;599616254693053388;13206.732;-72
2024-05-27T22:33:08.765;599616254700745178;13214.424;-44
2024-05-27T22:33:08.773;599616254708436968;13222.116;-23
2024-05-27T22:33:08.780;599616254716128758;13229.808;-18
2024-05-27T22:33:08.788;599616254723820548;13237.5;2
2024-05-27T22:33:08.796;599616254731512338;13245.191;53
2024-05-27T22:33:08.803;599616254739204128;13252.884;103
2024-05-27T22:33:08.811;599616254746895918;13260.575;103
2024-05-27T22:33:08.819;599616254754587708;13268.267;84
2024-05-27T22:33:08.826;599616254762279498;13275.958;105
2024-05-27T22:33:08.834;599616254769971288;13283.65;150
2024-05-27T22:33:08.842;599616254777663078;13291.342;159
2024-05-27T22:33:08.850;599616254785354868;13299.034;161
2024-05-27T22:33:08.857;599616254793046658;13306.726;180
2024-05-27T22:33:08.865;599616254800738448;13314.418;145
2024-05-27T22:33:08.873;599616254808430238;13322.109;77
2024-05-27T22:33:08.880;599616254816122028;13329.801;173
2024-05-27T22:33:08.888;599616254823813818;13337.492;530
2024-05-27T22:33:08.896;599616254831505608;13345.185;929
2024-05-27T22:33:08.903;599616254839197398;13352.877;967
2024-05-27T22:33:08.911;599616254846889188;13360.568;528
2024-05-27T22:33:08.919;599616254854580978;13368.261;91
2024-05-27T22:33:08.926;599616254862272768;13375.952;77
2024-05-27T22:33:08.934;599616254869964558;13383.645;197
2024-05-27T22:33:08.942;599616254877656348;13391.335;164
2024-05-27T22:33:08.950;599616254885348138;13399.027;145
2024-05-27T22:33:08.957;599616254893039928;13406.719;178
2024-05-27T22:33:08.965;599616254900731718;13414.411;166
2024-05-27T22:33:08.973;599616254908423508;13422.103;173
2024-05-27T22:33:08.980;599616254916115298;13429.795;230
2024-05-27T22:33:08.988;599616254923807088;13437.486;255
2024-05-27T22:33:08.996;599616254931498878;13445.179;246
2024-05-27T22:33:09.003;599616254939190668;13452.87;241
2024-05-27T22:33:09.011;599616254946882458;13460.562;258
2024-05-27T22:33:09.019;599616254954574248;13468.253;272
2024-05-27T22:33:09.026;599616254962286138;13475.965;274
2024-05-27T22:33:09.034;599616254969977649;13483.657;295
2024-05-27T22:33:09.042;599616254977669160;13491.349;316
2024-05-27T22:33:09.050;599616254985360671;13499.04;253
2024-05-27T22:33:09.057;599616254993052182;13506.731;138
2024-05-27T22:33:09.065;599616255000743693;13514.423;124
2024-05-27T22:33:09.073;599616255008435204;13522.114;180
2024-05-27T22:33:09.080;599616255016126715;13529.806;183
2024-05-27T22:33:09.088;599616255023818226;13537.497;159
2024-05-27T22:33:09.096;599616255031509737;13545.189;157
2024-05-27T22:33:09.103;599616255039201248;13552.881;166
2024-05-27T22:33:09.111;599616255046892759;13560.572;166
2024-05-27T22:33:09.119;599616255054584270;13568.263;143
2024-05-27T22:33:09.126;599616255062275781;13575.954;126
2024-05-27T22:33:09.134;599616255069967292;13583.646;133
2024-05-27T22:33:09.142;599616255077658803;13591.338;112
2024-05-27T22:33:09.150;599616255085350314;13599.029;98
2024-05-27T22:33:09.157;599616255093041825;13606.721;136
2024-05-27T22:33:09.165;599616255100733336;13614.413;171
2024-05-27T22:33:09.173;599616255108424847;13622.1045;166
2024-05-27T22:33:09.180;599616255116116358;13629.795;157
2024-05-27T22:33:09.188;599616255123807869;13637.486;159
2024-05-27T22:33:09.196;599616255131499380;13645.179;152
2024-05-27T22:33:09.203;599616255139190891;13652.87;75
2024-05-27T22:33:09.211;599616255146882402;13660.562;-46
2024-05-27T22:33:09.219;599616255154573913;13668.253;-77
2024-05-27T22:33:09.226;599616255162265424;13675.945;-46
2024-05-27T22:33:09.234;599616255169956935;13683.636;-70
2024-05-27T22:33:09.242;599616255177648446;13691.327;-89
2024-05-27T22:33:09.250;599616255185339957;13699.019;-42
2024-05-27T22:33:09.257;599616255193031468;13706.711;-14
2024-05-27T22:33:09.265;599616255200722979;13714.402;-21
2024-05-27T22:33:09.273;599616255208414490;13722.094;-14
2024-05-27T22:33:09.280;599616255216106001;13729.785;4
2024-05-27T22:33:09.288;599616255223797512;13737.478;7
2024-05-27T22:33:09.296;599616255231489023;13745.168;11
2024-05-27T22:33:09.303;599616255239180534;13752.859;30
2024-05-27T22:33:09.311;599616255246872045;13760.551;58
2024-05-27T22:33:09.319;599616255254563556;13768.243;68
2024-05-27T22:33:09.326;599616255262255067;13775.935;35
2024-05-27T22:33:09.334;599616255269946578;13783.626;-7
2024-05-27T22:33:09.342;599616255277638089;13791.317;-25
2024-05-27T22:33:09.350;599616255285329600;13799.008;-53
2024-05-27T22:33:09.357;599616255293021111;13806.7;-133
2024-05-27T22:33:09.365;599616255300712622;13814.392;-225
2024-05-27T22:33:09.373;599616255308404133;13822.083;-269
2024-05-27T22:33:09.380;599616255316095644;13829.774;-277
2024-05-27T22:33:09.388;599616255323787155;13837.467;-274
2024-05-27T22:33:09.396;599616255331478666;13845.158;-255
2024-05-27T22:33:09.403;599616255339170177;13852.85;-220
2024-05-27T22:33:09.411;599616255346861688;13860.54;-223
2024-05-27T22:33:09.419;599616255354553199;13868.232;-239
2024-05-27T22:33:09.426;599616255362244710;13875.924;-211
2024-05-27T22:33:09.434;599616255369936221;13883.615;-176
2024-05-27T22:33:09.442;599616255377627732;13891.307;-173
2024-05-27T22:33:09.449;599616255385319243;13898.999;-161
2024-05-27T22:33:09.457;599616255393010754;13906.69;-131
2024-05-27T22:33:09.465;599616255400702265;13914.381;-119
2024-05-27T22:33:09.473;599616255408393776;13922.072;-124
2024-05-27T22:33:09.480;599616255416085287;13929.765;-100
2024-05-27T22:33:09.488;599616255423776798;13937.456;-46
2024-05-27T22:33:09.496;599616255431468309;13945.147;-9
2024-05-27T22:33:09.503;599616255439159820;13952.839;-21
2024-05-27T22:33:09.511;599616255446851331;13960.531;-28
2024-05-27T22:33:09.519;599616255454542842;13968.223;0
2024-05-27T22:33:09.526;599616255462234353;13975.913;21
2024-05-27T22:33:09.534;599616255469925864;13983.6045;28
2024-05-27T22:33:09.542;599616255477617375;13991.297;49
2024-05-27T22:33:09.549;599616255485308886;13998.988;65
2024-05-27T22:33:09.557;599616255493000397;14006.68;35
2024-05-27T22:33:09.565;599616255500691908;14014.371;35
2024-05-27T22:33:09.573;599616255508383419;14022.0625;225
2024-05-27T22:33:09.580;599616255516074930;14029.754;626
2024-05-27T22:33:09.588;599616255523756466;14037.436;946
2024-05-27T22:33:09.596;599616255531448116;14045.128;807
2024-05-27T22:33:09.603;599616255539139766;14052.819;281
2024-05-27T22:33:09.611;599616255546831416;14060.51;-77
2024-05-27T22:33:09.619;599616255554523066;14068.202;-42
2024-05-27T22:33:09.626;599616255562214716;14075.894;30
2024-05-27T22:33:09.634;599616255569906366;14083.585;-9
2024-05-27T22:33:09.642;599616255577598016;14091.277;-7
2024-05-27T22:33:09.649;599616255585289666;14098.969;-25
2024-05-27T22:33:09.657;599616255592981316;14106.661;-112
2024-05-27T22:33:09.665;599616255600672966;14114.353;-107
2024-05-27T22:33:09.673;599616255608364616;14122.043;-35
2024-05-27T22:33:09.680;599616255616056266;14129.735;-14
2024-05-27T22:33:09.688;599616255623747916;14137.427;-21
2024-05-27T22:33:09.696;599616255631439566;14145.119;-11
2024-05-27T22:33:09.703;599616255639131216;14152.811;-58
2024-05-27T22:33:09.711;599616255646822866;14160.502;-150
2024-05-27T22:33:09.719;599616255654514516;14168.194;-157
2024-05-27T22:33:09.726;599616255662206166;14175.886;-89
2024-05-27T22:33:09.734;599616255669897816;14183.576;-58
2024-05-27T22:33:09.742;599616255677589466;14191.269;-68
2024-05-27T22:33:09.749;599616255685281116;14198.96;-53
2024-05-27T22:33:09.757;599616255692972766;14206.652;0
2024-05-27T22:33:09.765;599616255700664416;14214.344;44
2024-05-27T22:33:09.773;599616255708356066;14222.035;63
2024-05-27T22:33:09.780;599616255716047716;14229.728;72
2024-05-27T22:33:09.788;599616255723739366;14237.419;86
2024-05-27T22:33:09.796;599616255731431016;14245.109;100
2024-05-27T22:33:09.803;599616255739122666;14252.802;107
2024-05-27T22:33:09.811;599616255746814316;14260.493;126
2024-05-27T22:33:09.819;599616255754505966;14268.186;161
2024-05-27T22:33:09.826;599616255762197616;14275.877;176
2024-05-27T22:33:09.834;599616255769889266;14283.568;157
2024-05-27T22:33:09.842;599616255777580916;14291.261;157
2024-05-27T22:33:09.849;599616255785272566;14298.952;183
2024-05-27T22:33:09.857;599616255792964216;14306.643;150
2024-05-27T22:33:09.865;599616255800655866;14314.335;89
2024-05-27T22:33:09.873;599616255808347516;14322.026;86
2024-05-27T22:33:09.880;599616255816039166;14329.719;107
2024-05-27T22:33:09.888;599616255823730816;14337.41;103
2024-05-27T22:33:09.896;599616255831422466;14345.102;110
2024-05-27T22:33:09.903;599616255839114116;14352.794;150
2024-05-27T22:33:09.911;599616255846805766;14360.485;187
2024-05-27T22:33:09.919;599616255854497416;14368.176;194
2024-05-27T22:33:09.926;599616255862189066;14375.868;173
2024-05-27T22:33:09.934;599616255869880716;14383.56;178
2024-05-27T22:33:09.942;599616255877572366;14391.252;218
2024-05-27T22:33:09.949;599616255885264016;14398.943;239
2024-05-27T22:33:09.957;599616255892955666;14406.635;237
2024-05-27T22:33:09.965;599616255900647316;14414.327;248
2024-05-27T22:33:09.973;599616255908338966;14422.018;258
2024-05-27T22:33:09.980;599616255916030616;14429.709;246
2024-05-27T22:33:09.988;599616255923722266;14437.401;244
2024-05-27T22:33:09.996;599616255931413916;14445.093;269
2024-05-27T22:33:10.003;599616255939105566;14452.785;286
2024-05-27T22:33:10.011;599616255946797216;14460.477;239
2024-05-27T22:33:10.019;599616255954488866;14468.168;169
2024-05-27T22:33:10.026;599616255962180516;14475.86;159
2024-05-27T22:33:10.034;599616255969872166;14483.551;187
2024-05-27T22:33:10.042;599616255977563816;14491.242;180
2024-05-27T22:33:10.049;599616255985255466;14498.935;169
2024-05-27T22:33:10.057;599616255992947116;14506.626;180
2024-05-27T22:33:10.065;599616256000638766;14514.318;176
2024-05-27T22:33:10.073;599616256008330416;14522.01;147
2024-05-27T22:33:10.080;599616256016022066;14529.701;150
2024-05-27T22:33:10.088;599616256023713716;14537.394;180
2024-05-27T22:33:10.096;599616256031405366;14545.084;178
2024-05-27T22:33:10.103;599616256039097016;14552.775;124
2024-05-27T22:33:10.111;599616256046788666;14560.468;72
2024-05-27T22:33:10.119;599616256054480316;14568.159;82
2024-05-27T22:33:10.126;599616256062171966;14575.852;98
2024-05-27T22:33:10.134;599616256069863616;14583.543;44
2024-05-27T22:33:10.142;599616256077555266;14591.234;-14
2024-05-27T22:33:10.149;599616256085236896;14598.916;-28
2024-05-27T22:33:10.157;599616256092928686;14606.607;-72
2024-05-27T22:33:10.165;599616256100620476;14614.3;-143
2024-05-27T22:33:10.172;599616256108312266;14621.991;-136
2024-05-27T22:33:10.180;599616256116004056;14629.684;-86
2024-05-27T22:33:10.188;599616256123695846;14637.375;-93
2024-05-27T22:33:10.196;599616256131387636;14645.066;-131
2024-05-27T22:33:10.203;599616256139079426;14652.759;-154
2024-05-27T22:33:10.211;599616256146771216;14660.45;-211
2024-05-27T22:33:10.219;599616256154463006;14668.143;-356
2024-05-27T22:33:10.226;599616256162154796;14675.834;-476
2024-05-27T22:33:10.234;599616256169846586;14683.526;-467
2024-05-27T22:33:10.242;599616256177538376;14691.218;-446
2024-05-27T22:33:10.249;599616256185230166;14698.91;-478
2024-05-27T22:33:10.257;599616256192921956;14706.601;-385
2024-05-27T22:33:10.265;599616256200613746;14714.293;-23
2024-05-27T22:33:10.272;599616256208305536;14721.984;403
2024-05-27T22:33:10.280;599616256215997326;14729.677;483
2024-05-27T22:33:10.288;599616256223689116;14737.368;77
2024-05-27T22:33:10.296;599616256231380906;14745.061;-345
2024-05-27T22:33:10.303;599616256239072696;14752.752;-349
2024-05-27T22:33:10.311;599616256246764486;14760.444;-211
2024-05-27T22:33:10.319;599616256254456276;14768.135;-237
2024-05-27T22:33:10.326;599616256262148066;14775.827;-241
2024-05-27T22:33:10.334;599616256269839856;14783.519;-161
2024-05-27T22:33:10.342;599616256277531646;14791.211;-147
2024-05-27T22:33:10.349;599616256285223436;14798.902;-190
2024-05-27T22:33:10.357;599616256292915226;14806.595;-183
2024-05-27T22:33:10.365;599616256300607016;14814.286;-138
2024-05-27T22:33:10.372;599616256308298806;14821.979;-112
2024-05-27T22:33:10.380;599616256315990596;14829.669;-98
2024-05-27T22:33:10.388;599616256323682386;14837.361;-70
2024-05-27T22:33:10.396;599616256331374176;14845.053;-46
2024-05-27T22:33:10.403;599616256339065966;14852.745;-28
2024-05-27T22:33:10.411;599616256346757756;14860.437;7
2024-05-27T22:33:10.419;599616256354449546;14868.129;56
2024-05-27T22:33:10.426;599616256362141336;14875.82;82
2024-05-27T22:33:10.434;599616256369833126;14883.513;72
2024-05-27T22:33:10.442;599616256377524916;14891.203;84
2024-05-27T22:33:10.449;599616256385216706;14898.8955;124
2024-05-27T22:33:10.457;599616256392908496;14906.588;154
2024-05-27T22:33:10.465;599616256400600286;14914.279;157
2024-05-27T22:33:10.472;599616256408292076;14921.972;166
2024-05-27T22:33:10.480;599616256415983866;14929.663;185
2024-05-27T22:33:10.488;599616256423675656;14937.355;187
2024-05-27T22:33:10.496;599616256431367446;14945.047;187
2024-05-27T22:33:10.503;599616256439059236;14952.739;206
2024-05-27T22:33:10.511;599616256446751026;14960.43;237
2024-05-27T22:33:10.519;599616256454442816;14968.122;241
2024-05-27T22:33:10.526;599616256462134606;14975.813;218
2024-05-27T22:33:10.534;599616256469826396;14983.506;225
2024-05-27T22:33:10.542;599616256477518186;14991.197;260
2024-05-27T22:33:10.549;599616256485209976;14998.89;272
2024-05-27T22:33:10.557;599616256492901766;15006.581;265
2024-05-27T22:33:10.565;599616256500593556;15014.273;277
2024-05-27T22:33:10.572;599616256508285346;15021.964;279
2024-05-27T22:33:10.580;599616256515977136;15029.656;260
2024-05-27T22:33:10.588;599616256523668926;15037.348;248
2024-05-27T22:33:10.596;599616256531360716;15045.04;225
2024-05-27T22:33:10.603;599616256539052506;15052.731;187
2024-05-27T22:33:10.611;599616256546744296;15060.424;180
2024-05-27T22:33:10.619;599616256554436086;15068.115;183
2024-05-27T22:33:10.626;599616256562127876;15075.808;185
2024-05-27T22:33:10.634;599616256569819666;15083.498;206
2024-05-27T22:33:10.642;599616256577511456;15091.19;225
2024-05-27T22:33:10.649;599616256585203246;15098.882;227
2024-05-27T22:33:10.657;599616256592895036;15106.574;246
2024-05-27T22:33:10.665;599616256600586826;15114.266;258
2024-05-27T22:33:10.672;599616256608278616;15121.958;239
2024-05-27T22:33:10.680;599616256615970406;15129.649;239
2024-05-27T22:33:10.688;599616256623662196;15137.342;274
2024-05-27T22:33:10.696;599616256631353986;15145.032;293
2024-05-27T22:33:10.703;599616256639045776;15152.725;274
2024-05-27T22:33:10.711;599616256646767674;15160.447;199
2024-05-27T22:33:10.719;599616256654459046;15168.139;96
2024-05-27T22:33:10.726;599616256662150418;15175.829;58
2024-05-27T22:33:10.734;599616256669841790;15183.5205;84
2024-05-27T22:33:10.742;599616256677533162;15191.212;103
2024-05-27T22:33:10.749;599616256685224534;15198.903;115
2024-05-27T22:33:10.757;599616256692915906;15206.595;86
2024-05-27T22:33:10.765;599616256700607278;15214.287;4
2024-05-27T22:33:10.772;599616256708298650;15221.979;-21
2024-05-27T22:33:10.780;599616256715990022;15229.669;30
2024-05-27T22:33:10.788;599616256723681394;15237.36;30
2024-05-27T22:33:10.796;599616256731372766;15245.052;-39
2024-05-27T22:33:10.803;599616256739064138;15252.743;-65
2024-05-27T22:33:10.811;599616256746755510;15260.435;-39
2024-05-27T22:33:10.819;599616256754446882;15268.126;-30
2024-05-27T22:33:10.826;599616256762138254;15275.817;-28
2024-05-27T22:33:10.834;599616256769829626;15283.509;-23
2024-05-27T22:33:10.842;599616256777520998;15291.2;-65
2024-05-27T22:33:10.849;599616256785212370;15298.892;-131
2024-05-27T22:33:10.857;599616256792903742;15306.583;-136
2024-05-27T22:33:10.865;599616256800595114;15314.274;-86
2024-05-27T22:33:10.872;599616256808286486;15321.966;-37
2024-05-27T22:33:10.880;599616256815977858;15329.657;-25
2024-05-27T22:33:10.888;599616256823669230;15337.348;-30
2024-05-27T22:33:10.896;599616256831360602;15345.039;-23
2024-05-27T22:33:10.903;599616256839051974;15352.73;-2
2024-05-27T22:33:10.911;599616256846743346;15360.423;-7
2024-05-27T22:33:10.919;599616256854434718;15368.114;-49
2024-05-27T22:33:10.926;599616256862126090;15375.806;-82
2024-05-27T22:33:10.934;599616256869817462;15383.497;-136
2024-05-27T22:33:10.942;599616256877508834;15391.1875;-234
2024-05-27T22:33:10.949;599616256885200206;15398.879;-201
2024-05-27T22:33:10.957;599616256892891578;15406.57;103
2024-05-27T22:33:10.965;599616256900582950;15414.262;500
2024-05-27T22:33:10.972;599616256908274322;15421.953;617
2024-05-27T22:33:10.980;599616256915965694;15429.6455;262
2024-05-27T22:33:10.988;599616256923657066;15437.337;-208
2024-05-27T22:33:10.996;599616256931348438;15445.028;-309
2024-05-27T22:33:11.003;599616256939039810;15452.719;-187
2024-05-27T22:33:11.011;599616256946731182;15460.41;-185
2024-05-27T22:33:11.019;599616256954422554;15468.102;-206
2024-05-27T22:33:11.026;599616256962113926;15475.793;-159
2024-05-27T22:33:11.034;599616256969805298;15483.484;-159
2024-05-27T22:33:11.042;599616256977496670;15491.176;-169
2024-05-27T22:33:11.049;599616256985188042;15498.866;-115
2024-05-27T22:33:11.057;599616256992879414;15506.559;-70
2024-05-27T22:33:11.065;599616257000570786;15514.25;-70
2024-05-27T22:33:11.072;599616257008262158;15521.941;-58
2024-05-27T22:33:11.080;599616257015953530;15529.633;-44
2024-05-27T22:33:11.088;599616257023644902;15537.324;-84
2024-05-27T22:33:11.096;599616257031336274;15545.016;-140
2024-05-27T22:33:11.103;599616257039027646;15552.707;-129
2024-05-27T22:33:11.111;599616257046719018;15560.397;-72
2024-05-27T22:33:11.119;599616257054410390;15568.089;-56
2024-05-27T22:33:11.126;599616257062101762;15575.781;-72
2024-05-27T22:33:11.134;599616257069793134;15583.473;-51
2024-05-27T22:33:11.142;599616257077484506;15591.164;0
2024-05-27T22:33:11.149;599616257085175878;15598.855;21
2024-05-27T22:33:11.157;599616257092867250;15606.547;30
2024-05-27T22:33:11.165;599616257100558622;15614.237;53
2024-05-27T22:33:11.172;599616257108249994;15621.929;70
2024-05-27T22:33:11.180;599616257115941366;15629.62;65
2024-05-27T22:33:11.188;599616257123632738;15637.312;72
2024-05-27T22:33:11.196;599616257131324110;15645.004;103
2024-05-27T22:33:11.203;599616257139015482;15652.695;138
2024-05-27T22:33:11.211;599616257146706854;15660.387;138
2024-05-27T22:33:11.219;599616257154398226;15668.077;75
2024-05-27T22:33:11.226;599616257162089598;15675.769;-21
2024-05-27T22:33:11.234;599616257169780970;15683.46;-51
2024-05-27T22:33:11.242;599616257177472342;15691.151;-11
2024-05-27T22:33:11.249;599616257185163714;15698.843;9
2024-05-27T22:33:11.257;599616257192855086;15706.534;9
2024-05-27T22:33:11.265;599616257200546458;15714.226;18
2024-05-27T22:33:11.272;599616257208207742;15721.887;23
2024-05-27T22:33:11.280;599616257215899532;15729.579;42
2024-05-27T22:33:11.288;599616257223591322;15737.2705;84
2024-05-27T22:33:11.295;599616257231283112;15744.963;117
2024-05-27T22:33:11.303;599616257238974902;15752.654;117
2024-05-27T22:33:11.311;599616257246666692;15760.346;107
2024-05-27T22:33:11.319;599616257254358482;15768.037;124
2024-05-27T22:33:11.326;599616257262050272;15775.7295;154
2024-05-27T22:33:11.334;599616257269742062;15783.421;136
2024-05-27T22:33:11.342;599616257277433852;15791.113;110
2024-05-27T22:33:11.349;599616257285125642;15798.805;126
2024-05-27T22:33:11.357;599616257292817432;15806.497;110
2024-05-27T22:33:11.365;599616257300509222;15814.188;18
2024-05-27T22:33:11.372;599616257308201012;15821.88;-21
2024-05-27T22:33:11.380;599616257315892802;15829.571;25
2024-05-27T22:33:11.388;599616257323584592;15837.264;56
2024-05-27T22:33:11.395;599616257331276382;15844.955;42
2024-05-27T22:33:11.403;599616257338968172;15852.647;46
2024-05-27T22:33:11.411;599616257346659962;15860.339;82
2024-05-27T22:33:11.419;599616257354351752;15868.031;107
2024-05-27T22:33:11.426;599616257362043542;15875.723;112
2024-05-27T22:33:11.434;599616257369735332;15883.414;138
2024-05-27T22:33:11.442;599616257377427122;15891.105;173
2024-05-27T22:33:11.449;599616257385118912;15898.798;171
2024-05-27T22:33:11.457;599616257392810702;15906.49;152
2024-05-27T22:33:11.465;599616257400502492;15914.182;180
2024-05-27T22:33:11.472;599616257408194282;15921.874;225
2024-05-27T22:33:11.480;599616257415886072;15929.565;237
2024-05-27T22:33:11.488;599616257423577862;15937.258;225
2024-05-27T22:33:11.495;599616257431269652;15944.949;225
2024-05-27T22:33:11.503;599616257438961442;15952.641;244
2024-05-27T22:33:11.511;599616257446653232;15960.332;248
