Phone timestamp;sensor timestamp [ns];channel 0;channel 1;channel 2;ambient
2024-05-02T10:10:08.262;537838813750411907;-310352;-429372;-330846;-641268;
2024-05-02T10:10:08.280;537838813768572717;-310367;-429336;-330831;-641269;
2024-05-02T10:10:08.298;537838813786733527;-310326;-429289;-330786;-641297;
2024-05-02T10:10:08.316;537838813804894337;-310252;-429292;-330735;-641282;
2024-05-02T10:10:08.334;537838813823055147;-310254;-429230;-330686;-641349;
2024-05-02T10:10:08.352;537838813841215957;-310122;-429189;-330560;-641257;
2024-05-02T10:10:08.370;537838813859376767;-310165;-429178;-330579;-641265;
2024-05-02T10:10:08.389;537838813877537577;-310121;-429183;-330516;-641295;
2024-05-02T10:10:08.407;537838813895698387;-309981;-429085;-330386;-641239;
2024-05-02T10:10:08.425;537838813913859197;-310040;-429145;-330432;-641326;
2024-05-02T10:10:08.443;537838813932020007;-310028;-429083;-330426;-641273;
2024-05-02T10:10:08.461;537838813950180817;-310007;-429047;-330373;-641293;
2024-05-02T10:10:08.479;537838813968341627;-310065;-429080;-330315;-641292;
2024-05-02T10:10:08.498;537838813986502437;-309947;-428977;-330255;-641263;
2024-05-02T10:10:08.516;537838814004663247;-309881;-428939;-330253;-641326;
2024-05-02T10:10:08.534;537838814022824057;-309816;-428957;-330176;-641260;
2024-05-02T10:10:08.552;537838814040984867;-309796;-428881;-330175;-641299;
2024-05-02T10:10:08.570;537838814059145677;-309663;-428766;-329998;-641301;
2024-05-02T10:10:08.588;537838814077306487;-309561;-428752;-329933;-641282;
2024-05-02T10:10:08.607;537838814095467297;-309571;-428652;-329885;-641277;
2024-05-02T10:10:08.625;537838814113628107;-309500;-428637;-329791;-641270;
2024-05-02T10:10:08.643;537838814131788917;-309391;-428587;-329711;-641251;
2024-05-02T10:10:08.661;537838814149949727;-309318;-428504;-329675;-641295;
2024-05-02T10:10:08.679;537838814168110537;-309223;-428408;-329569;-641290;
2024-05-02T10:10:08.697;537838814186271347;-309137;-428420;-329485;-641286;
2024-05-02T10:10:08.716;537838814204432157;-309118;-428372;-329418;-641255;
2024-05-02T10:10:08.734;537838814222592967;-308991;-428302;-329344;-641258;
2024-05-02T10:10:08.752;537838814240753777;-308923;-428265;-329221;-641228;
2024-05-02T10:10:08.770;537838814258914587;-308832;-428207;-329152;-641267;
2024-05-02T10:10:08.788;537838814277075397;-308744;-428160;-329176;-641271;
2024-05-02T10:10:08.806;537838814295236207;-308692;-428069;-329062;-641286;
2024-05-02T10:10:08.824;537838814313397017;-308573;-427960;-328960;-641267;
2024-05-02T10:10:08.843;537838814331557827;-308476;-427920;-328902;-641277;
2024-05-02T10:10:08.861;537838814349718637;-308426;-427883;-328765;-641270;
2024-05-02T10:10:08.879;537838814367879447;-308314;-427832;-328652;-641255;
2024-05-02T10:10:08.897;537838814386040257;-308227;-427777;-328586;-641256;
2024-05-02T10:10:08.915;537838814404201067;-308152;-427734;-328491;-641241;
2024-05-02T10:10:08.933;537838814422361877;-308091;-427687;-328493;-641272;
2024-05-02T10:10:08.952;537838814440522687;-307904;-427596;-328359;-641218;
2024-05-02T10:10:08.970;537838814458683497;-307925;-427560;-328259;-641273;
2024-05-02T10:10:08.988;537838814476844307;-307815;-427505;-328172;-641289;
2024-05-02T10:10:09.006;537838814495005117;-307703;-427418;-328106;-641339;
2024-05-02T10:10:09.024;537838814513165927;-307606;-427405;-328102;-641322;
2024-05-02T10:10:09.042;537838814531326777;-307683;-427446;-328089;-641299;
2024-05-02T10:10:09.061;537838814549487587;-307752;-427486;-328141;-641357;
2024-05-02T10:10:09.079;537838814567648397;-307845;-427530;-328246;-641351;
2024-05-02T10:10:09.097;537838814585809207;-307981;-427619;-328285;-641319;
2024-05-02T10:10:09.115;537838814603970017;-308080;-427635;-328373;-641288;
2024-05-02T10:10:09.133;537838814622130827;-308174;-427682;-328412;-641392;
2024-05-02T10:10:09.151;537838814640291637;-308152;-427613;-328356;-641309;
2024-05-02T10:10:09.170;537838814658452447;-308144;-427661;-328445;-641361;
2024-05-02T10:10:09.188;537838814676613257;-308209;-427602;-328442;-641362;
2024-05-02T10:10:09.206;537838814694774067;-308169;-427584;-328367;-641300;
2024-05-02T10:10:09.224;537838814712934877;-308154;-427533;-328348;-641345;
2024-05-02T10:10:09.242;537838814731095687;-308190;-427572;-328347;-641307;
2024-05-02T10:10:09.260;537838814749256497;-308208;-427539;-328319;-641302;
2024-05-02T10:10:09.279;537838814767417307;-308074;-427521;-328230;-641247;
2024-05-02T10:10:09.297;537838814785578117;-308041;-427461;-328179;-641342;
2024-05-02T10:10:09.315;537838814803738927;-308070;-427471;-328146;-641321;
2024-05-02T10:10:09.333;537838814821899737;-308110;-427484;-328173;-641338;
2024-05-02T10:10:09.351;537838814840060547;-308047;-427416;-328195;-641308;
2024-05-02T10:10:09.369;537838814858221357;-308072;-427422;-328194;-641341;
2024-05-02T10:10:09.387;537838814876382167;-308100;-427433;-328211;-641319;
2024-05-02T10:10:09.406;537838814894542977;-308066;-427335;-328157;-641268;
2024-05-02T10:10:09.424;537838814912703787;-308056;-427283;-328075;-641274;
2024-05-02T10:10:09.442;537838814930864597;-308087;-427363;-328031;-641290;
2024-05-02T10:10:09.460;537838814949025407;-308052;-427324;-328012;-641340;
2024-05-02T10:10:09.478;537838814967186217;-308021;-427310;-327992;-641334;
2024-05-02T10:10:09.496;537838814985347027;-307974;-427265;-327968;-641324;
2024-05-02T10:10:09.515;537838815003507837;-307874;-427150;-327894;-641301;
2024-05-02T10:10:09.533;537838815021668647;-307790;-427080;-327778;-641344;
2024-05-02T10:10:09.551;537838815039829457;-307704;-427084;-327678;-641316;
2024-05-02T10:10:09.569;537838815057990267;-307609;-427055;-327649;-641331;
2024-05-02T10:10:09.587;537838815076151077;-307542;-426958;-327589;-641312;
2024-05-02T10:10:09.605;537838815094311887;-307518;-427000;-327543;-641275;
2024-05-02T10:10:09.624;537838815112472697;-307410;-426850;-327437;-641305;
2024-05-02T10:10:09.642;537838815130633507;-307351;-426835;-327345;-641218;
2024-05-02T10:10:09.660;537838815148794317;-307337;-426782;-327301;-641216;
2024-05-02T10:10:09.678;537838815166955127;-307221;-426721;-327239;-641283;
2024-05-02T10:10:09.696;537838815185115937;-307206;-426627;-327144;-641262;
2024-05-02T10:10:09.714;537838815203276747;-307083;-426580;-327080;-641237;
2024-05-02T10:10:09.733;537838815221437557;-307048;-426606;-327037;-641338;
2024-05-02T10:10:09.751;537838815239598367;-307030;-426585;-327014;-641348;
2024-05-02T10:10:09.769;537838815257759177;-306929;-426554;-326947;-641305;
2024-05-02T10:10:09.787;537838815275919987;-306848;-426483;-326848;-641320;
2024-05-02T10:10:09.805;537838815294080797;-306784;-426381;-326772;-641282;
2024-05-02T10:10:09.823;537838815312241607;-306714;-426333;-326722;-641310;
2024-05-02T10:10:09.841;537838815330403768;-306626;-426296;-326715;-641274;
2024-05-02T10:10:09.860;537838815348565901;-306565;-426248;-326601;-641255;
2024-05-02T10:10:09.878;537838815366728034;-306492;-426195;-326556;-641255;
2024-05-02T10:10:09.896;537838815384890167;-306472;-426104;-326484;-641264;
2024-05-02T10:10:09.914;537838815403052300;-306305;-426080;-326391;-641297;
2024-05-02T10:10:09.932;537838815421214433;-306270;-426043;-326320;-641287;
2024-05-02T10:10:09.950;537838815439376566;-306214;-425968;-326263;-641253;
2024-05-02T10:10:09.969;537838815457538699;-306138;-425870;-326131;-641298;
2024-05-02T10:10:09.987;537838815475700832;-306083;-425873;-326085;-641260;
2024-05-02T10:10:10.005;537838815493862965;-306014;-425803;-326036;-641247;
2024-05-02T10:10:10.023;537838815512025098;-305989;-425836;-326048;-641192;
2024-05-02T10:10:10.041;537838815530187231;-306036;-425942;-326094;-641243;
2024-05-02T10:10:10.059;537838815548349364;-306183;-425953;-326205;-641232;
2024-05-02T10:10:10.078;537838815566511497;-306368;-426037;-326291;-641241;
2024-05-02T10:10:10.096;537838815584673630;-306500;-426091;-326421;-641280;
2024-05-02T10:10:10.114;537838815602835763;-306611;-426125;-326489;-641316;
2024-05-02T10:10:10.132;537838815620997896;-306679;-426174;-326563;-641272;
2024-05-02T10:10:10.150;537838815639160029;-306747;-426111;-326571;-641273;
2024-05-02T10:10:10.168;537838815657322162;-306795;-426150;-326608;-641340;
2024-05-02T10:10:10.187;537838815675484295;-306919;-426220;-326644;-641348;
2024-05-02T10:10:10.205;537838815693646428;-306897;-426293;-326659;-641293;
2024-05-02T10:10:10.223;537838815711808561;-306951;-426272;-326637;-641314;
2024-05-02T10:10:10.241;537838815729970694;-307049;-426271;-326679;-641349;
2024-05-02T10:10:10.259;537838815748132827;-306955;-426242;-326662;-641336;
2024-05-02T10:10:10.277;537838815766294960;-307032;-426214;-326621;-641306;
2024-05-02T10:10:10.296;537838815784457093;-307023;-426184;-326640;-641323;
2024-05-02T10:10:10.314;537838815802619226;-306985;-426244;-326580;-641265;
2024-05-02T10:10:10.332;537838815820781359;-307016;-426259;-326621;-641341;
2024-05-02T10:10:10.350;537838815838943492;-307103;-426280;-326668;-641291;
2024-05-02T10:10:10.368;537838815857105625;-307130;-426281;-326689;-641323;
2024-05-02T10:10:10.386;537838815875267758;-307149;-426277;-326732;-641346;
2024-05-02T10:10:10.405;537838815893429891;-307163;-426281;-326723;-641334;
2024-05-02T10:10:10.423;537838815911592024;-307180;-426242;-326729;-641312;
2024-05-02T10:10:10.441;537838815929754157;-307177;-426205;-326708;-641291;
2024-05-02T10:10:10.459;537838815947916290;-307258;-426202;-326623;-641314;
2024-05-02T10:10:10.477;537838815966078423;-307274;-426196;-326681;-641327;
2024-05-02T10:10:10.495;537838815984240556;-307186;-426202;-326658;-641354;
2024-05-02T10:10:10.513;537838816002402689;-307106;-426101;-326600;-641303;
2024-05-02T10:10:10.532;537838816020564822;-307083;-426073;-326585;-641258;
2024-05-02T10:10:10.550;537838816038726955;-307053;-426006;-326478;-641267;
2024-05-02T10:10:10.568;537838816056889088;-306970;-425936;-326489;-641301;
2024-05-02T10:10:10.586;537838816075051221;-306886;-425893;-326354;-641294;
2024-05-02T10:10:10.604;537838816093213003;-306849;-425945;-326363;-641334;
2024-05-02T10:10:10.622;537838816111374785;-306745;-425768;-326212;-641283;
2024-05-02T10:10:10.641;537838816129536567;-306699;-425838;-326216;-641284;
2024-05-02T10:10:10.659;537838816147698349;-306690;-425801;-326201;-641294;
2024-05-02T10:10:10.677;537838816165860131;-306655;-425740;-326208;-641302;
2024-05-02T10:10:10.695;537838816184021913;-306572;-425697;-326071;-641288;
2024-05-02T10:10:10.713;537838816202183695;-306517;-425630;-326065;-641274;
2024-05-02T10:10:10.731;537838816220345477;-306497;-425621;-326048;-641254;
2024-05-02T10:10:10.750;537838816238507259;-306441;-425604;-326041;-641213;
2024-05-02T10:10:10.768;537838816256669041;-306366;-425613;-325900;-641254;
2024-05-02T10:10:10.786;537838816274830823;-306428;-425535;-325850;-641267;
2024-05-02T10:10:10.804;537838816292992605;-306357;-425501;-325874;-641267;
2024-05-02T10:10:10.822;537838816311154387;-306297;-425502;-325885;-641240;
2024-05-02T10:10:10.840;537838816329316169;-306233;-425430;-325777;-641276;
2024-05-02T10:10:10.859;537838816347477951;-306195;-425359;-325728;-641269;
2024-05-02T10:10:10.877;537838816365639733;-306132;-425375;-325640;-641283;
2024-05-02T10:10:10.895;537838816383801515;-306042;-425256;-325541;-641241;
2024-05-02T10:10:10.913;537838816401963297;-306036;-425211;-325553;-641224;
2024-05-02T10:10:10.931;537838816420125079;-305952;-425234;-325490;-641231;
2024-05-02T10:10:10.949;537838816438286861;-305890;-425201;-325402;-641301;
2024-05-02T10:10:10.968;537838816456448643;-305738;-425144;-325348;-641233;
2024-05-02T10:10:10.986;537838816474610425;-305732;-425073;-325277;-641236;
2024-05-02T10:10:11.004;537838816492772207;-305711;-425055;-325203;-641253;
2024-05-02T10:10:11.022;537838816510933989;-305733;-425059;-325266;-641264;
2024-05-02T10:10:11.040;537838816529095771;-305831;-425163;-325381;-641298;
2024-05-02T10:10:11.058;537838816547257553;-305953;-425248;-325506;-641306;
2024-05-02T10:10:11.077;537838816565419335;-306129;-425348;-325614;-641280;
2024-05-02T10:10:11.095;537838816583581117;-306285;-425398;-325717;-641291;
2024-05-02T10:10:11.113;537838816601742899;-306390;-425435;-325839;-641249;
2024-05-02T10:10:11.131;537838816619904681;-306525;-425464;-325907;-641274;
2024-05-02T10:10:11.149;537838816638066463;-306634;-425502;-325985;-641310;
2024-05-02T10:10:11.167;537838816656228245;-306703;-425556;-326014;-641276;
2024-05-02T10:10:11.185;537838816674390027;-306762;-425644;-326095;-641226;
2024-05-02T10:10:11.204;537838816692551809;-306848;-425655;-326217;-641275;
2024-05-02T10:10:11.222;537838816710713591;-306918;-425669;-326238;-641352;
2024-05-02T10:10:11.240;537838816728875373;-307019;-425719;-326273;-641351;
2024-05-02T10:10:11.258;537838816747037155;-307000;-425701;-326346;-641272;
2024-05-02T10:10:11.276;537838816765198937;-307043;-425693;-326287;-641282;
2024-05-02T10:10:11.294;537838816783360719;-307068;-425710;-326319;-641301;
2024-05-02T10:10:11.313;537838816801522501;-307129;-425708;-326366;-641306;
2024-05-02T10:10:11.331;537838816819684283;-307180;-425747;-326365;-641265;
2024-05-02T10:10:11.349;537838816837846065;-307261;-425757;-326457;-641321;
2024-05-02T10:10:11.367;537838816856007847;-307299;-425784;-326532;-641272;
2024-05-02T10:10:11.385;537838816874169629;-307350;-425807;-326550;-641286;
2024-05-02T10:10:11.403;537838816892334649;-307416;-425846;-326610;-641312;
2024-05-02T10:10:11.422;537838816910499625;-307466;-425817;-326625;-641302;
2024-05-02T10:10:11.440;537838816928664601;-307526;-425815;-326662;-641336;
2024-05-02T10:10:11.458;537838816946829577;-307507;-425863;-326701;-641289;
2024-05-02T10:10:11.476;537838816964994553;-307479;-425838;-326701;-641292;
2024-05-02T10:10:11.494;537838816983159529;-307539;-425821;-326720;-641308;
2024-05-02T10:10:11.512;537838817001324505;-307517;-425849;-326713;-641331;
2024-05-02T10:10:11.531;537838817019489481;-307510;-425841;-326674;-641290;
2024-05-02T10:10:11.549;537838817037654457;-307467;-425851;-326662;-641276;
2024-05-02T10:10:11.567;537838817055819433;-307403;-425775;-326624;-641257;
2024-05-02T10:10:11.585;537838817073984409;-307409;-425786;-326701;-641305;
2024-05-02T10:10:11.603;537838817092149385;-307495;-425815;-326640;-641332;
2024-05-02T10:10:11.621;537838817110314361;-307407;-425737;-326587;-641351;
2024-05-02T10:10:11.640;537838817128479337;-307359;-425729;-326630;-641378;
2024-05-02T10:10:11.658;537838817146644313;-307351;-425699;-326657;-641351;
2024-05-02T10:10:11.676;537838817164809289;-307227;-425726;-326651;-641390;
2024-05-02T10:10:11.694;537838817182974265;-307253;-425765;-326718;-641362;
2024-05-02T10:10:11.712;537838817201139241;-307242;-425759;-326761;-641402;
2024-05-02T10:10:11.730;537838817219304217;-307172;-425746;-326769;-641412;
2024-05-02T10:10:11.749;537838817237469193;-307201;-425817;-326861;-641532;
2024-05-02T10:10:11.767;537838817255634169;-307251;-425841;-326972;-641568;
2024-05-02T10:10:11.785;537838817273799145;-307299;-425934;-327088;-641659;
2024-05-02T10:10:11.803;537838817291964121;-307368;-426011;-327153;-641732;
2024-05-02T10:10:11.821;537838817310129097;-307408;-426055;-327279;-641809;
2024-05-02T10:10:11.839;537838817328294073;-307429;-426129;-327396;-641864;
2024-05-02T10:10:11.858;537838817346459049;-307469;-426196;-327453;-641937;
2024-05-02T10:10:11.876;537838817364624025;-307541;-426218;-327562;-641990;
2024-05-02T10:10:11.894;537838817382789001;-307619;-426310;-327598;-642076;
2024-05-02T10:10:11.912;537838817400953977;-307684;-426417;-327720;-642130;
2024-05-02T10:10:11.930;537838817419118953;-307818;-426441;-327804;-642161;
2024-05-02T10:10:11.948;537838817437283929;-307798;-426499;-327913;-642205;
2024-05-02T10:10:11.967;537838817455448905;-307887;-426517;-327932;-642305;
2024-05-02T10:10:11.985;537838817473613881;-307912;-426654;-328027;-642420;
2024-05-02T10:10:12.003;537838817491778857;-307939;-426737;-328068;-642523;
2024-05-02T10:10:12.021;537838817509943833;-307986;-426836;-328122;-642549;
2024-05-02T10:10:12.039;537838817528108809;-308108;-426969;-328247;-642590;
2024-05-02T10:10:12.057;537838817546273785;-308254;-427035;-328401;-642573;
2024-05-02T10:10:12.076;537838817564438761;-308394;-427180;-328549;-642601;
2024-05-02T10:10:12.094;537838817582603737;-308591;-427339;-328774;-642630;
2024-05-02T10:10:12.112;537838817600768713;-308843;-427456;-328973;-642602;
2024-05-02T10:10:12.130;537838817618933689;-308937;-427454;-329068;-642574;
2024-05-02T10:10:12.148;537838817637098665;-309129;-427610;-329226;-642515;
2024-05-02T10:10:12.166;537838817655263641;-309218;-427683;-329391;-642539;
2024-05-02T10:10:12.185;537838817673428617;-309331;-427737;-329479;-642543;
2024-05-02T10:10:12.203;537838817691593593;-309421;-427782;-329560;-642496;
2024-05-02T10:10:12.221;537838817709758569;-309517;-427821;-329725;-642498;
2024-05-02T10:10:12.239;537838817727922927;-309581;-427874;-329743;-642432;
2024-05-02T10:10:12.257;537838817746087277;-309664;-427920;-329842;-642459;
2024-05-02T10:10:12.275;537838817764251627;-309645;-427971;-329828;-642408;
2024-05-02T10:10:12.294;537838817782415977;-309682;-427921;-329861;-642369;
2024-05-02T10:10:12.312;537838817800580327;-309672;-427976;-329917;-642401;
2024-05-02T10:10:12.330;537838817818744677;-309766;-427935;-329983;-642347;
2024-05-02T10:10:12.348;537838817836909027;-309792;-427967;-330015;-642335;
2024-05-02T10:10:12.366;537838817855073377;-309920;-428088;-330129;-642401;
2024-05-02T10:10:12.384;537838817873237727;-309964;-428076;-330159;-642389;
2024-05-02T10:10:12.402;537838817891402077;-310015;-428122;-330228;-642334;
2024-05-02T10:10:12.421;537838817909566427;-310012;-428161;-330277;-642256;
2024-05-02T10:10:12.439;537838817927730777;-310157;-428205;-330372;-642284;
2024-05-02T10:10:12.457;537838817945895127;-310190;-428279;-330420;-642272;
2024-05-02T10:10:12.475;537838817964059477;-310241;-428310;-330373;-642232;
2024-05-02T10:10:12.493;537838817982223827;-310207;-428262;-330390;-642167;
2024-05-02T10:10:12.511;537838818000388177;-310212;-428187;-330389;-642117;
2024-05-02T10:10:12.530;537838818018552527;-310072;-428090;-330343;-642040;
2024-05-02T10:10:12.548;537838818036716877;-309983;-428033;-330143;-641994;
2024-05-02T10:10:12.566;537838818054881227;-309892;-427957;-330157;-641909;
2024-05-02T10:10:12.584;537838818073045577;-309728;-427829;-330037;-641865;
2024-05-02T10:10:12.602;537838818091209927;-309540;-427727;-329917;-641763;
2024-05-02T10:10:12.620;537838818109374277;-309385;-427596;-329810;-641677;
2024-05-02T10:10:12.639;537838818127538627;-309255;-427483;-329681;-641608;
2024-05-02T10:10:12.657;537838818145702977;-309060;-427227;-329452;-641427;
2024-05-02T10:10:12.675;537838818163867327;-309001;-427221;-329408;-641372;
2024-05-02T10:10:12.693;537838818182031677;-308891;-427194;-329374;-641341;
2024-05-02T10:10:12.711;537838818200196027;-308794;-427050;-329298;-641209;
2024-05-02T10:10:12.729;537838818218360377;-308624;-426957;-329070;-641124;
2024-05-02T10:10:12.748;537838818236524727;-308510;-426829;-329017;-641062;
2024-05-02T10:10:12.766;537838818254689077;-308375;-426824;-328912;-640943;
2024-05-02T10:10:12.784;537838818272853427;-308316;-426754;-328872;-640891;
2024-05-02T10:10:12.802;537838818291017777;-308228;-426585;-328635;-640802;
2024-05-02T10:10:12.820;537838818309182127;-308057;-426499;-328482;-640754;
2024-05-02T10:10:12.838;537838818327346477;-307899;-426416;-328285;-640690;
2024-05-02T10:10:12.857;537838818345510827;-307695;-426236;-328128;-640590;
2024-05-02T10:10:12.875;537838818363675177;-307528;-426117;-327934;-640496;
2024-05-02T10:10:12.893;537838818381839527;-307344;-426021;-327732;-640369;
2024-05-02T10:10:12.911;537838818400003877;-307198;-425878;-327565;-640329;
2024-05-02T10:10:12.929;537838818418168227;-307036;-425771;-327407;-640315;
2024-05-02T10:10:12.947;537838818436332577;-306850;-425616;-327262;-640336;
2024-05-02T10:10:12.966;537838818454496927;-306674;-425549;-327123;-640284;
2024-05-02T10:10:12.984;537838818472661277;-306552;-425443;-326943;-640285;
2024-05-02T10:10:13.002;537838818490827027;-306506;-425460;-326943;-640363;
2024-05-02T10:10:13.020;537838818508992757;-306645;-425505;-327026;-640322;
2024-05-02T10:10:13.038;537838818527158487;-306680;-425560;-327122;-640346;
2024-05-02T10:10:13.056;537838818545324217;-306746;-425602;-327208;-640349;
2024-05-02T10:10:13.075;537838818563489947;-306938;-425718;-327340;-640328;
2024-05-02T10:10:13.093;537838818581655677;-307164;-425872;-327605;-640401;
2024-05-02T10:10:13.111;537838818599821407;-307361;-425970;-327753;-640384;
2024-05-02T10:10:13.129;537838818617987137;-307547;-426113;-327973;-640407;
2024-05-02T10:10:13.147;537838818636152867;-307657;-426182;-328129;-640409;
2024-05-02T10:10:13.165;537838818654318597;-307916;-426229;-328222;-640479;
2024-05-02T10:10:13.184;537838818672484327;-307978;-426339;-328357;-640526;
2024-05-02T10:10:13.202;537838818690650057;-307956;-426375;-328433;-640487;
2024-05-02T10:10:13.220;537838818708815787;-307992;-426353;-328495;-640544;
2024-05-02T10:10:13.238;537838818726981517;-308054;-426450;-328638;-640554;
2024-05-02T10:10:13.256;537838818745147247;-308092;-426453;-328656;-640603;
2024-05-02T10:10:13.274;537838818763312977;-308137;-426477;-328754;-640652;
2024-05-02T10:10:13.293;537838818781478707;-308176;-426475;-328809;-640649;
2024-05-02T10:10:13.311;537838818799644437;-308278;-426510;-328853;-640686;
2024-05-02T10:10:13.329;537838818817810167;-308332;-426610;-328997;-640690;
2024-05-02T10:10:13.347;537838818835975897;-308527;-426738;-329022;-640723;
2024-05-02T10:10:13.365;537838818854141627;-308678;-426882;-329175;-640846;
2024-05-02T10:10:13.383;537838818872307357;-308821;-426926;-329304;-640803;
2024-05-02T10:10:13.402;537838818890473087;-308903;-426995;-329432;-640814;
2024-05-02T10:10:13.420;537838818908638817;-309034;-427075;-329605;-640817;
2024-05-02T10:10:13.438;537838818926804547;-309149;-427151;-329665;-640889;
2024-05-02T10:10:13.456;537838818944970277;-309227;-427206;-329762;-640907;
2024-05-02T10:10:13.474;537838818963136007;-309370;-427329;-329864;-640957;
2024-05-02T10:10:13.492;537838818981301737;-309465;-427342;-329978;-641017;
2024-05-02T10:10:13.511;537838818999467467;-309688;-427510;-330158;-641075;
2024-05-02T10:10:13.529;537838819017633197;-309813;-427654;-330290;-641122;
2024-05-02T10:10:13.547;537838819035798927;-309938;-427721;-330372;-641178;
2024-05-02T10:10:13.565;537838819053964657;-310089;-427902;-330518;-641305;
2024-05-02T10:10:13.583;537838819072130387;-310228;-427960;-330543;-641340;
2024-05-02T10:10:13.601;537838819090296117;-310354;-428079;-330698;-641390;
2024-05-02T10:10:13.620;537838819108461847;-310424;-428239;-330788;-641499;
2024-05-02T10:10:13.638;537838819126627577;-310601;-428367;-330937;-641640;
2024-05-02T10:10:13.656;537838819144793307;-310705;-428465;-331049;-641713;
2024-05-02T10:10:13.674;537838819162959037;-310775;-428511;-331074;-641698;
2024-05-02T10:10:13.692;537838819181124767;-310739;-428529;-331090;-641770;
2024-05-02T10:10:13.710;537838819199290497;-310773;-428616;-331154;-641770;
2024-05-02T10:10:13.729;537838819217456227;-310783;-428596;-331129;-641755;
2024-05-02T10:10:13.747;537838819235621957;-310736;-428595;-331073;-641746;
2024-05-02T10:10:13.765;537838819253787214;-310653;-428468;-331001;-641736;
2024-05-02T10:10:13.783;537838819271952435;-310548;-428378;-330910;-641675;
2024-05-02T10:10:13.801;537838819290117656;-310469;-428282;-330857;-641598;
2024-05-02T10:10:13.819;537838819308282877;-310414;-428266;-330756;-641561;
2024-05-02T10:10:13.838;537838819326448098;-310286;-428241;-330705;-641451;
2024-05-02T10:10:13.856;537838819344613319;-310205;-428098;-330582;-641380;
2024-05-02T10:10:13.874;537838819362778540;-310063;-428026;-330471;-641306;
2024-05-02T10:10:13.892;537838819380943761;-310035;-427994;-330406;-641295;
2024-05-02T10:10:13.910;537838819399108982;-309947;-427950;-330326;-641235;
2024-05-02T10:10:13.928;537838819417274203;-310049;-427903;-330359;-641267;
2024-05-02T10:10:13.947;537838819435439424;-310128;-428018;-330525;-641154;
2024-05-02T10:10:13.965;537838819453604645;-310236;-428107;-330674;-641083;
2024-05-02T10:10:13.983;537838819471769866;-310457;-428181;-330815;-641068;
2024-05-02T10:10:14.001;537838819489935087;-310653;-428229;-330988;-640996;
2024-05-02T10:10:14.019;537838819508100308;-310794;-428337;-331080;-640942;
2024-05-02T10:10:14.037;537838819526265529;-310918;-428423;-331175;-640860;
2024-05-02T10:10:14.056;537838819544430750;-311091;-428438;-331331;-640834;
2024-05-02T10:10:14.074;537838819562595971;-311196;-428506;-331431;-640837;
2024-05-02T10:10:14.092;537838819580761192;-311321;-428537;-331561;-640834;
2024-05-02T10:10:14.110;537838819598926413;-311447;-428618;-331685;-640776;
2024-05-02T10:10:14.128;537838819617091634;-311547;-428661;-331789;-640736;
2024-05-02T10:10:14.146;537838819635256855;-311617;-428622;-331845;-640687;
2024-05-02T10:10:14.165;537838819653422076;-311663;-428677;-331921;-640642;
2024-05-02T10:10:14.183;537838819671587297;-311782;-428767;-332007;-640678;
2024-05-02T10:10:14.201;537838819689752518;-311909;-428860;-332120;-640694;
2024-05-02T10:10:14.219;537838819707917739;-312024;-428834;-332142;-640651;
2024-05-02T10:10:14.237;537838819726082960;-312206;-428946;-332346;-640680;
2024-05-02T10:10:14.255;537838819744248181;-312347;-429047;-332458;-640600;
2024-05-02T10:10:14.274;537838819762413402;-312513;-429159;-332578;-640648;
2024-05-02T10:10:14.292;537838819780578623;-312690;-429284;-332670;-640614;
2024-05-02T10:10:14.310;537838819798743844;-312818;-429377;-332796;-640646;
2024-05-02T10:10:14.328;537838819816909065;-312906;-429408;-332879;-640649;
2024-05-02T10:10:14.346;537838819835074286;-313036;-429476;-332986;-640641;
2024-05-02T10:10:14.364;537838819853239507;-313122;-429532;-333007;-640657;
2024-05-02T10:10:14.382;537838819871404728;-313246;-429634;-333070;-640626;
2024-05-02T10:10:14.401;537838819889569949;-313261;-429610;-333111;-640638;
2024-05-02T10:10:14.419;537838819907735170;-313211;-429570;-333094;-640608;
2024-05-02T10:10:14.437;537838819925900391;-313258;-429577;-333121;-640588;
2024-05-02T10:10:14.455;537838819944065612;-313239;-429574;-333084;-640607;
2024-05-02T10:10:14.473;537838819962230833;-313189;-429556;-333072;-640615;
2024-05-02T10:10:14.491;537838819980396054;-313131;-429551;-333094;-640584;
2024-05-02T10:10:14.510;537838819998561275;-313163;-429577;-333026;-640552;
2024-05-02T10:10:14.528;537838820016725760;-313102;-429541;-332964;-640497;
2024-05-02T10:10:14.546;537838820034890243;-313086;-429511;-332915;-640504;
2024-05-02T10:10:14.564;537838820053054726;-313075;-429412;-332871;-640448;
2024-05-02T10:10:14.582;537838820071219209;-313080;-429440;-332820;-640463;
2024-05-02T10:10:14.600;537838820089383692;-313051;-429357;-332716;-640384;
2024-05-02T10:10:14.619;537838820107548175;-313021;-429381;-332708;-640435;
2024-05-02T10:10:14.637;537838820125712658;-312939;-429326;-332677;-640371;
2024-05-02T10:10:14.655;537838820143877141;-312936;-429276;-332609;-640400;
2024-05-02T10:10:14.673;537838820162041624;-312934;-429332;-332552;-640377;
2024-05-02T10:10:14.691;537838820180206107;-312879;-429279;-332429;-640280;
2024-05-02T10:10:14.709;537838820198370590;-312903;-429280;-332401;-640354;
2024-05-02T10:10:14.728;537838820216535073;-312931;-429307;-332399;-640326;
2024-05-02T10:10:14.746;537838820234699556;-313033;-429300;-332488;-640322;
2024-05-02T10:10:14.764;537838820252864039;-313251;-429446;-332646;-640342;
2024-05-02T10:10:14.782;537838820271028522;-313510;-429589;-332755;-640368;
2024-05-02T10:10:14.800;537838820289193005;-313773;-429692;-332946;-640313;
2024-05-02T10:10:14.818;537838820307357488;-314109;-429956;-333219;-640364;
2024-05-02T10:10:14.837;537838820325521971;-314399;-430124;-333450;-640363;
2024-05-02T10:10:14.855;537838820343686454;-314603;-430265;-333593;-640311;
2024-05-02T10:10:14.873;537838820361850937;-314899;-430379;-333764;-640328;
2024-05-02T10:10:14.891;537838820380015420;-315124;-430496;-333862;-640370;
2024-05-02T10:10:14.909;537838820398179903;-315309;-430648;-333989;-640469;
2024-05-02T10:10:14.927;537838820416344386;-315462;-430767;-334156;-640439;
2024-05-02T10:10:14.946;537838820434508869;-315668;-430869;-334266;-640466;
2024-05-02T10:10:14.964;537838820452673352;-315839;-431001;-334369;-640454;
2024-05-02T10:10:14.982;537838820470837835;-315987;-431108;-334477;-640476;
2024-05-02T10:10:15.000;537838820489002318;-316055;-431084;-334467;-640430;
2024-05-02T10:10:15.018;537838820507166801;-316107;-431122;-334503;-640413;
2024-05-02T10:10:15.036;537838820525331284;-316197;-431221;-334594;-640386;
2024-05-02T10:10:15.055;537838820543495767;-316358;-431268;-334688;-640396;
2024-05-02T10:10:15.073;537838820561660250;-316470;-431353;-334784;-640450;
2024-05-02T10:10:15.091;537838820579824733;-316605;-431403;-334909;-640458;
2024-05-02T10:10:15.109;537838820597989216;-316812;-431467;-335086;-640420;
2024-05-02T10:10:15.127;537838820616153699;-316906;-431573;-335174;-640412;
2024-05-02T10:10:15.145;537838820634318182;-317032;-431645;-335288;-640465;
2024-05-02T10:10:15.164;537838820652482665;-317099;-431718;-335369;-640447;
2024-05-02T10:10:15.182;537838820670647148;-317158;-431742;-335339;-640467;
2024-05-02T10:10:15.200;537838820688811631;-317134;-431760;-335418;-640435;
2024-05-02T10:10:15.218;537838820706976114;-317218;-431803;-335468;-640428;
2024-05-02T10:10:15.236;537838820725140597;-317276;-431770;-335451;-640405;
2024-05-02T10:10:15.254;537838820743305080;-317233;-431803;-335442;-640430;
2024-05-02T10:10:15.273;537838820761469563;-317229;-431826;-335432;-640434;
2024-05-02T10:10:15.291;537838820779634046;-317154;-431796;-335469;-640394;
2024-05-02T10:10:15.309;537838820797798529;-317195;-431837;-335476;-640426;
2024-05-02T10:10:15.327;537838820815963012;-317155;-431728;-335414;-640396;
2024-05-02T10:10:15.345;537838820834128175;-317161;-431735;-335310;-640416;
2024-05-02T10:10:15.363;537838820852293304;-317089;-431727;-335308;-640431;
2024-05-02T10:10:15.382;537838820870458433;-317101;-431694;-335319;-640430;
2024-05-02T10:10:15.400;537838820888623562;-316990;-431622;-335288;-640381;
2024-05-02T10:10:15.418;537838820906788691;-316945;-431671;-335271;-640376;
2024-05-02T10:10:15.436;537838820924953820;-316950;-431625;-335217;-640375;
2024-05-02T10:10:15.454;537838820943118949;-316853;-431593;-335169;-640309;
2024-05-02T10:10:15.472;537838820961284078;-316895;-431606;-335203;-640404;
2024-05-02T10:10:15.491;537838820979449207;-316812;-431579;-335119;-640403;
2024-05-02T10:10:15.509;537838820997614336;-316931;-431685;-335213;-640390;
2024-05-02T10:10:15.527;537838821015779465;-317082;-431754;-335312;-640367;
2024-05-02T10:10:15.545;537838821033944594;-317278;-431914;-335443;-640368;
2024-05-02T10:10:15.563;537838821052109723;-317513;-432040;-335671;-640398;
2024-05-02T10:10:15.581;537838821070274852;-317821;-432253;-335947;-640386;
2024-05-02T10:10:15.600;537838821088439981;-318084;-432466;-336136;-640348;
2024-05-02T10:10:15.618;537838821106605110;-318383;-432692;-336418;-640414;
2024-05-02T10:10:15.636;537838821124770239;-318669;-432847;-336614;-640409;
2024-05-02T10:10:15.654;537838821142935368;-318889;-433000;-336833;-640426;
2024-05-02T10:10:15.672;537838821161100497;-319090;-433112;-336947;-640465;
2024-05-02T10:10:15.690;537838821179265626;-319276;-433231;-337141;-640456;
2024-05-02T10:10:15.709;537838821197430755;-319383;-433382;-337245;-640500;
2024-05-02T10:10:15.727;537838821215595884;-319555;-433431;-337291;-640467;
2024-05-02T10:10:15.745;537838821233761013;-319717;-433528;-337406;-640480;
2024-05-02T10:10:15.763;537838821251926142;-319766;-433588;-337482;-640526;
2024-05-02T10:10:15.781;537838821270091271;-319797;-433613;-337492;-640446;
2024-05-02T10:10:15.799;537838821288256400;-319879;-433684;-337571;-640470;
2024-05-02T10:10:15.818;537838821306421529;-320107;-433786;-337594;-640453;
2024-05-02T10:10:15.836;537838821324586658;-320243;-433789;-337658;-640430;
2024-05-02T10:10:15.854;537838821342751787;-320327;-433847;-337769;-640420;
2024-05-02T10:10:15.872;537838821360916916;-320584;-434063;-338020;-640514;
2024-05-02T10:10:15.890;537838821379082045;-320736;-434165;-338207;-640568;
2024-05-02T10:10:15.908;537838821397247174;-320897;-434298;-338395;-640642;
2024-05-02T10:10:15.927;537838821415412303;-320927;-434395;-338486;-640713;
2024-05-02T10:10:15.945;537838821433577432;-321127;-434560;-338727;-640825;
2024-05-02T10:10:15.963;537838821451742561;-321161;-434612;-338848;-640848;
2024-05-02T10:10:15.981;537838821469907690;-321258;-434684;-339052;-640975;
2024-05-02T10:10:15.999;537838821488072819;-321294;-434767;-339155;-641053;
2024-05-02T10:10:16.017;537838821506237948;-321426;-434933;-339309;-641090;
2024-05-02T10:10:16.035;537838821524403077;-321539;-435042;-339488;-641275;
2024-05-02T10:10:16.054;537838821542568206;-321569;-435136;-339690;-641440;
2024-05-02T10:10:16.072;537838821560733335;-321689;-435254;-339758;-641549;
2024-05-02T10:10:16.090;537838821578898464;-321691;-435415;-339889;-641709;
2024-05-02T10:10:16.108;537838821597063593;-321793;-435526;-340022;-641857;
2024-05-02T10:10:16.126;537838821615229452;-321918;-435695;-340169;-642062;
2024-05-02T10:10:16.144;537838821633395291;-321884;-435718;-340224;-642230;
2024-05-02T10:10:16.163;537838821651561130;-321928;-435899;-340355;-642461;
2024-05-02T10:10:16.181;537838821669726969;-321972;-435943;-340451;-642699;
2024-05-02T10:10:16.199;537838821687892808;-321992;-436025;-340459;-642918;
2024-05-02T10:10:16.217;537838821706058647;-321955;-436064;-340463;-643078;
2024-05-02T10:10:16.235;537838821724224486;-321898;-436087;-340439;-643274;
2024-05-02T10:10:16.253;537838821742390325;-321878;-436138;-340397;-643372;
2024-05-02T10:10:16.272;537838821760556164;-321807;-436141;-340340;-643440;
2024-05-02T10:10:16.290;537838821778722003;-321761;-436144;-340232;-643466;
2024-05-02T10:10:16.308;537838821796887842;-321819;-436220;-340220;-643512;
2024-05-02T10:10:16.326;537838821815053681;-321918;-436266;-340282;-643400;
2024-05-02T10:10:16.344;537838821833219520;-321979;-436321;-340237;-643368;
2024-05-02T10:10:16.362;537838821851385359;-322048;-436277;-340206;-643175;
2024-05-02T10:10:16.381;537838821869551198;-322112;-436200;-340168;-642994;
2024-05-02T10:10:16.399;537838821887717037;-322144;-436135;-340185;-642770;
2024-05-02T10:10:16.417;537838821905882876;-322072;-436066;-340045;-642545;
2024-05-02T10:10:16.435;537838821924048715;-322007;-435950;-339997;-642385;
2024-05-02T10:10:16.453;537838821942214554;-322032;-435901;-340030;-642273;
2024-05-02T10:10:16.471;537838821960380393;-322043;-435844;-339975;-642099;
2024-05-02T10:10:16.490;537838821978546232;-322100;-435827;-339947;-641984;
2024-05-02T10:10:16.508;537838821996712071;-322053;-435707;-339889;-641865;
2024-05-02T10:10:16.526;537838822014877910;-321990;-435546;-339743;-641699;
2024-05-02T10:10:16.544;537838822033043749;-321822;-435438;-339625;-641570;
2024-05-02T10:10:16.562;537838822051209588;-321548;-435168;-339484;-641412;
2024-05-02T10:10:16.580;537838822069375427;-321332;-435024;-339334;-641397;
2024-05-02T10:10:16.599;537838822087541266;-321070;-434790;-339249;-641324;
2024-05-02T10:10:16.617;537838822105707105;-320897;-434627;-339158;-641317;
2024-05-02T10:10:16.635;537838822123872944;-320753;-434501;-339114;-641355;
2024-05-02T10:10:16.653;537838822142038783;-320614;-434398;-339126;-641393;
2024-05-02T10:10:16.671;537838822160204622;-320490;-434248;-339058;-641473;
2024-05-02T10:10:16.689;537838822178370461;-320365;-434113;-339002;-641578;
2024-05-02T10:10:16.708;537838822196536300;-320274;-434050;-339023;-641670;
2024-05-02T10:10:16.726;537838822214702139;-320136;-433902;-338949;-641684;
2024-05-02T10:10:16.744;537838822232867978;-320080;-433841;-338847;-641742;
2024-05-02T10:10:16.762;537838822251033817;-320010;-433866;-338859;-641860;
2024-05-02T10:10:16.780;537838822269199656;-320023;-433864;-338877;-641939;
2024-05-02T10:10:16.798;537838822287365495;-319910;-433791;-338886;-642052;
2024-05-02T10:10:16.817;537838822305531334;-319876;-433748;-338740;-642087;
2024-05-02T10:10:16.835;537838822323697173;-319853;-433824;-338587;-642164;
2024-05-02T10:10:16.853;537838822341863012;-319862;-433818;-338511;-642164;
2024-05-02T10:10:16.871;537838822360028851;-319739;-433768;-338318;-642181;
2024-05-02T10:10:16.889;537838822378194603;-319601;-433588;-338056;-642040;
2024-05-02T10:10:16.907;537838822396360333;-319511;-433439;-337929;-641999;
2024-05-02T10:10:16.926;537838822414526063;-319321;-433316;-337678;-641884;
2024-05-02T10:10:16.944;537838822432691793;-318992;-433079;-337317;-641737;
2024-05-02T10:10:16.962;537838822450857523;-318751;-432889;-337067;-641597;
2024-05-02T10:10:16.980;537838822469023253;-318534;-432717;-336721;-641469;
2024-05-02T10:10:16.998;537838822487188983;-318344;-432512;-336404;-641312;
2024-05-02T10:10:17.016;537838822505354713;-318140;-432328;-336192;-641165;
2024-05-02T10:10:17.035;537838822523520443;-317959;-432201;-335933;-641018;
2024-05-02T10:10:17.053;537838822541686173;-317830;-432094;-335717;-640915;
2024-05-02T10:10:17.071;537838822559851903;-317748;-432036;-335430;-640879;
2024-05-02T10:10:17.089;537838822578017633;-317699;-432005;-335238;-640789;
2024-05-02T10:10:17.107;537838822596183363;-317784;-432072;-335170;-640786;
2024-05-02T10:10:17.125;537838822614349093;-317959;-432216;-335271;-640783;
2024-05-02T10:10:17.144;537838822632514823;-318307;-432450;-335362;-640864;
2024-05-02T10:10:17.162;537838822650680553;-318611;-432708;-335592;-640851;
2024-05-02T10:10:17.180;537838822668846283;-319077;-432947;-335785;-640873;
2024-05-02T10:10:17.198;537838822687012013;-319413;-433164;-335940;-640896;
2024-05-02T10:10:17.216;537838822705177743;-319691;-433350;-336090;-640824;
2024-05-02T10:10:17.234;537838822723343473;-320007;-433531;-336221;-640884;
2024-05-02T10:10:17.253;537838822741509203;-320309;-433736;-336302;-640898;
2024-05-02T10:10:17.271;537838822759674933;-320569;-433925;-336485;-640902;
2024-05-02T10:10:17.289;537838822777840663;-320839;-434110;-336673;-640941;
2024-05-02T10:10:17.307;537838822796006393;-321076;-434236;-336743;-640953;
2024-05-02T10:10:17.325;537838822814172123;-321342;-434365;-336855;-641008;
2024-05-02T10:10:17.343;537838822832337853;-321543;-434500;-336944;-641056;
2024-05-02T10:10:17.362;537838822850503583;-321662;-434562;-336967;-641021;
2024-05-02T10:10:17.380;537838822868669313;-321812;-434700;-337023;-641087;
2024-05-02T10:10:17.398;537838822886835043;-321964;-434872;-337087;-641110;
2024-05-02T10:10:17.416;537838822905000773;-322169;-434989;-337200;-641192;
2024-05-02T10:10:17.434;537838822923166503;-322377;-435205;-337309;-641280;
2024-05-02T10:10:17.452;537838822941332233;-322599;-435338;-337384;-641340;
2024-05-02T10:10:17.471;537838822959497963;-322717;-435469;-337522;-641427;
2024-05-02T10:10:17.489;537838822977663693;-322938;-435596;-337611;-641503;
2024-05-02T10:10:17.507;537838822995829423;-323057;-435743;-337671;-641523;
2024-05-02T10:10:17.525;537838823013995153;-323292;-435882;-337797;-641591;
2024-05-02T10:10:17.543;537838823032160883;-323298;-435937;-337808;-641593;
2024-05-02T10:10:17.561;537838823050326613;-323439;-436049;-337901;-641621;
2024-05-02T10:10:17.580;537838823068492343;-323456;-436052;-337875;-641650;
2024-05-02T10:10:17.598;537838823086658073;-323525;-436145;-337917;-641673;
2024-05-02T10:10:17.616;537838823104823803;-323561;-436180;-337959;-641757;
2024-05-02T10:10:17.634;537838823122989533;-323582;-436224;-337964;-641828;
2024-05-02T10:10:17.652;537838823141155506;-323659;-436282;-337970;-641855;
2024-05-02T10:10:17.670;537838823159321449;-323716;-436373;-338003;-641866;
2024-05-02T10:10:17.689;537838823177487392;-323699;-436353;-337992;-641903;
2024-05-02T10:10:17.707;537838823195653335;-323766;-436408;-338060;-641917;
2024-05-02T10:10:17.725;537838823213819278;-323759;-436456;-338108;-641990;
2024-05-02T10:10:17.743;537838823231985221;-323796;-436495;-338043;-642060;
2024-05-02T10:10:17.761;537838823250151164;-323698;-436439;-338001;-642076;
2024-05-02T10:10:17.779;537838823268317107;-323632;-436347;-337909;-642010;
2024-05-02T10:10:17.798;537838823286483050;-323547;-436465;-337869;-642048;
2024-05-02T10:10:17.816;537838823304648993;-323503;-436349;-337801;-642065;
2024-05-02T10:10:17.834;537838823322814936;-323464;-436367;-337818;-642078;
2024-05-02T10:10:17.852;537838823340980879;-323389;-436284;-337727;-642067;
2024-05-02T10:10:17.870;537838823359146822;-323310;-436264;-337660;-642133;
2024-05-02T10:10:17.888;537838823377312765;-323167;-436222;-337546;-642121;
2024-05-02T10:10:17.907;537838823395478708;-323075;-436155;-337492;-642072;
2024-05-02T10:10:17.925;537838823413644651;-322992;-436065;-337440;-642128;
2024-05-02T10:10:17.943;537838823431810594;-322916;-435973;-337406;-642002;
2024-05-02T10:10:17.961;537838823449976537;-322942;-436066;-337414;-642059;
2024-05-02T10:10:17.979;537838823468142480;-322989;-436116;-337478;-642070;
2024-05-02T10:10:17.997;537838823486308423;-323224;-436188;-337698;-642069;
2024-05-02T10:10:18.016;537838823504474366;-323423;-436330;-337836;-642045;
2024-05-02T10:10:18.034;537838823522640309;-323704;-436486;-338116;-642050;
2024-05-02T10:10:18.052;537838823540806252;-323923;-436659;-338219;-642087;
2024-05-02T10:10:18.070;537838823558972195;-324100;-436769;-338441;-642079;
2024-05-02T10:10:18.088;537838823577138138;-324329;-436868;-338567;-642083;
2024-05-02T10:10:18.106;537838823595304081;-324417;-436976;-338716;-642131;
2024-05-02T10:10:18.125;537838823613470024;-324608;-437021;-338793;-642137;
2024-05-02T10:10:18.143;537838823631635967;-324659;-437060;-338821;-642139;
2024-05-02T10:10:18.161;537838823649801910;-324708;-437094;-338898;-642171;
2024-05-02T10:10:18.179;537838823667967853;-324745;-437069;-338954;-642147;
2024-05-02T10:10:18.197;537838823686133796;-324879;-437102;-338887;-642139;
2024-05-02T10:10:18.215;537838823704299739;-324877;-437123;-338925;-642210;
2024-05-02T10:10:18.234;537838823722465682;-324840;-437132;-338916;-642170;
2024-05-02T10:10:18.252;537838823740631625;-324817;-437100;-338939;-642153;
2024-05-02T10:10:18.270;537838823758797568;-324850;-437117;-338997;-642192;
2024-05-02T10:10:18.288;537838823776963511;-324887;-437180;-339003;-642243;
2024-05-02T10:10:18.306;537838823795129454;-324911;-437204;-339025;-642196;
2024-05-02T10:10:18.324;537838823813295397;-324941;-437199;-338998;-642159;
2024-05-02T10:10:18.343;537838823831461340;-324942;-437156;-339047;-642202;
2024-05-02T10:10:18.361;537838823849627283;-324920;-437200;-339064;-642245;
2024-05-02T10:10:18.379;537838823867793226;-324890;-437073;-338978;-642164;
2024-05-02T10:10:18.397;537838823885959169;-324805;-437028;-338934;-642100;
2024-05-02T10:10:18.415;537838823904125112;-324771;-437042;-338941;-642181;
2024-05-02T10:10:18.433;537838823922291055;-324702;-437001;-338888;-642199;
2024-05-02T10:10:18.452;537838823940456914;-324615;-436927;-338869;-642186;
2024-05-02T10:10:18.470;537838823958622753;-324457;-436867;-338786;-642150;
2024-05-02T10:10:18.488;537838823976788592;-324331;-436820;-338713;-642142;
2024-05-02T10:10:18.506;537838823994954431;-324238;-436722;-338535;-642175;
2024-05-02T10:10:18.524;537838824013120270;-324152;-436594;-338495;-642174;
2024-05-02T10:10:18.542;537838824031286109;-324079;-436587;-338375;-642159;
2024-05-02T10:10:18.561;537838824049451948;-323898;-436482;-338237;-642129;
2024-05-02T10:10:18.579;537838824067617787;-323702;-436329;-338092;-642100;
2024-05-02T10:10:18.597;537838824085783626;-323517;-436224;-337994;-642145;
2024-05-02T10:10:18.615;537838824103949465;-323394;-436180;-337878;-642199;
2024-05-02T10:10:18.633;537838824122115304;-323219;-436012;-337716;-642105;
2024-05-02T10:10:18.651;537838824140281143;-323023;-435903;-337644;-642114;
2024-05-02T10:10:18.670;537838824158446982;-322856;-435825;-337575;-642167;
2024-05-02T10:10:18.688;537838824176612821;-322659;-435635;-337440;-642151;
2024-05-02T10:10:18.706;537838824194778660;-322477;-435560;-337336;-642152;
2024-05-02T10:10:18.724;537838824212944499;-322339;-435407;-337181;-642138;
2024-05-02T10:10:18.742;537838824231110338;-322088;-435297;-337026;-642152;
2024-05-02T10:10:18.760;537838824249276177;-321993;-435214;-337007;-642159;
2024-05-02T10:10:18.779;537838824267442016;-322026;-435178;-337043;-642155;
2024-05-02T10:10:18.797;537838824285607855;-322160;-435260;-337166;-642260;
2024-05-02T10:10:18.815;537838824303773694;-322272;-435280;-337247;-642253;
2024-05-02T10:10:18.833;537838824321939533;-322394;-435394;-337372;-642208;
2024-05-02T10:10:18.851;537838824340105372;-322587;-435472;-337497;-642216;
2024-05-02T10:10:18.869;537838824358271211;-322625;-435521;-337508;-642271;
2024-05-02T10:10:18.888;537838824376437050;-322753;-435516;-337647;-642233;
2024-05-02T10:10:18.906;537838824394602889;-322782;-435554;-337663;-642214;
2024-05-02T10:10:18.924;537838824412768728;-322828;-435565;-337697;-642263;
2024-05-02T10:10:18.942;537838824430934567;-322738;-435538;-337695;-642215;
2024-05-02T10:10:18.960;537838824449100406;-322785;-435529;-337732;-642266;
2024-05-02T10:10:18.978;537838824467266245;-322768;-435531;-337675;-642270;
2024-05-02T10:10:18.997;537838824485432084;-322724;-435501;-337673;-642179;
2024-05-02T10:10:19.015;537838824503597923;-322772;-435525;-337700;-642305;
2024-05-02T10:10:19.033;537838824521763762;-322641;-435470;-337547;-642227;
2024-05-02T10:10:19.051;537838824539929601;-322537;-435380;-337512;-642221;
2024-05-02T10:10:19.069;537838824558095440;-322530;-435363;-337461;-642236;
2024-05-02T10:10:19.087;537838824576261279;-322526;-435361;-337394;-642266;
2024-05-02T10:10:19.106;537838824594427118;-322522;-435285;-337396;-642288;
2024-05-02T10:10:19.124;537838824612592957;-322481;-435282;-337326;-642278;
2024-05-02T10:10:19.142;537838824630758796;-322469;-435279;-337384;-642287;
2024-05-02T10:10:19.160;537838824648924635;-322438;-435247;-337311;-642313;
2024-05-02T10:10:19.178;537838824667090474;-322324;-435179;-337204;-642300;
2024-05-02T10:10:19.196;537838824685256313;-322283;-435144;-337102;-642303;
2024-05-02T10:10:19.215;537838824703422340;-322154;-435099;-337024;-642315;
2024-05-02T10:10:19.233;537838824721588361;-322049;-435064;-336975;-642395;
2024-05-02T10:10:19.251;537838824739754382;-321956;-435021;-336894;-642383;
2024-05-02T10:10:19.269;537838824757920403;-321857;-434960;-336711;-642413;
2024-05-02T10:10:19.287;537838824776086424;-321829;-434973;-336672;-642382;
2024-05-02T10:10:19.305;537838824794252445;-321673;-434944;-336557;-642466;
2024-05-02T10:10:19.324;537838824812418466;-321497;-434853;-336420;-642431;
2024-05-02T10:10:19.342;537838824830584487;-321353;-434733;-336305;-642491;
2024-05-02T10:10:19.360;537838824848750508;-321177;-434655;-336093;-642452;
2024-05-02T10:10:19.378;537838824866916529;-320983;-434519;-335972;-642454;
2024-05-02T10:10:19.396;537838824885082550;-320695;-434337;-335735;-642407;
2024-05-02T10:10:19.414;537838824903248571;-320529;-434183;-335552;-642349;
2024-05-02T10:10:19.433;537838824921414592;-320307;-433965;-335344;-642260;
2024-05-02T10:10:19.451;537838824939580613;-320084;-433926;-335155;-642231;
2024-05-02T10:10:19.469;537838824957746634;-319961;-433834;-335004;-642195;
2024-05-02T10:10:19.487;537838824975912655;-319809;-433671;-334865;-642218;
2024-05-02T10:10:19.505;537838824994078676;-319771;-433640;-334608;-642219;
2024-05-02T10:10:19.523;537838825012244697;-319676;-433668;-334487;-642214;
2024-05-02T10:10:19.541;537838825030410718;-319581;-433627;-334364;-642184;
2024-05-02T10:10:19.560;537838825048576739;-319473;-433598;-334248;-642206;
2024-05-02T10:10:19.578;537838825066742760;-319441;-433522;-334132;-642220;
2024-05-02T10:10:19.596;537838825084908781;-319365;-433567;-333995;-642226;
2024-05-02T10:10:19.614;537838825103074802;-319468;-433588;-334019;-642305;
2024-05-02T10:10:19.632;537838825121240823;-319518;-433622;-333989;-642291;
2024-05-02T10:10:19.650;537838825139406844;-319841;-433823;-334184;-642338;
2024-05-02T10:10:19.669;537838825157572865;-320027;-433985;-334372;-642378;
2024-05-02T10:10:19.687;537838825175738886;-320296;-434203;-334571;-642495;
2024-05-02T10:10:19.705;537838825193904907;-320483;-434391;-334709;-642537;
2024-05-02T10:10:19.723;537838825212070928;-320789;-434546;-334888;-642634;
2024-05-02T10:10:19.741;537838825230236949;-320970;-434744;-334967;-642669;
2024-05-02T10:10:19.759;537838825248402970;-321167;-434904;-335141;-642813;
2024-05-02T10:10:19.778;537838825266568991;-321401;-435109;-335277;-642928;
2024-05-02T10:10:19.796;537838825284735012;-321530;-435155;-335386;-642997;
2024-05-02T10:10:19.814;537838825302901033;-321631;-435246;-335474;-643065;
2024-05-02T10:10:19.832;537838825321067054;-321728;-435319;-335495;-643145;
2024-05-02T10:10:19.850;537838825339233075;-321728;-435357;-335524;-643175;
2024-05-02T10:10:19.868;537838825357399096;-321708;-435316;-335436;-643117;
2024-05-02T10:10:19.887;537838825375565117;-321722;-435356;-335465;-643101;
2024-05-02T10:10:19.905;537838825393731138;-321742;-435357;-335448;-643110;
2024-05-02T10:10:19.923;537838825411897159;-321708;-435383;-335375;-643092;
2024-05-02T10:10:19.941;537838825430063180;-321713;-435355;-335350;-643089;
2024-05-02T10:10:19.959;537838825448229201;-321743;-435353;-335344;-643034;
2024-05-02T10:10:19.977;537838825466395603;-321793;-435306;-335318;-642992;
2024-05-02T10:10:19.996;537838825484561987;-321795;-435305;-335231;-642887;
2024-05-02T10:10:20.014;537838825502728371;-321836;-435238;-335163;-642889;
2024-05-02T10:10:20.032;537838825520894755;-321831;-435141;-335104;-642827;
2024-05-02T10:10:20.050;537838825539061139;-321781;-435142;-335064;-642733;
2024-05-02T10:10:20.068;537838825557227523;-321806;-435011;-334949;-642671;
2024-05-02T10:10:20.086;537838825575393907;-321854;-435007;-334916;-642675;
2024-05-02T10:10:20.105;537838825593560291;-321854;-435029;-334828;-642692;
2024-05-02T10:10:20.123;537838825611726675;-321795;-435028;-334905;-642705;
2024-05-02T10:10:20.141;537838825629893059;-321837;-435055;-334906;-642771;
2024-05-02T10:10:20.159;537838825648059443;-321842;-435013;-334843;-642812;
2024-05-02T10:10:20.177;537838825666225827;-321871;-435089;-334872;-642861;
2024-05-02T10:10:20.195;537838825684392211;-321976;-435093;-334844;-642855;
2024-05-02T10:10:20.214;537838825702558595;-321906;-435175;-334869;-642946;
2024-05-02T10:10:20.232;537838825720724979;-321877;-435186;-334834;-642891;
2024-05-02T10:10:20.250;537838825738891363;-321807;-435101;-334743;-642877;
2024-05-02T10:10:20.268;537838825757057747;-321733;-435045;-334685;-642860;
2024-05-02T10:10:20.286;537838825775224131;-321652;-434939;-334615;-642801;
2024-05-02T10:10:20.304;537838825793390515;-321534;-434875;-334518;-642683;
2024-05-02T10:10:20.323;537838825811556899;-321415;-434870;-334346;-642737;
2024-05-02T10:10:20.341;537838825829723283;-321265;-434681;-334261;-642567;
2024-05-02T10:10:20.359;537838825847889667;-321104;-434572;-334069;-642531;
2024-05-02T10:10:20.377;537838825866056051;-320965;-434428;-333917;-642459;
2024-05-02T10:10:20.395;537838825884222435;-320756;-434271;-333683;-642382;
2024-05-02T10:10:20.413;537838825902388819;-320571;-434100;-333510;-642263;
2024-05-02T10:10:20.432;537838825920555203;-320362;-433934;-333346;-642212;
2024-05-02T10:10:20.450;537838825938721587;-320121;-433756;-333149;-642075;
2024-05-02T10:10:20.468;537838825956887971;-319960;-433630;-332958;-641937;
2024-05-02T10:10:20.486;537838825975054355;-319883;-433513;-332837;-641982;
2024-05-02T10:10:20.504;537838825993220739;-319798;-433463;-332766;-641873;
2024-05-02T10:10:20.522;537838826011387123;-319746;-433472;-332778;-641806;
2024-05-02T10:10:20.541;537838826029553507;-319749;-433419;-332751;-641725;
2024-05-02T10:10:20.559;537838826047719891;-319784;-433394;-332739;-641664;
2024-05-02T10:10:20.577;537838826065886275;-319840;-433412;-332845;-641674;
2024-05-02T10:10:20.595;537838826084052659;-320008;-433459;-332896;-641687;
2024-05-02T10:10:20.613;537838826102219043;-320029;-433486;-332988;-641696;
2024-05-02T10:10:20.631;537838826120385427;-320011;-433427;-332899;-641650;
2024-05-02T10:10:20.650;537838826138551811;-320000;-433341;-332900;-641726;
2024-05-02T10:10:20.668;537838826156718195;-319998;-433294;-332894;-641737;
2024-05-02T10:10:20.686;537838826174884579;-319900;-433293;-332782;-641727;
2024-05-02T10:10:20.704;537838826193050963;-319858;-433189;-332794;-641774;
2024-05-02T10:10:20.722;537838826211217347;-319720;-433136;-332739;-641750;
2024-05-02T10:10:20.740;537838826229383590;-319626;-432994;-332600;-641747;
2024-05-02T10:10:20.759;537838826247549829;-319536;-432996;-332614;-641748;
2024-05-02T10:10:20.777;537838826265716068;-319393;-432865;-332537;-641676;
2024-05-02T10:10:20.795;537838826283882307;-319320;-432850;-332444;-641718;
2024-05-02T10:10:20.813;537838826302048546;-319222;-432746;-332305;-641652;
2024-05-02T10:10:20.831;537838826320214785;-319107;-432618;-332274;-641687;
2024-05-02T10:10:20.849;537838826338381024;-318928;-432531;-332097;-641700;
2024-05-02T10:10:20.868;537838826356547263;-318762;-432385;-332056;-641609;
2024-05-02T10:10:20.886;537838826374713502;-318669;-432255;-331962;-641597;
2024-05-02T10:10:20.904;537838826392879741;-318614;-432204;-331888;-641643;
2024-05-02T10:10:20.922;537838826411045980;-318544;-432091;-331839;-641610;
2024-05-02T10:10:20.940;537838826429212219;-318417;-431970;-331772;-641516;
2024-05-02T10:10:20.958;537838826447378458;-318316;-431862;-331671;-641438;
2024-05-02T10:10:20.977;537838826465544697;-318276;-431840;-331587;-641437;
2024-05-02T10:10:20.995;537838826483710936;-318266;-431809;-331550;-641425;
2024-05-02T10:10:21.013;537838826501877175;-318235;-431777;-331501;-641386;
2024-05-02T10:10:21.031;537838826520043414;-318170;-431727;-331501;-641425;
2024-05-02T10:10:21.049;537838826538209653;-318112;-431686;-331568;-641473;
2024-05-02T10:10:21.067;537838826556375892;-318074;-431544;-331432;-641525;
2024-05-02T10:10:21.086;537838826574542131;-317914;-431496;-331384;-641553;
2024-05-02T10:10:21.104;537838826592708370;-317805;-431404;-331288;-641537;
2024-05-02T10:10:21.122;537838826610874609;-317706;-431313;-331137;-641484;
2024-05-02T10:10:21.140;537838826629040848;-317667;-431292;-331149;-641550;
2024-05-02T10:10:21.158;537838826647207087;-317698;-431332;-331039;-641599;
2024-05-02T10:10:21.176;537838826665373326;-317699;-431315;-331009;-641576;
2024-05-02T10:10:21.195;537838826683539565;-317692;-431317;-330960;-641550;
2024-05-02T10:10:21.213;537838826701705804;-317681;-431280;-330839;-641559;
2024-05-02T10:10:21.231;537838826719872043;-317642;-431202;-330708;-641602;
2024-05-02T10:10:21.249;537838826738038282;-317538;-431210;-330630;-641539;
2024-05-02T10:10:21.267;537838826756204521;-317453;-431078;-330509;-641502;
2024-05-02T10:10:21.285;537838826774370760;-317224;-430903;-330357;-641376;
2024-05-02T10:10:21.304;537838826792536999;-317011;-430730;-330292;-641403;
2024-05-02T10:10:21.322;537838826810703238;-316810;-430652;-330215;-641368;
2024-05-02T10:10:21.340;537838826828869477;-316636;-430546;-330169;-641414;
2024-05-02T10:10:21.358;537838826847035716;-316591;-430494;-330171;-641431;
2024-05-02T10:10:21.376;537838826865201955;-316568;-430446;-330182;-641532;
2024-05-02T10:10:21.394;537838826883368194;-316507;-430527;-330264;-641672;
2024-05-02T10:10:21.413;537838826901534433;-316602;-430651;-330373;-641748;
2024-05-02T10:10:21.431;537838826919700672;-316736;-430739;-330610;-641869;
2024-05-02T10:10:21.449;537838826937866911;-316910;-430902;-330762;-641959;
2024-05-02T10:10:21.467;537838826956033150;-316979;-430964;-330923;-642090;
2024-05-02T10:10:21.485;537838826974199389;-317094;-431094;-331069;-642163;
2024-05-02T10:10:21.503;537838826992364437;-317063;-431066;-331125;-642262;
2024-05-02T10:10:21.522;537838827010529477;-317103;-431113;-331154;-642288;
2024-05-02T10:10:21.540;537838827028694517;-317069;-431018;-331135;-642386;
2024-05-02T10:10:21.558;537838827046859557;-316896;-430987;-331106;-642366;
2024-05-02T10:10:21.576;537838827065024597;-316773;-430822;-331060;-642378;
2024-05-02T10:10:21.594;537838827083189637;-316689;-430786;-330994;-642301;
2024-05-02T10:10:21.612;537838827101354677;-316493;-430502;-330867;-642196;
2024-05-02T10:10:21.631;537838827119519717;-316366;-430423;-330726;-642177;
2024-05-02T10:10:21.649;537838827137684757;-316209;-430294;-330592;-642066;
2024-05-02T10:10:21.667;537838827155849797;-316036;-430088;-330460;-642056;
2024-05-02T10:10:21.685;537838827174014837;-315972;-430033;-330396;-642109;
2024-05-02T10:10:21.703;537838827192179877;-315778;-429939;-330370;-642138;
2024-05-02T10:10:21.721;537838827210344917;-315661;-429775;-330268;-642069;
2024-05-02T10:10:21.740;537838827228509957;-315495;-429739;-330264;-642139;
2024-05-02T10:10:21.758;537838827246674997;-315422;-429731;-330287;-642252;
2024-05-02T10:10:21.776;537838827264840037;-315495;-429776;-330258;-642293;
2024-05-02T10:10:21.794;537838827283005077;-315506;-429842;-330213;-642401;
2024-05-02T10:10:21.812;537838827301170117;-315499;-429798;-330226;-642450;
2024-05-02T10:10:21.830;537838827319335157;-315401;-429812;-330216;-642526;
2024-05-02T10:10:21.849;537838827337500197;-315425;-429829;-330155;-642629;
2024-05-02T10:10:21.867;537838827355665237;-315342;-429780;-330106;-642694;
2024-05-02T10:10:21.885;537838827373830277;-315306;-429822;-330107;-642710;
2024-05-02T10:10:21.903;537838827391995317;-315211;-429847;-330033;-642773;
2024-05-02T10:10:21.921;537838827410160357;-315174;-429865;-330013;-642833;
2024-05-02T10:10:21.939;537838827428325397;-315121;-429753;-329851;-642817;
2024-05-02T10:10:21.958;537838827446490437;-315011;-429684;-329757;-642804;
2024-05-02T10:10:21.976;537838827464655477;-314877;-429638;-329652;-642791;
2024-05-02T10:10:21.994;537838827482820517;-314687;-429570;-329487;-642744;
2024-05-02T10:10:22.012;537838827500985557;-314655;-429517;-329392;-642794;
2024-05-02T10:10:22.030;537838827519150597;-314560;-429467;-329223;-642785;
2024-05-02T10:10:22.048;537838827537315637;-314448;-429407;-329099;-642730;
2024-05-02T10:10:22.067;537838827555480677;-314334;-429274;-329006;-642709;
2024-05-02T10:10:22.085;537838827573645717;-314181;-429252;-328827;-642669;
2024-05-02T10:10:22.103;537838827591810757;-313997;-429071;-328709;-642688;
2024-05-02T10:10:22.121;537838827609975797;-313942;-429059;-328620;-642724;
2024-05-02T10:10:22.139;537838827628140837;-313835;-428959;-328549;-642781;
2024-05-02T10:10:22.157;537838827646305877;-313692;-428881;-328466;-642757;
2024-05-02T10:10:22.176;537838827664470917;-313544;-428877;-328447;-642841;
2024-05-02T10:10:22.194;537838827682635957;-313544;-428952;-328407;-642873;
2024-05-02T10:10:22.212;537838827700800997;-313719;-429052;-328473;-643054;
2024-05-02T10:10:22.230;537838827718966037;-313792;-429186;-328635;-643143;
2024-05-02T10:10:22.248;537838827737131077;-313902;-429236;-328747;-643240;
2024-05-02T10:10:22.266;537838827755295680;-313982;-429395;-328877;-643334;
2024-05-02T10:10:22.285;537838827773460247;-314066;-429438;-328993;-643415;
2024-05-02T10:10:22.303;537838827791624814;-314153;-429445;-328992;-643524;
2024-05-02T10:10:22.321;537838827809789381;-314174;-429471;-328946;-643486;
2024-05-02T10:10:22.339;537838827827953948;-314274;-429456;-328980;-643578;
2024-05-02T10:10:22.357;537838827846118515;-314358;-429475;-328902;-643535;
2024-05-02T10:10:22.375;537838827864283082;-314462;-429408;-328816;-643564;
2024-05-02T10:10:22.394;537838827882447649;-314459;-429392;-328672;-643554;
2024-05-02T10:10:22.412;537838827900612216;-314459;-429384;-328592;-643620;
2024-05-02T10:10:22.430;537838827918776783;-314466;-429376;-328466;-643676;
2024-05-02T10:10:22.448;537838827936941350;-314367;-429240;-328287;-643698;
2024-05-02T10:10:22.466;537838827955105917;-314298;-429141;-328304;-643730;
2024-05-02T10:10:22.484;537838827973270484;-314125;-429045;-328129;-643760;
2024-05-02T10:10:22.503;537838827991435051;-314121;-428966;-328047;-643743;
2024-05-02T10:10:22.521;537838828009599618;-314141;-428925;-327973;-643826;
2024-05-02T10:10:22.539;537838828027764185;-314125;-428910;-327855;-643777;
2024-05-02T10:10:22.557;537838828045928752;-314141;-428897;-327870;-643859;
2024-05-02T10:10:22.575;537838828064093319;-314090;-428842;-327770;-643772;
2024-05-02T10:10:22.593;537838828082257886;-313993;-428795;-327714;-643808;
2024-05-02T10:10:22.612;537838828100422453;-313977;-428685;-327627;-643709;
2024-05-02T10:10:22.630;537838828118587020;-313946;-428623;-327527;-643835;
2024-05-02T10:10:22.648;537838828136751587;-313819;-428556;-327440;-643806;
2024-05-02T10:10:22.666;537838828154916154;-313656;-428411;-327364;-643850;
2024-05-02T10:10:22.684;537838828173080721;-313562;-428352;-327309;-643806;
2024-05-02T10:10:22.702;537838828191245288;-313450;-428271;-327217;-643842;
2024-05-02T10:10:22.720;537838828209409855;-313473;-428225;-327216;-643953;
2024-05-02T10:10:22.739;537838828227574422;-313294;-428212;-327143;-643941;
2024-05-02T10:10:22.757;537838828245738989;-313207;-428115;-327104;-643966;
2024-05-02T10:10:22.775;537838828263903556;-313061;-428070;-326977;-644010;
2024-05-02T10:10:22.793;537838828282068123;-313091;-428005;-327016;-644076;
2024-05-02T10:10:22.811;537838828300232690;-313009;-427967;-326974;-644063;
2024-05-02T10:10:22.829;537838828318397257;-312972;-427907;-326895;-644084;
2024-05-02T10:10:22.848;537838828336561824;-312857;-427973;-326768;-644141;
2024-05-02T10:10:22.866;537838828354726391;-312854;-427854;-326713;-644129;
2024-05-02T10:10:22.884;537838828372890958;-312737;-427725;-326590;-644178;
2024-05-02T10:10:22.902;537838828391055525;-312629;-427688;-326471;-644229;
2024-05-02T10:10:22.920;537838828409220092;-312568;-427581;-326364;-644267;
2024-05-02T10:10:22.938;537838828427384659;-312449;-427467;-326214;-644270;
2024-05-02T10:10:22.957;537838828445549226;-312362;-427424;-326068;-644265;
2024-05-02T10:10:22.975;537838828463713793;-312242;-427348;-326037;-644322;
2024-05-02T10:10:22.993;537838828481878360;-312101;-427288;-325931;-644250;
2024-05-02T10:10:23.011;537838828500042927;-312120;-427273;-325937;-644283;
2024-05-02T10:10:23.029;537838828518209420;-312095;-427276;-326003;-644269;
2024-05-02T10:10:23.047;537838828536375898;-312141;-427311;-326012;-644181;
2024-05-02T10:10:23.066;537838828554542376;-312186;-427310;-326020;-644178;
2024-05-02T10:10:23.084;537838828572708854;-312292;-427429;-326102;-644224;
2024-05-02T10:10:23.102;537838828590875332;-312259;-427333;-326099;-644159;
2024-05-02T10:10:23.120;537838828609041810;-312315;-427336;-326121;-644266;
2024-05-02T10:10:23.138;537838828627208288;-312275;-427263;-326078;-644137;
2024-05-02T10:10:23.156;537838828645374766;-312244;-427308;-326159;-644193;
2024-05-02T10:10:23.175;537838828663541244;-312192;-427269;-326095;-644150;
2024-05-02T10:10:23.193;537838828681707722;-312162;-427261;-326080;-644185;
2024-05-02T10:10:23.211;537838828699874200;-312122;-427238;-326026;-644141;
2024-05-02T10:10:23.229;537838828718040678;-312086;-427129;-325941;-644133;
2024-05-02T10:10:23.247;537838828736207156;-312127;-427081;-325901;-644156;
2024-05-02T10:10:23.265;537838828754373634;-312048;-427058;-325816;-644151;
2024-05-02T10:10:23.284;537838828772540112;-311988;-427035;-325767;-644118;
2024-05-02T10:10:23.302;537838828790706590;-311956;-426909;-325721;-644063;
2024-05-02T10:10:23.320;537838828808873068;-311854;-426824;-325584;-644071;
2024-05-02T10:10:23.338;537838828827039546;-311731;-426750;-325525;-643992;
2024-05-02T10:10:23.356;537838828845206024;-311642;-426720;-325432;-643975;
2024-05-02T10:10:23.374;537838828863372502;-311591;-426655;-325425;-643983;
2024-05-02T10:10:23.393;537838828881538980;-311488;-426572;-325356;-643922;
2024-05-02T10:10:23.411;537838828899705458;-311469;-426558;-325278;-643960;
2024-05-02T10:10:23.429;537838828917871936;-311374;-426433;-325265;-643915;
2024-05-02T10:10:23.447;537838828936038414;-311321;-426351;-325154;-643933;
2024-05-02T10:10:23.465;537838828954204892;-311257;-426323;-325124;-643905;
2024-05-02T10:10:23.483;537838828972371370;-311120;-426177;-325006;-643899;
2024-05-02T10:10:23.502;537838828990537848;-311049;-426214;-324941;-643869;
2024-05-02T10:10:23.520;537838829008704326;-310969;-426108;-324836;-643897;
2024-05-02T10:10:23.538;537838829026870804;-310866;-426130;-324818;-643919;
2024-05-02T10:10:23.556;537838829045037282;-310772;-426027;-324757;-643857;
2024-05-02T10:10:23.574;537838829063203760;-310660;-425909;-324708;-643811;
2024-05-02T10:10:23.592;537838829081370238;-310537;-425856;-324625;-643824;
2024-05-02T10:10:23.611;537838829099536716;-310475;-425840;-324651;-643815;
2024-05-02T10:10:23.629;537838829117703194;-310375;-425791;-324527;-643812;
2024-05-02T10:10:23.647;537838829135869672;-310304;-425791;-324519;-643802;
2024-05-02T10:10:23.665;537838829154036150;-310185;-425693;-324431;-643801;
2024-05-02T10:10:23.683;537838829172202628;-310117;-425671;-324367;-643774;
2024-05-02T10:10:23.701;537838829190369106;-310017;-425640;-324305;-643776;
2024-05-02T10:10:23.720;537838829208535584;-309893;-425532;-324160;-643737;
2024-05-02T10:10:23.738;537838829226702062;-309810;-425465;-324133;-643786;
2024-05-02T10:10:23.756;537838829244868540;-309715;-425424;-324089;-643789;
2024-05-02T10:10:23.774;537838829263035018;-309622;-425393;-324027;-643740;
2024-05-02T10:10:23.792;537838829281201496;-309632;-425341;-323993;-643725;
2024-05-02T10:10:23.810;537838829299367726;-309573;-425358;-324014;-643702;
2024-05-02T10:10:23.829;537838829317533928;-309633;-425424;-324159;-643697;
2024-05-02T10:10:23.847;537838829335700130;-309735;-425579;-324199;-643638;
2024-05-02T10:10:23.865;537838829353866332;-309894;-425653;-324286;-643623;
2024-05-02T10:10:23.883;537838829372032534;-309974;-425744;-324349;-643653;
2024-05-02T10:10:23.901;537838829390198736;-310100;-425817;-324476;-643665;
2024-05-02T10:10:23.919;537838829408364938;-310251;-425999;-324538;-643786;
2024-05-02T10:10:23.938;537838829426531140;-310370;-426044;-324643;-643948;
2024-05-02T10:10:23.956;537838829444697342;-310489;-426173;-324775;-644086;
2024-05-02T10:10:23.974;537838829462863544;-310635;-426258;-324826;-644151;
2024-05-02T10:10:23.992;537838829481029746;-310731;-426326;-324815;-644254;
2024-05-02T10:10:24.010;537838829499195948;-310804;-426344;-324753;-644233;
2024-05-02T10:10:24.028;537838829517362150;-310801;-426287;-324757;-644178;
2024-05-02T10:10:24.047;537838829535528352;-310670;-426350;-324695;-644078;
2024-05-02T10:10:24.065;537838829553694554;-310568;-426237;-324658;-644032;
2024-05-02T10:10:24.083;537838829571860756;-310495;-426268;-324699;-644002;
2024-05-02T10:10:24.101;537838829590026958;-310501;-426227;-324738;-643989;
2024-05-02T10:10:24.119;537838829608193160;-310552;-426323;-324767;-643918;
2024-05-02T10:10:24.137;537838829626359362;-310589;-426391;-324797;-644023;
2024-05-02T10:10:24.156;537838829644525564;-310646;-426403;-324795;-643894;
2024-05-02T10:10:24.174;537838829662691766;-310745;-426515;-324813;-643882;
2024-05-02T10:10:24.192;537838829680857968;-310786;-426489;-324770;-643798;
2024-05-02T10:10:24.210;537838829699024170;-310764;-426451;-324747;-643810;
2024-05-02T10:10:24.228;537838829717190372;-310643;-426285;-324623;-643805;
2024-05-02T10:10:24.246;537838829735356574;-310467;-426278;-324583;-643698;
2024-05-02T10:10:24.265;537838829753522776;-310442;-426195;-324558;-643712;
2024-05-02T10:10:24.283;537838829771688978;-310407;-426202;-324500;-643725;
2024-05-02T10:10:24.301;537838829789855180;-310422;-426198;-324532;-643728;
2024-05-02T10:10:24.319;537838829808021382;-310391;-426079;-324439;-643829;
2024-05-02T10:10:24.337;537838829826187584;-310418;-426054;-324383;-643902;
2024-05-02T10:10:24.355;537838829844353786;-310356;-425974;-324309;-643937;
2024-05-02T10:10:24.374;537838829862519988;-310282;-425907;-324243;-643978;
2024-05-02T10:10:24.392;537838829880686190;-310238;-425829;-324103;-644038;
2024-05-02T10:10:24.410;537838829898852392;-310222;-425771;-324007;-644101;
2024-05-02T10:10:24.428;537838829917018594;-310125;-425725;-323892;-644078;
2024-05-02T10:10:24.446;537838829935184796;-310075;-425627;-323763;-644085;
2024-05-02T10:10:24.464;537838829953350998;-310009;-425589;-323716;-644071;
2024-05-02T10:10:24.483;537838829971517200;-309912;-425556;-323629;-644114;
2024-05-02T10:10:24.501;537838829989683402;-309880;-425445;-323620;-644112;
2024-05-02T10:10:24.519;537838830007849604;-309829;-425524;-323599;-644101;
2024-05-02T10:10:24.537;537838830026015806;-309768;-425410;-323486;-644133;
2024-05-02T10:10:24.555;537838830044182008;-309790;-425437;-323460;-644139;
2024-05-02T10:10:24.573;537838830062347068;-309795;-425446;-323510;-644167;
2024-05-02T10:10:24.592;537838830080512108;-309941;-425537;-323612;-644133;
2024-05-02T10:10:24.610;537838830098677148;-310049;-425592;-323760;-644160;
2024-05-02T10:10:24.628;537838830116842188;-310168;-425662;-323856;-644177;
2024-05-02T10:10:24.646;537838830135007228;-310161;-425633;-323921;-644177;
2024-05-02T10:10:24.664;537838830153172268;-310260;-425678;-323940;-644169;
2024-05-02T10:10:24.682;537838830171337308;-310330;-425669;-323929;-644131;
2024-05-02T10:10:24.701;537838830189502348;-310413;-425664;-323929;-644168;
2024-05-02T10:10:24.719;537838830207667388;-310387;-425587;-323929;-644115;
2024-05-02T10:10:24.737;537838830225832428;-310381;-425593;-323979;-644018;
2024-05-02T10:10:24.755;537838830243997468;-310335;-425507;-323894;-644018;
2024-05-02T10:10:24.773;537838830262162508;-310329;-425481;-323914;-643971;
2024-05-02T10:10:24.791;537838830280327548;-310216;-425341;-323783;-643919;
2024-05-02T10:10:24.810;537838830298492588;-310197;-425257;-323732;-643980;
2024-05-02T10:10:24.828;537838830316657628;-310057;-425209;-323571;-643934;
2024-05-02T10:10:24.846;537838830334822668;-310058;-425126;-323600;-643971;
2024-05-02T10:10:24.864;537838830352987708;-309944;-425003;-323555;-643863;
2024-05-02T10:10:24.882;537838830371152748;-309759;-424954;-323484;-643822;
2024-05-02T10:10:24.900;537838830389317788;-309768;-424866;-323483;-643802;
2024-05-02T10:10:24.919;537838830407482828;-309605;-424765;-323341;-643710;
2024-05-02T10:10:24.937;537838830425647868;-309538;-424728;-323333;-643725;
2024-05-02T10:10:24.955;537838830443812908;-309466;-424599;-323263;-643657;
2024-05-02T10:10:24.973;537838830461977948;-309319;-424481;-323163;-643560;
2024-05-02T10:10:24.991;537838830480142988;-309257;-424381;-323090;-643459;
2024-05-02T10:10:25.009;537838830498308028;-309078;-424297;-322891;-643356;
2024-05-02T10:10:25.028;537838830516473068;-308926;-424104;-322780;-643263;
2024-05-02T10:10:25.046;537838830534638108;-308846;-424085;-322698;-643182;
2024-05-02T10:10:25.064;537838830552803148;-308719;-423948;-322561;-643038;
2024-05-02T10:10:25.082;537838830570968188;-308549;-423848;-322405;-642981;
2024-05-02T10:10:25.100;537838830589133228;-308354;-423678;-322220;-642856;
2024-05-02T10:10:25.118;537838830607298268;-308168;-423602;-322207;-642789;
2024-05-02T10:10:25.137;537838830625463308;-308038;-423434;-322081;-642694;
2024-05-02T10:10:25.155;537838830643628348;-307876;-423331;-322003;-642596;
2024-05-02T10:10:25.173;537838830661793388;-307660;-423165;-321831;-642455;
2024-05-02T10:10:25.191;537838830679958428;-307558;-423088;-321671;-642380;
2024-05-02T10:10:25.209;537838830698123468;-307405;-423030;-321656;-642374;
2024-05-02T10:10:25.227;537838830716288508;-307394;-422943;-321570;-642290;
2024-05-02T10:10:25.246;537838830734453548;-307317;-422900;-321463;-642270;
2024-05-02T10:10:25.264;537838830752618588;-307266;-422843;-321388;-642229;
2024-05-02T10:10:25.282;537838830770783628;-307210;-422811;-321352;-642245;
2024-05-02T10:10:25.300;537838830788948668;-307244;-422789;-321366;-642201;
2024-05-02T10:10:25.318;537838830807113708;-307392;-422872;-321489;-642179;
2024-05-02T10:10:25.336;537838830825280278;-307652;-422988;-321678;-642293;
2024-05-02T10:10:25.355;537838830843446844;-307868;-423178;-321880;-642382;
2024-05-02T10:10:25.373;537838830861613410;-308041;-423279;-322183;-642396;
2024-05-02T10:10:25.391;537838830879779976;-308177;-423408;-322396;-642513;
2024-05-02T10:10:25.409;537838830897946542;-308293;-423523;-322675;-642584;
2024-05-02T10:10:25.427;537838830916113108;-308446;-423645;-322881;-642666;
2024-05-02T10:10:25.445;537838830934279674;-308488;-423658;-322980;-642799;
2024-05-02T10:10:25.464;537838830952446240;-308462;-423652;-323055;-642854;
2024-05-02T10:10:25.482;537838830970612806;-308603;-423729;-323137;-642955;
2024-05-02T10:10:25.500;537838830988779372;-308637;-423758;-323262;-643047;
2024-05-02T10:10:25.518;537838831006945938;-308607;-423819;-323308;-643122;
2024-05-02T10:10:25.536;537838831025112504;-308538;-423828;-323327;-643169;
2024-05-02T10:10:25.554;537838831043279070;-308484;-423781;-323322;-643228;
2024-05-02T10:10:25.573;537838831061445636;-308449;-423796;-323232;-643271;
2024-05-02T10:10:25.591;537838831079612202;-308398;-423748;-323203;-643302;
2024-05-02T10:10:25.609;537838831097778768;-308348;-423784;-323200;-643281;
2024-05-02T10:10:25.627;537838831115945334;-308234;-423716;-323169;-643286;
2024-05-02T10:10:25.645;537838831134111900;-308283;-423696;-323239;-643372;
2024-05-02T10:10:25.663;537838831152278466;-308371;-423752;-323303;-643408;
2024-05-02T10:10:25.682;537838831170445032;-308365;-423731;-323311;-643532;
2024-05-02T10:10:25.700;537838831188611598;-308351;-423743;-323323;-643567;
2024-05-02T10:10:25.718;537838831206778164;-308330;-423798;-323342;-643680;
2024-05-02T10:10:25.736;537838831224944730;-308390;-423740;-323382;-643812;
2024-05-02T10:10:25.754;537838831243111296;-308368;-423686;-323356;-643913;
2024-05-02T10:10:25.772;537838831261277862;-308437;-423735;-323264;-644033;
2024-05-02T10:10:25.791;537838831279444428;-308405;-423747;-323323;-644106;
2024-05-02T10:10:25.809;537838831297610994;-308470;-423799;-323355;-644307;
2024-05-02T10:10:25.827;537838831315777560;-308395;-423891;-323312;-644381;
2024-05-02T10:10:25.845;537838831333944126;-308265;-423968;-323335;-644419;
2024-05-02T10:10:25.863;537838831352110692;-308010;-424043;-323140;-644456;
2024-05-02T10:10:25.881;537838831370277258;-307753;-424054;-323026;-644458;
2024-05-02T10:10:25.900;537838831388443824;-307484;-423979;-322894;-644405;
2024-05-02T10:10:25.918;537838831406610390;-307288;-423931;-322818;-644404;
2024-05-02T10:10:25.936;537838831424776956;-307287;-423925;-322804;-644444;
2024-05-02T10:10:25.954;537838831442943522;-307238;-424000;-322750;-644496;
2024-05-02T10:10:25.972;537838831461110088;-307305;-424068;-322815;-644683;
2024-05-02T10:10:25.990;537838831479276654;-307206;-424060;-322829;-644784;
2024-05-02T10:10:26.009;537838831497443220;-307213;-424119;-322856;-644849;
2024-05-02T10:10:26.027;537838831515609786;-307231;-424238;-323024;-644938;
2024-05-02T10:10:26.045;537838831533776352;-307223;-424356;-323073;-644970;
2024-05-02T10:10:26.063;537838831551942918;-307286;-424352;-323134;-644976;
2024-05-02T10:10:26.081;537838831570109484;-307366;-424525;-323289;-645011;
2024-05-02T10:10:26.099;537838831588275184;-307530;-424586;-323509;-645058;
2024-05-02T10:10:26.118;537838831606440878;-307688;-424720;-323662;-645069;
2024-05-02T10:10:26.136;537838831624606572;-307804;-424899;-323800;-645107;
2024-05-02T10:10:26.154;537838831642772266;-308047;-425035;-323936;-645246;
2024-05-02T10:10:26.172;537838831660937960;-308282;-425303;-324180;-645428;
2024-05-02T10:10:26.190;537838831679103654;-308488;-425541;-324466;-645581;
2024-05-02T10:10:26.208;537838831697269348;-308625;-425633;-324674;-645690;
2024-05-02T10:10:26.227;537838831715435042;-308870;-425829;-324967;-645772;
2024-05-02T10:10:26.245;537838831733600736;-309154;-426070;-325181;-646004;
2024-05-02T10:10:26.263;537838831751766430;-309411;-426272;-325393;-646151;
2024-05-02T10:10:26.281;537838831769932124;-309647;-426356;-325506;-646270;
2024-05-02T10:10:26.299;537838831788097818;-309779;-426506;-325601;-646275;
2024-05-02T10:10:26.317;537838831806263512;-309752;-426502;-325583;-646281;
2024-05-02T10:10:26.336;537838831824429206;-309758;-426396;-325533;-646233;
2024-05-02T10:10:26.354;537838831842594900;-309763;-426333;-325530;-646197;
2024-05-02T10:10:26.372;537838831860760594;-309888;-426145;-325456;-646163;
2024-05-02T10:10:26.390;537838831878926288;-310109;-426034;-325465;-646232;
2024-05-02T10:10:26.408;537838831897091982;-310201;-425842;-325440;-646296;
2024-05-02T10:10:26.426;537838831915257676;-310119;-425808;-325271;-646328;
2024-05-02T10:10:26.445;537838831933423370;-310068;-425791;-325134;-646315;
2024-05-02T10:10:26.463;537838831951589064;-309866;-425731;-324891;-646234;
2024-05-02T10:10:26.481;537838831969754758;-309693;-425684;-324692;-646083;
2024-05-02T10:10:26.499;537838831987920452;-309417;-425497;-324361;-645839;
2024-05-02T10:10:26.517;537838832006086146;-309124;-425337;-324154;-645678;
2024-05-02T10:10:26.535;537838832024251840;-308898;-425223;-323907;-645421;
2024-05-02T10:10:26.554;537838832042417534;-308584;-425016;-323595;-645223;
2024-05-02T10:10:26.572;537838832060583228;-308268;-424899;-323384;-644983;
2024-05-02T10:10:26.590;537838832078748922;-308001;-424739;-323113;-644788;
2024-05-02T10:10:26.608;537838832096914616;-307711;-424643;-322877;-644586;
2024-05-02T10:10:26.626;537838832115080310;-307501;-424531;-322593;-644361;
2024-05-02T10:10:26.644;537838832133246004;-307172;-424315;-322333;-644195;
2024-05-02T10:10:26.662;537838832151411698;-306958;-424251;-322074;-643905;
2024-05-02T10:10:26.681;537838832169577392;-306796;-424138;-321854;-643740;
2024-05-02T10:10:26.699;537838832187743086;-306659;-424130;-321773;-643545;
2024-05-02T10:10:26.717;537838832205908780;-306587;-424178;-321670;-643484;
2024-05-02T10:10:26.735;537838832224074474;-306614;-424249;-321699;-643412;
2024-05-02T10:10:26.753;537838832242240168;-306665;-424364;-321707;-643367;
2024-05-02T10:10:26.771;537838832260405862;-306712;-424631;-321736;-643510;
2024-05-02T10:10:26.790;537838832278571556;-306715;-424720;-321780;-643426;
2024-05-02T10:10:26.808;537838832296737250;-306858;-424952;-322045;-643367;
2024-05-02T10:10:26.826;537838832314902944;-307080;-425059;-322240;-643382;
2024-05-02T10:10:26.844;537838832333068638;-307277;-425303;-322419;-643312;
2024-05-02T10:10:26.862;537838832351233686;-307613;-425601;-322781;-643304;
2024-05-02T10:10:26.880;537838832369398726;-307797;-425795;-323001;-643256;
2024-05-02T10:10:26.899;537838832387563766;-307937;-425875;-323177;-643148;
2024-05-02T10:10:26.917;537838832405728806;-308020;-425937;-323315;-642938;
2024-05-02T10:10:26.935;537838832423893846;-308158;-425992;-323467;-642779;
2024-05-02T10:10:26.953;537838832442058886;-308296;-426028;-323582;-642555;
2024-05-02T10:10:26.971;537838832460223926;-308320;-426060;-323649;-642317;
2024-05-02T10:10:26.989;537838832478388966;-308433;-426109;-323707;-642148;
2024-05-02T10:10:27.008;537838832496554006;-308394;-426037;-323693;-641962;
2024-05-02T10:10:27.026;537838832514719046;-308337;-425942;-323649;-641725;
2024-05-02T10:10:27.044;537838832532884086;-308297;-425858;-323680;-641479;
2024-05-02T10:10:27.062;537838832551049126;-308428;-425918;-323673;-641367;
2024-05-02T10:10:27.080;537838832569214166;-308674;-426074;-323892;-641307;
2024-05-02T10:10:27.098;537838832587379206;-308977;-426267;-324057;-641369;
2024-05-02T10:10:27.117;537838832605544246;-309308;-426557;-324354;-641435;
2024-05-02T10:10:27.135;537838832623709286;-309486;-426787;-324525;-641493;
2024-05-02T10:10:27.153;537838832641874326;-309765;-427013;-324779;-641503;
2024-05-02T10:10:27.171;537838832660039366;-310070;-427230;-324959;-641538;
2024-05-02T10:10:27.189;537838832678204406;-310212;-427375;-325149;-641602;
2024-05-02T10:10:27.207;537838832696369446;-310325;-427446;-325214;-641645;
2024-05-02T10:10:27.226;537838832714534486;-310383;-427533;-325283;-641606;
2024-05-02T10:10:27.244;537838832732699526;-310445;-427611;-325463;-641647;
2024-05-02T10:10:27.262;537838832750864566;-310458;-427665;-325590;-641713;
2024-05-02T10:10:27.280;537838832769029606;-310549;-427808;-325799;-641795;
2024-05-02T10:10:27.298;537838832787194646;-310576;-427871;-325916;-641874;
2024-05-02T10:10:27.316;537838832805359686;-310671;-427970;-326093;-641971;
2024-05-02T10:10:27.335;537838832823524726;-310702;-427975;-326162;-641942;
2024-05-02T10:10:27.353;537838832841689766;-310719;-427989;-326190;-641940;
2024-05-02T10:10:27.371;537838832859854806;-310714;-427987;-326290;-642017;
2024-05-02T10:10:27.389;537838832878019846;-310709;-427985;-326333;-641932;
2024-05-02T10:10:27.407;537838832896184886;-310765;-428016;-326369;-641934;
2024-05-02T10:10:27.425;537838832914349926;-310737;-428027;-326446;-641929;
2024-05-02T10:10:27.444;537838832932514966;-310666;-427939;-326438;-641875;
2024-05-02T10:10:27.462;537838832950680006;-310499;-427858;-326383;-641802;
2024-05-02T10:10:27.480;537838832968845046;-310407;-427774;-326330;-641698;
2024-05-02T10:10:27.498;537838832987010086;-310362;-427669;-326278;-641674;
2024-05-02T10:10:27.516;537838833005175126;-310123;-427560;-326182;-641568;
2024-05-02T10:10:27.534;537838833023340166;-310152;-427492;-326201;-641473;
2024-05-02T10:10:27.553;537838833041505206;-310048;-427516;-326199;-641439;
2024-05-02T10:10:27.571;537838833059670246;-310216;-427540;-326241;-641439;
2024-05-02T10:10:27.589;537838833077835286;-310236;-427557;-326310;-641428;
2024-05-02T10:10:27.607;537838833096000326;-310324;-427630;-326413;-641474;
2024-05-02T10:10:27.625;537838833114165692;-310412;-427716;-326664;-641420;
2024-05-02T10:10:27.643;537838833132331022;-310608;-427862;-326904;-641429;
2024-05-02T10:10:27.662;537838833150496352;-310821;-428001;-327117;-641288;
2024-05-02T10:10:27.680;537838833168661682;-310979;-428096;-327367;-641264;
2024-05-02T10:10:27.698;537838833186827012;-311281;-428292;-327742;-641222;
2024-05-02T10:10:27.716;537838833204992342;-311479;-428429;-328021;-641249;
2024-05-02T10:10:27.734;537838833223157672;-311720;-428601;-328363;-641260;
2024-05-02T10:10:27.752;537838833241323002;-311868;-428720;-328660;-641284;
2024-05-02T10:10:27.771;537838833259488332;-312070;-428823;-328936;-641295;
2024-05-02T10:10:27.789;537838833277653662;-312226;-428951;-329253;-641354;
2024-05-02T10:10:27.807;537838833295818992;-312378;-429057;-329430;-641276;
2024-05-02T10:10:27.825;537838833313984322;-312390;-429078;-329627;-641252;
2024-05-02T10:10:27.843;537838833332149652;-312513;-429234;-329849;-641286;
2024-05-02T10:10:27.861;537838833350314982;-312592;-429238;-329962;-641255;
2024-05-02T10:10:27.880;537838833368480312;-312724;-429299;-330090;-641187;
2024-05-02T10:10:27.898;537838833386645642;-312853;-429351;-330308;-641202;
2024-05-02T10:10:27.916;537838833404810972;-313056;-429476;-330505;-641161;
2024-05-02T10:10:27.934;537838833422976302;-313268;-429687;-330835;-641287;
2024-05-02T10:10:27.952;537838833441141632;-313490;-429776;-331107;-641272;
2024-05-02T10:10:27.970;537838833459306962;-313727;-429924;-331307;-641308;
2024-05-02T10:10:27.989;537838833477472292;-313930;-430023;-331575;-641345;
2024-05-02T10:10:28.007;537838833495637622;-314118;-430106;-331711;-641371;
2024-05-02T10:10:28.025;537838833513802952;-314171;-430158;-331887;-641298;
2024-05-02T10:10:28.043;537838833531968282;-314270;-430324;-331996;-641320;
2024-05-02T10:10:28.061;537838833550133612;-314346;-430319;-332119;-641295;
2024-05-02T10:10:28.079;537838833568298942;-314381;-430350;-332162;-641321;
2024-05-02T10:10:28.098;537838833586464272;-314442;-430366;-332235;-641332;
2024-05-02T10:10:28.116;537838833604629602;-314430;-430380;-332268;-641371;
2024-05-02T10:10:28.134;537838833622794932;-314519;-430459;-332366;-641383;
2024-05-02T10:10:28.152;537838833640960262;-314512;-430411;-332433;-641352;
2024-05-02T10:10:28.170;537838833659125592;-314655;-430410;-332545;-641397;
2024-05-02T10:10:28.188;537838833677290922;-314722;-430483;-332628;-641379;
2024-05-02T10:10:28.207;537838833695456252;-314795;-430528;-332676;-641425;
2024-05-02T10:10:28.225;537838833713621582;-314804;-430615;-332796;-641430;
2024-05-02T10:10:28.243;537838833731786912;-314830;-430640;-332795;-641455;
2024-05-02T10:10:28.261;537838833749952242;-314733;-430593;-332728;-641448;
2024-05-02T10:10:28.279;537838833768117572;-314745;-430526;-332750;-641428;
2024-05-02T10:10:28.297;537838833786282902;-314680;-430466;-332696;-641314;
2024-05-02T10:10:28.316;537838833804448232;-314726;-430545;-332755;-641366;
2024-05-02T10:10:28.334;537838833822613562;-314715;-430567;-332731;-641393;
2024-05-02T10:10:28.352;537838833840778892;-314673;-430562;-332758;-641340;
2024-05-02T10:10:28.370;537838833858944222;-314531;-430470;-332751;-641326;
2024-05-02T10:10:28.388;537838833877111169;-314489;-430409;-332732;-641303;
2024-05-02T10:10:28.406;537838833895278098;-314534;-430526;-332847;-641338;
2024-05-02T10:10:28.425;537838833913445027;-314537;-430520;-332926;-641338;
2024-05-02T10:10:28.443;537838833931611956;-314628;-430637;-332972;-641327;
2024-05-02T10:10:28.461;537838833949778885;-314813;-430699;-333160;-641354;
2024-05-02T10:10:28.479;537838833967945814;-314985;-430862;-333406;-641348;
2024-05-02T10:10:28.497;537838833986112743;-315286;-431048;-333769;-641375;
2024-05-02T10:10:28.515;537838834004279672;-315544;-431258;-334076;-641393;
2024-05-02T10:10:28.534;537838834022446601;-315791;-431486;-334371;-641424;
2024-05-02T10:10:28.552;537838834040613530;-316092;-431706;-334674;-641471;
2024-05-02T10:10:28.570;537838834058780459;-316324;-431878;-334941;-641499;
2024-05-02T10:10:28.588;537838834076947388;-316516;-432015;-335108;-641493;
2024-05-02T10:10:28.606;537838834095114317;-316691;-432162;-335406;-641501;
2024-05-02T10:10:28.624;537838834113281246;-316854;-432279;-335602;-641459;
2024-05-02T10:10:28.643;537838834131448175;-316965;-432359;-335761;-641457;
2024-05-02T10:10:28.661;537838834149615104;-317016;-432400;-335818;-641467;
2024-05-02T10:10:28.679;537838834167782033;-317122;-432484;-335951;-641532;
2024-05-02T10:10:28.697;537838834185948962;-317183;-432516;-336066;-641489;
2024-05-02T10:10:28.715;537838834204115891;-317189;-432547;-336027;-641455;
2024-05-02T10:10:28.733;537838834222282820;-317293;-432582;-336113;-641455;
2024-05-02T10:10:28.752;537838834240449749;-317322;-432602;-336202;-641429;
2024-05-02T10:10:28.770;537838834258616678;-317487;-432637;-336239;-641418;
2024-05-02T10:10:28.788;537838834276783607;-317524;-432663;-336297;-641359;
2024-05-02T10:10:28.806;537838834294950536;-317588;-432693;-336321;-641385;
2024-05-02T10:10:28.824;537838834313117465;-317511;-432629;-336282;-641344;
2024-05-02T10:10:28.842;537838834331284394;-317487;-432594;-336353;-641339;
2024-05-02T10:10:28.861;537838834349451323;-317524;-432555;-336394;-641275;
2024-05-02T10:10:28.879;537838834367618252;-317520;-432542;-336412;-641245;
2024-05-02T10:10:28.897;537838834385785181;-317463;-432492;-336459;-641328;
2024-05-02T10:10:28.915;537838834403952110;-317356;-432426;-336461;-641287;
2024-05-02T10:10:28.933;537838834422119039;-317402;-432367;-336507;-641371;
2024-05-02T10:10:28.951;537838834440285968;-317356;-432374;-336547;-641315;
2024-05-02T10:10:28.970;537838834458452897;-317359;-432285;-336459;-641286;
2024-05-02T10:10:28.988;537838834476619826;-317348;-432234;-336477;-641299;
2024-05-02T10:10:29.006;537838834494786755;-317300;-432239;-336451;-641238;
2024-05-02T10:10:29.024;537838834512953684;-317357;-432228;-336404;-641218;
2024-05-02T10:10:29.042;537838834531120613;-317379;-432198;-336501;-641226;
2024-05-02T10:10:29.060;537838834549287542;-317363;-432206;-336510;-641232;
2024-05-02T10:10:29.079;537838834567454471;-317334;-432179;-336554;-641252;
2024-05-02T10:10:29.097;537838834585621400;-317305;-432128;-336582;-641254;
2024-05-02T10:10:29.115;537838834603788329;-317365;-432200;-336582;-641237;
2024-05-02T10:10:29.133;537838834621955258;-317438;-432157;-336602;-641226;
2024-05-02T10:10:29.151;537838834640122639;-317423;-432224;-336666;-641265;
2024-05-02T10:10:29.169;537838834658290004;-317352;-432175;-336649;-641254;
2024-05-02T10:10:29.188;537838834676457369;-317343;-432235;-336669;-641328;
2024-05-02T10:10:29.206;537838834694624734;-317429;-432223;-336775;-641390;
2024-05-02T10:10:29.224;537838834712792099;-317420;-432318;-336859;-641523;
2024-05-02T10:10:29.242;537838834730959464;-317489;-432418;-336984;-641596;
2024-05-02T10:10:29.260;537838834749126829;-317664;-432581;-337143;-641728;
2024-05-02T10:10:29.278;537838834767294194;-317890;-432855;-337519;-641953;
2024-05-02T10:10:29.297;537838834785461559;-318181;-433057;-337763;-642096;
2024-05-02T10:10:29.315;537838834803628924;-318582;-433413;-338202;-642310;
2024-05-02T10:10:29.333;537838834821796289;-318967;-433745;-338582;-642457;
2024-05-02T10:10:29.351;537838834839963654;-319432;-434153;-339103;-642717;
2024-05-02T10:10:29.369;537838834858131019;-319879;-434474;-339564;-642909;
2024-05-02T10:10:29.387;537838834876298384;-320331;-434798;-340011;-643091;
2024-05-02T10:10:29.406;537838834894465749;-320594;-435021;-340363;-643284;
2024-05-02T10:10:29.424;537838834912633114;-320966;-435380;-340693;-643467;
2024-05-02T10:10:29.442;537838834930800479;-321284;-435611;-340995;-643613;
2024-05-02T10:10:29.460;537838834948967844;-321536;-435824;-341227;-643728;
2024-05-02T10:10:29.478;537838834967135209;-321760;-436004;-341467;-643807;
2024-05-02T10:10:29.496;537838834985302574;-321946;-436163;-341679;-643922;
2024-05-02T10:10:29.515;537838835003469939;-322156;-436213;-341811;-644072;
2024-05-02T10:10:29.533;537838835021637304;-322297;-436368;-341948;-644104;
2024-05-02T10:10:29.551;537838835039804669;-322477;-436536;-342034;-644131;
2024-05-02T10:10:29.569;537838835057972034;-322612;-436674;-342143;-644215;
2024-05-02T10:10:29.587;537838835076139399;-322849;-436745;-342233;-644245;
2024-05-02T10:10:29.605;537838835094306764;-323022;-436828;-342366;-644259;
2024-05-02T10:10:29.624;537838835112474129;-323154;-436861;-342511;-644288;
2024-05-02T10:10:29.642;537838835130641494;-323349;-436974;-342557;-644279;
2024-05-02T10:10:29.660;537838835148808859;-323431;-437059;-342624;-644317;
2024-05-02T10:10:29.678;537838835166976224;-323499;-437133;-342710;-644322;
2024-05-02T10:10:29.696;537838835185143589;-323596;-437131;-342746;-644342;
2024-05-02T10:10:29.714;537838835203310954;-323579;-437134;-342732;-644353;
2024-05-02T10:10:29.733;537838835221478319;-323588;-437129;-342745;-644325;
2024-05-02T10:10:29.751;537838835239645684;-323615;-437173;-342851;-644363;
2024-05-02T10:10:29.769;537838835257813049;-323569;-437091;-342747;-644370;
2024-05-02T10:10:29.787;537838835275980414;-323567;-437141;-342730;-644409;
2024-05-02T10:10:29.805;537838835294147779;-323532;-437061;-342630;-644386;
2024-05-02T10:10:29.823;537838835312315144;-323502;-437065;-342647;-644446;
2024-05-02T10:10:29.842;537838835330482509;-323396;-437017;-342560;-644468;
2024-05-02T10:10:29.860;537838835348649890;-323338;-436935;-342473;-644408;
2024-05-02T10:10:29.878;537838835366817255;-323345;-436907;-342478;-644450;
2024-05-02T10:10:29.896;537838835384984620;-323238;-436905;-342391;-644415;
2024-05-02T10:10:29.914;537838835403151985;-323269;-436860;-342312;-644415;
2024-05-02T10:10:29.932;537838835421319350;-323149;-436812;-342237;-644342;
2024-05-02T10:10:29.951;537838835439486715;-323086;-436810;-342149;-644277;
2024-05-02T10:10:29.969;537838835457654080;-323011;-436683;-342084;-644261;
2024-05-02T10:10:29.987;537838835475821445;-322966;-436604;-342045;-644232;
2024-05-02T10:10:30.005;537838835493988810;-322941;-436540;-342001;-644189;
2024-05-02T10:10:30.023;537838835512156175;-322856;-436467;-341940;-644131;
2024-05-02T10:10:30.041;537838835530323540;-322863;-436469;-341870;-644104;
2024-05-02T10:10:30.060;537838835548490905;-322849;-436436;-341929;-644126;
2024-05-02T10:10:30.078;537838835566658270;-323024;-436503;-342020;-644084;
2024-05-02T10:10:30.096;537838835584825635;-323204;-436643;-342260;-643989;
2024-05-02T10:10:30.114;537838835602993000;-323425;-436728;-342448;-643946;
2024-05-02T10:10:30.132;537838835621160365;-323617;-436881;-342688;-643878;
2024-05-02T10:10:30.150;537838835639327730;-323851;-436956;-342897;-643771;
2024-05-02T10:10:30.169;537838835657495095;-324033;-437140;-343070;-643699;
2024-05-02T10:10:30.187;537838835675662460;-324200;-437155;-343240;-643628;
2024-05-02T10:10:30.205;537838835693829825;-324342;-437142;-343324;-643528;
2024-05-02T10:10:30.223;537838835711997190;-324424;-437163;-343388;-643442;
2024-05-02T10:10:30.241;537838835730164555;-324447;-437150;-343471;-643313;
2024-05-02T10:10:30.259;537838835748331920;-324522;-437113;-343481;-643196;
2024-05-02T10:10:30.278;537838835766499285;-324515;-437132;-343469;-643084;
2024-05-02T10:10:30.296;537838835784666650;-324494;-437035;-343452;-642977;
2024-05-02T10:10:30.314;537838835802834015;-324453;-436960;-343447;-642928;
2024-05-02T10:10:30.332;537838835821001380;-324424;-436934;-343443;-642805;
2024-05-02T10:10:30.350;537838835839168745;-324330;-436907;-343408;-642730;
2024-05-02T10:10:30.368;537838835857336110;-324335;-436889;-343414;-642690;
2024-05-02T10:10:30.387;537838835875503475;-324295;-436814;-343325;-642566;
2024-05-02T10:10:30.405;537838835893670840;-324396;-436822;-343412;-642472;
2024-05-02T10:10:30.423;537838835911838205;-324420;-436781;-343455;-642399;
2024-05-02T10:10:30.441;537838835930005570;-324433;-436817;-343469;-642307;
2024-05-02T10:10:30.459;537838835948172935;-324430;-436839;-343459;-642293;
2024-05-02T10:10:30.477;537838835966340300;-324379;-436778;-343380;-642239;
2024-05-02T10:10:30.496;537838835984507665;-324339;-436690;-343340;-642181;
2024-05-02T10:10:30.514;537838836002675030;-324275;-436684;-343372;-642074;
2024-05-02T10:10:30.532;537838836020842395;-324204;-436555;-343205;-642043;
2024-05-02T10:10:30.550;537838836039009760;-324131;-436532;-343205;-641986;
2024-05-02T10:10:30.568;537838836057177125;-324140;-436501;-343168;-641871;
2024-05-02T10:10:30.586;537838836075344490;-324148;-436445;-343103;-641874;
2024-05-02T10:10:30.605;537838836093511855;-323949;-436396;-342993;-641808;
2024-05-02T10:10:30.623;537838836111679220;-323937;-436348;-342952;-641812;
2024-05-02T10:10:30.641;537838836129845890;-323935;-436260;-342881;-641828;
2024-05-02T10:10:30.659;537838836148012528;-323802;-436287;-342812;-641768;
2024-05-02T10:10:30.677;537838836166179166;-323752;-436193;-342718;-641744;
2024-05-02T10:10:30.695;537838836184345804;-323675;-436111;-342641;-641752;
2024-05-02T10:10:30.714;537838836202512442;-323617;-436050;-342528;-641680;
2024-05-02T10:10:30.732;537838836220679080;-323536;-436063;-342457;-641744;
2024-05-02T10:10:30.750;537838836238845718;-323454;-436027;-342428;-641751;
2024-05-02T10:10:30.768;537838836257012356;-323330;-435999;-342336;-641613;
2024-05-02T10:10:30.786;537838836275178994;-323194;-435922;-342186;-641585;
2024-05-02T10:10:30.804;537838836293345632;-323115;-435807;-342072;-641596;
2024-05-02T10:10:30.823;537838836311512270;-323066;-435748;-341932;-641563;
2024-05-02T10:10:30.841;537838836329678908;-322921;-435673;-341839;-641532;
2024-05-02T10:10:30.859;537838836347845546;-322895;-435586;-341762;-641487;
2024-05-02T10:10:30.877;537838836366012184;-322826;-435525;-341613;-641408;
2024-05-02T10:10:30.895;537838836384178822;-322957;-435583;-341726;-641413;
2024-05-02T10:10:30.913;537838836402345460;-323068;-435629;-341762;-641314;
2024-05-02T10:10:30.932;537838836420512098;-323271;-435752;-341914;-641231;
2024-05-02T10:10:30.950;537838836438678736;-323533;-435887;-342132;-641224;
2024-05-02T10:10:30.968;537838836456845374;-323649;-435973;-342279;-641208;
2024-05-02T10:10:30.986;537838836475012012;-323783;-436020;-342425;-641175;
2024-05-02T10:10:31.004;537838836493178650;-323895;-436139;-342500;-641180;
2024-05-02T10:10:31.022;537838836511345288;-323985;-436141;-342471;-641144;
2024-05-02T10:10:31.041;537838836529511926;-324047;-436185;-342587;-641175;
2024-05-02T10:10:31.059;537838836547678564;-324162;-436193;-342654;-641131;
2024-05-02T10:10:31.077;537838836565845202;-324208;-436236;-342694;-641058;
2024-05-02T10:10:31.095;537838836584011840;-324214;-436174;-342620;-641101;
2024-05-02T10:10:31.113;537838836602178478;-324192;-436206;-342627;-641077;
2024-05-02T10:10:31.131;537838836620345116;-324215;-436137;-342537;-641066;
2024-05-02T10:10:31.150;537838836638511754;-324166;-436199;-342554;-641038;
2024-05-02T10:10:31.168;537838836656678392;-324229;-436199;-342606;-641084;
2024-05-02T10:10:31.186;537838836674845030;-324205;-436198;-342551;-641030;
2024-05-02T10:10:31.204;537838836693011668;-324300;-436263;-342689;-641030;
2024-05-02T10:10:31.222;537838836711178306;-324336;-436329;-342683;-641051;
2024-05-02T10:10:31.240;537838836729344944;-324385;-436301;-342700;-641077;
2024-05-02T10:10:31.259;537838836747511582;-324442;-436291;-342676;-641010;
2024-05-02T10:10:31.277;537838836765678220;-324543;-436319;-342796;-640972;
2024-05-02T10:10:31.295;537838836783844858;-324570;-436374;-342864;-641011;
2024-05-02T10:10:31.313;537838836802011496;-324579;-436416;-342832;-641078;
2024-05-02T10:10:31.331;537838836820178134;-324529;-436400;-342823;-641058;
2024-05-02T10:10:31.349;537838836838344772;-324527;-436310;-342781;-641039;
2024-05-02T10:10:31.368;537838836856511410;-324491;-436268;-342775;-640975;
2024-05-02T10:10:31.386;537838836874678048;-324498;-436289;-342747;-641048;
2024-05-02T10:10:31.404;537838836892846024;-324473;-436234;-342724;-641061;
2024-05-02T10:10:31.422;537838836911013970;-324499;-436159;-342654;-641012;
2024-05-02T10:10:31.440;537838836929181916;-324460;-436200;-342586;-641020;
2024-05-02T10:10:31.458;537838836947349862;-324382;-436142;-342580;-641002;
2024-05-02T10:10:31.477;537838836965517808;-324350;-436165;-342492;-640984;
2024-05-02T10:10:31.495;537838836983685754;-324339;-436160;-342526;-640985;
2024-05-02T10:10:31.513;537838837001853700;-324271;-436027;-342404;-640972;
2024-05-02T10:10:31.531;537838837020021646;-324230;-436048;-342415;-641001;
2024-05-02T10:10:31.549;537838837038189592;-324219;-436057;-342476;-641067;
2024-05-02T10:10:31.567;537838837056357538;-324184;-436015;-342441;-641085;
2024-05-02T10:10:31.586;537838837074525484;-324182;-435988;-342453;-641139;
2024-05-02T10:10:31.604;537838837092693430;-324186;-436054;-342452;-641183;
2024-05-02T10:10:31.622;537838837110861376;-324119;-435998;-342400;-641196;
2024-05-02T10:10:31.640;537838837129029322;-324201;-436059;-342459;-641393;
2024-05-02T10:10:31.658;537838837147197268;-324227;-436090;-342510;-641472;
2024-05-02T10:10:31.676;537838837165365214;-324404;-436232;-342698;-641615;
2024-05-02T10:10:31.695;537838837183533160;-324638;-436436;-342913;-641778;
2024-05-02T10:10:31.713;537838837201701106;-324994;-436690;-343137;-641993;
2024-05-02T10:10:31.731;537838837219869052;-325386;-436962;-343527;-642195;
2024-05-02T10:10:31.749;537838837238036998;-325807;-437306;-343919;-642455;
2024-05-02T10:10:31.767;537838837256204944;-326181;-437631;-344228;-642655;
2024-05-02T10:10:31.785;537838837274372890;-326548;-437892;-344512;-642871;
2024-05-02T10:10:31.804;537838837292540836;-326801;-438182;-344712;-642978;
2024-05-02T10:10:31.822;537838837310708782;-327098;-438420;-344923;-643230;
2024-05-02T10:10:31.840;537838837328876728;-327359;-438539;-345150;-643364;
2024-05-02T10:10:31.858;537838837347044674;-327547;-438711;-345264;-643493;
2024-05-02T10:10:31.876;537838837365212620;-327664;-438807;-345303;-643601;
2024-05-02T10:10:31.894;537838837383380566;-327741;-438956;-345365;-643705;
2024-05-02T10:10:31.913;537838837401548512;-327797;-438928;-345350;-643730;
2024-05-02T10:10:31.931;537838837419716458;-327834;-438955;-345287;-643747;
2024-05-02T10:10:31.949;537838837437884404;-327768;-438938;-345263;-643762;
2024-05-02T10:10:31.967;537838837456052350;-327793;-438897;-345271;-643751;
2024-05-02T10:10:31.985;537838837474220296;-327718;-438837;-345161;-643660;
2024-05-02T10:10:32.003;537838837492388242;-327719;-438812;-345088;-643677;
2024-05-02T10:10:32.022;537838837510556188;-327702;-438732;-345031;-643559;
2024-05-02T10:10:32.040;537838837528724134;-327668;-438639;-344867;-643501;
2024-05-02T10:10:32.058;537838837546892080;-327575;-438580;-344883;-643410;
2024-05-02T10:10:32.076;537838837565060026;-327437;-438460;-344649;-643307;
2024-05-02T10:10:32.094;537838837583227972;-327351;-438330;-344620;-643161;
2024-05-02T10:10:32.112;537838837601395918;-327213;-438162;-344406;-643048;
2024-05-02T10:10:32.131;537838837619563864;-327138;-438091;-344280;-642956;
2024-05-02T10:10:32.149;537838837637731810;-327033;-437916;-344166;-642908;
2024-05-02T10:10:32.167;537838837655900059;-326874;-437748;-343973;-642786;
2024-05-02T10:10:32.185;537838837674068296;-326737;-437698;-343815;-642735;
2024-05-02T10:10:32.203;537838837692236533;-326638;-437553;-343612;-642668;
2024-05-02T10:10:32.221;537838837710404770;-326391;-437305;-343380;-642537;
2024-05-02T10:10:32.240;537838837728573007;-326169;-437167;-343200;-642476;
2024-05-02T10:10:32.258;537838837746741244;-326036;-436952;-342915;-642338;
2024-05-02T10:10:32.276;537838837764909481;-325829;-436848;-342666;-642258;
2024-05-02T10:10:32.294;537838837783077718;-325699;-436692;-342571;-642189;
2024-05-02T10:10:32.312;537838837801245955;-325680;-436685;-342440;-642186;
2024-05-02T10:10:32.331;537838837819414192;-325594;-436606;-342341;-642135;
2024-05-02T10:10:32.349;537838837837582429;-325504;-436602;-342140;-642099;
2024-05-02T10:10:32.367;537838837855750666;-325353;-436456;-341929;-642020;
2024-05-02T10:10:32.385;537838837873918903;-325215;-436335;-341721;-641984;
2024-05-02T10:10:32.403;537838837892087140;-325061;-436157;-341468;-641902;
2024-05-02T10:10:32.421;537838837910255377;-324937;-436049;-341263;-641877;
2024-05-02T10:10:32.440;537838837928423614;-324801;-435973;-341165;-641906;
2024-05-02T10:10:32.458;537838837946591851;-324748;-435848;-340954;-641806;
2024-05-02T10:10:32.476;537838837964760088;-324711;-435851;-340954;-641821;
2024-05-02T10:10:32.494;537838837982928325;-324799;-435872;-341023;-641760;
2024-05-02T10:10:32.512;537838838001096562;-325044;-435953;-341114;-641747;
2024-05-02T10:10:32.530;537838838019264799;-325199;-436061;-341199;-641758;
2024-05-02T10:10:32.549;537838838037433036;-325424;-436096;-341378;-641744;
2024-05-02T10:10:32.567;537838838055601273;-325640;-436233;-341515;-641741;
2024-05-02T10:10:32.585;537838838073769510;-325868;-436310;-341657;-641707;
2024-05-02T10:10:32.603;537838838091937747;-325999;-436401;-341755;-641729;
2024-05-02T10:10:32.621;537838838110105984;-326084;-436543;-341858;-641732;
2024-05-02T10:10:32.639;537838838128274221;-326194;-436575;-341886;-641658;
2024-05-02T10:10:32.658;537838838146442458;-326328;-436581;-341896;-641744;
2024-05-02T10:10:32.676;537838838164610695;-326321;-436567;-341942;-641757;
2024-05-02T10:10:32.694;537838838182778932;-326328;-436521;-341878;-641699;
2024-05-02T10:10:32.712;537838838200947169;-326333;-436530;-341859;-641698;
2024-05-02T10:10:32.730;537838838219115406;-326303;-436473;-341800;-641690;
2024-05-02T10:10:32.748;537838838237283643;-326366;-436424;-341838;-641766;
2024-05-02T10:10:32.767;537838838255451880;-326350;-436428;-341818;-641761;
2024-05-02T10:10:32.785;537838838273620117;-326355;-436436;-341845;-641733;
2024-05-02T10:10:32.803;537838838291788354;-326494;-436569;-341929;-641820;
2024-05-02T10:10:32.821;537838838309956591;-326565;-436541;-341881;-641797;
2024-05-02T10:10:32.839;537838838328124828;-326575;-436539;-341931;-641735;
2024-05-02T10:10:32.857;537838838346293065;-326627;-436538;-341892;-641731;
2024-05-02T10:10:32.876;537838838364461302;-326651;-436598;-341916;-641835;
2024-05-02T10:10:32.894;537838838382629539;-326655;-436621;-341954;-641817;
2024-05-02T10:10:32.912;537838838400797776;-326733;-436572;-341907;-641827;
2024-05-02T10:10:32.930;537838838418965157;-326654;-436538;-341940;-641795;
2024-05-02T10:10:32.948;537838838437132522;-326614;-436520;-341896;-641741;
2024-05-02T10:10:32.966;537838838455299887;-326557;-436487;-341835;-641785;
2024-05-02T10:10:32.985;537838838473467252;-326528;-436450;-341794;-641734;
2024-05-02T10:10:33.003;537838838491634617;-326469;-436411;-341753;-641816;
2024-05-02T10:10:33.021;537838838509801982;-326384;-436349;-341607;-641802;
2024-05-02T10:10:33.039;537838838527969347;-326302;-436315;-341530;-641758;
2024-05-02T10:10:33.057;537838838546136712;-326256;-436252;-341455;-641708;
2024-05-02T10:10:33.075;537838838564304077;-326122;-436178;-341353;-641744;
2024-05-02T10:10:33.094;537838838582471442;-326020;-436151;-341262;-641762;
2024-05-02T10:10:33.112;537838838600638807;-325876;-436025;-341113;-641702;
2024-05-02T10:10:33.130;537838838618806172;-325777;-435924;-341001;-641741;
2024-05-02T10:10:33.148;537838838636973537;-325669;-435870;-340922;-641757;
2024-05-02T10:10:33.166;537838838655140902;-325589;-435788;-340845;-641712;
2024-05-02T10:10:33.184;537838838673308267;-325478;-435689;-340696;-641736;
2024-05-02T10:10:33.203;537838838691475632;-325423;-435659;-340633;-641783;
2024-05-02T10:10:33.221;537838838709642997;-325307;-435571;-340452;-641729;
2024-05-02T10:10:33.239;537838838727810362;-325166;-435533;-340363;-641794;
2024-05-02T10:10:33.257;537838838745977727;-325118;-435478;-340287;-641760;
2024-05-02T10:10:33.275;537838838764145092;-325153;-435496;-340276;-641738;
2024-05-02T10:10:33.293;537838838782312457;-325254;-435524;-340372;-641690;
2024-05-02T10:10:33.312;537838838800479822;-325474;-435610;-340521;-641667;
2024-05-02T10:10:33.330;537838838818647187;-325662;-435808;-340728;-641681;
2024-05-02T10:10:33.348;537838838836814552;-325865;-435935;-340854;-641704;
2024-05-02T10:10:33.366;537838838854981917;-326153;-436103;-341130;-641772;
2024-05-02T10:10:33.384;537838838873149282;-326344;-436162;-341208;-641719;
2024-05-02T10:10:33.402;537838838891316647;-326488;-436266;-341377;-641733;
2024-05-02T10:10:33.421;537838838909484012;-326695;-436377;-341515;-641789;
2024-05-02T10:10:33.439;537838838927651377;-326815;-436442;-341622;-641743;
2024-05-02T10:10:33.457;537838838945818742;-326950;-436475;-341632;-641706;
2024-05-02T10:10:33.475;537838838963986107;-327023;-436534;-341617;-641728;
2024-05-02T10:10:33.493;537838838982153472;-326999;-436462;-341642;-641757;
2024-05-02T10:10:33.511;537838839000320837;-326997;-436422;-341604;-641709;
2024-05-02T10:10:33.530;537838839018488202;-326931;-436448;-341636;-641678;
2024-05-02T10:10:33.548;537838839036655567;-327077;-436465;-341629;-641728;
2024-05-02T10:10:33.566;537838839054822932;-327002;-436412;-341577;-641767;
2024-05-02T10:10:33.584;537838839072990297;-327041;-436482;-341620;-641706;
2024-05-02T10:10:33.602;537838839091157662;-327048;-436480;-341664;-641696;
2024-05-02T10:10:33.620;537838839109325027;-327193;-436544;-341720;-641736;
2024-05-02T10:10:33.639;537838839127492392;-327247;-436619;-341736;-641746;
2024-05-02T10:10:33.657;537838839145659757;-327214;-436569;-341752;-641725;
2024-05-02T10:10:33.675;537838839163825670;-327287;-436605;-341820;-641766;
2024-05-02T10:10:33.693;537838839181991546;-327411;-436605;-341796;-641765;
2024-05-02T10:10:33.711;537838839200157422;-327360;-436584;-341770;-641760;
2024-05-02T10:10:33.729;537838839218323298;-327367;-436534;-341759;-641714;
2024-05-02T10:10:33.748;537838839236489174;-327366;-436556;-341764;-641799;
2024-05-02T10:10:33.766;537838839254655050;-327267;-436453;-341619;-641748;
2024-05-02T10:10:33.784;537838839272820926;-327184;-436497;-341584;-641749;
2024-05-02T10:10:33.802;537838839290986802;-327105;-436419;-341520;-641742;
2024-05-02T10:10:33.820;537838839309152678;-327054;-436398;-341416;-641707;
2024-05-02T10:10:33.838;537838839327318554;-326988;-436348;-341349;-641781;
2024-05-02T10:10:33.857;537838839345484430;-326855;-436291;-341299;-641789;
2024-05-02T10:10:33.875;537838839363650306;-326721;-436232;-341161;-641712;
2024-05-02T10:10:33.893;537838839381816182;-326703;-436184;-341072;-641720;
2024-05-02T10:10:33.911;537838839399982058;-326641;-436135;-341011;-641729;
2024-05-02T10:10:33.929;537838839418147934;-326565;-436071;-340914;-641729;
2024-05-02T10:10:33.947;537838839436313810;-326481;-436030;-340860;-641720;
2024-05-02T10:10:33.966;537838839454479686;-326378;-435910;-340780;-641734;
2024-05-02T10:10:33.984;537838839472645562;-326239;-435895;-340704;-641713;
2024-05-02T10:10:34.002;537838839490811438;-326209;-435820;-340644;-641787;
2024-05-02T10:10:34.020;537838839508977314;-326094;-435788;-340511;-641808;
2024-05-02T10:10:34.038;537838839527143190;-326109;-435780;-340454;-641765;
2024-05-02T10:10:34.056;537838839545309066;-326226;-435858;-340623;-641776;
2024-05-02T10:10:34.075;537838839563474942;-326387;-435979;-340771;-641788;
2024-05-02T10:10:34.093;537838839581640818;-326650;-436139;-341037;-641783;
2024-05-02T10:10:34.111;537838839599806694;-326938;-436240;-341224;-641751;
2024-05-02T10:10:34.129;537838839617972570;-327183;-436405;-341423;-641767;
2024-05-02T10:10:34.147;537838839636138446;-327402;-436516;-341551;-641770;
2024-05-02T10:10:34.165;537838839654304322;-327592;-436674;-341759;-641830;
2024-05-02T10:10:34.184;537838839672470198;-327745;-436755;-341875;-641760;
2024-05-02T10:10:34.202;537838839690636074;-327934;-436876;-341978;-641882;
2024-05-02T10:10:34.220;537838839708801950;-328072;-436981;-342075;-641864;
2024-05-02T10:10:34.238;537838839726967826;-328131;-436974;-342226;-641801;
2024-05-02T10:10:34.256;537838839745133702;-328188;-437004;-342268;-641851;
2024-05-02T10:10:34.274;537838839763299578;-328214;-436988;-342227;-641848;
2024-05-02T10:10:34.293;537838839781465454;-328275;-437054;-342288;-641828;
2024-05-02T10:10:34.311;537838839799631330;-328307;-437052;-342263;-641822;
2024-05-02T10:10:34.329;537838839817797206;-328324;-437093;-342264;-641843;
2024-05-02T10:10:34.347;537838839835963082;-328357;-437111;-342281;-641778;
2024-05-02T10:10:34.365;537838839854128958;-328400;-437157;-342384;-641844;
2024-05-02T10:10:34.383;537838839872294834;-328537;-437195;-342488;-641848;
2024-05-02T10:10:34.402;537838839890460710;-328631;-437274;-342547;-641782;
2024-05-02T10:10:34.420;537838839908627245;-328652;-437289;-342593;-641804;
2024-05-02T10:10:34.438;537838839926793778;-328773;-437314;-342611;-641764;
2024-05-02T10:10:34.456;537838839944960311;-328832;-437327;-342661;-641799;
2024-05-02T10:10:34.474;537838839963126844;-328938;-437327;-342655;-641808;
2024-05-02T10:10:34.492;537838839981293377;-328912;-437363;-342637;-641819;
2024-05-02T10:10:34.511;537838839999459910;-328891;-437355;-342621;-641793;
2024-05-02T10:10:34.529;537838840017626443;-328870;-437316;-342578;-641789;
2024-05-02T10:10:34.547;537838840035792976;-328773;-437314;-342528;-641809;
2024-05-02T10:10:34.565;537838840053959509;-328784;-437267;-342432;-641792;
2024-05-02T10:10:34.583;537838840072126042;-328687;-437207;-342381;-641781;
2024-05-02T10:10:34.601;537838840090292575;-328626;-437161;-342308;-641827;
2024-05-02T10:10:34.620;537838840108459108;-328554;-437076;-342271;-641791;
2024-05-02T10:10:34.638;537838840126625641;-328451;-437046;-342186;-641785;
2024-05-02T10:10:34.656;537838840144792174;-328371;-437086;-342133;-641758;
2024-05-02T10:10:34.674;537838840162958707;-328246;-436980;-342012;-641820;
2024-05-02T10:10:34.692;537838840181125240;-328244;-436951;-341921;-641809;
2024-05-02T10:10:34.710;537838840199291773;-328099;-436876;-341791;-641780;
2024-05-02T10:10:34.729;537838840217458306;-328080;-436885;-341784;-641826;
2024-05-02T10:10:34.747;537838840235624839;-327955;-436752;-341667;-641788;
2024-05-02T10:10:34.765;537838840253791372;-327804;-436680;-341583;-641821;
2024-05-02T10:10:34.783;537838840271957905;-327762;-436719;-341506;-641767;
2024-05-02T10:10:34.801;537838840290124438;-327866;-436719;-341568;-641734;
2024-05-02T10:10:34.819;537838840308290971;-328084;-436860;-341796;-641803;
2024-05-02T10:10:34.838;537838840326457504;-328345;-437090;-341978;-641835;
2024-05-02T10:10:34.856;537838840344624037;-328544;-437155;-342193;-641812;
2024-05-02T10:10:34.874;537838840362790570;-328800;-437333;-342402;-641813;
2024-05-02T10:10:34.892;537838840380957103;-329074;-437547;-342609;-641856;
2024-05-02T10:10:34.910;537838840399123636;-329259;-437615;-342742;-641823;
2024-05-02T10:10:34.928;537838840417290169;-329425;-437800;-342937;-641823;
2024-05-02T10:10:34.947;537838840435456702;-329549;-437781;-342963;-641801;
2024-05-02T10:10:34.965;537838840453623235;-329641;-437832;-343062;-641753;
2024-05-02T10:10:34.983;537838840471789768;-329773;-437929;-343164;-641785;
2024-05-02T10:10:35.001;537838840489956301;-329846;-437974;-343234;-641808;
2024-05-02T10:10:35.019;537838840508122834;-329893;-437999;-343303;-641803;
2024-05-02T10:10:35.037;537838840526289367;-329970;-438036;-343335;-641817;
2024-05-02T10:10:35.056;537838840544455900;-329976;-437994;-343318;-641808;
2024-05-02T10:10:35.074;537838840562622433;-329999;-437988;-343287;-641836;
2024-05-02T10:10:35.092;537838840580788966;-330037;-438040;-343300;-641787;
2024-05-02T10:10:35.110;537838840598955499;-330146;-438116;-343393;-641828;
2024-05-02T10:10:35.128;537838840617122032;-330180;-438123;-343450;-641757;
2024-05-02T10:10:35.146;537838840635288565;-330301;-438147;-343501;-641765;
2024-05-02T10:10:35.165;537838840653455098;-330316;-438210;-343610;-641802;
2024-05-02T10:10:35.183;537838840671621631;-330387;-438233;-343661;-641775;
2024-05-02T10:10:35.201;537838840689788164;-330365;-438264;-343635;-641767;
2024-05-02T10:10:35.219;537838840707954987;-330397;-438232;-343602;-641767;
2024-05-02T10:10:35.237;537838840726121784;-330416;-438272;-343652;-641726;
2024-05-02T10:10:35.255;537838840744288581;-330435;-438280;-343624;-641794;
2024-05-02T10:10:35.274;537838840762455378;-330421;-438270;-343604;-641759;
2024-05-02T10:10:35.292;537838840780622175;-330376;-438229;-343530;-641786;
2024-05-02T10:10:35.310;537838840798788972;-330351;-438249;-343446;-641794;
2024-05-02T10:10:35.328;537838840816955769;-330317;-438137;-343405;-641758;
2024-05-02T10:10:35.346;537838840835122566;-330227;-438114;-343371;-641718;
2024-05-02T10:10:35.364;537838840853289363;-330132;-438056;-343309;-641771;
2024-05-02T10:10:35.383;537838840871456160;-330028;-438001;-343280;-641787;
2024-05-02T10:10:35.401;537838840889622957;-329991;-437913;-343226;-641797;
2024-05-02T10:10:35.419;537838840907789754;-329883;-437938;-343099;-641749;
2024-05-02T10:10:35.437;537838840925956551;-329811;-437900;-343038;-641730;
2024-05-02T10:10:35.455;537838840944123348;-329777;-437779;-342957;-641849;
2024-05-02T10:10:35.473;537838840962290145;-329640;-437787;-342895;-641783;
2024-05-02T10:10:35.492;537838840980456942;-329609;-437703;-342797;-641768;
2024-05-02T10:10:35.510;537838840998623739;-329566;-437731;-342776;-641835;
2024-05-02T10:10:35.528;537838841016790536;-329503;-437703;-342705;-641828;
2024-05-02T10:10:35.546;537838841034957333;-329470;-437673;-342739;-641771;
2024-05-02T10:10:35.564;537838841053124130;-329677;-437829;-342894;-641839;
2024-05-02T10:10:35.582;537838841071290927;-329951;-437960;-343069;-641839;
2024-05-02T10:10:35.601;537838841089457724;-330158;-438144;-343317;-641831;
2024-05-02T10:10:35.619;537838841107624521;-330450;-438290;-343451;-641866;
2024-05-02T10:10:35.637;537838841125791318;-330710;-438426;-343737;-641830;
2024-05-02T10:10:35.655;537838841143958115;-330905;-438554;-343895;-641858;
2024-05-02T10:10:35.673;537838841162124912;-331077;-438690;-344073;-641865;
2024-05-02T10:10:35.691;537838841180291709;-331238;-438768;-344128;-641832;
2024-05-02T10:10:35.710;537838841198458506;-331350;-438869;-344327;-641808;
2024-05-02T10:10:35.728;537838841216625303;-331534;-438931;-344468;-641832;
2024-05-02T10:10:35.746;537838841234792100;-331624;-438995;-344441;-641792;
2024-05-02T10:10:35.764;537838841252958897;-331734;-439024;-344504;-641833;
2024-05-02T10:10:35.782;537838841271125694;-331767;-439086;-344547;-641858;
2024-05-02T10:10:35.800;537838841289292491;-331793;-439076;-344557;-641808;
2024-05-02T10:10:35.819;537838841307459288;-331810;-439136;-344657;-641837;
2024-05-02T10:10:35.837;537838841325626085;-331819;-439172;-344601;-641831;
2024-05-02T10:10:35.855;537838841343792882;-331924;-439217;-344721;-641881;
2024-05-02T10:10:35.873;537838841361959679;-331962;-439273;-344763;-641814;
2024-05-02T10:10:35.891;537838841380126476;-332120;-439347;-344831;-641858;
2024-05-02T10:10:35.909;537838841398293273;-332125;-439368;-344837;-641814;
2024-05-02T10:10:35.928;537838841416460070;-332226;-439387;-344897;-641801;
2024-05-02T10:10:35.946;537838841434626867;-332214;-439357;-344889;-641772;
2024-05-02T10:10:35.964;537838841452793664;-332273;-439406;-344942;-641799;
2024-05-02T10:10:35.982;537838841470960461;-332310;-439448;-345006;-641862;
2024-05-02T10:10:36.000;537838841489127142;-332274;-439464;-344939;-641852;
2024-05-02T10:10:36.018;537838841507293797;-332218;-439441;-344956;-641828;
2024-05-02T10:10:36.037;537838841525460452;-332229;-439443;-344893;-641874;
2024-05-02T10:10:36.055;537838841543627107;-332222;-439403;-344780;-641884;
2024-05-02T10:10:36.073;537838841561793762;-332150;-439372;-344826;-641814;
2024-05-02T10:10:36.091;537838841579960417;-332085;-439333;-344678;-641829;
2024-05-02T10:10:36.109;537838841598127072;-331986;-439247;-344675;-641868;
2024-05-02T10:10:36.127;537838841616293727;-331936;-439189;-344573;-641870;
2024-05-02T10:10:36.146;537838841634460382;-331790;-439149;-344519;-641802;
2024-05-02T10:10:36.164;537838841652627037;-331780;-439153;-344454;-641829;
2024-05-02T10:10:36.182;537838841670793692;-331673;-439114;-344358;-641776;
2024-05-02T10:10:36.200;537838841688960347;-331609;-439050;-344314;-641804;
2024-05-02T10:10:36.218;537838841707127002;-331504;-438958;-344143;-641794;
2024-05-02T10:10:36.236;537838841725293657;-331491;-438954;-344167;-641834;
2024-05-02T10:10:36.255;537838841743460312;-331538;-438954;-344154;-641830;
2024-05-02T10:10:36.273;537838841761626967;-331646;-439073;-344361;-641798;
2024-05-02T10:10:36.291;537838841779793622;-331845;-439201;-344490;-641770;
2024-05-02T10:10:36.309;537838841797960277;-332113;-439353;-344761;-641800;
2024-05-02T10:10:36.327;537838841816126932;-332315;-439535;-344948;-641802;
2024-05-02T10:10:36.345;537838841834293587;-332529;-439697;-345126;-641755;
2024-05-02T10:10:36.364;537838841852460242;-332805;-439836;-345361;-641867;
2024-05-02T10:10:36.382;537838841870626897;-332991;-439947;-345515;-641822;
2024-05-02T10:10:36.400;537838841888793552;-333121;-440041;-345584;-641867;
2024-05-02T10:10:36.418;537838841906960207;-333156;-440056;-345617;-641879;
2024-05-02T10:10:36.436;537838841925126862;-333339;-440153;-345781;-641895;
2024-05-02T10:10:36.454;537838841943293517;-333366;-440207;-345825;-641858;
2024-05-02T10:10:36.473;537838841961460172;-333397;-440178;-345864;-641819;
2024-05-02T10:10:36.491;537838841979626827;-333445;-440229;-345887;-641882;
2024-05-02T10:10:36.509;537838841997793482;-333508;-440278;-345957;-641889;
2024-05-02T10:10:36.527;537838842015960137;-333537;-440264;-345939;-641836;
