Phone timestamp;sensor timestamp [ns];channel 0;channel 1;channel 2;ambient
2024-05-02T17:58:40.052;537866925727103956;456325;514680;560169;899;
2024-05-02T17:58:40.070;537866925745270376;456414;514781;560162;887;
2024-05-02T17:58:40.088;537866925763436796;456486;514891;560227;936;
2024-05-02T17:58:40.106;537866925781603216;456588;515011;560341;900;
2024-05-02T17:58:40.124;537866925799769636;456681;515111;560461;890;
2024-05-02T17:58:40.142;537866925817936056;456799;515247;560554;925;
2024-05-02T17:58:40.160;537866925836102476;456869;515449;560658;933;
2024-05-02T17:58:40.179;537866925854268896;456942;515552;560857;944;
2024-05-02T17:58:40.197;537866925872435316;457024;515619;560941;908;
2024-05-02T17:58:40.215;537866925890601736;457085;515725;561038;843;
2024-05-02T17:58:40.233;537866925908768156;457109;515835;561148;843;
2024-05-02T17:58:40.251;537866925926934576;457271;516053;561276;910;
2024-05-02T17:58:40.269;537866925945100996;457424;516169;561433;914;
2024-05-02T17:58:40.288;537866925963267416;457566;516351;561587;863;
2024-05-02T17:58:40.306;537866925981433836;457692;516489;561651;887;
2024-05-02T17:58:40.324;537866925999600256;457841;516642;561897;943;
2024-05-02T17:58:40.342;537866926017766676;457890;516821;562035;859;
2024-05-02T17:58:40.360;537866926035933096;458050;516989;562143;831;
2024-05-02T17:58:40.378;537866926054099516;458177;517165;562366;865;
2024-05-02T17:58:40.397;537866926072265936;458316;517384;562509;897;
2024-05-02T17:58:40.415;537866926090432356;458481;517468;562725;930;
2024-05-02T17:58:40.433;537866926108598776;458472;517515;562807;900;
2024-05-02T17:58:40.451;537866926126765196;458256;517227;562664;896;
2024-05-02T17:58:40.469;537866926144931616;458097;517039;562427;939;
2024-05-02T17:58:40.487;537866926163098036;457761;516734;562155;881;
2024-05-02T17:58:40.506;537866926181264456;457535;516529;561956;945;
2024-05-02T17:58:40.524;537866926199430876;457375;516350;561714;945;
2024-05-02T17:58:40.542;537866926217597296;457212;516283;561658;958;
2024-05-02T17:58:40.560;537866926235763716;457153;516133;561523;916;
2024-05-02T17:58:40.578;537866926253930136;457121;516153;561511;957;
2024-05-02T17:58:40.596;537866926272096556;457117;516144;561404;978;
2024-05-02T17:58:40.615;537866926290262976;457105;516127;561500;969;
2024-05-02T17:58:40.633;537866926308429396;456991;516218;561500;949;
2024-05-02T17:58:40.651;537866926326595816;457089;516194;561581;958;
2024-05-02T17:58:40.669;537866926344762236;457084;516228;561629;924;
2024-05-02T17:58:40.687;537866926362928656;457139;516220;561599;913;
2024-05-02T17:58:40.705;537866926381095076;457078;516270;561612;936;
2024-05-02T17:58:40.724;537866926399261496;457128;516295;561671;936;
2024-05-02T17:58:40.742;537866926417427916;457093;516306;561701;914;
2024-05-02T17:58:40.760;537866926435594336;457019;516172;561653;966;
2024-05-02T17:58:40.778;537866926453760756;456974;516255;561663;1016;
2024-05-02T17:58:40.796;537866926471927176;457039;516180;561663;944;
2024-05-02T17:58:40.814;537866926490093628;457015;516163;561666;936;
2024-05-02T17:58:40.833;537866926508260048;456962;516204;561746;881;
2024-05-02T17:58:40.851;537866926526426468;456996;516286;561847;906;
2024-05-02T17:58:40.869;537866926544592888;457141;516427;561930;925;
2024-05-02T17:58:40.887;537866926562759308;457133;516489;561948;914;
2024-05-02T17:58:40.905;537866926580925728;457209;516527;562074;1000;
2024-05-02T17:58:40.923;537866926599092148;457246;516637;562178;975;
2024-05-02T17:58:40.942;537866926617258568;457403;516748;562340;1003;
2024-05-02T17:58:40.960;537866926635424988;457543;516865;562562;979;
2024-05-02T17:58:40.978;537866926653591408;457617;516943;562697;928;
2024-05-02T17:58:40.996;537866926671757828;457639;517029;562806;868;
2024-05-02T17:58:41.014;537866926689924248;457685;517161;562904;919;
2024-05-02T17:58:41.032;537866926708090668;457872;517298;563038;949;
2024-05-02T17:58:41.051;537866926726257088;457949;517304;563192;891;
2024-05-02T17:58:41.069;537866926744423508;458108;517461;563330;1006;
2024-05-02T17:58:41.087;537866926762589928;458202;517651;563466;961;
2024-05-02T17:58:41.105;537866926780756348;458247;517771;563629;970;
2024-05-02T17:58:41.123;537866926798922768;458304;517791;563734;925;
2024-05-02T17:58:41.141;537866926817089188;458413;517923;563947;976;
2024-05-02T17:58:41.160;537866926835255608;458517;518123;564072;974;
2024-05-02T17:58:41.178;537866926853422028;458653;518241;564234;993;
2024-05-02T17:58:41.196;537866926871588448;458799;518390;564363;928;
2024-05-02T17:58:41.214;537866926889754868;458918;518593;564503;961;
2024-05-02T17:58:41.232;537866926907921288;458982;518706;564630;939;
2024-05-02T17:58:41.250;537866926926087708;459163;518897;564832;909;
2024-05-02T17:58:41.269;537866926944254128;459295;518947;565008;919;
2024-05-02T17:58:41.287;537866926962420548;459375;519100;565213;965;
2024-05-02T17:58:41.305;537866926980586968;459278;519028;565165;934;
2024-05-02T17:58:41.323;537866926998753388;459069;518751;565003;919;
2024-05-02T17:58:41.341;537866927016919808;458695;518383;564673;944;
2024-05-02T17:58:41.359;537866927035086228;458420;518155;564404;957;
2024-05-02T17:58:41.378;537866927053252648;458088;517824;564114;938;
2024-05-02T17:58:41.396;537866927071419068;457823;517527;563774;904;
2024-05-02T17:58:41.414;537866927089585488;457657;517394;563625;887;
2024-05-02T17:58:41.432;537866927107751908;457530;517354;563581;940;
2024-05-02T17:58:41.450;537866927125918328;457421;517255;563454;927;
2024-05-02T17:58:41.468;537866927144084748;457317;517228;563364;930;
2024-05-02T17:58:41.487;537866927162251168;457265;517209;563265;924;
2024-05-02T17:58:41.505;537866927180417588;457157;517219;563270;874;
2024-05-02T17:58:41.523;537866927198584008;457079;517079;563207;923;
2024-05-02T17:58:41.541;537866927216750428;457089;517098;563195;955;
2024-05-02T17:58:41.559;537866927234916848;457032;517058;563045;868;
2024-05-02T17:58:41.577;537866927253083418;456946;517059;563120;934;
2024-05-02T17:58:41.596;537866927271249984;456862;516942;563063;877;
2024-05-02T17:58:41.614;537866927289416550;456805;516959;563037;868;
2024-05-02T17:58:41.632;537866927307583116;456729;516949;562988;892;
2024-05-02T17:58:41.650;537866927325749682;456721;516960;562944;943;
2024-05-02T17:58:41.668;537866927343916248;456732;517007;562968;912;
2024-05-02T17:58:41.686;537866927362082814;456660;516869;562862;851;
2024-05-02T17:58:41.705;537866927380249380;456643;516876;562946;936;
2024-05-02T17:58:41.723;537866927398415946;456665;516938;562966;892;
2024-05-02T17:58:41.741;537866927416582512;456620;516930;563012;854;
2024-05-02T17:58:41.759;537866927434749078;456652;517025;563075;905;
2024-05-02T17:58:41.777;537866927452915644;456619;517014;563158;898;
2024-05-02T17:58:41.795;537866927471082210;456708;517102;563244;883;
2024-05-02T17:58:41.814;537866927489248776;456759;517165;563246;866;
2024-05-02T17:58:41.832;537866927507415342;456869;517347;563359;948;
2024-05-02T17:58:41.850;537866927525581908;456840;517391;563417;880;
2024-05-02T17:58:41.868;537866927543748474;456991;517486;563593;889;
2024-05-02T17:58:41.886;537866927561915040;457012;517559;563664;917;
2024-05-02T17:58:41.904;537866927580081606;457123;517705;563775;963;
2024-05-02T17:58:41.923;537866927598248172;457164;517759;563870;912;
2024-05-02T17:58:41.941;537866927616414738;457224;517881;564045;891;
2024-05-02T17:58:41.959;537866927634581304;457280;517970;564165;939;
2024-05-02T17:58:41.977;537866927652747870;457366;518047;564291;908;
2024-05-02T17:58:41.995;537866927670914436;457440;518218;564340;927;
2024-05-02T17:58:42.013;537866927689081002;457500;518297;564476;911;
2024-05-02T17:58:42.032;537866927707247568;457637;518410;564666;901;
2024-05-02T17:58:42.050;537866927725414134;457792;518514;564760;908;
2024-05-02T17:58:42.068;537866927743580700;457865;518721;564927;932;
2024-05-02T17:58:42.086;537866927761747266;457945;518815;565055;885;
2024-05-02T17:58:42.104;537866927779913832;458006;518891;565236;904;
2024-05-02T17:58:42.122;537866927798080398;458135;519008;565386;938;
2024-05-02T17:58:42.141;537866927816246964;458236;519197;565592;915;
2024-05-02T17:58:42.159;537866927834413530;458350;519317;565688;917;
2024-05-02T17:58:42.177;537866927852580096;458507;519465;565806;891;
2024-05-02T17:58:42.195;537866927870746662;458597;519591;566074;918;
2024-05-02T17:58:42.213;537866927888913228;458657;519690;566180;972;
2024-05-02T17:58:42.231;537866927907079794;458617;519681;566329;945;
2024-05-02T17:58:42.250;537866927925246360;458494;519536;566163;916;
2024-05-02T17:58:42.268;537866927943412926;458141;519200;565879;899;
2024-05-02T17:58:42.286;537866927961579492;457792;518862;565556;922;
2024-05-02T17:58:42.304;537866927979746058;457439;518521;565247;895;
2024-05-02T17:58:42.322;537866927997912624;457114;518203;564905;946;
2024-05-02T17:58:42.340;537866928016080223;456922;517921;564667;997;
2024-05-02T17:58:42.359;537866928034247806;456651;517821;564524;945;
2024-05-02T17:58:42.377;537866928052415389;456559;517688;564367;914;
2024-05-02T17:58:42.395;537866928070582972;456426;517586;564325;956;
2024-05-02T17:58:42.413;537866928088750555;456299;517493;564195;894;
2024-05-02T17:58:42.431;537866928106918138;456118;517376;564063;963;
2024-05-02T17:58:42.449;537866928125085721;456034;517319;563988;929;
2024-05-02T17:58:42.468;537866928143253304;455955;517338;563926;947;
2024-05-02T17:58:42.486;537866928161420887;455871;517229;563803;922;
2024-05-02T17:58:42.504;537866928179588470;455713;517160;563701;944;
2024-05-02T17:58:42.522;537866928197756053;455609;517155;563730;923;
2024-05-02T17:58:42.540;537866928215923636;455535;517083;563695;949;
2024-05-02T17:58:42.558;537866928234091219;455401;516959;563560;905;
2024-05-02T17:58:42.577;537866928252258802;455215;516878;563468;898;
2024-05-02T17:58:42.595;537866928270426385;455251;516885;563444;911;
2024-05-02T17:58:42.613;537866928288593968;455033;516757;563394;914;
2024-05-02T17:58:42.631;537866928306761551;454998;516742;563338;892;
2024-05-02T17:58:42.649;537866928324929134;454962;516677;563358;927;
2024-05-02T17:58:42.667;537866928343096717;454932;516716;563273;906;
2024-05-02T17:58:42.686;537866928361264300;454899;516800;563309;922;
2024-05-02T17:58:42.704;537866928379431883;454926;516755;563264;966;
2024-05-02T17:58:42.722;537866928397599466;454846;516792;563326;915;
2024-05-02T17:58:42.740;537866928415767049;454860;516864;563372;910;
2024-05-02T17:58:42.758;537866928433934632;454948;516895;563468;1001;
2024-05-02T17:58:42.776;537866928452102215;454933;516893;563560;948;
2024-05-02T17:58:42.795;537866928470269798;454884;516977;563632;929;
2024-05-02T17:58:42.813;537866928488437381;454994;517063;563677;1003;
2024-05-02T17:58:42.831;537866928506604964;454914;517117;563682;968;
2024-05-02T17:58:42.849;537866928524772547;455084;517218;563765;962;
2024-05-02T17:58:42.867;537866928542940130;455099;517308;563867;930;
2024-05-02T17:58:42.886;537866928561107713;455120;517348;563903;946;
2024-05-02T17:58:42.904;537866928579275296;455155;517468;564042;951;
2024-05-02T17:58:42.922;537866928597442879;455169;517481;564097;914;
2024-05-02T17:58:42.940;537866928615610462;455272;517636;564242;945;
2024-05-02T17:58:42.958;537866928633778045;455272;517715;564228;910;
2024-05-02T17:58:42.976;537866928651945628;455332;517837;564393;936;
2024-05-02T17:58:42.995;537866928670113211;455393;517910;564493;940;
2024-05-02T17:58:43.013;537866928688280794;455432;517959;564524;952;
2024-05-02T17:58:43.031;537866928706448377;455473;518027;564660;1004;
2024-05-02T17:58:43.049;537866928724615960;455555;518195;564798;956;
2024-05-02T17:58:43.067;537866928742783543;455610;518319;564917;929;
2024-05-02T17:58:43.085;537866928760951126;455724;518347;565000;960;
2024-05-02T17:58:43.104;537866928779118509;455851;518542;565135;928;
2024-05-02T17:58:43.122;537866928797285874;455906;518720;565206;1001;
2024-05-02T17:58:43.140;537866928815453239;455973;518721;565319;939;
2024-05-02T17:58:43.158;537866928833620604;456121;518914;565530;921;
2024-05-02T17:58:43.176;537866928851787969;456125;518899;565553;891;
2024-05-02T17:58:43.194;537866928869955334;455925;518793;565394;974;
2024-05-02T17:58:43.213;537866928888122699;455589;518458;565032;899;
2024-05-02T17:58:43.231;537866928906290064;455153;517977;564596;863;
2024-05-02T17:58:43.249;537866928924457429;454738;517647;564245;907;
2024-05-02T17:58:43.267;537866928942624794;454360;517258;563838;908;
2024-05-02T17:58:43.285;537866928960792159;454030;517080;563553;908;
2024-05-02T17:58:43.303;537866928978959524;453715;516904;563347;943;
2024-05-02T17:58:43.322;537866928997126889;453499;516709;563141;960;
2024-05-02T17:58:43.340;537866929015294254;453282;516572;562932;958;
2024-05-02T17:58:43.358;537866929033461619;453155;516469;562810;887;
2024-05-02T17:58:43.376;537866929051628984;452979;516432;562691;974;
2024-05-02T17:58:43.394;537866929069796349;452842;516266;562480;900;
2024-05-02T17:58:43.412;537866929087963714;452602;516191;562364;956;
2024-05-02T17:58:43.431;537866929106131079;452522;516096;562298;950;
2024-05-02T17:58:43.449;537866929124298444;452388;516028;562144;891;
2024-05-02T17:58:43.467;537866929142465809;452184;515944;562068;910;
2024-05-02T17:58:43.485;537866929160633174;452030;515799;561868;883;
2024-05-02T17:58:43.503;537866929178800539;451896;515648;561736;899;
2024-05-02T17:58:43.521;537866929196967904;451749;515630;561616;895;
2024-05-02T17:58:43.540;537866929215135269;451596;515505;561509;940;
2024-05-02T17:58:43.558;537866929233302634;451441;515493;561378;970;
2024-05-02T17:58:43.576;537866929251469999;451308;515471;561296;957;
2024-05-02T17:58:43.594;537866929269637364;451274;515353;561263;977;
2024-05-02T17:58:43.612;537866929287804729;451145;515358;561228;947;
2024-05-02T17:58:43.630;537866929305972094;451041;515301;561157;961;
2024-05-02T17:58:43.649;537866929324139459;450971;515292;561126;936;
2024-05-02T17:58:43.667;537866929342306824;450968;515391;561087;968;
2024-05-02T17:58:43.685;537866929360474189;450953;515386;561101;895;
2024-05-02T17:58:43.703;537866929378641554;450980;515369;561084;975;
2024-05-02T17:58:43.721;537866929396808919;451026;515400;561156;984;
2024-05-02T17:58:43.739;537866929414976284;451014;515355;561118;931;
2024-05-02T17:58:43.758;537866929433143649;451011;515431;561179;978;
2024-05-02T17:58:43.776;537866929451311014;451048;515588;561217;1015;
2024-05-02T17:58:43.794;537866929469478379;451005;515563;561204;972;
2024-05-02T17:58:43.812;537866929487645744;451028;515679;561217;1006;
2024-05-02T17:58:43.830;537866929505813109;451067;515668;561291;981;
2024-05-02T17:58:43.848;537866929523980474;451110;515784;561322;967;
2024-05-02T17:58:43.867;537866929542148671;451129;515850;561395;992;
2024-05-02T17:58:43.885;537866929560316861;451176;515959;561425;944;
2024-05-02T17:58:43.903;537866929578485051;451160;516041;561459;967;
2024-05-02T17:58:43.921;537866929596653241;451205;516087;561482;1001;
2024-05-02T17:58:43.939;537866929614821431;451257;516114;561561;965;
2024-05-02T17:58:43.957;537866929632989621;451382;516257;561627;1067;
2024-05-02T17:58:43.976;537866929651157811;451451;516402;561736;1003;
2024-05-02T17:58:43.994;537866929669326001;451527;516496;561843;1071;
2024-05-02T17:58:44.012;537866929687494191;451555;516552;561976;1053;
2024-05-02T17:58:44.030;537866929705662381;451654;516657;562081;1088;
2024-05-02T17:58:44.048;537866929723830571;451733;516744;562231;1085;
2024-05-02T17:58:44.066;537866929741998761;451860;516812;562328;1076;
2024-05-02T17:58:44.085;537866929760166951;451976;517113;562453;1106;
2024-05-02T17:58:44.103;537866929778335141;452014;517165;562596;1132;
2024-05-02T17:58:44.121;537866929796503331;451857;516971;562463;1101;
2024-05-02T17:58:44.139;537866929814671521;451576;516718;562201;1104;
2024-05-02T17:58:44.157;537866929832839711;451242;516307;561878;1183;
2024-05-02T17:58:44.175;537866929851007901;450709;515924;561516;1135;
2024-05-02T17:58:44.194;537866929869176091;450446;515643;561207;1124;
2024-05-02T17:58:44.212;537866929887344281;450040;515313;560813;1178;
2024-05-02T17:58:44.230;537866929905512471;449753;515070;560539;1192;
2024-05-02T17:58:44.248;537866929923680661;449461;514881;560317;1178;
2024-05-02T17:58:44.266;537866929941848851;449387;514799;560198;1282;
2024-05-02T17:58:44.284;537866929960017041;449154;514690;560043;1228;
2024-05-02T17:58:44.303;537866929978185231;448986;514597;560031;1229;
2024-05-02T17:58:44.321;537866929996353421;448933;514540;559908;1307;
2024-05-02T17:58:44.339;537866930014521611;448899;514464;559810;1293;
2024-05-02T17:58:44.357;537866930032689801;448773;514316;559732;1296;
2024-05-02T17:58:44.375;537866930050857991;448647;514295;559725;1296;
2024-05-02T17:58:44.393;537866930069026181;448529;514184;559608;1290;
2024-05-02T17:58:44.412;537866930087194371;448415;514127;559531;1281;
2024-05-02T17:58:44.430;537866930105362561;448203;514056;559435;1326;
2024-05-02T17:58:44.448;537866930123530751;448078;513931;559294;1314;
2024-05-02T17:58:44.466;537866930141698941;447973;513794;559233;1342;
2024-05-02T17:58:44.484;537866930159867131;447874;513675;559113;1374;
2024-05-02T17:58:44.502;537866930178035321;447727;513604;558980;1306;
2024-05-02T17:58:44.521;537866930196203511;447655;513562;558995;1392;
2024-05-02T17:58:44.539;537866930214370892;447677;513573;559016;1426;
2024-05-02T17:58:44.557;537866930232538257;447557;513496;558973;1410;
2024-05-02T17:58:44.575;537866930250705622;447507;513441;558944;1402;
2024-05-02T17:58:44.593;537866930268872987;447494;513500;559098;1445;
2024-05-02T17:58:44.611;537866930287040352;447619;513532;559182;1485;
2024-05-02T17:58:44.630;537866930305207717;447607;513591;559242;1471;
2024-05-02T17:58:44.648;537866930323375082;447597;513607;559237;1438;
2024-05-02T17:58:44.666;537866930341542447;447627;513650;559339;1451;
2024-05-02T17:58:44.684;537866930359709812;447591;513624;559353;1450;
2024-05-02T17:58:44.702;537866930377877177;447606;513587;559370;1451;
2024-05-02T17:58:44.720;537866930396044542;447566;513607;559403;1392;
2024-05-02T17:58:44.739;537866930414211907;447624;513643;559405;1379;
2024-05-02T17:58:44.757;537866930432379272;447662;513751;559567;1428;
2024-05-02T17:58:44.775;537866930450546637;447592;513727;559498;1336;
2024-05-02T17:58:44.793;537866930468714002;447661;513739;559698;1389;
2024-05-02T17:58:44.811;537866930486881367;447755;513739;559680;1316;
2024-05-02T17:58:44.829;537866930505048732;447774;513775;559787;1267;
2024-05-02T17:58:44.848;537866930523216097;447661;513771;559798;1254;
2024-05-02T17:58:44.866;537866930541383462;447797;513810;559910;1204;
2024-05-02T17:58:44.884;537866930559550827;447792;513814;559967;1155;
2024-05-02T17:58:44.902;537866930577718192;447739;513814;560039;1050;
2024-05-02T17:58:44.920;537866930595885557;447833;513925;560120;1058;
2024-05-02T17:58:44.938;537866930614052922;447931;514030;560205;1037;
2024-05-02T17:58:44.957;537866930632220287;447778;513726;560108;1014;
2024-05-02T17:58:44.975;537866930650387652;447424;513343;559906;989;
2024-05-02T17:58:44.993;537866930668555017;446948;513014;559560;956;
2024-05-02T17:58:45.011;537866930686722382;446413;512482;559053;930;
2024-05-02T17:58:45.029;537866930704889747;445950;512019;558594;958;
2024-05-02T17:58:45.047;537866930723057112;445456;511489;558176;968;
2024-05-02T17:58:45.066;537866930741224477;445033;511223;557759;948;
2024-05-02T17:58:45.084;537866930759391842;444731;510970;557463;969;
2024-05-02T17:58:45.102;537866930777559207;444492;510728;557252;987;
2024-05-02T17:58:45.120;537866930795726572;444243;510525;557069;1007;
2024-05-02T17:58:45.138;537866930813893937;444081;510356;556909;1082;
2024-05-02T17:58:45.156;537866930832061302;443883;510204;556754;1134;
2024-05-02T17:58:45.175;537866930850228667;443779;510118;556607;1221;
2024-05-02T17:58:45.193;537866930868396032;443669;510049;556566;1355;
2024-05-02T17:58:45.211;537866930886563397;443563;510053;556567;1503;
2024-05-02T17:58:45.229;537866930904730762;443528;510084;556545;1676;
2024-05-02T17:58:45.247;537866930922899143;443519;510111;556521;1847;
2024-05-02T17:58:45.265;537866930941067513;443513;510093;556586;2024;
2024-05-02T17:58:45.284;537866930959235883;443509;510036;556553;2206;
2024-05-02T17:58:45.302;537866930977404253;443407;510101;556530;2347;
2024-05-02T17:58:45.320;537866930995572623;443332;510022;556419;2478;
2024-05-02T17:58:45.338;537866931013740993;443243;510039;556425;2576;
2024-05-02T17:58:45.356;537866931031909363;443152;509948;556295;2637;
2024-05-02T17:58:45.374;537866931050077733;443128;509890;556272;2749;
2024-05-02T17:58:45.393;537866931068246103;443128;509937;556314;2790;
2024-05-02T17:58:45.411;537866931086414473;443149;509879;556276;2854;
2024-05-02T17:58:45.429;537866931104582843;443132;509875;556341;2905;
2024-05-02T17:58:45.447;537866931122751213;443173;509971;556358;2941;
2024-05-02T17:58:45.465;537866931140919583;443159;510067;556382;3088;
2024-05-02T17:58:45.483;537866931159087953;443270;510137;556469;3169;
2024-05-02T17:58:45.502;537866931177256323;443268;510191;556512;3163;
2024-05-02T17:58:45.520;537866931195424693;443321;510145;556516;3152;
2024-05-02T17:58:45.538;537866931213593063;443302;510227;556592;3230;
2024-05-02T17:58:45.556;537866931231761433;443304;510269;556653;3225;
2024-05-02T17:58:45.574;537866931249929803;443303;510288;556689;3270;
2024-05-02T17:58:45.592;537866931268098173;443397;510318;556783;3239;
2024-05-02T17:58:45.611;537866931286266543;443355;510351;556819;3270;
2024-05-02T17:58:45.629;537866931304434913;443397;510452;556804;3253;
2024-05-02T17:58:45.647;537866931322603283;443434;510478;556873;3297;
2024-05-02T17:58:45.665;537866931340771653;443551;510476;556941;3320;
2024-05-02T17:58:45.683;537866931358940023;443559;510624;557028;3319;
2024-05-02T17:58:45.702;537866931377108393;443573;510690;557097;3321;
2024-05-02T17:58:45.720;537866931395276763;443677;510759;557142;3283;
2024-05-02T17:58:45.738;537866931413445133;443700;510804;557238;3313;
2024-05-02T17:58:45.756;537866931431613503;443749;510903;557275;3281;
2024-05-02T17:58:45.774;537866931449781873;443807;510973;557393;3339;
2024-05-02T17:58:45.792;537866931467950243;443920;511049;557554;3330;
2024-05-02T17:58:45.811;537866931486118613;443933;511120;557561;3290;
2024-05-02T17:58:45.829;537866931504286983;443719;510907;557443;3250;
2024-05-02T17:58:45.847;537866931522455353;443304;510510;557111;3250;
2024-05-02T17:58:45.865;537866931540623723;442838;510046;556661;3252;
2024-05-02T17:58:45.883;537866931558792093;442238;509387;556052;3266;
2024-05-02T17:58:45.901;537866931576960463;441665;508890;555458;3250;
2024-05-02T17:58:45.920;537866931595128833;441185;508477;554953;3324;
2024-05-02T17:58:45.938;537866931613297203;440745;508043;554558;3260;
2024-05-02T17:58:45.956;537866931631465573;440426;507850;554236;3247;
2024-05-02T17:58:45.974;537866931649633943;440026;507535;553882;3243;
2024-05-02T17:58:45.992;537866931667802462;439753;507279;553618;3216;
2024-05-02T17:58:46.010;537866931685970953;439524;506982;553303;3248;
2024-05-02T17:58:46.029;537866931704139444;439176;506781;553005;3233;
2024-05-02T17:58:46.047;537866931722307935;438853;506479;552713;3164;
2024-05-02T17:58:46.065;537866931740476426;438643;506241;552396;3178;
2024-05-02T17:58:46.083;537866931758644917;438404;506078;552179;3184;
2024-05-02T17:58:46.101;537866931776813408;438159;505808;551933;3188;
2024-05-02T17:58:46.119;537866931794981899;437863;505589;551674;3160;
2024-05-02T17:58:46.138;537866931813150390;437722;505466;551445;3162;
2024-05-02T17:58:46.156;537866931831318881;437506;505234;551272;3152;
2024-05-02T17:58:46.174;537866931849487372;437333;505067;551002;3139;
2024-05-02T17:58:46.192;537866931867655863;437129;504880;550755;3126;
2024-05-02T17:58:46.210;537866931885824354;436893;504750;550557;3135;
2024-05-02T17:58:46.228;537866931903992845;436762;504555;550350;3095;
2024-05-02T17:58:46.247;537866931922161336;436601;504476;550252;3139;
2024-05-02T17:58:46.265;537866931940329827;436468;504372;550077;3039;
2024-05-02T17:58:46.283;537866931958498318;436326;504254;549986;3005;
2024-05-02T17:58:46.301;537866931976666809;436271;504180;549861;3009;
2024-05-02T17:58:46.319;537866931994835300;436172;504170;549811;3022;
2024-05-02T17:58:46.337;537866932013003791;436160;504168;549808;3048;
2024-05-02T17:58:46.356;537866932031172282;436166;504200;549767;3045;
2024-05-02T17:58:46.374;537866932049340773;436131;504199;549655;2959;
2024-05-02T17:58:46.392;537866932067509264;436100;504176;549673;2942;
2024-05-02T17:58:46.410;537866932085677755;436101;504181;549655;3009;
2024-05-02T17:58:46.428;537866932103846246;436092;504228;549661;2932;
2024-05-02T17:58:46.446;537866932122014737;436148;504208;549654;2976;
2024-05-02T17:58:46.465;537866932140183228;436110;504180;549657;2944;
2024-05-02T17:58:46.483;537866932158351719;436165;504313;549710;2949;
2024-05-02T17:58:46.501;537866932176520210;436161;504312;549602;2879;
2024-05-02T17:58:46.519;537866932194688701;436173;504443;549693;2894;
2024-05-02T17:58:46.537;537866932212857192;436196;504475;549696;2893;
2024-05-02T17:58:46.555;537866932231025683;436334;504501;549744;2945;
2024-05-02T17:58:46.574;537866932249194174;436256;504562;549805;2884;
2024-05-02T17:58:46.592;537866932267362665;436431;504664;549851;2915;
2024-05-02T17:58:46.610;537866932285531156;436438;504738;549856;2868;
2024-05-02T17:58:46.628;537866932303699647;436447;504824;549880;2841;
2024-05-02T17:58:46.646;537866932321868138;436569;504879;549981;2854;
2024-05-02T17:58:46.664;537866932340036629;436660;505034;550031;2878;
2024-05-02T17:58:46.683;537866932358205120;436782;505192;550104;2875;
2024-05-02T17:58:46.701;537866932376373611;436900;505264;550224;2877;
2024-05-02T17:58:46.719;537866932394542102;436955;505315;550328;2836;
2024-05-02T17:58:46.737;537866932412710593;436954;505404;550392;2772;
2024-05-02T17:58:46.755;537866932430879626;436681;504982;550109;2751;
2024-05-02T17:58:46.773;537866932449048634;436219;504543;549686;2742;
2024-05-02T17:58:46.792;537866932467217642;435733;504084;549168;2806;
2024-05-02T17:58:46.810;537866932485386650;435035;503508;548533;2707;
2024-05-02T17:58:46.828;537866932503555658;434496;502936;547887;2722;
2024-05-02T17:58:46.846;537866932521724666;434043;502681;547444;2721;
2024-05-02T17:58:46.864;537866932539893674;433619;502238;547001;2669;
2024-05-02T17:58:46.882;537866932558062682;433283;501907;546657;2646;
2024-05-02T17:58:46.901;537866932576231690;432972;501669;546385;2666;
2024-05-02T17:58:46.919;537866932594400698;432741;501383;546034;2603;
2024-05-02T17:58:46.937;537866932612569706;432467;501193;545686;2543;
2024-05-02T17:58:46.955;537866932630738714;432127;500811;545369;2489;
2024-05-02T17:58:46.973;537866932648907722;431890;500678;545107;2508;
2024-05-02T17:58:46.991;537866932667076730;431634;500516;544807;2463;
2024-05-02T17:58:47.010;537866932685245738;431411;500274;544580;2409;
2024-05-02T17:58:47.028;537866932703414746;431263;500211;544392;2390;
2024-05-02T17:58:47.046;537866932721583754;431057;499979;544175;2388;
2024-05-02T17:58:47.064;537866932739752762;430822;499817;543903;2376;
2024-05-02T17:58:47.082;537866932757921770;430604;499596;543632;2241;
2024-05-02T17:58:47.100;537866932776090778;430413;499388;543364;2281;
2024-05-02T17:58:47.119;537866932794259786;430179;499205;543172;2230;
2024-05-02T17:58:47.137;537866932812428794;430043;498979;543007;2129;
2024-05-02T17:58:47.155;537866932830597802;429876;498902;542819;2124;
2024-05-02T17:58:47.173;537866932848766810;429729;498756;542746;2095;
2024-05-02T17:58:47.191;537866932866935818;429623;498678;542605;2037;
2024-05-02T17:58:47.210;537866932885104826;429607;498586;542408;1979;
2024-05-02T17:58:47.228;537866932903273834;429453;498528;542331;1866;
2024-05-02T17:58:47.246;537866932921442842;429334;498505;542231;1796;
2024-05-02T17:58:47.264;537866932939611850;429345;498455;542167;1700;
2024-05-02T17:58:47.282;537866932957780858;429253;498469;542178;1650;
2024-05-02T17:58:47.300;537866932975949866;429218;498400;542038;1564;
2024-05-02T17:58:47.319;537866932994118874;429152;498298;541959;1477;
2024-05-02T17:58:47.337;537866933012287882;429147;498327;542000;1427;
2024-05-02T17:58:47.355;537866933030456890;429105;498271;541962;1322;
2024-05-02T17:58:47.373;537866933048625898;429093;498254;541956;1287;
2024-05-02T17:58:47.391;537866933066794906;429071;498192;541906;1212;
2024-05-02T17:58:47.409;537866933084963914;429063;498249;541916;1185;
2024-05-02T17:58:47.428;537866933103132922;429047;498216;541895;1082;
2024-05-02T17:58:47.446;537866933121301930;429033;498229;541917;1017;
2024-05-02T17:58:47.464;537866933139469739;429076;498283;541997;1024;
2024-05-02T17:58:47.482;537866933157637516;429163;498433;542001;976;
2024-05-02T17:58:47.500;537866933175805293;429200;498465;542124;931;
2024-05-02T17:58:47.518;537866933193973070;429245;498507;542185;880;
2024-05-02T17:58:47.537;537866933212140847;429293;498541;542267;841;
2024-05-02T17:58:47.555;537866933230308624;429395;498634;542345;824;
2024-05-02T17:58:47.573;537866933248476401;429425;498681;542459;809;
2024-05-02T17:58:47.591;537866933266644178;429585;498861;542623;813;
2024-05-02T17:58:47.609;537866933284811955;429759;498994;542724;824;
2024-05-02T17:58:47.627;537866933302979732;429900;499115;542898;816;
2024-05-02T17:58:47.646;537866933321147509;429742;498915;542820;798;
2024-05-02T17:58:47.664;537866933339315286;429300;498541;542505;774;
2024-05-02T17:58:47.682;537866933357483063;428892;498078;542087;796;
2024-05-02T17:58:47.700;537866933375650840;428298;497593;541595;814;
2024-05-02T17:58:47.718;537866933393818617;427840;497144;541112;774;
2024-05-02T17:58:47.736;537866933411986394;427417;496767;540672;799;
2024-05-02T17:58:47.755;537866933430154171;427097;496456;540361;780;
2024-05-02T17:58:47.773;537866933448321948;426825;496172;540109;752;
2024-05-02T17:58:47.791;537866933466489725;426632;496092;539880;773;
2024-05-02T17:58:47.809;537866933484657502;426435;495948;539768;759;
2024-05-02T17:58:47.827;537866933502825279;426259;495816;539528;806;
2024-05-02T17:58:47.845;537866933520993056;426154;495666;539356;780;
2024-05-02T17:58:47.864;537866933539160833;425985;495469;539223;793;
2024-05-02T17:58:47.882;537866933557328610;425886;495367;539067;708;
2024-05-02T17:58:47.900;537866933575496387;425762;495320;538976;739;
2024-05-02T17:58:47.918;537866933593664164;425587;495164;538906;772;
2024-05-02T17:58:47.936;537866933611831941;425411;495071;538803;751;
2024-05-02T17:58:47.954;537866933629999718;425381;494976;538755;807;
2024-05-02T17:58:47.973;537866933648167495;425249;494810;538549;753;
2024-05-02T17:58:47.991;537866933666335272;425120;494725;538466;767;
2024-05-02T17:58:48.009;537866933684503049;424989;494569;538357;747;
2024-05-02T17:58:48.027;537866933702670826;424971;494607;538331;768;
2024-05-02T17:58:48.045;537866933720838603;424911;494585;538281;726;
2024-05-02T17:58:48.063;537866933739006380;424831;494525;538204;733;
2024-05-02T17:58:48.082;537866933757174157;424866;494542;538220;795;
2024-05-02T17:58:48.100;537866933775341934;424908;494598;538322;768;
2024-05-02T17:58:48.118;537866933793509711;424947;494609;538302;735;
2024-05-02T17:58:48.136;537866933811678882;424990;494697;538447;759;
2024-05-02T17:58:48.154;537866933829848047;424999;494728;538544;740;
2024-05-02T17:58:48.172;537866933848017212;425121;494802;538547;758;
2024-05-02T17:58:48.191;537866933866186377;425223;494839;538680;742;
2024-05-02T17:58:48.209;537866933884355542;425324;495000;538885;745;
2024-05-02T17:58:48.227;537866933902524707;425388;495077;538975;763;
2024-05-02T17:58:48.245;537866933920693872;425442;495126;539045;799;
2024-05-02T17:58:48.263;537866933938863037;425530;495293;539186;775;
2024-05-02T17:58:48.281;537866933957032202;425615;495428;539269;771;
2024-05-02T17:58:48.300;537866933975201367;425754;495576;539422;759;
2024-05-02T17:58:48.318;537866933993370532;425874;495643;539575;731;
2024-05-02T17:58:48.336;537866934011539697;425966;495721;539652;733;
2024-05-02T17:58:48.354;537866934029708862;426170;495921;539851;801;
2024-05-02T17:58:48.372;537866934047878027;426326;496140;539950;710;
2024-05-02T17:58:48.390;537866934066047192;426382;496206;540083;759;
2024-05-02T17:58:48.409;537866934084216357;426498;496283;540298;760;
2024-05-02T17:58:48.427;537866934102385522;426608;496478;540441;740;
2024-05-02T17:58:48.445;537866934120554687;426823;496724;540608;785;
2024-05-02T17:58:48.463;537866934138723852;426984;496770;540727;718;
2024-05-02T17:58:48.481;537866934156893017;427200;496976;540956;713;
2024-05-02T17:58:48.499;537866934175062182;427340;497231;541235;788;
2024-05-02T17:58:48.518;537866934193231347;427477;497394;541420;662;
2024-05-02T17:58:48.536;537866934211400512;427519;497366;541481;709;
2024-05-02T17:58:48.554;537866934229569677;427306;497165;541298;734;
2024-05-02T17:58:48.572;537866934247738842;426850;496793;540959;751;
2024-05-02T17:58:48.590;537866934265908007;426435;496378;540448;718;
2024-05-02T17:58:48.608;537866934284077172;425938;495944;539947;762;
2024-05-02T17:58:48.627;537866934302246337;425416;495537;539448;755;
2024-05-02T17:58:48.645;537866934320415502;425084;495295;539128;770;
2024-05-02T17:58:48.663;537866934338584667;424812;494976;538796;737;
2024-05-02T17:58:48.681;537866934356753832;424632;494848;538666;730;
2024-05-02T17:58:48.699;537866934374922997;424438;494683;538416;706;
2024-05-02T17:58:48.717;537866934393092162;424235;494532;538158;758;
2024-05-02T17:58:48.736;537866934411261327;424007;494461;537942;702;
2024-05-02T17:58:48.754;537866934429430492;423822;494259;537748;738;
2024-05-02T17:58:48.772;537866934447599657;423711;494162;537564;720;
2024-05-02T17:58:48.790;537866934465768822;423574;494088;537466;734;
2024-05-02T17:58:48.808;537866934483937987;423482;494010;537334;711;
2024-05-02T17:58:48.827;537866934502107152;423416;493914;537273;771;
2024-05-02T17:58:48.845;537866934520274910;423315;493842;537164;735;
2024-05-02T17:58:48.863;537866934538442638;423294;493773;537057;716;
2024-05-02T17:58:48.881;537866934556610366;423140;493797;536975;697;
2024-05-02T17:58:48.899;537866934574778094;423023;493715;536898;683;
2024-05-02T17:58:48.917;537866934592945822;422984;493691;536846;712;
2024-05-02T17:58:48.936;537866934611113550;423039;493643;536795;704;
2024-05-02T17:58:48.954;537866934629281278;423001;493711;536797;730;
2024-05-02T17:58:48.972;537866934647449006;423027;493701;536800;722;
2024-05-02T17:58:48.990;537866934665616734;423093;493759;536801;750;
2024-05-02T17:58:49.008;537866934683784462;423129;493767;536874;741;
2024-05-02T17:58:49.026;537866934701952190;423185;493845;536984;741;
2024-05-02T17:58:49.045;537866934720119918;423250;493948;537006;737;
2024-05-02T17:58:49.063;537866934738287646;423368;494042;537137;799;
2024-05-02T17:58:49.081;537866934756455374;423442;494167;537281;761;
2024-05-02T17:58:49.099;537866934774623102;423623;494302;537354;748;
2024-05-02T17:58:49.117;537866934792790830;423646;494404;537453;750;
2024-05-02T17:58:49.135;537866934810958558;423774;494573;537632;744;
2024-05-02T17:58:49.154;537866934829126286;423983;494666;537735;730;
2024-05-02T17:58:49.172;537866934847294014;424110;494812;537900;745;
2024-05-02T17:58:49.190;537866934865461742;424250;494966;537998;784;
2024-05-02T17:58:49.208;537866934883629470;424432;495075;538143;820;
2024-05-02T17:58:49.226;537866934901797198;424503;495299;538322;797;
2024-05-02T17:58:49.244;537866934919964926;424640;495435;538463;798;
2024-05-02T17:58:49.263;537866934938132654;424817;495576;538647;799;
2024-05-02T17:58:49.281;537866934956300382;425009;495775;538819;834;
2024-05-02T17:58:49.299;537866934974468110;425147;495926;538942;845;
2024-05-02T17:58:49.317;537866934992635838;425372;496118;539217;814;
2024-05-02T17:58:49.335;537866935010803566;425449;496251;539335;790;
2024-05-02T17:58:49.353;537866935028971294;425690;496438;539535;769;
2024-05-02T17:58:49.372;537866935047139022;425815;496657;539672;763;
2024-05-02T17:58:49.390;537866935065306750;426009;496879;539933;779;
2024-05-02T17:58:49.408;537866935083474478;426235;497018;540086;767;
2024-05-02T17:58:49.426;537866935101642206;426384;497226;540298;771;
2024-05-02T17:58:49.444;537866935119809934;426437;497179;540310;780;
2024-05-02T17:58:49.462;537866935137977662;426277;497047;540249;777;
2024-05-02T17:58:49.481;537866935156145390;425920;496689;539829;784;
2024-05-02T17:58:49.499;537866935174313118;425565;496397;539497;784;
2024-05-02T17:58:49.517;537866935192480846;425177;496132;539057;813;
2024-05-02T17:58:49.535;537866935210648574;424902;495860;538756;833;
2024-05-02T17:58:49.553;537866935228816302;424662;495672;538490;878;
2024-05-02T17:58:49.571;537866935246984030;424559;495560;538350;840;
2024-05-02T17:58:49.590;537866935265151758;424464;495515;538193;867;
2024-05-02T17:58:49.608;537866935283318921;424348;495505;538092;884;
2024-05-02T17:58:49.626;537866935301486068;424409;495491;538073;951;
2024-05-02T17:58:49.644;537866935319653215;424296;495492;537918;899;
2024-05-02T17:58:49.662;537866935337820362;424196;495464;537873;922;
2024-05-02T17:58:49.680;537866935355987509;424192;495456;537782;998;
2024-05-02T17:58:49.699;537866935374154656;424199;495495;537765;1035;
2024-05-02T17:58:49.717;537866935392321803;424218;495428;537739;1105;
2024-05-02T17:58:49.735;537866935410488950;424320;495559;537854;1188;
2024-05-02T17:58:49.753;537866935428656097;424336;495653;537879;1285;
2024-05-02T17:58:49.771;537866935446823244;424464;495772;538042;1358;
2024-05-02T17:58:49.789;537866935464990391;424628;495905;538098;1505;
2024-05-02T17:58:49.808;537866935483157538;424647;496001;538119;1553;
2024-05-02T17:58:49.826;537866935501324685;424806;496187;538215;1726;
2024-05-02T17:58:49.844;537866935519491832;424917;496358;538301;1795;
2024-05-02T17:58:49.862;537866935537658979;425109;496461;538441;1856;
2024-05-02T17:58:49.880;537866935555826126;425244;496660;538562;1952;
2024-05-02T17:58:49.898;537866935573993273;425391;496889;538709;2001;
2024-05-02T17:58:49.917;537866935592160420;425601;497025;538860;2073;
2024-05-02T17:58:49.935;537866935610327567;425732;497140;538960;2141;
2024-05-02T17:58:49.953;537866935628494714;425919;497384;539175;2133;
2024-05-02T17:58:49.971;537866935646661861;426054;497624;539396;2178;
2024-05-02T17:58:49.989;537866935664829008;426249;497717;539561;2224;
2024-05-02T17:58:50.007;537866935682996155;426411;497982;539708;2258;
2024-05-02T17:58:50.026;537866935701163302;426553;498176;539859;2286;
2024-05-02T17:58:50.044;537866935719330449;426840;498397;540100;2364;
2024-05-02T17:58:50.062;537866935737497596;426998;498593;540311;2394;
2024-05-02T17:58:50.080;537866935755664743;427264;498766;540471;2462;
2024-05-02T17:58:50.098;537866935773831890;427426;499026;540696;2453;
2024-05-02T17:58:50.116;537866935791999037;427545;499204;540941;2516;
2024-05-02T17:58:50.135;537866935810166184;427769;499381;541116;2517;
2024-05-02T17:58:50.153;537866935828333331;427998;499545;541279;2543;
2024-05-02T17:58:50.171;537866935846500478;428186;499797;541476;2547;
2024-05-02T17:58:50.189;537866935864667625;428453;500029;541669;2563;
2024-05-02T17:58:50.207;537866935882834772;428620;500196;541895;2608;
2024-05-02T17:58:50.225;537866935901001919;428834;500467;542146;2581;
2024-05-02T17:58:50.244;537866935919169066;429026;500632;542265;2560;
2024-05-02T17:58:50.262;537866935937336213;429171;500863;542471;2603;
2024-05-02T17:58:50.280;537866935955503360;429374;501006;542703;2582;
2024-05-02T17:58:50.298;537866935973670507;429529;501139;542862;2469;
2024-05-02T17:58:50.316;537866935991837654;429772;501353;542990;2462;
2024-05-02T17:58:50.334;537866936010004801;429976;501498;543220;2397;
2024-05-02T17:58:50.353;537866936028171948;430152;501729;543406;2367;
2024-05-02T17:58:50.371;537866936046338618;430149;501661;543478;2371;
2024-05-02T17:58:50.389;537866936064505256;430077;501552;543396;2417;
2024-05-02T17:58:50.407;537866936082671894;429799;501253;543078;2375;
2024-05-02T17:58:50.425;537866936100838532;429520;501074;542831;2297;
2024-05-02T17:58:50.443;537866936119005170;429339;500920;542648;2403;
2024-05-02T17:58:50.462;537866936137171808;429230;500835;542441;2401;
2024-05-02T17:58:50.480;537866936155338446;429132;500733;542321;2448;
2024-05-02T17:58:50.498;537866936173505084;429109;500758;542301;2402;
2024-05-02T17:58:50.516;537866936191671722;429183;500789;542353;2448;
2024-05-02T17:58:50.534;537866936209838360;429230;500859;542273;2495;
2024-05-02T17:58:50.552;537866936228004998;429251;500968;542333;2554;
2024-05-02T17:58:50.571;537866936246171636;429320;500991;542319;2532;
2024-05-02T17:58:50.589;537866936264338274;429456;501081;542418;2544;
2024-05-02T17:58:50.607;537866936282504912;429525;501157;542546;2594;
2024-05-02T17:58:50.625;537866936300671550;429634;501271;542629;2595;
2024-05-02T17:58:50.643;537866936318838188;429781;501373;542764;2693;
2024-05-02T17:58:50.661;537866936337004826;429823;501480;542846;2681;
2024-05-02T17:58:50.680;537866936355171464;429913;501637;542900;2735;
2024-05-02T17:58:50.698;537866936373338102;429915;501567;542949;2699;
2024-05-02T17:58:50.716;537866936391504740;430043;501703;543011;2744;
2024-05-02T17:58:50.734;537866936409671378;430216;501838;543139;2806;
2024-05-02T17:58:50.752;537866936427838016;430295;501897;543210;2818;
2024-05-02T17:58:50.770;537866936446004654;430403;502014;543335;2885;
2024-05-02T17:58:50.789;537866936464171292;430611;502203;543526;2902;
2024-05-02T17:58:50.807;537866936482337930;430795;502409;543755;2968;
2024-05-02T17:58:50.825;537866936500504568;430938;502503;543905;2952;
2024-05-02T17:58:50.843;537866936518671206;431174;502714;544116;2999;
2024-05-02T17:58:50.861;537866936536837844;431336;502917;544345;3093;
2024-05-02T17:58:50.879;537866936555004482;431643;503169;544537;3059;
2024-05-02T17:58:50.898;537866936573171120;431842;503391;544803;3139;
2024-05-02T17:58:50.916;537866936591337758;432033;503629;545025;3192;
2024-05-02T17:58:50.934;537866936609504396;432194;503715;545246;3190;
2024-05-02T17:58:50.952;537866936627671034;432405;503984;545486;3244;
2024-05-02T17:58:50.970;537866936645837672;432636;504123;545699;3262;
2024-05-02T17:58:50.988;537866936664004310;432922;504382;545936;3231;
2024-05-02T17:58:51.007;537866936682170948;433048;504569;546138;3267;
2024-05-02T17:58:51.025;537866936700337586;433244;504778;546376;3203;
2024-05-02T17:58:51.043;537866936718504224;433467;505016;546609;3282;
2024-05-02T17:58:51.061;537866936736670862;433716;505171;546752;3196;
2024-05-02T17:58:51.079;537866936754837500;433829;505364;547051;3197;
2024-05-02T17:58:51.097;537866936773004138;434130;505508;547253;3238;
2024-05-02T17:58:51.116;537866936791170776;434286;505641;547469;3186;
2024-05-02T17:58:51.134;537866936809338157;434485;505853;547691;3265;
2024-05-02T17:58:51.152;537866936827505522;434720;506099;547977;3182;
2024-05-02T17:58:51.170;537866936845672887;434966;506351;548192;3185;
2024-05-02T17:58:51.188;537866936863840252;435265;506645;548477;3203;
2024-05-02T17:58:51.206;537866936882007617;435512;506793;548785;3259;
2024-05-02T17:58:51.225;537866936900174982;435528;506909;548959;3224;
2024-05-02T17:58:51.243;537866936918342347;435456;506907;549009;3273;
2024-05-02T17:58:51.261;537866936936509712;435345;506708;548828;3208;
2024-05-02T17:58:51.279;537866936954677077;435241;506487;548641;3243;
2024-05-02T17:58:51.297;537866936972844442;435045;506301;548461;3245;
2024-05-02T17:58:51.315;537866936991011807;434900;506196;548338;3268;
2024-05-02T17:58:51.334;537866937009179172;434850;506197;548269;3237;
2024-05-02T17:58:51.352;537866937027346537;434929;506159;548325;3239;
2024-05-02T17:58:51.370;537866937045513902;434954;506204;548296;3277;
2024-05-02T17:58:51.388;537866937063681267;434994;506307;548375;3282;
2024-05-02T17:58:51.406;537866937081848632;435022;506329;548363;3307;
2024-05-02T17:58:51.424;537866937100015997;435064;506275;548367;3236;
2024-05-02T17:58:51.443;537866937118183362;435069;506380;548378;3228;
2024-05-02T17:58:51.461;537866937136350727;435091;506422;548461;3211;
2024-05-02T17:58:51.479;537866937154518092;435124;506507;548565;3230;
2024-05-02T17:58:51.497;537866937172685457;435266;506608;548658;3279;
2024-05-02T17:58:51.515;537866937190852822;435305;506732;548747;3239;
2024-05-02T17:58:51.533;537866937209020187;435428;506854;548846;3285;
2024-05-02T17:58:51.552;537866937227187552;435525;506839;548925;3247;
2024-05-02T17:58:51.570;537866937245354917;435671;506997;549058;3260;
2024-05-02T17:58:51.588;537866937263522282;435743;507110;549137;3295;
2024-05-02T17:58:51.606;537866937281689647;435779;507157;549216;3215;
2024-05-02T17:58:51.624;537866937299857012;435969;507306;549327;3281;
2024-05-02T17:58:51.642;537866937318024377;436036;507419;549459;3287;
2024-05-02T17:58:51.661;537866937336191742;436146;507500;549601;3229;
2024-05-02T17:58:51.679;537866937354359107;436271;507611;549719;3263;
2024-05-02T17:58:51.697;537866937372526472;436370;507772;549935;3180;
2024-05-02T17:58:51.715;537866937390693837;436595;507931;550118;3231;
2024-05-02T17:58:51.733;537866937408861202;436727;508081;550282;3200;
2024-05-02T17:58:51.751;537866937427028567;436932;508295;550474;3207;
2024-05-02T17:58:51.770;537866937445195932;437121;508446;550677;3161;
2024-05-02T17:58:51.788;537866937463363297;437311;508664;550924;3216;
2024-05-02T17:58:51.806;537866937481530662;437475;508881;551106;3208;
2024-05-02T17:58:51.824;537866937499698027;437682;509027;551387;3226;
2024-05-02T17:58:51.842;537866937517865392;437793;509222;551566;3150;
2024-05-02T17:58:51.860;537866937536032757;438022;509412;551746;3239;
2024-05-02T17:58:51.879;537866937554200122;438190;509562;551978;3175;
2024-05-02T17:58:51.897;537866937572367503;438347;509803;552200;3186;
2024-05-02T17:58:51.915;537866937590534868;438644;510046;552462;3230;
2024-05-02T17:58:51.933;537866937608702233;438819;510258;552724;3205;
2024-05-02T17:58:51.951;537866937626869598;439041;510494;552808;3226;
2024-05-02T17:58:51.969;537866937645036963;439239;510657;553087;3212;
2024-05-02T17:58:51.988;537866937663204328;439503;510853;553316;3211;
2024-05-02T17:58:52.006;537866937681371693;439698;511044;553566;3228;
2024-05-02T17:58:52.024;537866937699539058;439882;511244;553781;3251;
2024-05-02T17:58:52.042;537866937717706423;440079;511445;553962;3199;
2024-05-02T17:58:52.060;537866937735873788;440379;511688;554246;3234;
2024-05-02T17:58:52.078;537866937754041153;440590;511953;554572;3225;
2024-05-02T17:58:52.097;537866937772208518;440743;512197;554829;3243;
2024-05-02T17:58:52.115;537866937790375883;441016;512430;555043;3285;
2024-05-02T17:58:52.133;537866937808543248;441157;512565;555275;3268;
2024-05-02T17:58:52.151;537866937826710613;441083;512544;555222;3261;
2024-05-02T17:58:52.169;537866937844877978;441007;512376;555105;3244;
2024-05-02T17:58:52.187;537866937863045343;440849;512235;554982;3307;
2024-05-02T17:58:52.206;537866937881212708;440717;512116;554845;3299;
2024-05-02T17:58:52.224;537866937899380073;440557;511991;554705;3252;
2024-05-02T17:58:52.242;537866937917547438;440533;511987;554629;3269;
2024-05-02T17:58:52.260;537866937935714803;440510;511991;554702;3273;
2024-05-02T17:58:52.278;537866937953882168;440636;512034;554777;3273;
2024-05-02T17:58:52.296;537866937972049533;440738;512110;554843;3265;
2024-05-02T17:58:52.315;537866937990216898;440773;512155;554863;3238;
2024-05-02T17:58:52.333;537866938008384263;440795;512219;554894;3283;
2024-05-02T17:58:52.351;537866938026551628;440990;512372;554965;3264;
2024-05-02T17:58:52.369;537866938044718993;441005;512434;555067;3231;
2024-05-02T17:58:52.387;537866938062886358;441074;512547;555147;3279;
2024-05-02T17:58:52.405;537866938081053723;441203;512654;555200;3243;
2024-05-02T17:58:52.424;537866938099221088;441213;512726;555194;3252;
2024-05-02T17:58:52.442;537866938117388453;441324;512838;555264;3233;
2024-05-02T17:58:52.460;537866938135555818;441412;512910;555345;3248;
2024-05-02T17:58:52.478;537866938153723183;441523;513001;555477;3267;
2024-05-02T17:58:52.496;537866938171890548;441556;513129;555614;3284;
2024-05-02T17:58:52.514;537866938190057913;441645;513188;555663;3313;
2024-05-02T17:58:52.533;537866938208225278;441761;513310;555745;3298;
2024-05-02T17:58:52.551;537866938226392643;441860;513456;555913;3270;
2024-05-02T17:58:52.569;537866938244560008;442006;513657;556007;3293;
2024-05-02T17:58:52.587;537866938262727373;442159;513725;556060;3287;
2024-05-02T17:58:52.605;537866938280894738;442232;513875;556174;3277;
2024-05-02T17:58:52.623;537866938299062103;442456;514050;556356;3341;
2024-05-02T17:58:52.642;537866938317229468;442515;514176;556474;3273;
2024-05-02T17:58:52.660;537866938335395700;442727;514387;556682;3283;
2024-05-02T17:58:52.678;537866938353561902;442782;514566;556829;3222;
2024-05-02T17:58:52.696;537866938371728104;443032;514697;556965;3229;
2024-05-02T17:58:52.714;537866938389894306;443165;514889;557131;3227;
2024-05-02T17:58:52.732;537866938408060508;443320;515045;557276;3207;
2024-05-02T17:58:52.751;537866938426226710;443472;515298;557450;3178;
2024-05-02T17:58:52.769;537866938444392912;443720;515524;557656;3237;
2024-05-02T17:58:52.787;537866938462559114;443871;515688;557880;3279;
2024-05-02T17:58:52.805;537866938480725316;444096;515814;558024;3277;
2024-05-02T17:58:52.823;537866938498891518;444244;515998;558205;3285;
2024-05-02T17:58:52.841;537866938517057720;444349;516163;558379;3285;
2024-05-02T17:58:52.860;537866938535223922;444540;516375;558511;3254;
2024-05-02T17:58:52.878;537866938553390124;444710;516531;558685;3287;
2024-05-02T17:58:52.896;537866938571556326;444918;516718;558872;3312;
2024-05-02T17:58:52.914;537866938589722528;445072;516990;559047;3300;
2024-05-02T17:58:52.932;537866938607888730;445269;517252;559206;3262;
2024-05-02T17:58:52.950;537866938626054932;445536;517418;559518;3333;
2024-05-02T17:58:52.969;537866938644221134;445687;517549;559598;3323;
2024-05-02T17:58:52.987;537866938662387336;445868;517774;559813;3282;
2024-05-02T17:58:53.005;537866938680553538;446047;517962;560033;3329;
2024-05-02T17:58:53.023;537866938698719740;446242;518143;560220;3338;
2024-05-02T17:58:53.041;537866938716885942;446446;518381;560408;3336;
2024-05-02T17:58:53.059;537866938735052144;446520;518458;560569;3328;
2024-05-02T17:58:53.078;537866938753218346;446452;518409;560546;3318;
2024-05-02T17:58:53.096;537866938771384548;446300;518226;560295;3342;
2024-05-02T17:58:53.114;537866938789550750;446154;518090;560111;3289;
2024-05-02T17:58:53.132;537866938807716952;445968;517896;559866;3307;
2024-05-02T17:58:53.150;537866938825883154;445984;517861;559792;3268;
2024-05-02T17:58:53.168;537866938844049356;445933;517872;559748;3339;
2024-05-02T17:58:53.187;537866938862215558;445979;517883;559769;3333;
2024-05-02T17:58:53.205;537866938880381760;446077;518038;559823;3399;
2024-05-02T17:58:53.223;537866938898547962;446185;518115;559827;3322;
2024-05-02T17:58:53.241;537866938916714164;446254;518209;559834;3336;
2024-05-02T17:58:53.259;537866938934880366;446290;518234;559957;3258;
2024-05-02T17:58:53.277;537866938953046568;446356;518392;560016;3322;
2024-05-02T17:58:53.296;537866938971212770;446548;518467;560056;3306;
2024-05-02T17:58:53.314;537866938989378972;446620;518526;560115;3283;
2024-05-02T17:58:53.332;537866939007545174;446665;518629;560236;3328;
2024-05-02T17:58:53.350;537866939025711376;446774;518678;560332;3314;
2024-05-02T17:58:53.368;537866939043877578;446844;518705;560350;3281;
2024-05-02T17:58:53.386;537866939062043780;446924;518773;560476;3305;
2024-05-02T17:58:53.405;537866939080209982;446971;518859;560505;3283;
2024-05-02T17:58:53.423;537866939098376436;447039;518909;560602;3313;
2024-05-02T17:58:53.441;537866939116542856;447130;518994;560703;3256;
2024-05-02T17:58:53.459;537866939134709276;447133;519027;560804;3236;
2024-05-02T17:58:53.477;537866939152875696;447392;519188;560907;3321;
2024-05-02T17:58:53.495;537866939171042116;447459;519292;561069;3285;
2024-05-02T17:58:53.514;537866939189208536;447560;519434;561263;3300;
2024-05-02T17:58:53.532;537866939207374956;447765;519554;561369;3269;
2024-05-02T17:58:53.550;537866939225541376;447893;519675;561444;3270;
2024-05-02T17:58:53.568;537866939243707796;448108;519873;561603;3294;
2024-05-02T17:58:53.586;537866939261874216;448293;519981;561854;3320;
2024-05-02T17:58:53.604;537866939280040636;448455;520094;562048;3344;
2024-05-02T17:58:53.623;537866939298207056;448605;520309;562254;3319;
2024-05-02T17:58:53.641;537866939316373476;448723;520434;562435;3316;
2024-05-02T17:58:53.659;537866939334539896;448832;520570;562649;3334;
2024-05-02T17:58:53.677;537866939352706316;449045;520754;562740;3284;
2024-05-02T17:58:53.695;537866939370872736;449239;520921;562941;3353;
2024-05-02T17:58:53.713;537866939389039156;449395;521027;563081;3338;
2024-05-02T17:58:53.732;537866939407205576;449482;521129;563252;3323;
2024-05-02T17:58:53.750;537866939425371996;449602;521307;563466;3333;
2024-05-02T17:58:53.768;537866939443538416;449798;521484;563631;3346;
2024-05-02T17:58:53.786;537866939461704836;449978;521606;563787;3370;
2024-05-02T17:58:53.804;537866939479871256;450112;521819;564024;3341;
2024-05-02T17:58:53.822;537866939498037676;450333;521913;564191;3302;
2024-05-02T17:58:53.841;537866939516204096;450482;522073;564368;3214;
2024-05-02T17:58:53.859;537866939534370516;450623;522250;564573;3300;
2024-05-02T17:58:53.877;537866939552536936;450845;522391;564754;3289;
2024-05-02T17:58:53.895;537866939570703356;450941;522495;564945;3335;
2024-05-02T17:58:53.913;537866939588869776;450899;522403;565011;3327;
2024-05-02T17:58:53.931;537866939607036196;450802;522229;564824;3349;
2024-05-02T17:58:53.950;537866939625202616;450651;522056;564696;3351;
2024-05-02T17:58:53.968;537866939643369036;450428;521822;564525;3372;
2024-05-02T17:58:53.986;537866939661535456;450377;521703;564438;3303;
2024-05-02T17:58:54.004;537866939679701876;450323;521620;564428;3305;
2024-05-02T17:58:54.022;537866939697868296;450403;521644;564396;3366;
2024-05-02T17:58:54.040;537866939716034716;450463;521624;564435;3345;
2024-05-02T17:58:54.059;537866939734201136;450485;521640;564400;3361;
2024-05-02T17:58:54.077;537866939752367556;450553;521706;564530;3357;
2024-05-02T17:58:54.095;537866939770533976;450579;521755;564595;3306;
2024-05-02T17:58:54.113;537866939788700396;450591;521844;564671;3366;
2024-05-02T17:58:54.131;537866939806866816;450715;521941;564691;3308;
2024-05-02T17:58:54.149;537866939825033236;450759;522008;564751;3317;
2024-05-02T17:58:54.168;537866939843199656;450810;521993;564845;3379;
2024-05-02T17:58:54.186;537866939861366236;450972;522055;564847;3321;
2024-05-02T17:58:54.204;537866939879532802;450968;522053;564994;3313;
2024-05-02T17:58:54.222;537866939897699368;450996;522099;565039;3307;
2024-05-02T17:58:54.240;537866939915865934;451040;522193;565038;3241;
2024-05-02T17:58:54.258;537866939934032500;451084;522127;565037;3276;
2024-05-02T17:58:54.277;537866939952199066;451100;522232;565112;3303;
2024-05-02T17:58:54.295;537866939970365632;451214;522306;565280;3372;
2024-05-02T17:58:54.313;537866939988532198;451333;522369;565351;3313;
2024-05-02T17:58:54.331;537866940006698764;451424;522439;565454;3311;
2024-05-02T17:58:54.349;537866940024865330;451545;522567;565619;3290;
2024-05-02T17:58:54.367;537866940043031896;451704;522593;565746;3290;
2024-05-02T17:58:54.386;537866940061198462;451778;522757;565895;3319;
2024-05-02T17:58:54.404;537866940079365028;451926;522826;566010;3290;
2024-05-02T17:58:54.422;537866940097531594;451972;522939;566058;3273;
2024-05-02T17:58:54.440;537866940115698160;452167;523091;566277;3315;
2024-05-02T17:58:54.458;537866940133864726;452266;523161;566417;3280;
2024-05-02T17:58:54.476;537866940152031292;452393;523302;566468;3248;
2024-05-02T17:58:54.495;537866940170197858;452492;523481;566615;3277;
2024-05-02T17:58:54.513;537866940188364424;452585;523586;566816;3325;
2024-05-02T17:58:54.531;537866940206530990;452731;523654;566967;3276;
2024-05-02T17:58:54.549;537866940224697556;452778;523809;567132;3265;
2024-05-02T17:58:54.567;537866940242864122;452935;523938;567239;3271;
2024-05-02T17:58:54.585;537866940261030688;453107;524015;567397;3324;
2024-05-02T17:58:54.604;537866940279197254;453239;524172;567511;3336;
2024-05-02T17:58:54.622;537866940297363820;453311;524323;567681;3301;
2024-05-02T17:58:54.640;537866940315530386;453461;524455;567812;3281;
2024-05-02T17:58:54.658;537866940333696952;453614;524615;567962;3313;
2024-05-02T17:58:54.676;537866940351863518;453809;524769;568145;3351;
2024-05-02T17:58:54.694;537866940370030084;453968;524888;568370;3278;
2024-05-02T17:58:54.713;537866940388196650;454116;524993;568482;3310;
2024-05-02T17:58:54.731;537866940406363216;454213;525159;568681;3329;
2024-05-02T17:58:54.749;537866940424529782;454349;525360;568804;3318;
2024-05-02T17:58:54.767;537866940442696348;454529;525509;568932;3336;
2024-05-02T17:58:54.785;537866940460862914;454435;525390;568937;3271;
2024-05-02T17:58:54.803;537866940479029480;454247;525132;568747;3301;
2024-05-02T17:58:54.822;537866940497196046;454028;524910;568601;3374;
2024-05-02T17:58:54.840;537866940515362612;453807;524650;568408;3386;
2024-05-02T17:58:54.858;537866940533529178;453660;524436;568193;3356;
2024-05-02T17:58:54.876;537866940551695744;453607;524328;568064;3353;
2024-05-02T17:58:54.894;537866940569862310;453551;524282;568027;3409;
2024-05-02T17:58:54.912;537866940588028876;453504;524239;567965;3412;
2024-05-02T17:58:54.931;537866940606195442;453548;524252;567916;3417;
2024-05-02T17:58:54.949;537866940624362739;453515;524228;567869;3380;
2024-05-02T17:58:54.967;537866940642529997;453522;524240;567813;3340;
2024-05-02T17:58:54.985;537866940660697255;453453;524178;567851;3280;
2024-05-02T17:58:55.003;537866940678864513;453490;524136;567872;3280;
2024-05-02T17:58:55.021;537866940697031771;453430;524091;567796;3304;
2024-05-02T17:58:55.040;537866940715199029;453470;524150;567876;3320;
2024-05-02T17:58:55.058;537866940733366287;453494;524157;567814;3318;
2024-05-02T17:58:55.076;537866940751533545;453505;524126;567892;3323;
2024-05-02T17:58:55.094;537866940769700803;453494;524031;567919;3301;
2024-05-02T17:58:55.112;537866940787868061;453470;524041;567843;3271;
2024-05-02T17:58:55.130;537866940806035319;453489;524004;567861;3272;
2024-05-02T17:58:55.149;537866940824202577;453480;524057;567834;3305;
2024-05-02T17:58:55.167;537866940842369835;453532;524043;567917;3282;
2024-05-02T17:58:55.185;537866940860537093;453594;524048;567883;3308;
2024-05-02T17:58:55.203;537866940878704351;453615;524095;567940;3303;
2024-05-02T17:58:55.221;537866940896871609;453587;524075;567979;3302;
2024-05-02T17:58:55.239;537866940915038867;453700;524088;568036;3311;
2024-05-02T17:58:55.258;537866940933206125;453832;524205;568151;3329;
2024-05-02T17:58:55.276;537866940951373383;453818;524180;568203;3325;
2024-05-02T17:58:55.294;537866940969540641;453902;524211;568238;3293;
2024-05-02T17:58:55.312;537866940987707899;453969;524286;568343;3262;
2024-05-02T17:58:55.330;537866941005875157;454020;524443;568509;3282;
2024-05-02T17:58:55.348;537866941024042415;454129;524506;568523;3329;
2024-05-02T17:58:55.367;537866941042209673;454197;524535;568562;3329;
2024-05-02T17:58:55.385;537866941060376931;454259;524681;568719;3318;
2024-05-02T17:58:55.403;537866941078544189;454362;524740;568815;3318;
2024-05-02T17:58:55.421;537866941096711447;454395;524787;568891;3248;
2024-05-02T17:58:55.439;537866941114878705;454534;524866;569023;3319;
2024-05-02T17:58:55.457;537866941133045963;454650;524935;569088;3320;
2024-05-02T17:58:55.476;537866941151213221;454664;525072;569168;3338;
2024-05-02T17:58:55.494;537866941169380479;454758;525110;569242;3295;
2024-05-02T17:58:55.512;537866941187547737;454825;525191;569282;3301;
2024-05-02T17:58:55.530;537866941205714995;454968;525314;569403;3334;
2024-05-02T17:58:55.548;537866941223882253;455080;525388;569524;3390;
2024-05-02T17:58:55.566;537866941242049511;455093;525383;569581;3354;
2024-05-02T17:58:55.585;537866941260216769;455179;525485;569625;3301;
2024-05-02T17:58:55.603;537866941278384027;455289;525701;569823;3322;
2024-05-02T17:58:55.621;537866941296551285;455370;525786;569857;3311;
2024-05-02T17:58:55.639;537866941314718543;455503;525956;570049;3316;
2024-05-02T17:58:55.657;537866941332885801;455582;526085;570114;3281;
2024-05-02T17:58:55.675;537866941351053059;455569;526060;570160;3286;
2024-05-02T17:58:55.694;537866941369220317;455408;525819;569957;3331;
2024-05-02T17:58:55.712;537866941387387575;455109;525488;569641;3306;
2024-05-02T17:58:55.730;537866941405554354;454802;525256;569278;3219;
2024-05-02T17:58:55.748;537866941423721101;454568;524969;569036;3278;
2024-05-02T17:58:55.766;537866941441887848;454397;524713;568789;3367;
2024-05-02T17:58:55.784;537866941460054595;454250;524539;568608;3347;
2024-05-02T17:58:55.803;537866941478221342;454146;524469;568448;3331;
2024-05-02T17:58:55.821;537866941496388089;454095;524332;568321;3268;
2024-05-02T17:58:55.839;537866941514554836;454062;524323;568233;3269;
2024-05-02T17:58:55.857;537866941532721583;454028;524255;568161;3301;
2024-05-02T17:58:55.875;537866941550888330;453927;524207;568039;3277;
2024-05-02T17:58:55.893;537866941569055077;453909;524074;567928;3278;
2024-05-02T17:58:55.912;537866941587221824;453831;523985;567823;3264;
2024-05-02T17:58:55.930;537866941605388571;453753;523951;567747;3276;
2024-05-02T17:58:55.948;537866941623555318;453732;523877;567657;3259;
2024-05-02T17:58:55.966;537866941641722065;453661;523779;567602;3340;
2024-05-02T17:58:55.984;537866941659888812;453664;523724;567545;3298;
2024-05-02T17:58:56.002;537866941678055559;453581;523671;567405;3248;
2024-05-02T17:58:56.021;537866941696222306;453507;523539;567334;3175;
2024-05-02T17:58:56.039;537866941714389053;453424;523520;567200;3260;
2024-05-02T17:58:56.057;537866941732555800;453441;523540;567189;3295;
2024-05-02T17:58:56.075;537866941750722547;453389;523424;567128;3276;
2024-05-02T17:58:56.093;537866941768889294;453390;523468;567075;3296;
2024-05-02T17:58:56.111;537866941787056041;453348;523439;567040;3304;
2024-05-02T17:58:56.130;537866941805222788;453329;523432;566963;3285;
2024-05-02T17:58:56.148;537866941823389535;453411;523511;567052;3312;
2024-05-02T17:58:56.166;537866941841556282;453436;523526;567074;3324;
2024-05-02T17:58:56.184;537866941859723029;453396;523402;566982;3242;
2024-05-02T17:58:56.202;537866941877889776;453415;523402;566989;3246;
2024-05-02T17:58:56.220;537866941896056523;453483;523477;567014;3266;
2024-05-02T17:58:56.239;537866941914223270;453516;523563;567081;3288;
2024-05-02T17:58:56.257;537866941932390017;453575;523603;567052;3300;
2024-05-02T17:58:56.275;537866941950556764;453595;523601;567052;3253;
2024-05-02T17:58:56.293;537866941968723511;453647;523639;567102;3284;
2024-05-02T17:58:56.311;537866941986890258;453647;523665;567104;3254;
2024-05-02T17:58:56.329;537866942005057005;453709;523745;567151;3278;
2024-05-02T17:58:56.348;537866942023223752;453852;523798;567221;3277;
2024-05-02T17:58:56.366;537866942041390499;453829;523822;567186;3218;
2024-05-02T17:58:56.384;537866942059557246;453930;523921;567277;3315;
2024-05-02T17:58:56.402;537866942077723993;453924;523966;567356;3280;
2024-05-02T17:58:56.420;537866942095890740;453989;524007;567423;3293;
2024-05-02T17:58:56.438;537866942114057487;454056;523981;567491;3266;
2024-05-02T17:58:56.457;537866942132224234;454191;524133;567545;3296;
2024-05-02T17:58:56.475;537866942150390981;454230;524233;567624;3286;
2024-05-02T17:58:56.493;537866942168558094;454293;524237;567797;3341;
2024-05-02T17:58:56.511;537866942186725205;454386;524394;567943;3252;
2024-05-02T17:58:56.529;537866942204892316;454453;524351;567935;3265;
2024-05-02T17:58:56.547;537866942223059427;454248;524143;567786;3196;
2024-05-02T17:58:56.566;537866942241226538;454065;523856;567571;3272;
2024-05-02T17:58:56.584;537866942259393649;453731;523531;567203;3273;
2024-05-02T17:58:56.602;537866942277560760;453444;523123;566984;3299;
2024-05-02T17:58:56.620;537866942295727871;453187;522849;566680;3269;
2024-05-02T17:58:56.638;537866942313894982;453045;522598;566517;3284;
2024-05-02T17:58:56.656;537866942332062093;452908;522436;566328;3289;
2024-05-02T17:58:56.675;537866942350229204;452794;522272;566169;3262;
2024-05-02T17:58:56.693;537866942368396315;452754;522171;566213;3268;
2024-05-02T17:58:56.711;537866942386563426;452648;522090;565999;3281;
2024-05-02T17:58:56.729;537866942404730537;452574;522005;565950;3219;
2024-05-02T17:58:56.747;537866942422897648;452519;521844;565851;3244;
2024-05-02T17:58:56.765;537866942441064759;452487;521784;565771;3282;
2024-05-02T17:58:56.784;537866942459231870;452418;521640;565725;3241;
2024-05-02T17:58:56.802;537866942477398981;452420;521608;565707;3284;
2024-05-02T17:58:56.820;537866942495566092;452272;521499;565640;3296;
2024-05-02T17:58:56.838;537866942513733203;452251;521370;565507;3265;
2024-05-02T17:58:56.856;537866942531900314;452157;521257;565395;3276;
2024-05-02T17:58:56.874;537866942550067425;452094;521208;565300;3320;
2024-05-02T17:58:56.893;537866942568234536;451943;521043;565246;3241;
2024-05-02T17:58:56.911;537866942586401647;451897;520874;565072;3231;
2024-05-02T17:58:56.929;537866942604568758;451832;520786;565093;3280;
2024-05-02T17:58:56.947;537866942622735869;451824;520708;565084;3306;
2024-05-02T17:58:56.965;537866942640902980;451792;520671;565087;3250;
2024-05-02T17:58:56.983;537866942659070091;451832;520691;565107;3231;
2024-05-02T17:58:57.002;537866942677237202;451859;520649;565094;3255;
2024-05-02T17:58:57.020;537866942695404313;451792;520704;565122;3236;
2024-05-02T17:58:57.038;537866942713571424;451846;520667;565175;3245;
2024-05-02T17:58:57.056;537866942731738535;451903;520684;565151;3239;
2024-05-02T17:58:57.074;537866942749905646;451926;520633;565165;3182;
2024-05-02T17:58:57.092;537866942768072757;451928;520675;565258;3265;
2024-05-02T17:58:57.111;537866942786239868;451915;520657;565237;3208;
2024-05-02T17:58:57.129;537866942804406979;451958;520694;565368;3256;
2024-05-02T17:58:57.147;537866942822574090;452089;520740;565439;3246;
2024-05-02T17:58:57.165;537866942840741201;452102;520653;565407;3243;
2024-05-02T17:58:57.183;537866942858908312;452146;520751;565507;3265;
2024-05-02T17:58:57.201;537866942877075423;452224;520798;565557;3258;
2024-05-02T17:58:57.220;537866942895242534;452264;520751;565608;3248;
2024-05-02T17:58:57.238;537866942913409645;452284;520921;565730;3273;
2024-05-02T17:58:57.256;537866942931576215;452372;520861;565737;3295;
2024-05-02T17:58:57.274;537866942949742781;452450;520942;565800;3238;
2024-05-02T17:58:57.292;537866942967909347;452539;521032;565882;3295;
2024-05-02T17:58:57.310;537866942986075913;452583;521062;565929;3325;
2024-05-02T17:58:57.329;537866943004242479;452669;521119;565973;3272;
2024-05-02T17:58:57.347;537866943022409045;452693;521238;566120;3318;
2024-05-02T17:58:57.365;537866943040575611;452864;521313;566282;3268;
2024-05-02T17:58:57.383;537866943058742177;452910;521378;566344;3278;
2024-05-02T17:58:57.401;537866943076908743;452922;521267;566340;3277;
2024-05-02T17:58:57.419;537866943095075309;452629;521028;566152;3287;
2024-05-02T17:58:57.438;537866943113241875;452285;520584;565697;3295;
2024-05-02T17:58:57.456;537866943131408441;451979;520107;565342;3296;
2024-05-02T17:58:57.474;537866943149575007;451518;519701;564924;3236;
2024-05-02T17:58:57.492;537866943167741573;451157;519247;564476;3272;
2024-05-02T17:58:57.510;537866943185908139;450934;518894;564266;3260;
2024-05-02T17:58:57.528;537866943204074705;450774;518572;563952;3250;
2024-05-02T17:58:57.547;537866943222241271;450574;518429;563703;3242;
2024-05-02T17:58:57.565;537866943240407837;450471;518188;563560;3212;
2024-05-02T17:58:57.583;537866943258574403;450267;518048;563427;3262;
2024-05-02T17:58:57.601;537866943276740969;450143;517844;563169;3255;
2024-05-02T17:58:57.619;537866943294907535;449994;517524;562863;3286;
2024-05-02T17:58:57.637;537866943313074101;449776;517323;562647;3251;
2024-05-02T17:58:57.656;537866943331240667;449599;517077;562425;3211;
2024-05-02T17:58:57.674;537866943349407233;449537;516921;562236;3216;
2024-05-02T17:58:57.692;537866943367573799;449363;516749;562079;3227;
2024-05-02T17:58:57.710;537866943385740365;449241;516588;561967;3235;
2024-05-02T17:58:57.728;537866943403906931;449144;516364;561807;3218;
2024-05-02T17:58:57.746;537866943422073497;448959;516195;561636;3230;
2024-05-02T17:58:57.765;537866943440240063;448844;516013;561300;3211;
2024-05-02T17:58:57.783;537866943458406629;448748;515827;561205;3282;
2024-05-02T17:58:57.801;537866943476573195;448602;515615;561123;3241;
2024-05-02T17:58:57.819;537866943494739761;448541;515485;560997;3235;
2024-05-02T17:58:57.837;537866943512906327;448463;515443;560899;3216;
2024-05-02T17:58:57.855;537866943531072893;448371;515296;560790;3191;
2024-05-02T17:58:57.874;537866943549239459;448391;515230;560734;3287;
2024-05-02T17:58:57.892;537866943567406025;448365;515223;560705;3232;
2024-05-02T17:58:57.910;537866943585572591;448378;515161;560619;3252;
2024-05-02T17:58:57.928;537866943603739157;448395;515186;560593;3316;
2024-05-02T17:58:57.946;537866943621905723;448372;515070;560585;3237;
2024-05-02T17:58:57.964;537866943640072289;448304;515001;560557;3221;
2024-05-02T17:58:57.983;537866943658238855;448348;514986;560611;3228;
2024-05-02T17:58:58.001;537866943676405421;448368;514892;560535;3231;
2024-05-02T17:58:58.019;537866943694572398;448348;514847;560540;3239;
2024-05-02T17:58:58.037;537866943712739343;448354;514888;560539;3236;
2024-05-02T17:58:58.055;537866943730906288;448380;514902;560591;3294;
2024-05-02T17:58:58.073;537866943749073233;448454;514893;560572;3262;
2024-05-02T17:58:58.092;537866943767240178;448453;514915;560558;3259;
2024-05-02T17:58:58.110;537866943785407123;448532;514899;560623;3225;
2024-05-02T17:58:58.128;537866943803574068;448546;514898;560595;3237;
2024-05-02T17:58:58.146;537866943821741013;448653;514893;560698;3226;
2024-05-02T17:58:58.164;537866943839907958;448641;514956;560678;3251;
2024-05-02T17:58:58.182;537866943858074903;448701;515054;560791;3254;
2024-05-02T17:58:58.201;537866943876241848;448692;515082;560854;3225;
2024-05-02T17:58:58.219;537866943894408793;448774;515059;560896;3281;
2024-05-02T17:58:58.237;537866943912575738;448840;515162;560930;3273;
2024-05-02T17:58:58.255;537866943930742683;448942;515172;560990;3226;
2024-05-02T17:58:58.273;537866943948909628;449023;515281;561151;3272;
2024-05-02T17:58:58.291;537866943967076573;449089;515357;561182;3242;
2024-05-02T17:58:58.310;537866943985243518;449194;515408;561282;3222;
2024-05-02T17:58:58.328;537866944003410463;449269;515492;561374;3219;
2024-05-02T17:58:58.346;537866944021577408;449413;515578;561414;3232;
2024-05-02T17:58:58.364;537866944039744353;449427;515488;561492;3179;
2024-05-02T17:58:58.382;537866944057911298;449245;515264;561308;3249;
2024-05-02T17:58:58.400;537866944076078243;448779;514772;560891;3226;
2024-05-02T17:58:58.419;537866944094245188;448393;514295;560422;3268;
2024-05-02T17:58:58.437;537866944112412133;447961;513700;559926;3187;
2024-05-02T17:58:58.455;537866944130579078;447590;513191;559471;3264;
2024-05-02T17:58:58.473;537866944148746023;447253;512801;559091;3233;
2024-05-02T17:58:58.491;537866944166912968;447045;512480;558760;3234;
2024-05-02T17:58:58.509;537866944185079913;446896;512130;558427;3175;
2024-05-02T17:58:58.528;537866944203246858;446669;511918;558255;3237;
2024-05-02T17:58:58.546;537866944221413803;446597;511773;558021;3262;
2024-05-02T17:58:58.564;537866944239580748;446408;511466;557727;3234;
2024-05-02T17:58:58.582;537866944257747693;446191;511176;557525;3200;
2024-05-02T17:58:58.600;537866944275914638;446021;510942;557207;3277;
2024-05-02T17:58:58.618;537866944294081583;445809;510721;556991;3284;
2024-05-02T17:58:58.637;537866944312248528;445697;510551;556834;3236;
2024-05-02T17:58:58.655;537866944330415473;445543;510298;556634;3198;
2024-05-02T17:58:58.673;537866944348582418;445420;510110;556463;3200;
2024-05-02T17:58:58.691;537866944366749363;445298;509900;556261;3201;
2024-05-02T17:58:58.709;537866944384916308;445122;509680;555956;3166;
2024-05-02T17:58:58.727;537866944403083253;445024;509532;555896;3241;
2024-05-02T17:58:58.746;537866944421249873;444819;509324;555688;3227;
2024-05-02T17:58:58.764;537866944439416475;444702;509186;555512;3225;
2024-05-02T17:58:58.782;537866944457583077;444595;509026;555394;3228;
2024-05-02T17:58:58.800;537866944475749679;444637;508988;555207;3249;
2024-05-02T17:58:58.818;537866944493916281;444532;508814;555098;3208;
2024-05-02T17:58:58.836;537866944512082883;444513;508795;555062;3237;
2024-05-02T17:58:58.855;537866944530249485;444470;508727;554945;3250;
2024-05-02T17:58:58.873;537866944548416087;444498;508731;554980;3231;
2024-05-02T17:58:58.891;537866944566582689;444499;508714;554882;3209;
2024-05-02T17:58:58.909;537866944584749291;444496;508661;554879;3179;
2024-05-02T17:58:58.927;537866944602915893;444489;508656;554808;3247;
2024-05-02T17:58:58.945;537866944621082495;444390;508610;554759;3220;
2024-05-02T17:58:58.964;537866944639249097;444459;508589;554699;3208;
2024-05-02T17:58:58.982;537866944657415699;444514;508674;554725;3270;
2024-05-02T17:58:59.000;537866944675582301;444512;508648;554718;3251;
2024-05-02T17:58:59.018;537866944693748903;444565;508596;554650;3227;
2024-05-02T17:58:59.036;537866944711915505;444584;508698;554631;3226;
2024-05-02T17:58:59.054;537866944730082107;444635;508668;554659;3226;
2024-05-02T17:58:59.073;537866944748248709;444591;508712;554679;3253;
2024-05-02T17:58:59.091;537866944766415311;444663;508721;554737;3266;
2024-05-02T17:58:59.109;537866944784581913;444739;508687;554736;3261;
2024-05-02T17:58:59.127;537866944802748515;444815;508759;554778;3245;
2024-05-02T17:58:59.145;537866944820915117;444824;508815;554742;3250;
2024-05-02T17:58:59.163;537866944839081719;444893;508924;554832;3182;
2024-05-02T17:58:59.182;537866944857248321;444970;509028;554985;3249;
2024-05-02T17:58:59.200;537866944875414923;445024;509006;554967;3242;
2024-05-02T17:58:59.218;537866944893581525;445237;509163;555023;3260;
2024-05-02T17:58:59.236;537866944911748127;445253;509274;555117;3255;
2024-05-02T17:58:59.254;537866944929914729;445258;509250;555124;3209;
2024-05-02T17:58:59.272;537866944948081331;445380;509376;555243;3183;
2024-05-02T17:58:59.291;537866944966247933;445520;509499;555301;3178;
2024-05-02T17:58:59.309;537866944984414535;445608;509578;555392;3231;
2024-05-02T17:58:59.327;537866945002581137;445830;509731;555534;3239;
2024-05-02T17:58:59.345;537866945020747739;445839;509693;555587;3199;
2024-05-02T17:58:59.363;537866945038914341;445706;509592;555497;3159;
2024-05-02T17:58:59.381;537866945057080943;445472;509259;555193;3224;
2024-05-02T17:58:59.400;537866945075247545;445050;508818;554815;3168;
2024-05-02T17:58:59.418;537866945093414147;444665;508281;554360;3238;
2024-05-02T17:58:59.436;537866945111580749;444227;507740;553787;3212;
2024-05-02T17:58:59.454;537866945129747351;443861;507341;553359;3136;
2024-05-02T17:58:59.472;537866945147912883;443679;507023;553007;3177;
2024-05-02T17:58:59.490;537866945166078395;443447;506735;552631;3221;
2024-05-02T17:58:59.509;537866945184243907;443296;506480;552437;3190;
2024-05-02T17:58:59.527;537866945202409419;443086;506272;552223;3158;
2024-05-02T17:58:59.545;537866945220574931;442997;506062;552126;3210;
2024-05-02T17:58:59.563;537866945238740443;442927;505954;551850;3200;
2024-05-02T17:58:59.581;537866945256905955;442761;505712;551608;3130;
2024-05-02T17:58:59.599;537866945275071467;442657;505553;551484;3194;
2024-05-02T17:58:59.618;537866945293236979;442524;505460;551307;3169;
2024-05-02T17:58:59.636;537866945311402491;442428;505251;551103;3228;
2024-05-02T17:58:59.654;537866945329568003;442350;505071;551016;3222;
2024-05-02T17:58:59.672;537866945347733515;442228;504917;550786;3168;
2024-05-02T17:58:59.690;537866945365899027;442112;504748;550648;3184;
2024-05-02T17:58:59.708;537866945384064539;442048;504693;550536;3247;
2024-05-02T17:58:59.727;537866945402230051;441856;504573;550308;3211;
2024-05-02T17:58:59.745;537866945420395563;441800;504391;550136;3233;
2024-05-02T17:58:59.763;537866945438561075;441741;504292;550068;3204;
2024-05-02T17:58:59.781;537866945456726587;441663;504165;549985;3185;
2024-05-02T17:58:59.799;537866945474892099;441659;504083;549965;3201;
2024-05-02T17:58:59.817;537866945493057611;441686;504018;549846;3170;
2024-05-02T17:58:59.836;537866945511223123;441682;504029;549794;3141;
2024-05-02T17:58:59.854;537866945529388635;441743;504100;549864;3194;
2024-05-02T17:58:59.872;537866945547554147;441693;503961;549839;3175;
2024-05-02T17:58:59.890;537866945565719659;441756;504070;549817;3201;
2024-05-02T17:58:59.908;537866945583885171;441783;504142;549832;3208;
2024-05-02T17:58:59.926;537866945602050683;441838;504189;549895;3196;
2024-05-02T17:58:59.945;537866945620216195;441828;504158;549917;3173;
2024-05-02T17:58:59.963;537866945638381707;441946;504157;549938;3208;
2024-05-02T17:58:59.981;537866945656547219;441978;504163;549934;3205;
2024-05-02T17:58:59.999;537866945674712731;442023;504209;550022;3295;
2024-05-02T17:59:00.017;537866945692878243;442066;504222;550009;3194;
2024-05-02T17:59:00.035;537866945711043755;442188;504376;550112;3204;
2024-05-02T17:59:00.054;537866945729209267;442183;504326;550158;3163;
2024-05-02T17:59:00.072;537866945747374779;442206;504425;550178;3246;
2024-05-02T17:59:00.090;537866945765540291;442312;504510;550242;3197;
2024-05-02T17:59:00.108;537866945783705803;442356;504546;550316;3177;
2024-05-02T17:59:00.126;537866945801871315;442443;504660;550414;3175;
2024-05-02T17:59:00.144;537866945820036827;442630;504739;550595;3195;
2024-05-02T17:59:00.163;537866945838202339;442732;504852;550667;3140;
2024-05-02T17:59:00.181;537866945856367851;442849;504935;550767;3174;
2024-05-02T17:59:00.199;537866945874533363;442959;505046;550960;3182;
2024-05-02T17:59:00.217;537866945892698875;443110;505132;551090;3219;
2024-05-02T17:59:00.235;537866945910863537;443105;505104;551170;3168;
2024-05-02T17:59:00.253;537866945929028177;443016;504871;551061;3188;
2024-05-02T17:59:00.272;537866945947192817;442735;504579;550745;3218;
2024-05-02T17:59:00.290;537866945965357457;442332;504091;550385;3180;
2024-05-02T17:59:00.308;537866945983522097;441952;503612;549986;3142;
2024-05-02T17:59:00.326;537866946001686737;441498;503128;549590;3177;
2024-05-02T17:59:00.344;537866946019851377;441325;502733;549241;3237;
2024-05-02T17:59:00.362;537866946038016017;441136;502343;548930;3177;
2024-05-02T17:59:00.381;537866946056180657;440908;502229;548717;3187;
2024-05-02T17:59:00.399;537866946074345297;440867;502015;548613;3224;
2024-05-02T17:59:00.417;537866946092509937;440739;501843;548472;3213;
2024-05-02T17:59:00.435;537866946110674577;440650;501725;548307;3229;
2024-05-02T17:59:00.453;537866946128839217;440577;501626;548220;3241;
2024-05-02T17:59:00.471;537866946147003857;440551;501524;548142;3285;
2024-05-02T17:59:00.490;537866946165168497;440477;501361;548050;3193;
2024-05-02T17:59:00.508;537866946183333137;440342;501251;547911;3169;
2024-05-02T17:59:00.526;537866946201497777;440306;501138;547840;3167;
2024-05-02T17:59:00.544;537866946219662417;440189;500974;547716;3164;
2024-05-02T17:59:00.562;537866946237827057;440058;500779;547584;3198;
2024-05-02T17:59:00.580;537866946255991697;440030;500699;547428;3176;
2024-05-02T17:59:00.599;537866946274156337;439913;500541;547361;3173;
2024-05-02T17:59:00.617;537866946292320977;439837;500402;547337;3194;
2024-05-02T17:59:00.635;537866946310485617;439823;500272;547231;3237;
2024-05-02T17:59:00.653;537866946328650257;439793;500234;547228;3209;
2024-05-02T17:59:00.671;537866946346814897;439798;500133;547185;3167;
2024-05-02T17:59:00.689;537866946364979537;439872;500188;547158;3178;
2024-05-02T17:59:00.708;537866946383144177;439842;500121;547197;3180;
2024-05-02T17:59:00.726;537866946401308817;439838;500173;547328;3179;
2024-05-02T17:59:00.744;537866946419473457;439906;500198;547369;3171;
2024-05-02T17:59:00.762;537866946437638097;439991;500236;547396;3220;
2024-05-02T17:59:00.780;537866946455802737;440091;500303;547464;3231;
2024-05-02T17:59:00.798;537866946473967377;440095;500359;547498;3238;
2024-05-02T17:59:00.817;537866946492132017;440135;500420;547437;3165;
2024-05-02T17:59:00.835;537866946510296657;440183;500495;547576;3179;
2024-05-02T17:59:00.853;537866946528461297;440312;500548;547699;3208;
2024-05-02T17:59:00.871;537866946546625937;440349;500608;547714;3153;
2024-05-02T17:59:00.889;537866946564790577;440483;500693;547815;3176;
2024-05-02T17:59:00.907;537866946582955217;440555;500850;547928;3207;
2024-05-02T17:59:00.926;537866946601119857;440643;500951;548019;3149;
2024-05-02T17:59:00.944;537866946619284497;440786;500978;548174;3249;
2024-05-02T17:59:00.962;537866946637449137;440904;501058;548312;3220;
2024-05-02T17:59:00.980;537866946655613777;440930;501162;548365;3208;
2024-05-02T17:59:00.998;537866946673778114;441048;501207;548535;3217;
2024-05-02T17:59:01.016;537866946691942427;441082;501360;548599;3193;
2024-05-02T17:59:01.035;537866946710106740;441244;501494;548716;3204;
2024-05-02T17:59:01.053;537866946728271053;441273;501558;548806;3171;
2024-05-02T17:59:01.071;537866946746435366;441496;501725;548995;3212;
2024-05-02T17:59:01.089;537866946764599679;441557;501826;549102;3185;
2024-05-02T17:59:01.107;537866946782763992;441584;501787;549135;3164;
2024-05-02T17:59:01.125;537866946800928305;441390;501564;548901;3136;
2024-05-02T17:59:01.143;537866946819092618;440965;501162;548505;3168;
2024-05-02T17:59:01.162;537866946837256931;440595;500564;548128;3199;
2024-05-02T17:59:01.180;537866946855421244;440107;499963;547579;3173;
2024-05-02T17:59:01.198;537866946873585557;439739;499478;547150;3205;
2024-05-02T17:59:01.216;537866946891749870;439357;498984;546636;3165;
2024-05-02T17:59:01.234;537866946909914183;438998;498610;546291;3114;
2024-05-02T17:59:01.252;537866946928078496;438905;498338;546013;3141;
2024-05-02T17:59:01.271;537866946946242809;438679;498072;545800;3153;
2024-05-02T17:59:01.289;537866946964407122;438538;497805;545529;3183;
2024-05-02T17:59:01.307;537866946982571435;438386;497632;545310;3174;
2024-05-02T17:59:01.325;537866947000735748;438206;497416;545092;3182;
2024-05-02T17:59:01.343;537866947018900061;437970;497106;544808;3178;
2024-05-02T17:59:01.361;537866947037064374;437838;496909;544570;3199;
2024-05-02T17:59:01.380;537866947055228687;437631;496744;544391;3169;
2024-05-02T17:59:01.398;537866947073393000;437560;496564;544228;3186;
2024-05-02T17:59:01.416;537866947091557313;437417;496360;543987;3202;
2024-05-02T17:59:01.434;537866947109721626;437309;496138;543825;3176;
2024-05-02T17:59:01.452;537866947127885939;437151;496028;543622;3143;
2024-05-02T17:59:01.470;537866947146050252;437053;495847;543467;3186;
2024-05-02T17:59:01.489;537866947164214565;436880;495695;543340;3147;
2024-05-02T17:59:01.507;537866947182378878;436776;495523;543147;3199;
2024-05-02T17:59:01.525;537866947200543191;436671;495424;542980;3136;
2024-05-02T17:59:01.543;537866947218707504;436581;495305;542894;3156;
2024-05-02T17:59:01.561;537866947236871817;436617;495307;542915;3190;
2024-05-02T17:59:01.579;537866947255036130;436589;495224;542872;3180;
2024-05-02T17:59:01.598;537866947273200443;436608;495202;542882;3194;
2024-05-02T17:59:01.616;537866947291364756;436598;495206;542865;3154;
2024-05-02T17:59:01.634;537866947309529069;436596;495212;542843;3158;
2024-05-02T17:59:01.652;537866947327693382;436678;495269;542745;3146;
2024-05-02T17:59:01.670;537866947345859285;436731;495304;542839;3184;
2024-05-02T17:59:01.688;537866947364025163;436733;495319;542875;3180;
2024-05-02T17:59:01.707;537866947382191041;436832;495433;542942;3193;
2024-05-02T17:59:01.725;537866947400356919;436854;495385;542905;3230;
2024-05-02T17:59:01.743;537866947418522797;436917;495498;543062;3185;
2024-05-02T17:59:01.761;537866947436688675;436927;495536;543050;3174;
2024-05-02T17:59:01.779;537866947454854553;437032;495600;543101;3159;
2024-05-02T17:59:01.797;537866947473020431;437083;495627;543153;3181;
2024-05-02T17:59:01.816;537866947491186309;437245;495785;543264;3221;
2024-05-02T17:59:01.834;537866947509352187;437269;495838;543323;3226;
2024-05-02T17:59:01.852;537866947527518065;437299;495934;543386;3217;
2024-05-02T17:59:01.870;537866947545683943;437404;496083;543398;3171;
2024-05-02T17:59:01.888;537866947563849821;437494;496135;543518;3199;
2024-05-02T17:59:01.906;537866947582015699;437589;496300;543689;3234;
2024-05-02T17:59:01.925;537866947600181577;437715;496363;543755;3195;
2024-05-02T17:59:01.943;537866947618347455;437776;496457;543846;3178;
2024-05-02T17:59:01.961;537866947636513333;437967;496600;544004;3224;
2024-05-02T17:59:01.979;537866947654679211;438065;496794;544111;3196;
2024-05-02T17:59:01.997;537866947672845089;438209;496860;544243;3230;
2024-05-02T17:59:02.015;537866947691010967;438117;496747;544193;3268;
2024-05-02T17:59:02.034;537866947709176845;437766;496281;543870;3261;
2024-05-02T17:59:02.052;537866947727342723;437291;495790;543398;3218;
2024-05-02T17:59:02.070;537866947745508601;436835;495284;542762;3207;
2024-05-02T17:59:02.088;537866947763674479;436444;494742;542273;3204;
2024-05-02T17:59:02.106;537866947781840357;436097;494227;541812;3229;
2024-05-02T17:59:02.124;537866947800006235;435692;493845;541324;3243;
2024-05-02T17:59:02.143;537866947818172113;435474;493509;541043;3248;
2024-05-02T17:59:02.161;537866947836337991;435290;493301;540793;3264;
2024-05-02T17:59:02.179;537866947854503869;435142;493076;540427;3204;
2024-05-02T17:59:02.197;537866947872669747;434920;492918;540131;3178;
2024-05-02T17:59:02.215;537866947890835625;434692;492654;539904;3276;
2024-05-02T17:59:02.233;537866947909001503;434480;492372;539548;3203;
2024-05-02T17:59:02.252;537866947927167381;434321;492194;539372;3241;
2024-05-02T17:59:02.270;537866947945333259;434232;492100;539124;3258;
2024-05-02T17:59:02.288;537866947963499137;434059;491872;538894;3252;
2024-05-02T17:59:02.306;537866947981665015;433894;491714;538769;3232;
2024-05-02T17:59:02.324;537866947999830893;433824;491584;538572;3256;
2024-05-02T17:59:02.342;537866948017996771;433674;491454;538368;3227;
2024-05-02T17:59:02.361;537866948036162649;433550;491356;538216;3186;
2024-05-02T17:59:02.379;537866948054327750;433432;491209;537929;3160;
2024-05-02T17:59:02.397;537866948072492846;433363;491055;537716;3251;
2024-05-02T17:59:02.415;537866948090657942;433208;490977;537652;3236;
2024-05-02T17:59:02.433;537866948108823038;433143;490885;537548;3227;
2024-05-02T17:59:02.451;537866948126988134;433123;490899;537486;3221;
2024-05-02T17:59:02.470;537866948145153230;433078;490789;537394;3177;
2024-05-02T17:59:02.488;537866948163318326;433092;490834;537402;3191;
2024-05-02T17:59:02.506;537866948181483422;433107;490807;537317;3168;
2024-05-02T17:59:02.524;537866948199648518;433154;490906;537367;3174;
2024-05-02T17:59:02.542;537866948217813614;433222;490944;537294;3183;
2024-05-02T17:59:02.560;537866948235978710;433207;490973;537347;3168;
2024-05-02T17:59:02.579;537866948254143806;433282;491069;537352;3168;
2024-05-02T17:59:02.597;537866948272308902;433315;491190;537361;3185;
2024-05-02T17:59:02.615;537866948290473998;433294;491181;537307;3224;
2024-05-02T17:59:02.633;537866948308639094;433392;491336;537355;3215;
2024-05-02T17:59:02.651;537866948326804190;433434;491335;537446;3220;
2024-05-02T17:59:02.669;537866948344969286;433475;491407;537495;3228;
2024-05-02T17:59:02.688;537866948363134382;433622;491466;537519;3199;
2024-05-02T17:59:02.706;537866948381299478;433668;491549;537525;3178;
2024-05-02T17:59:02.724;537866948399464574;433787;491702;537605;3193;
2024-05-02T17:59:02.742;537866948417629670;433868;491799;537649;3229;
2024-05-02T17:59:02.760;537866948435794766;433929;491950;537661;3174;
2024-05-02T17:59:02.778;537866948453959862;434033;492007;537753;3175;
2024-05-02T17:59:02.797;537866948472124958;434164;492172;537856;3202;
2024-05-02T17:59:02.815;537866948490290054;434184;492335;537980;3165;
2024-05-02T17:59:02.833;537866948508455150;434327;492450;538074;3219;
2024-05-02T17:59:02.851;537866948526620246;434442;492662;538172;3229;
2024-05-02T17:59:02.869;537866948544785342;434585;492859;538295;3205;
2024-05-02T17:59:02.887;537866948562950438;434761;493006;538417;3193;
2024-05-02T17:59:02.906;537866948581115534;434773;493059;538552;3232;
2024-05-02T17:59:02.924;537866948599280630;434651;492889;538396;3178;
2024-05-02T17:59:02.942;537866948617445726;434333;492484;538035;3180;
2024-05-02T17:59:02.960;537866948635610822;433980;492007;537542;3181;
2024-05-02T17:59:02.978;537866948653775918;433498;491456;537098;3145;
2024-05-02T17:59:02.996;537866948671941014;433154;491010;536619;3153;
2024-05-02T17:59:03.015;537866948690106110;432805;490666;536270;3147;
2024-05-02T17:59:03.033;537866948708271206;432682;490382;535944;3129;
2024-05-02T17:59:03.051;537866948726436302;432538;490243;535746;3173;
2024-05-02T17:59:03.069;537866948744601398;432408;490121;535534;3210;
2024-05-02T17:59:03.087;537866948762766183;432325;489976;535395;3184;
2024-05-02T17:59:03.105;537866948780930954;432232;489847;535174;3127;
2024-05-02T17:59:03.123;537866948799095725;432071;489765;535042;3151;
2024-05-02T17:59:03.142;537866948817260496;432031;489665;534957;3175;
2024-05-02T17:59:03.160;537866948835425267;431853;489517;534794;3159;
2024-05-02T17:59:03.178;537866948853590038;431847;489483;534701;3115;
2024-05-02T17:59:03.196;537866948871754809;431752;489430;534564;3170;
2024-05-02T17:59:03.214;537866948889919580;431694;489288;534482;3158;
2024-05-02T17:59:03.232;537866948908084351;431626;489224;534376;3238;
2024-05-02T17:59:03.251;537866948926249122;431500;489072;534166;3236;
2024-05-02T17:59:03.269;537866948944413893;431494;489065;534151;3195;
2024-05-02T17:59:03.287;537866948962578664;431383;488985;534046;3173;
2024-05-02T17:59:03.305;537866948980743435;431384;488948;533942;3174;
2024-05-02T17:59:03.323;537866948998908206;431298;488906;533908;3146;
2024-05-02T17:59:03.341;537866949017072977;431305;488836;533922;3145;
2024-05-02T17:59:03.360;537866949035237748;431371;488902;533963;3144;
2024-05-02T17:59:03.378;537866949053402519;431455;488982;534011;3211;
2024-05-02T17:59:03.396;537866949071567290;431445;489035;534097;3196;
2024-05-02T17:59:03.414;537866949089732061;431532;489147;534132;3225;
2024-05-02T17:59:03.432;537866949107896832;431583;489236;534220;3183;
2024-05-02T17:59:03.450;537866949126061603;431747;489302;534343;3227;
2024-05-02T17:59:03.469;537866949144226374;431826;489406;534365;3244;
2024-05-02T17:59:03.487;537866949162391145;431931;489484;534428;3258;
2024-05-02T17:59:03.505;537866949180555916;432074;489631;534613;3204;
2024-05-02T17:59:03.523;537866949198720687;432156;489800;534751;3262;
2024-05-02T17:59:03.541;537866949216885458;432198;489868;534876;3230;
2024-05-02T17:59:03.559;537866949235050229;432240;489984;534984;3215;
2024-05-02T17:59:03.578;537866949253215000;432445;490093;535109;3212;
2024-05-02T17:59:03.596;537866949271379771;432560;490284;535306;3279;
2024-05-02T17:59:03.614;537866949289544542;432712;490357;535440;3218;
2024-05-02T17:59:03.632;537866949307709313;432848;490537;535611;3215;
2024-05-02T17:59:03.650;537866949325874084;432962;490606;535751;3250;
2024-05-02T17:59:03.668;537866949344038855;433072;490730;535878;3227;
2024-05-02T17:59:03.687;537866949362203626;433260;490969;536078;3293;
2024-05-02T17:59:03.705;537866949380368397;433439;491070;536237;3323;
2024-05-02T17:59:03.723;537866949398533168;433558;491263;536451;3283;
2024-05-02T17:59:03.741;537866949416697939;433705;491413;536652;3293;
2024-05-02T17:59:03.759;537866949434862710;433839;491583;536789;3262;
2024-05-02T17:59:03.777;537866949453027481;433789;491459;536798;3242;
2024-05-02T17:59:03.796;537866949471192252;433554;491128;536615;3266;
2024-05-02T17:59:03.814;537866949489357397;433274;490736;536233;3308;
2024-05-02T17:59:03.832;537866949507522532;432856;490213;535749;3314;
2024-05-02T17:59:03.850;537866949525687667;432478;489793;535314;3289;
2024-05-02T17:59:03.868;537866949543852802;432149;489388;534968;3306;
2024-05-02T17:59:03.886;537866949562017937;431922;489090;534646;3273;
2024-05-02T17:59:03.905;537866949580183072;431770;488896;534513;3303;
2024-05-02T17:59:03.923;537866949598348207;431786;488756;534375;3295;
2024-05-02T17:59:03.941;537866949616513342;431672;488682;534237;3293;
2024-05-02T17:59:03.959;537866949634678477;431554;488543;534117;3297;
2024-05-02T17:59:03.977;537866949652843612;431363;488358;533902;3329;
2024-05-02T17:59:03.995;537866949671008747;431275;488205;533755;3327;
2024-05-02T17:59:04.014;537866949689173882;431102;488086;533580;3300;
2024-05-02T17:59:04.032;537866949707339017;431038;487987;533420;3294;
2024-05-02T17:59:04.050;537866949725504152;431004;487908;533381;3262;
2024-05-02T17:59:04.068;537866949743669287;430877;487919;533309;3272;
2024-05-02T17:59:04.086;537866949761834422;430974;487904;533330;3325;
2024-05-02T17:59:04.104;537866949779999557;430879;487843;533153;3304;
2024-05-02T17:59:04.123;537866949798164692;430798;487751;533096;3316;
2024-05-02T17:59:04.141;537866949816329827;430744;487710;533017;3298;
2024-05-02T17:59:04.159;537866949834494962;430682;487684;533007;3346;
2024-05-02T17:59:04.177;537866949852660097;430568;487652;532836;3279;
2024-05-02T17:59:04.195;537866949870825232;430648;487692;532949;3303;
2024-05-02T17:59:04.213;537866949888990367;430720;487770;532955;3307;
2024-05-02T17:59:04.232;537866949907155502;430730;487771;532994;3301;
2024-05-02T17:59:04.250;537866949925320637;430726;487863;533024;3314;
2024-05-02T17:59:04.268;537866949943485772;430813;487917;533109;3308;
2024-05-02T17:59:04.286;537866949961650907;430937;488076;533186;3327;
2024-05-02T17:59:04.304;537866949979816042;431081;488263;533318;3320;
2024-05-02T17:59:04.322;537866949997981177;431129;488355;533393;3384;
2024-05-02T17:59:04.341;537866950016146312;431142;488449;533489;3341;
2024-05-02T17:59:04.359;537866950034311447;431290;488620;533598;3354;
2024-05-02T17:59:04.377;537866950052476582;431402;488698;533698;3334;
2024-05-02T17:59:04.395;537866950070641717;431461;488851;533853;3329;
2024-05-02T17:59:04.413;537866950088806852;431570;489022;533984;3270;
2024-05-02T17:59:04.431;537866950106971987;431711;489132;534060;3270;
2024-05-02T17:59:04.450;537866950125137122;431812;489299;534195;3355;
2024-05-02T17:59:04.468;537866950143302257;431855;489431;534354;3325;
2024-05-02T17:59:04.486;537866950161467392;432050;489572;534483;3330;
2024-05-02T17:59:04.504;537866950179632527;432185;489693;534632;3310;
2024-05-02T17:59:04.522;537866950197797459;432258;489945;534807;3304;
2024-05-02T17:59:04.540;537866950215962353;432446;490069;534995;3325;
2024-05-02T17:59:04.559;537866950234127247;432651;490186;535158;3298;
2024-05-02T17:59:04.577;537866950252292141;432764;490390;535379;3301;
2024-05-02T17:59:04.595;537866950270457035;432930;490611;535571;3338;
2024-05-02T17:59:04.613;537866950288621929;433149;490809;535749;3356;
2024-05-02T17:59:04.631;537866950306786823;433302;491018;535986;3337;
2024-05-02T17:59:04.649;537866950324951717;433405;491162;536156;3318;
2024-05-02T17:59:04.668;537866950343116611;433617;491432;536333;3338;
2024-05-02T17:59:04.686;537866950361281505;433669;491507;536449;3325;
2024-05-02T17:59:04.704;537866950379446399;433526;491387;536331;3322;
2024-05-02T17:59:04.722;537866950397611293;433220;491055;536002;3299;
2024-05-02T17:59:04.740;537866950415776187;432861;490744;535574;3320;
2024-05-02T17:59:04.758;537866950433941081;432446;490283;535112;3328;
2024-05-02T17:59:04.777;537866950452105975;432102;489951;534674;3322;
2024-05-02T17:59:04.795;537866950470270869;431877;489719;534411;3322;
2024-05-02T17:59:04.813;537866950488435763;431797;489611;534218;3290;
2024-05-02T17:59:04.831;537866950506600657;431631;489458;534092;3273;
2024-05-02T17:59:04.849;537866950524765551;431614;489371;533890;3307;
2024-05-02T17:59:04.867;537866950542930445;431521;489409;533746;3328;
2024-05-02T17:59:04.885;537866950561095339;431430;489313;533601;3287;
2024-05-02T17:59:04.904;537866950579260233;431305;489245;533414;3273;
2024-05-02T17:59:04.922;537866950597425127;431130;489168;533267;3266;
2024-05-02T17:59:04.940;537866950615590021;431119;489096;533160;3303;
2024-05-02T17:59:04.958;537866950633754915;430982;489115;533033;3241;
2024-05-02T17:59:04.976;537866950651919809;430977;489171;532987;3259;
2024-05-02T17:59:04.994;537866950670084703;431008;489145;532925;3261;
2024-05-02T17:59:05.013;537866950688249597;430916;489194;532835;3239;
2024-05-02T17:59:05.031;537866950706414491;430899;489222;532787;3234;
2024-05-02T17:59:05.049;537866950724579385;430821;489236;532682;3267;
2024-05-02T17:59:05.067;537866950742744279;430813;489230;532610;3259;
2024-05-02T17:59:05.085;537866950760909173;430805;489259;532505;3295;
2024-05-02T17:59:05.103;537866950779074067;430821;489348;532550;3260;
2024-05-02T17:59:05.122;537866950797238961;430854;489342;532526;3244;
2024-05-02T17:59:05.140;537866950815403855;430944;489476;532563;3258;
2024-05-02T17:59:05.158;537866950833568749;431035;489597;532675;3279;
2024-05-02T17:59:05.176;537866950851733643;431113;489719;532761;3249;
2024-05-02T17:59:05.194;537866950869898537;431207;489918;532897;3252;
2024-05-02T17:59:05.212;537866950888063431;431334;490082;533006;3277;
2024-05-02T17:59:05.231;537866950906228325;431417;490128;533108;3229;
2024-05-02T17:59:05.249;537866950924393219;431562;490325;533225;3208;
2024-05-02T17:59:05.267;537866950942558113;431685;490487;533376;3195;
2024-05-02T17:59:05.285;537866950960724683;431846;490741;533546;3299;
2024-05-02T17:59:05.303;537866950978891249;431965;490923;533646;3214;
2024-05-02T17:59:05.321;537866950997057815;432099;491080;533852;3268;
2024-05-02T17:59:05.340;537866951015224381;432188;491220;533960;3232;
2024-05-02T17:59:05.358;537866951033390947;432307;491412;534124;3232;
2024-05-02T17:59:05.376;537866951051557513;432508;491577;534343;3217;
2024-05-02T17:59:05.394;537866951069724079;432679;491785;534505;3195;
2024-05-02T17:59:05.412;537866951087890645;432801;492009;534676;3208;
2024-05-02T17:59:05.430;537866951106057211;432926;492168;534822;3249;
2024-05-02T17:59:05.449;537866951124223777;432986;492349;534951;3229;
2024-05-02T17:59:05.467;537866951142390343;433167;492522;535066;3215;
2024-05-02T17:59:05.485;537866951160556909;433382;492804;535320;3304;
2024-05-02T17:59:05.503;537866951178723475;433517;492988;535384;3260;
2024-05-02T17:59:05.521;537866951196890041;433686;493205;535543;3230;
2024-05-02T17:59:05.539;537866951215056607;433838;493341;535695;3163;
2024-05-02T17:59:05.558;537866951233223173;433969;493538;535922;3182;
2024-05-02T17:59:05.576;537866951251389739;434185;493722;536094;3187;
2024-05-02T17:59:05.594;537866951269556305;434424;494100;536368;3216;
2024-05-02T17:59:05.612;537866951287722871;434487;494260;536573;3168;
2024-05-02T17:59:05.630;537866951305889437;434594;494379;536672;3152;
2024-05-02T17:59:05.648;537866951324056003;434429;494236;536598;3149;
2024-05-02T17:59:05.667;537866951342222569;434230;494029;536384;3203;
2024-05-02T17:59:05.685;537866951360389135;433960;493755;536042;3193;
2024-05-02T17:59:05.703;537866951378555701;433705;493400;535706;3162;
2024-05-02T17:59:05.721;537866951396722267;433511;493323;535494;3167;
2024-05-02T17:59:05.739;537866951414888833;433425;493174;535259;3187;
2024-05-02T17:59:05.757;537866951433055399;433373;493162;535267;3171;
2024-05-02T17:59:05.776;537866951451221965;433342;493201;535212;3167;
2024-05-02T17:59:05.794;537866951469388531;433398;493254;535306;3187;
2024-05-02T17:59:05.812;537866951487555097;433444;493318;535341;3135;
2024-05-02T17:59:05.830;537866951505721663;433477;493360;535331;3112;
2024-05-02T17:59:05.848;537866951523888229;433565;493333;535415;3167;
2024-05-02T17:59:05.866;537866951542054795;433542;493382;535480;3194;
2024-05-02T17:59:05.885;537866951560221361;433638;493455;535527;3186;
2024-05-02T17:59:05.903;537866951578387927;433753;493498;535600;3133;
2024-05-02T17:59:05.921;537866951596554493;433798;493580;535717;3145;
2024-05-02T17:59:05.939;537866951614721059;433764;493659;535706;3148;
2024-05-02T17:59:05.957;537866951632887625;433825;493689;535871;3207;
2024-05-02T17:59:05.975;537866951651054191;433820;493729;535935;3122;
2024-05-02T17:59:05.994;537866951669220757;433850;493740;535935;3164;
2024-05-02T17:59:06.012;537866951687387323;433939;493825;535977;3190;
2024-05-02T17:59:06.030;537866951705553889;433916;493874;536095;3140;
2024-05-02T17:59:06.048;537866951723718560;433962;493912;536210;3148;
2024-05-02T17:59:06.066;537866951741883192;434046;494042;536343;3154;
2024-05-02T17:59:06.084;537866951760047824;434185;494196;536418;3211;
2024-05-02T17:59:06.103;537866951778212456;434254;494322;536566;3157;
2024-05-02T17:59:06.121;537866951796377088;434390;494457;536692;3211;
2024-05-02T17:59:06.139;537866951814541720;434522;494542;536827;3168;
2024-05-02T17:59:06.157;537866951832706352;434654;494727;537008;3220;
2024-05-02T17:59:06.175;537866951850870984;434840;494941;537172;3259;
2024-05-02T17:59:06.193;537866951869035616;434930;495110;537430;3235;
2024-05-02T17:59:06.212;537866951887200248;435008;495281;537562;3220;
2024-05-02T17:59:06.230;537866951905364880;435177;495483;537771;3249;
2024-05-02T17:59:06.248;537866951923529512;435274;495623;537969;3234;
2024-05-02T17:59:06.266;537866951941694144;435445;495721;538076;3232;
2024-05-02T17:59:06.284;537866951959858776;435548;495966;538287;3247;
2024-05-02T17:59:06.302;537866951978023408;435726;496154;538493;3290;
2024-05-02T17:59:06.321;537866951996188040;435922;496279;538687;3276;
2024-05-02T17:59:06.339;537866952014352672;436052;496494;538892;3210;
2024-05-02T17:59:06.357;537866952032517304;436222;496702;539120;3229;
2024-05-02T17:59:06.375;537866952050681936;436363;496861;539300;3227;
2024-05-02T17:59:06.393;537866952068846568;436513;497070;539502;3251;
2024-05-02T17:59:06.411;537866952087011200;436756;497283;539795;3303;
2024-05-02T17:59:06.430;537866952105175832;436984;497538;540090;3301;
2024-05-02T17:59:06.448;537866952123340464;437107;497697;540249;3269;
2024-05-02T17:59:06.466;537866952141505096;437062;497596;540202;3261;
2024-05-02T17:59:06.484;537866952159669728;436837;497454;540077;3301;
2024-05-02T17:59:06.502;537866952177834360;436580;497223;539766;3247;
2024-05-02T17:59:06.520;537866952195998992;436314;496943;539555;3235;
2024-05-02T17:59:06.539;537866952214163624;436088;496732;539387;3230;
2024-05-02T17:59:06.557;537866952232328256;435954;496610;539207;3234;
2024-05-02T17:59:06.575;537866952250492888;435837;496494;539129;3230;
2024-05-02T17:59:06.593;537866952268657520;435870;496560;539045;3262;
2024-05-02T17:59:06.611;537866952286822152;435851;496578;539067;3248;
2024-05-02T17:59:06.629;537866952304986784;435910;496665;539063;3204;
2024-05-02T17:59:06.648;537866952323151416;435847;496660;539060;3251;
2024-05-02T17:59:06.666;537866952341316048;435887;496724;539136;3256;
2024-05-02T17:59:06.684;537866952359480680;435848;496750;539148;3277;
2024-05-02T17:59:06.702;537866952377645312;435856;496813;539186;3278;
2024-05-02T17:59:06.720;537866952395809944;435909;496881;539228;3289;
2024-05-02T17:59:06.738;537866952413974576;435947;496937;539235;3259;
2024-05-02T17:59:06.757;537866952432139208;435915;496939;539282;3229;
2024-05-02T17:59:06.775;537866952450303840;435923;497052;539291;3210;
2024-05-02T17:59:06.793;537866952468468472;435898;497066;539343;3216;
2024-05-02T17:59:06.811;537866952486633104;435998;497157;539373;3245;
2024-05-02T17:59:06.829;537866952504797441;436005;497210;539352;3234;
2024-05-02T17:59:06.847;537866952522961754;436066;497340;539503;3264;
2024-05-02T17:59:06.866;537866952541126067;436160;497403;539559;3169;
2024-05-02T17:59:06.884;537866952559290380;436205;497487;539649;3133;
2024-05-02T17:59:06.902;537866952577454693;436328;497613;539714;3232;
2024-05-02T17:59:06.920;537866952595619006;436422;497717;539831;3290;
2024-05-02T17:59:06.938;537866952613783319;436593;497911;540091;3235;
2024-05-02T17:59:06.956;537866952631947632;436639;498074;540239;3219;
2024-05-02T17:59:06.975;537866952650111945;436717;498209;540380;3204;
2024-05-02T17:59:06.993;537866952668276258;436825;498318;540437;3225;
2024-05-02T17:59:07.011;537866952686440571;436912;498562;540657;3234;
2024-05-02T17:59:07.029;537866952704604884;437110;498790;540809;3218;
2024-05-02T17:59:07.047;537866952722769197;437220;498998;540987;3224;
2024-05-02T17:59:07.065;537866952740933510;437455;499181;541154;3286;
2024-05-02T17:59:07.083;537866952759097823;437533;499287;541310;3247;
2024-05-02T17:59:07.102;537866952777262136;437661;499431;541504;3233;
2024-05-02T17:59:07.120;537866952795426449;437865;499654;541770;3256;
2024-05-02T17:59:07.138;537866952813590762;437997;499809;541964;3214;
2024-05-02T17:59:07.156;537866952831755075;438108;500080;542117;3252;
2024-05-02T17:59:07.174;537866952849919388;438313;500293;542388;3250;
2024-05-02T17:59:07.192;537866952868083701;438473;500430;542545;3183;
2024-05-02T17:59:07.211;537866952886248014;438576;500686;542725;3247;
2024-05-02T17:59:07.229;537866952904412327;438763;500894;542840;3221;
2024-05-02T17:59:07.247;537866952922576640;438980;501116;543087;3267;
2024-05-02T17:59:07.265;537866952940740953;439128;501321;543327;3245;
2024-05-02T17:59:07.283;537866952958905266;439378;501512;543536;3289;
2024-05-02T17:59:07.301;537866952977069579;439521;501767;543756;3303;
2024-05-02T17:59:07.320;537866952995233892;439680;501986;543999;3279;
2024-05-02T17:59:07.338;537866953013398205;439705;502019;544048;3265;
2024-05-02T17:59:07.356;537866953031562518;439585;501874;543967;3301;
2024-05-02T17:59:07.374;537866953049726831;439367;501574;543664;3247;
2024-05-02T17:59:07.392;537866953067891144;439060;501404;543452;3247;
2024-05-02T17:59:07.410;537866953086055457;438779;501114;543243;3295;
2024-05-02T17:59:07.429;537866953104219770;438530;500997;543033;3258;
2024-05-02T17:59:07.447;537866953122384083;438479;500917;542908;3272;
2024-05-02T17:59:07.465;537866953140548396;438435;500944;542852;3256;
2024-05-02T17:59:07.483;537866953158712709;438347;500978;542713;3245;
2024-05-02T17:59:07.501;537866953176877022;438373;501029;542748;3191;
2024-05-02T17:59:07.519;537866953195041335;438366;501094;542710;3185;
2024-05-02T17:59:07.538;537866953213205648;438387;501199;542823;3238;
2024-05-02T17:59:07.556;537866953231369961;438398;501210;542812;3286;
2024-05-02T17:59:07.574;537866953249534274;438399;501221;542782;3291;
2024-05-02T17:59:07.592;537866953267698611;438421;501315;542868;3289;
2024-05-02T17:59:07.610;537866953285862924;438430;501341;542811;3303;
2024-05-02T17:59:07.628;537866953304027237;438398;501347;542849;3235;
2024-05-02T17:59:07.647;537866953322191550;438441;501413;542892;3242;
2024-05-02T17:59:07.665;537866953340355863;438473;501578;543011;3261;
2024-05-02T17:59:07.683;537866953358520176;438498;501552;542974;3269;
2024-05-02T17:59:07.701;537866953376684489;438575;501657;543104;3277;
2024-05-02T17:59:07.719;537866953394848802;438525;501707;543082;3268;
2024-05-02T17:59:07.737;537866953413013115;438586;501757;543100;3256;
2024-05-02T17:59:07.756;537866953431177428;438614;501863;543152;3233;
2024-05-02T17:59:07.774;537866953449341741;438681;501947;543222;3270;
2024-05-02T17:59:07.792;537866953467506054;438750;502108;543380;3214;
2024-05-02T17:59:07.810;537866953485670367;438867;502234;543465;3242;
2024-05-02T17:59:07.828;537866953503834680;439016;502371;543608;3192;
2024-05-02T17:59:07.846;537866953521998993;439066;502545;543752;3216;
2024-05-02T17:59:07.865;537866953540163306;439222;502744;543858;3254;
2024-05-02T17:59:07.883;537866953558327619;439315;502928;543993;3259;
2024-05-02T17:59:07.901;537866953576491932;439453;503114;544155;3268;
2024-05-02T17:59:07.919;537866953594656245;439576;503304;544321;3269;
2024-05-02T17:59:07.937;537866953612820558;439694;503449;544471;3242;
2024-05-02T17:59:07.955;537866953630984871;439841;503630;544558;3281;
2024-05-02T17:59:07.974;537866953649149184;439956;503801;544732;3246;
2024-05-02T17:59:07.992;537866953667313497;440046;503963;544953;3276;
2024-05-02T17:59:08.010;537866953685477810;440154;504138;545082;3251;
2024-05-02T17:59:08.028;537866953703642123;440363;504406;545245;3210;
2024-05-02T17:59:08.046;537866953721806436;440412;504490;545348;3238;
2024-05-02T17:59:08.064;537866953739970749;440594;504695;545508;3271;
2024-05-02T17:59:08.083;537866953758135062;440728;504884;545692;3226;
2024-05-02T17:59:08.101;537866953776299375;440881;505102;545812;3301;
2024-05-02T17:59:08.119;537866953794463688;441021;505310;546026;3277;
2024-05-02T17:59:08.137;537866953812628001;441151;505457;546157;3237;
2024-05-02T17:59:08.155;537866953830792314;441350;505606;546287;3231;
2024-05-02T17:59:08.173;537866953848956627;441479;505884;546517;3255;
2024-05-02T17:59:08.192;537866953867120940;441645;506183;546824;3305;
2024-05-02T17:59:08.210;537866953885285253;441790;506276;546924;3264;
2024-05-02T17:59:08.228;537866953903449566;441824;506314;546935;3218;
2024-05-02T17:59:08.246;537866953921613879;441677;506157;546796;3289;
2024-05-02T17:59:08.264;537866953939778192;441429;505889;546533;3259;
2024-05-02T17:59:08.282;537866953957942505;441139;505710;546239;3236;
2024-05-02T17:59:08.301;537866953976106818;440899;505515;546063;3269;
2024-05-02T17:59:08.319;537866953994271131;440731;505453;545858;3268;
2024-05-02T17:59:08.337;537866954012435444;440654;505360;545755;3251;
2024-05-02T17:59:08.355;537866954030599781;440567;505418;545668;3224;
2024-05-02T17:59:08.373;537866954048764094;440608;505466;545684;3248;
2024-05-02T17:59:08.391;537866954066928407;440599;505460;545619;3234;
2024-05-02T17:59:08.409;537866954085092720;440699;505589;545651;3249;
2024-05-02T17:59:08.428;537866954103257033;440656;505679;545669;3224;
2024-05-02T17:59:08.446;537866954121421346;440683;505763;545700;3220;
2024-05-02T17:59:08.464;537866954139585659;440674;505855;545696;3263;
2024-05-02T17:59:08.482;537866954157749972;440720;505895;545668;3278;
2024-05-02T17:59:08.500;537866954175914285;440790;505961;545733;3323;
2024-05-02T17:59:08.518;537866954194078598;440815;506088;545752;3290;
2024-05-02T17:59:08.537;537866954212242911;440847;506138;545756;3261;
2024-05-02T17:59:08.555;537866954230407224;440890;506193;545839;3242;
2024-05-02T17:59:08.573;537866954248571537;440877;506180;545812;3300;
2024-05-02T17:59:08.591;537866954266735850;440885;506238;545765;3271;
2024-05-02T17:59:08.609;537866954284900163;440875;506336;545865;3245;
2024-05-02T17:59:08.627;537866954303064476;440960;506475;545890;3321;
2024-05-02T17:59:08.646;537866954321228789;441002;506599;545966;3290;
2024-05-02T17:59:08.664;537866954339393102;441041;506646;545959;3265;
2024-05-02T17:59:08.682;537866954357557415;441120;506752;546075;3269;
2024-05-02T17:59:08.700;537866954375721728;441285;506949;546165;3278;
2024-05-02T17:59:08.718;537866954393886041;441327;507040;546290;3289;
2024-05-02T17:59:08.736;537866954412050354;441473;507196;546453;3320;
2024-05-02T17:59:08.755;537866954430214667;441587;507409;546574;3272;
2024-05-02T17:59:08.773;537866954448378980;441736;507567;546690;3286;
2024-05-02T17:59:08.791;537866954466543293;441732;507661;546733;3227;
2024-05-02T17:59:08.809;537866954484707606;441875;507810;546931;3220;
2024-05-02T17:59:08.827;537866954502871919;442022;508014;547014;3276;
2024-05-02T17:59:08.845;537866954521036232;442187;508144;547157;3300;
2024-05-02T17:59:08.864;537866954539200545;442283;508272;547239;3262;
2024-05-02T17:59:08.882;537866954557364858;442373;508415;547380;3263;
2024-05-02T17:59:08.900;537866954575529171;442545;508608;547542;3270;
2024-05-02T17:59:08.918;537866954593693484;442722;508800;547709;3222;
2024-05-02T17:59:08.936;537866954611857797;442833;508947;547870;3268;
2024-05-02T17:59:08.954;537866954630022110;442937;509085;548008;3269;
2024-05-02T17:59:08.973;537866954648186423;443126;509302;548178;3287;
2024-05-02T17:59:08.991;537866954666350736;443260;509427;548373;3301;
2024-05-02T17:59:09.009;537866954684515049;443392;509541;548580;3278;
2024-05-02T17:59:09.027;537866954702679362;443517;509715;548687;3193;
2024-05-02T17:59:09.045;537866954720843675;443683;510007;548946;3264;
2024-05-02T17:59:09.063;537866954739007988;443799;510091;549081;3245;
2024-05-02T17:59:09.082;537866954757172301;443738;510051;548998;3251;
2024-05-02T17:59:09.100;537866954775336650;443552;509864;548849;3254;
2024-05-02T17:59:09.118;537866954793500963;443337;509682;548674;3244;
2024-05-02T17:59:09.136;537866954811665276;443145;509443;548401;3284;
2024-05-02T17:59:09.154;537866954829829589;443014;509305;548214;3241;
2024-05-02T17:59:09.172;537866954847993902;442852;509233;548051;3226;
2024-05-02T17:59:09.191;537866954866158215;442732;509196;547977;3205;
2024-05-02T17:59:09.209;537866954884322528;442707;509209;547949;3199;
2024-05-02T17:59:09.227;537866954902486841;442807;509398;548021;3242;
2024-05-02T17:59:09.245;537866954920651154;442860;509461;548079;3235;
2024-05-02T17:59:09.263;537866954938815467;442872;509466;548098;3198;
2024-05-02T17:59:09.281;537866954956979780;442931;509559;548222;3226;
2024-05-02T17:59:09.300;537866954975144093;443069;509693;548306;3231;
2024-05-02T17:59:09.318;537866954993308406;443070;509750;548313;3161;
2024-05-02T17:59:09.336;537866955011472719;443101;509791;548365;3162;
2024-05-02T17:59:09.354;537866955029637032;443092;509842;548406;3154;
2024-05-02T17:59:09.372;537866955047801345;443085;509856;548373;3161;
2024-05-02T17:59:09.390;537866955065965658;443137;509968;548444;3188;
2024-05-02T17:59:09.409;537866955084129971;443173;509984;548533;3202;
2024-05-02T17:59:09.427;537866955102294284;443141;510034;548498;3159;
2024-05-02T17:59:09.445;537866955120458597;443218;510090;548621;3174;
2024-05-02T17:59:09.463;537866955138622910;443269;510110;548623;3110;
2024-05-02T17:59:09.481;537866955156787223;443362;510277;548723;3145;
2024-05-02T17:59:09.499;537866955174951536;443422;510272;548759;3149;
2024-05-02T17:59:09.518;537866955193115849;443544;510430;548871;3171;
2024-05-02T17:59:09.536;537866955211280162;443570;510596;549025;3177;
2024-05-02T17:59:09.554;537866955229444475;443713;510755;549242;3190;
2024-05-02T17:59:09.572;537866955247608788;443853;510866;549370;3197;
2024-05-02T17:59:09.590;537866955265773101;443978;510991;549492;3166;
2024-05-02T17:59:09.608;537866955283937414;444107;511207;549720;3190;
2024-05-02T17:59:09.626;537866955302101727;444232;511307;549814;3219;
2024-05-02T17:59:09.645;537866955320266040;444383;511419;549996;3169;
2024-05-02T17:59:09.663;537866955338430353;444594;511554;550112;3221;
2024-05-02T17:59:09.681;537866955356594666;444687;511762;550382;3209;
2024-05-02T17:59:09.699;537866955374758979;444805;511840;550496;3209;
2024-05-02T17:59:09.717;537866955392923292;444962;512004;550696;3185;
2024-05-02T17:59:09.735;537866955411087605;445171;512179;550927;3213;
2024-05-02T17:59:09.754;537866955429251918;445288;512292;551041;3204;
2024-05-02T17:59:09.772;537866955447416231;445399;512425;551244;3246;
2024-05-02T17:59:09.790;537866955465580544;445497;512532;551367;3219;
2024-05-02T17:59:09.808;537866955483744857;445698;512736;551582;3205;
2024-05-02T17:59:09.826;537866955501909170;445834;512947;551804;3248;
2024-05-02T17:59:09.844;537866955520073483;446001;513035;551954;3251;
2024-05-02T17:59:09.863;537866955538239283;446199;513212;552150;3278;
2024-05-02T17:59:09.881;537866955556405049;446238;513316;552338;3293;
2024-05-02T17:59:09.899;537866955574570815;446155;513188;552296;3263;
2024-05-02T17:59:09.917;537866955592736581;445892;512919;552034;3222;
2024-05-02T17:59:09.935;537866955610902347;445651;512618;551738;3290;
2024-05-02T17:59:09.953;537866955629068113;445286;512344;551539;3265;
2024-05-02T17:59:09.972;537866955647233879;445139;512195;551361;3203;
2024-05-02T17:59:09.990;537866955665399645;445036;512099;551240;3258;
2024-05-02T17:59:10.008;537866955683565411;445016;512103;551138;3219;
2024-05-02T17:59:10.026;537866955701731177;444986;512033;551094;3287;
2024-05-02T17:59:10.044;537866955719896943;444924;512154;551028;3281;
2024-05-02T17:59:10.062;537866955738062709;444972;512219;551109;3261;
2024-05-02T17:59:10.081;537866955756228475;444987;512217;551123;3238;
2024-05-02T17:59:10.099;537866955774394241;444959;512239;551178;3266;
2024-05-02T17:59:10.117;537866955792560007;444930;512222;551130;3279;
2024-05-02T17:59:10.135;537866955810725773;444924;512195;551181;3237;
2024-05-02T17:59:10.153;537866955828891539;444919;512256;551155;3208;
2024-05-02T17:59:10.171;537866955847057305;445011;512359;551184;3298;
2024-05-02T17:59:10.190;537866955865223071;444942;512387;551129;3247;
2024-05-02T17:59:10.208;537866955883388837;445013;512466;551213;3272;
2024-05-02T17:59:10.226;537866955901554603;444944;512462;551202;3225;
2024-05-02T17:59:10.244;537866955919720369;445000;512441;551188;3245;
2024-05-02T17:59:10.262;537866955937886135;444983;512480;551139;3273;
2024-05-02T17:59:10.280;537866955956051901;444978;512560;551226;3212;
2024-05-02T17:59:10.299;537866955974217667;445082;512622;551371;3276;
2024-05-02T17:59:10.317;537866955992383433;445129;512737;551440;3253;
2024-05-02T17:59:10.335;537866956010549199;445165;512780;551478;3270;
2024-05-02T17:59:10.353;537866956028714965;445303;512935;551615;3235;
2024-05-02T17:59:10.371;537866956046880731;445383;513027;551638;3253;
2024-05-02T17:59:10.389;537866956065046497;445454;513159;551789;3304;
2024-05-02T17:59:10.408;537866956083212263;445545;513278;551858;3250;
2024-05-02T17:59:10.426;537866956101378029;445664;513376;551980;3271;
2024-05-02T17:59:10.444;537866956119543795;445801;513526;552143;3283;
2024-05-02T17:59:10.462;537866956137709561;445886;513671;552211;3336;
2024-05-02T17:59:10.480;537866956155875327;446047;513757;552341;3260;
2024-05-02T17:59:10.498;537866956174041093;446051;513932;552537;3287;
2024-05-02T17:59:10.517;537866956192206859;446176;514029;552748;3280;
2024-05-02T17:59:10.535;537866956210372625;446252;514031;552758;3222;
2024-05-02T17:59:10.553;537866956228538391;446326;514150;552907;3279;
2024-05-02T17:59:10.571;537866956246704157;446527;514299;553108;3324;
2024-05-02T17:59:10.589;537866956264869923;446649;514505;553227;3301;
2024-05-02T17:59:10.607;537866956283035689;446785;514553;553396;3313;
2024-05-02T17:59:10.626;537866956301200026;446851;514760;553530;3319;
2024-05-02T17:59:10.644;537866956319364339;447010;514907;553666;3322;
2024-05-02T17:59:10.662;537866956337528652;447054;515025;553826;3262;
2024-05-02T17:59:10.680;537866956355692965;447225;515137;553966;3272;
2024-05-02T17:59:10.698;537866956373857278;447371;515302;554135;3315;
2024-05-02T17:59:10.716;537866956392021591;447464;515452;554305;3281;
2024-05-02T17:59:10.735;537866956410185904;447674;515653;554527;3281;
2024-05-02T17:59:10.753;537866956428350217;447754;515773;554619;3225;
2024-05-02T17:59:10.771;537866956446514530;447767;515658;554584;3246;
2024-05-02T17:59:10.789;537866956464678843;447533;515463;554420;3271;
