Phone timestamp;sensor timestamp [ns];channel 0;channel 1;channel 2;ambient
2024-05-03T10:10:07.699;537925213268939426;278543;302699;266543;2227;
2024-05-03T10:10:07.717;537925213287107518;278704;302843;266710;2244;
2024-05-03T10:10:07.735;537925213305275610;278838;303023;266902;2201;
2024-05-03T10:10:07.753;537925213323443702;278981;303126;266986;2163;
2024-05-03T10:10:07.771;537925213341611794;279062;303303;267065;2141;
2024-05-03T10:10:07.789;537925213359779886;279166;303382;267109;2060;
2024-05-03T10:10:07.808;537925213377947978;279259;303563;267259;2064;
2024-05-03T10:10:07.826;537925213396116070;279379;303671;267360;2010;
2024-05-03T10:10:07.844;537925213414284162;279494;303803;267449;1972;
2024-05-03T10:10:07.862;537925213432452254;279616;303968;267559;1905;
2024-05-03T10:10:07.880;537925213450620346;279798;304124;267748;1922;
2024-05-03T10:10:07.898;537925213468788438;279916;304290;267920;1846;
2024-05-03T10:10:07.917;537925213486956530;280101;304495;268041;1821;
2024-05-03T10:10:07.935;537925213505124622;280244;304665;268240;1833;
2024-05-03T10:10:07.953;537925213523292714;280375;304804;268359;1808;
2024-05-03T10:10:07.971;537925213541460806;280603;305052;268608;1806;
2024-05-03T10:10:07.989;537925213559628898;280673;305139;268751;1835;
2024-05-03T10:10:08.007;537925213577796990;280678;305098;268703;1830;
2024-05-03T10:10:08.026;537925213595965082;280606;305033;268634;1838;
2024-05-03T10:10:08.044;537925213614133174;280433;304870;268470;1879;
2024-05-03T10:10:08.062;537925213632301266;280271;304673;268248;1908;
2024-05-03T10:10:08.080;537925213650469358;280184;304507;268154;1838;
2024-05-03T10:10:08.098;537925213668637450;280026;304429;268083;1842;
2024-05-03T10:10:08.116;537925213686805542;280002;304377;267974;1856;
2024-05-03T10:10:08.135;537925213704973634;279939;304265;267943;1933;
2024-05-03T10:10:08.153;537925213723141726;279979;304301;267943;1976;
2024-05-03T10:10:08.171;537925213741309818;279899;304219;267942;1951;
2024-05-03T10:10:08.189;537925213759477910;279861;304193;267868;1945;
2024-05-03T10:10:08.207;537925213777646002;279906;304114;267928;1952;
2024-05-03T10:10:08.225;537925213795814094;279896;304094;267889;1917;
2024-05-03T10:10:08.244;537925213813982186;279870;304020;267782;1951;
2024-05-03T10:10:08.262;537925213832150278;279878;304084;267810;1911;
2024-05-03T10:10:08.280;537925213850318370;279793;304041;267821;1885;
2024-05-03T10:10:08.298;537925213868486462;279894;304060;267875;1891;
2024-05-03T10:10:08.316;537925213886654554;279866;304060;267857;1879;
2024-05-03T10:10:08.334;537925213904822646;279949;304046;267951;1836;
2024-05-03T10:10:08.353;537925213922990738;279988;304057;267995;1873;
2024-05-03T10:10:08.371;537925213941158830;279962;304098;267998;1885;
2024-05-03T10:10:08.389;537925213959326922;280052;304212;268034;1917;
2024-05-03T10:10:08.407;537925213977495014;280012;304259;268132;1913;
2024-05-03T10:10:08.425;537925213995663106;280184;304292;268210;1907;
2024-05-03T10:10:08.443;537925214013831198;280238;304336;268303;1925;
2024-05-03T10:10:08.462;537925214031999290;280330;304449;268379;1970;
2024-05-03T10:10:08.480;537925214050167382;280417;304576;268478;1897;
2024-05-03T10:10:08.498;537925214068335474;280567;304675;268531;1902;
2024-05-03T10:10:08.516;537925214086503566;280673;304857;268670;1893;
2024-05-03T10:10:08.534;537925214104671658;280749;304921;268765;1914;
2024-05-03T10:10:08.552;537925214122839750;280886;305023;268864;1861;
2024-05-03T10:10:08.571;537925214141007842;280999;305175;268979;1823;
2024-05-03T10:10:08.589;537925214159175934;281158;305358;269213;1856;
2024-05-03T10:10:08.607;537925214177344026;281319;305498;269308;1855;
2024-05-03T10:10:08.625;537925214195512118;281403;305612;269365;1878;
2024-05-03T10:10:08.643;537925214213680210;281522;305740;269515;1871;
2024-05-03T10:10:08.661;537925214231848302;281685;305836;269631;1854;
2024-05-03T10:10:08.680;537925214250016394;281797;306026;269827;1850;
2024-05-03T10:10:08.698;537925214268184486;281917;306131;269911;1817;
2024-05-03T10:10:08.716;537925214286352578;282100;306336;270114;1850;
2024-05-03T10:10:08.734;537925214304520670;282242;306482;270277;1830;
2024-05-03T10:10:08.752;537925214322688762;282368;306594;270374;1847;
2024-05-03T10:10:08.770;537925214340856854;282531;306864;270564;1873;
2024-05-03T10:10:08.789;537925214359024946;282623;307013;270696;1819;
2024-05-03T10:10:08.807;537925214377193038;282795;307217;270862;1808;
2024-05-03T10:10:08.825;537925214395361130;282964;307368;271045;1867;
2024-05-03T10:10:08.843;537925214413529222;283153;307510;271225;1844;
2024-05-03T10:10:08.861;537925214431697314;283345;307705;271356;1845;
2024-05-03T10:10:08.879;537925214449865406;283521;307846;271473;1834;
2024-05-03T10:10:08.898;537925214468033498;283601;307910;271517;1882;
2024-05-03T10:10:08.916;537925214486201590;283447;307811;271431;1878;
2024-05-03T10:10:08.934;537925214504369682;283350;307702;271303;1832;
2024-05-03T10:10:08.952;537925214522537774;283171;307537;271167;1808;
2024-05-03T10:10:08.970;537925214540705866;283081;307434;271054;1870;
2024-05-03T10:10:08.988;537925214558873958;282968;307285;270940;1845;
2024-05-03T10:10:09.007;537925214577042050;282924;307142;270867;1888;
2024-05-03T10:10:09.025;537925214595210142;282891;307071;270830;1809;
2024-05-03T10:10:09.043;537925214613378234;282815;307035;270838;1842;
2024-05-03T10:10:09.061;537925214631546326;282851;307095;270937;1911;
2024-05-03T10:10:09.079;537925214649714418;282796;307075;270916;1869;
2024-05-03T10:10:09.097;537925214667882510;282802;307050;270910;1816;
2024-05-03T10:10:09.116;537925214686050602;282801;307006;270850;1817;
2024-05-03T10:10:09.134;537925214704218694;282841;307000;270936;1796;
2024-05-03T10:10:09.152;537925214722386786;282813;307029;270946;1795;
2024-05-03T10:10:09.170;537925214740554878;282866;307101;271025;1754;
2024-05-03T10:10:09.188;537925214758722970;282857;307064;271027;1760;
2024-05-03T10:10:09.206;537925214776891062;282883;307119;271155;1863;
2024-05-03T10:10:09.225;537925214795059141;282927;307204;271172;1828;
2024-05-03T10:10:09.243;537925214813227216;282977;307244;271230;1825;
2024-05-03T10:10:09.261;537925214831395291;282991;307203;271335;1784;
2024-05-03T10:10:09.279;537925214849563366;283079;307207;271349;1772;
2024-05-03T10:10:09.297;537925214867731441;282994;307258;271438;1796;
2024-05-03T10:10:09.315;537925214885899516;283085;307335;271483;1813;
2024-05-03T10:10:09.334;537925214904067591;283265;307447;271643;1818;
2024-05-03T10:10:09.352;537925214922235666;283280;307473;271693;1775;
2024-05-03T10:10:09.370;537925214940403741;283342;307613;271790;1727;
2024-05-03T10:10:09.388;537925214958571816;283415;307736;271876;1765;
2024-05-03T10:10:09.406;537925214976739891;283545;307818;271923;1811;
2024-05-03T10:10:09.424;537925214994907966;283728;307953;272054;1770;
2024-05-03T10:10:09.443;537925215013076041;283832;308065;272132;1823;
2024-05-03T10:10:09.461;537925215031244116;283951;308280;272332;1838;
2024-05-03T10:10:09.479;537925215049412191;284084;308434;272455;1879;
2024-05-03T10:10:09.497;537925215067580266;284238;308552;272574;1859;
2024-05-03T10:10:09.515;537925215085748341;284385;308696;272737;1900;
2024-05-03T10:10:09.533;537925215103916416;284458;308765;272868;1862;
2024-05-03T10:10:09.552;537925215122084491;284564;308913;273003;1883;
2024-05-03T10:10:09.570;537925215140252566;284634;309076;273104;1876;
2024-05-03T10:10:09.588;537925215158420641;284792;309193;273241;1867;
2024-05-03T10:10:09.606;537925215176588716;284932;309303;273359;1860;
2024-05-03T10:10:09.624;537925215194756791;285024;309413;273436;1836;
2024-05-03T10:10:09.642;537925215212924866;285094;309465;273515;1805;
2024-05-03T10:10:09.661;537925215231092941;285212;309680;273680;1779;
2024-05-03T10:10:09.679;537925215249261016;285309;309842;273737;1775;
2024-05-03T10:10:09.697;537925215267429091;285478;309914;273841;1809;
2024-05-03T10:10:09.715;537925215285597166;285422;309909;273830;1804;
2024-05-03T10:10:09.733;537925215303765241;285228;309820;273668;1805;
2024-05-03T10:10:09.751;537925215321933316;285114;309621;273506;1817;
2024-05-03T10:10:09.770;537925215340101391;284932;309371;273319;1812;
2024-05-03T10:10:09.788;537925215358269466;284765;309185;273144;1843;
2024-05-03T10:10:09.806;537925215376437541;284588;309038;272958;1842;
2024-05-03T10:10:09.824;537925215394605616;284541;308860;272874;1864;
2024-05-03T10:10:09.842;537925215412773691;284477;308784;272857;1852;
2024-05-03T10:10:09.861;537925215430941766;284498;308754;272876;1844;
2024-05-03T10:10:09.879;537925215449109841;284425;308660;272863;1925;
2024-05-03T10:10:09.897;537925215467277916;284412;308616;272850;1880;
2024-05-03T10:10:09.915;537925215485445991;284336;308561;272823;1899;
2024-05-03T10:10:09.933;537925215503614066;284276;308513;272745;1920;
2024-05-03T10:10:09.951;537925215521782141;284271;308473;272711;1830;
2024-05-03T10:10:09.970;537925215539950216;284189;308404;272675;1844;
2024-05-03T10:10:09.988;537925215558118291;284213;308419;272694;1853;
2024-05-03T10:10:10.006;537925215576286370;284170;308414;272663;1834;
2024-05-03T10:10:10.024;537925215594454445;284202;308380;272692;1846;
2024-05-03T10:10:10.042;537925215612622520;284177;308337;272683;1869;
2024-05-03T10:10:10.060;537925215630790595;284217;308302;272692;1836;
2024-05-03T10:10:10.079;537925215648958670;284166;308311;272634;1934;
2024-05-03T10:10:10.097;537925215667126745;284242;308354;272681;1924;
2024-05-03T10:10:10.115;537925215685294820;284172;308332;272636;1872;
2024-05-03T10:10:10.133;537925215703462895;284164;308410;272706;1894;
2024-05-03T10:10:10.151;537925215721630970;284223;308460;272778;1817;
2024-05-03T10:10:10.169;537925215739799045;284342;308473;272846;1855;
2024-05-03T10:10:10.188;537925215757967120;284425;308517;272847;1897;
2024-05-03T10:10:10.206;537925215776135195;284438;308656;272906;1877;
2024-05-03T10:10:10.224;537925215794303270;284478;308739;273025;1873;
2024-05-03T10:10:10.242;537925215812471345;284575;308874;273077;1871;
2024-05-03T10:10:10.260;537925215830639420;284692;308899;273201;1882;
2024-05-03T10:10:10.278;537925215848807495;284727;309041;273288;1836;
2024-05-03T10:10:10.297;537925215866975570;284860;309133;273342;1838;
2024-05-03T10:10:10.315;537925215885143645;285025;309199;273409;1803;
2024-05-03T10:10:10.333;537925215903311720;285110;309272;273548;1815;
2024-05-03T10:10:10.351;537925215921479795;285186;309464;273684;1843;
2024-05-03T10:10:10.369;537925215939647870;285363;309573;273773;1847;
2024-05-03T10:10:10.387;537925215957815945;285398;309691;273879;1891;
2024-05-03T10:10:10.406;537925215975984020;285602;309869;274021;1891;
2024-05-03T10:10:10.424;537925215994152095;285691;309929;274118;1890;
2024-05-03T10:10:10.442;537925216012320170;285762;310115;274215;1836;
2024-05-03T10:10:10.460;537925216030488245;285902;310243;274389;1901;
2024-05-03T10:10:10.478;537925216048656320;286007;310407;274544;1948;
2024-05-03T10:10:10.496;537925216066824395;286178;310569;274673;1878;
2024-05-03T10:10:10.515;537925216084992470;286291;310696;274793;1849;
2024-05-03T10:10:10.533;537925216103160545;286367;310868;274937;1916;
2024-05-03T10:10:10.551;537925216121328620;286434;310829;274916;1884;
2024-05-03T10:10:10.569;537925216139496695;286370;310827;274924;1936;
2024-05-03T10:10:10.587;537925216157664770;286195;310636;274730;1880;
2024-05-03T10:10:10.605;537925216175832845;285965;310425;274506;1950;
2024-05-03T10:10:10.624;537925216194000920;285732;310168;274287;1899;
2024-05-03T10:10:10.642;537925216212168995;285585;309925;274063;1900;
2024-05-03T10:10:10.660;537925216230337070;285411;309709;273924;1867;
2024-05-03T10:10:10.678;537925216248505145;285296;309575;273717;1867;
2024-05-03T10:10:10.696;537925216266673220;285132;309428;273604;1888;
2024-05-03T10:10:10.714;537925216284841295;285049;309340;273594;1818;
2024-05-03T10:10:10.733;537925216303009370;284968;309262;273473;1846;
2024-05-03T10:10:10.751;537925216321177445;284938;309194;273430;1881;
2024-05-03T10:10:10.769;537925216339345520;284883;309108;273362;1911;
2024-05-03T10:10:10.787;537925216357512901;284813;309043;273316;1877;
2024-05-03T10:10:10.805;537925216375680266;284791;308978;273284;1854;
2024-05-03T10:10:10.823;537925216393847631;284766;308944;273297;1856;
2024-05-03T10:10:10.842;537925216412014996;284729;308941;273236;1828;
2024-05-03T10:10:10.860;537925216430182361;284710;308931;273225;1832;
2024-05-03T10:10:10.878;537925216448349726;284604;308828;273141;1855;
2024-05-03T10:10:10.896;537925216466517091;284664;308831;273124;1838;
2024-05-03T10:10:10.914;537925216484684456;284650;308833;273120;1902;
2024-05-03T10:10:10.932;537925216502851821;284659;308757;273104;1829;
2024-05-03T10:10:10.951;537925216521019186;284646;308817;273078;1874;
2024-05-03T10:10:10.969;537925216539186551;284641;308825;273210;1922;
2024-05-03T10:10:10.987;537925216557353916;284655;308889;273184;1907;
2024-05-03T10:10:11.005;537925216575521281;284817;308938;273377;2023;
2024-05-03T10:10:11.023;537925216593688646;284869;309003;273387;1988;
2024-05-03T10:10:11.041;537925216611856011;284951;309129;273463;1962;
2024-05-03T10:10:11.060;537925216630023376;285070;309245;273541;2055;
2024-05-03T10:10:11.078;537925216648190741;285153;309369;273673;2025;
2024-05-03T10:10:11.096;537925216666358106;285250;309490;273790;2010;
2024-05-03T10:10:11.114;537925216684525471;285336;309605;273881;2098;
2024-05-03T10:10:11.132;537925216702692836;285509;309792;274006;2157;
2024-05-03T10:10:11.150;537925216720860201;285594;309866;274077;2128;
2024-05-03T10:10:11.169;537925216739027566;285725;309987;274197;2207;
2024-05-03T10:10:11.187;537925216757194931;285889;310175;274392;2215;
2024-05-03T10:10:11.205;537925216775362296;286020;310334;274613;2282;
2024-05-03T10:10:11.223;537925216793529661;286184;310532;274702;2292;
2024-05-03T10:10:11.241;537925216811697026;286351;310685;274889;2391;
2024-05-03T10:10:11.259;537925216829864391;286465;310902;275022;2422;
2024-05-03T10:10:11.278;537925216848031756;286677;311126;275233;2548;
2024-05-03T10:10:11.296;537925216866199121;286919;311294;275453;2612;
2024-05-03T10:10:11.314;537925216884366486;287197;311587;275722;2775;
2024-05-03T10:10:11.332;537925216902533851;287424;311885;275991;2867;
2024-05-03T10:10:11.350;537925216920701216;287646;312158;276182;2978;
2024-05-03T10:10:11.368;537925216938868581;287963;312397;276455;3112;
2024-05-03T10:10:11.387;537925216957035946;288236;312789;276797;3284;
2024-05-03T10:10:11.405;537925216975203311;288546;313036;277124;3446;
2024-05-03T10:10:11.423;537925216993370676;288802;313405;277406;3617;
2024-05-03T10:10:11.441;537925217011538041;289080;313716;277687;3805;
2024-05-03T10:10:11.459;537925217029705406;289246;313853;277856;3919;
2024-05-03T10:10:11.477;537925217047872771;289308;313892;277924;4081;
2024-05-03T10:10:11.496;537925217066040136;289303;313936;277922;4327;
2024-05-03T10:10:11.514;537925217084207501;289215;313882;277900;4497;
2024-05-03T10:10:11.532;537925217102374866;289206;313745;277828;4586;
2024-05-03T10:10:11.550;537925217120542231;289087;313664;277741;4738;
2024-05-03T10:10:11.568;537925217138710903;289072;313657;277752;4836;
2024-05-03T10:10:11.586;537925217156879551;289147;313605;277782;4960;
2024-05-03T10:10:11.605;537925217175048199;289182;313610;277758;5081;
2024-05-03T10:10:11.623;537925217193216847;289180;313635;277857;5183;
2024-05-03T10:10:11.641;537925217211385495;289280;313669;277915;5285;
2024-05-03T10:10:11.659;537925217229554143;289243;313720;277945;5344;
2024-05-03T10:10:11.677;537925217247722791;289301;313768;277952;5440;
2024-05-03T10:10:11.695;537925217265891439;289427;313787;278016;5480;
2024-05-03T10:10:11.714;537925217284060087;289508;313906;278092;5564;
2024-05-03T10:10:11.732;537925217302228735;289519;313853;278099;5607;
2024-05-03T10:10:11.750;537925217320397383;289581;313934;278178;5725;
2024-05-03T10:10:11.768;537925217338566031;289568;313912;278199;5756;
2024-05-03T10:10:11.786;537925217356734679;289562;313941;278261;5797;
2024-05-03T10:10:11.804;537925217374903327;289563;313895;278244;5849;
2024-05-03T10:10:11.823;537925217393071975;289574;313873;278236;5876;
2024-05-03T10:10:11.841;537925217411240623;289635;313944;278278;5898;
2024-05-03T10:10:11.859;537925217429409271;289663;313999;278336;5969;
2024-05-03T10:10:11.877;537925217447577919;289700;314063;278370;6009;
2024-05-03T10:10:11.895;537925217465746567;289766;314114;278440;6010;
2024-05-03T10:10:11.913;537925217483915215;289860;314179;278556;6077;
2024-05-03T10:10:11.932;537925217502083863;289946;314261;278575;6105;
2024-05-03T10:10:11.950;537925217520252511;290145;314491;278784;6151;
2024-05-03T10:10:11.968;537925217538421159;290196;314510;278782;6122;
2024-05-03T10:10:11.986;537925217556589807;290258;314649;278976;6195;
2024-05-03T10:10:12.004;537925217574758455;290314;314732;279085;6205;
2024-05-03T10:10:12.022;537925217592927103;290528;314903;279182;6196;
2024-05-03T10:10:12.041;537925217611095751;290557;315010;279223;6231;
2024-05-03T10:10:12.059;537925217629264399;290777;315106;279396;6257;
2024-05-03T10:10:12.077;537925217647433047;290835;315208;279441;6218;
2024-05-03T10:10:12.095;537925217665601695;290918;315294;279556;6252;
2024-05-03T10:10:12.113;537925217683770343;291042;315429;279697;6317;
2024-05-03T10:10:12.131;537925217701938991;291138;315530;279810;6307;
2024-05-03T10:10:12.150;537925217720107639;291191;315592;279856;6269;
2024-05-03T10:10:12.168;537925217738276287;291354;315785;280004;6282;
2024-05-03T10:10:12.186;537925217756444935;291483;315906;280141;6285;
2024-05-03T10:10:12.204;537925217774613583;291574;315978;280255;6286;
2024-05-03T10:10:12.222;537925217792782231;291658;316160;280349;6297;
2024-05-03T10:10:12.241;537925217810950879;291812;316278;280422;6279;
2024-05-03T10:10:12.259;537925217829119527;291937;316456;280609;6284;
2024-05-03T10:10:12.277;537925217847288175;292049;316564;280744;6254;
2024-05-03T10:10:12.295;537925217865456823;292227;316728;280883;6270;
2024-05-03T10:10:12.313;537925217883625471;292205;316801;280978;6262;
2024-05-03T10:10:12.331;537925217901794119;292115;316702;280849;6320;
2024-05-03T10:10:12.350;537925217919962767;291939;316506;280633;6270;
2024-05-03T10:10:12.368;537925217938130255;291723;316277;280412;6334;
2024-05-03T10:10:12.386;537925217956297729;291468;315983;280180;6310;
2024-05-03T10:10:12.404;537925217974465203;291241;315696;279972;6337;
2024-05-03T10:10:12.422;537925217992632677;291106;315504;279803;6291;
2024-05-03T10:10:12.440;537925218010800151;290924;315330;279609;6287;
2024-05-03T10:10:12.459;537925218028967625;290827;315178;279544;6317;
2024-05-03T10:10:12.477;537925218047135099;290729;315064;279375;6276;
2024-05-03T10:10:12.495;537925218065302573;290748;315069;279353;6294;
2024-05-03T10:10:12.513;537925218083470047;290652;314980;279304;6307;
2024-05-03T10:10:12.531;537925218101637521;290592;314880;279265;6284;
2024-05-03T10:10:12.549;537925218119804995;290596;314780;279186;6234;
2024-05-03T10:10:12.568;537925218137972469;290486;314755;279117;6259;
2024-05-03T10:10:12.586;537925218156139943;290441;314668;279109;6231;
2024-05-03T10:10:12.604;537925218174307417;290314;314592;279097;6218;
2024-05-03T10:10:12.622;537925218192474891;290278;314461;278962;6170;
2024-05-03T10:10:12.640;537925218210642365;290237;314528;278928;6202;
2024-05-03T10:10:12.658;537925218228809839;290220;314403;278822;6204;
2024-05-03T10:10:12.677;537925218246977313;290125;314265;278770;6151;
2024-05-03T10:10:12.695;537925218265144787;290065;314236;278650;6119;
2024-05-03T10:10:12.713;537925218283312261;290072;314200;278653;6121;
2024-05-03T10:10:12.731;537925218301479735;290022;314156;278678;6123;
2024-05-03T10:10:12.749;537925218319647209;290103;314245;278723;6070;
2024-05-03T10:10:12.767;537925218337814683;290186;314229;278703;6091;
2024-05-03T10:10:12.786;537925218355982157;290090;314217;278706;6061;
2024-05-03T10:10:12.804;537925218374149631;290096;314253;278707;6033;
2024-05-03T10:10:12.822;537925218392317105;290195;314351;278751;6008;
2024-05-03T10:10:12.840;537925218410484579;290290;314431;278822;6054;
2024-05-03T10:10:12.858;537925218428652053;290332;314501;278884;6001;
2024-05-03T10:10:12.876;537925218446819527;290421;314555;278995;6051;
2024-05-03T10:10:12.895;537925218464987001;290438;314589;279006;5998;
2024-05-03T10:10:12.913;537925218483154475;290525;314695;278995;6000;
2024-05-03T10:10:12.931;537925218501321949;290610;314837;279153;6016;
2024-05-03T10:10:12.949;537925218519489423;290670;314864;279189;6001;
2024-05-03T10:10:12.967;537925218537656897;290710;314930;279249;5918;
2024-05-03T10:10:12.985;537925218555824371;290840;315034;279339;5986;
2024-05-03T10:10:13.004;537925218573991845;290842;315112;279386;5950;
2024-05-03T10:10:13.022;537925218592159319;290945;315238;279453;5893;
2024-05-03T10:10:13.040;537925218610326793;291072;315420;279583;5935;
2024-05-03T10:10:13.058;537925218628494267;291167;315444;279632;5954;
2024-05-03T10:10:13.076;537925218646661741;291250;315491;279759;5884;
2024-05-03T10:10:13.094;537925218664829215;291384;315599;279803;5898;
2024-05-03T10:10:13.113;537925218682996689;291458;315730;279954;5889;
2024-05-03T10:10:13.131;537925218701165541;291583;315896;280031;5879;
2024-05-03T10:10:13.149;537925218719334359;291700;315998;280081;5855;
2024-05-03T10:10:13.167;537925218737503177;291791;316102;280176;5843;
2024-05-03T10:10:13.185;537925218755671995;291812;316248;280234;5821;
2024-05-03T10:10:13.203;537925218773840813;291805;316194;280127;5769;
2024-05-03T10:10:13.222;537925218792009631;291560;315993;279976;5729;
2024-05-03T10:10:13.240;537925218810178449;291306;315692;279669;5671;
2024-05-03T10:10:13.258;537925218828347267;291004;315406;279377;5665;
2024-05-03T10:10:13.276;537925218846516085;290693;314994;279040;5600;
2024-05-03T10:10:13.294;537925218864684903;290383;314647;278681;5533;
2024-05-03T10:10:13.312;537925218882853721;290126;314347;278332;5485;
2024-05-03T10:10:13.331;537925218901022539;289871;314010;278132;5448;
2024-05-03T10:10:13.349;537925218919191357;289626;313713;277864;5369;
2024-05-03T10:10:13.367;537925218937360175;289488;313562;277709;5276;
2024-05-03T10:10:13.385;537925218955528993;289251;313344;277525;5183;
2024-05-03T10:10:13.403;537925218973697811;289076;313056;277327;5141;
2024-05-03T10:10:13.421;537925218991866629;288765;312750;277032;4943;
2024-05-03T10:10:13.440;537925219010035447;288419;312399;276678;4762;
2024-05-03T10:10:13.458;537925219028204265;288122;312101;276387;4553;
2024-05-03T10:10:13.476;537925219046373083;287736;311796;275976;4299;
2024-05-03T10:10:13.494;537925219064541901;287386;311485;275633;3970;
2024-05-03T10:10:13.512;537925219082710719;287019;310996;275199;3693;
2024-05-03T10:10:13.530;537925219100879537;286628;310540;274835;3353;
2024-05-03T10:10:13.549;537925219119048355;286201;310119;274418;3015;
2024-05-03T10:10:13.567;537925219137217173;285806;309730;273995;2724;
2024-05-03T10:10:13.585;537925219155385991;285381;309344;273673;2367;
2024-05-03T10:10:13.603;537925219173554809;285125;308977;273350;2040;
2024-05-03T10:10:13.621;537925219191723627;284813;308722;273081;1754;
2024-05-03T10:10:13.639;537925219209892445;284653;308528;272855;1613;
2024-05-03T10:10:13.658;537925219228061263;284488;308409;272753;1501;
2024-05-03T10:10:13.676;537925219246230081;284411;308293;272719;1397;
2024-05-03T10:10:13.694;537925219264398899;284391;308234;272608;1272;
2024-05-03T10:10:13.712;537925219282567717;284350;308187;272594;1254;
2024-05-03T10:10:13.730;537925219300736535;284387;308285;272678;1181;
2024-05-03T10:10:13.748;537925219318905353;284410;308252;272693;1164;
2024-05-03T10:10:13.767;537925219337074171;284454;308362;272745;1212;
2024-05-03T10:10:13.785;537925219355242989;284485;308432;272740;1224;
2024-05-03T10:10:13.803;537925219373411807;284572;308600;272891;1196;
2024-05-03T10:10:13.821;537925219391580625;284642;308567;272967;1191;
2024-05-03T10:10:13.839;537925219409749443;284711;308667;273004;1111;
2024-05-03T10:10:13.857;537925219427918261;284788;308736;273053;1166;
2024-05-03T10:10:13.876;537925219446087079;284875;308819;273181;1172;
2024-05-03T10:10:13.894;537925219464254460;285012;308975;273315;1194;
2024-05-03T10:10:13.912;537925219482421825;285072;309045;273339;1128;
2024-05-03T10:10:13.930;537925219500589190;285148;309204;273482;1128;
2024-05-03T10:10:13.948;537925219518756555;285235;309349;273565;1161;
2024-05-03T10:10:13.966;537925219536923920;285332;309441;273661;1163;
2024-05-03T10:10:13.985;537925219555091285;285422;309548;273772;1163;
2024-05-03T10:10:14.003;537925219573258650;285525;309657;273900;1149;
2024-05-03T10:10:14.021;537925219591426015;285638;309826;273969;1128;
2024-05-03T10:10:14.039;537925219609593380;285750;309966;274120;1143;
2024-05-03T10:10:14.057;537925219627760745;285807;310066;274148;1120;
2024-05-03T10:10:14.075;537925219645928110;285991;310199;274275;1146;
2024-05-03T10:10:14.094;537925219664095475;286147;310407;274433;1207;
2024-05-03T10:10:14.112;537925219682262840;286281;310567;274565;1212;
2024-05-03T10:10:14.130;537925219700430205;286409;310730;274626;1199;
2024-05-03T10:10:14.148;537925219718597570;286557;310923;274802;1232;
2024-05-03T10:10:14.166;537925219736764935;286592;310968;274861;1279;
2024-05-03T10:10:14.184;537925219754932300;286466;310916;274833;1284;
2024-05-03T10:10:14.203;537925219773099665;286337;310759;274699;1350;
2024-05-03T10:10:14.221;537925219791267030;286131;310487;274422;1344;
2024-05-03T10:10:14.239;537925219809434395;285904;310220;274247;1461;
2024-05-03T10:10:14.257;537925219827601760;285679;309958;274033;1519;
2024-05-03T10:10:14.275;537925219845769125;285518;309753;273761;1569;
2024-05-03T10:10:14.293;537925219863936490;285433;309619;273668;1683;
2024-05-03T10:10:14.312;537925219882103855;285367;309586;273603;1802;
2024-05-03T10:10:14.330;537925219900271220;285359;309522;273558;1889;
2024-05-03T10:10:14.348;537925219918438585;285389;309552;273624;2091;
2024-05-03T10:10:14.366;537925219936605950;285436;309577;273576;2255;
2024-05-03T10:10:14.384;537925219954773315;285464;309667;273663;2445;
2024-05-03T10:10:14.403;537925219972940680;285526;309643;273727;2629;
2024-05-03T10:10:14.421;537925219991108045;285575;309630;273756;2744;
2024-05-03T10:10:14.439;537925220009275410;285682;309719;273885;2923;
2024-05-03T10:10:14.457;537925220027442775;285772;309795;274015;3090;
2024-05-03T10:10:14.475;537925220045610140;285926;309999;274092;3301;
2024-05-03T10:10:14.493;537925220063777505;286032;310028;274140;3523;
2024-05-03T10:10:14.512;537925220081944870;286013;310082;274195;3690;
2024-05-03T10:10:14.530;537925220100112235;286109;310134;274230;3830;
2024-05-03T10:10:14.548;537925220118279600;286107;310140;274220;3933;
2024-05-03T10:10:14.566;537925220136446965;286262;310193;274254;4062;
2024-05-03T10:10:14.584;537925220154614330;286340;310242;274279;4210;
2024-05-03T10:10:14.602;537925220172781695;286454;310359;274396;4303;
2024-05-03T10:10:14.621;537925220190949060;286497;310404;274518;4348;
2024-05-03T10:10:14.639;537925220209116425;286554;310533;274604;4440;
2024-05-03T10:10:14.657;537925220227283806;286620;310622;274713;4499;
2024-05-03T10:10:14.675;537925220245451171;286786;310733;274783;4540;
2024-05-03T10:10:14.693;537925220263618536;286899;310873;274900;4638;
2024-05-03T10:10:14.711;537925220281785901;287030;311007;274974;4773;
2024-05-03T10:10:14.730;537925220299953266;287114;311072;275052;4736;
2024-05-03T10:10:14.748;537925220318120631;287131;311180;275092;4769;
2024-05-03T10:10:14.766;537925220336287996;287295;311279;275202;4864;
2024-05-03T10:10:14.784;537925220354455361;287385;311398;275277;4841;
2024-05-03T10:10:14.802;537925220372622726;287448;311538;275364;4836;
2024-05-03T10:10:14.820;537925220390790091;287545;311652;275497;4880;
2024-05-03T10:10:14.839;537925220408957456;287591;311738;275557;4868;
2024-05-03T10:10:14.857;537925220427124821;287735;311897;275698;4893;
2024-05-03T10:10:14.875;537925220445292186;287827;311932;275692;4916;
2024-05-03T10:10:14.893;537925220463459551;287936;312002;275849;4910;
2024-05-03T10:10:14.911;537925220481626916;288026;312151;275952;4945;
2024-05-03T10:10:14.929;537925220499794281;288106;312251;275960;4915;
2024-05-03T10:10:14.948;537925220517961646;288191;312355;276124;4894;
2024-05-03T10:10:14.966;537925220536129011;288430;312488;276235;4960;
2024-05-03T10:10:14.984;537925220554296376;288492;312654;276354;4911;
2024-05-03T10:10:15.002;537925220572463741;288616;312770;276389;4932;
2024-05-03T10:10:15.020;537925220590631106;288801;312981;276623;4980;
2024-05-03T10:10:15.038;537925220608798471;288892;313100;276760;4975;
2024-05-03T10:10:15.057;537925220626965836;289057;313268;276856;5008;
2024-05-03T10:10:15.075;537925220645133201;289171;313344;277062;4983;
2024-05-03T10:10:15.093;537925220663300566;289218;313396;277096;4927;
2024-05-03T10:10:15.111;537925220681467931;289119;313321;277084;4962;
2024-05-03T10:10:15.129;537925220699635296;288999;313176;276904;4926;
2024-05-03T10:10:15.147;537925220717802661;288709;312883;276636;4899;
2024-05-03T10:10:15.166;537925220735970026;288394;312562;276359;4892;
2024-05-03T10:10:15.184;537925220754137391;288101;312254;276117;4909;
2024-05-03T10:10:15.202;537925220772304756;287889;311976;275854;4927;
2024-05-03T10:10:15.220;537925220790472121;287746;311731;275597;4916;
2024-05-03T10:10:15.238;537925220808639486;287552;311624;275420;4927;
2024-05-03T10:10:15.256;537925220826806851;287397;311459;275307;4920;
2024-05-03T10:10:15.275;537925220844974216;287401;311370;275283;4989;
2024-05-03T10:10:15.293;537925220863141581;287353;311311;275198;4997;
2024-05-03T10:10:15.311;537925220881308946;287242;311191;275096;4966;
2024-05-03T10:10:15.329;537925220899476311;287135;311113;275026;4918;
2024-05-03T10:10:15.347;537925220917643676;287020;311041;274979;4953;
2024-05-03T10:10:15.365;537925220935811041;287016;311007;274969;4989;
2024-05-03T10:10:15.384;537925220953978406;286957;310897;274876;5009;
2024-05-03T10:10:15.402;537925220972145771;286963;310868;274848;5022;
2024-05-03T10:10:15.420;537925220990313420;286886;310806;274744;5048;
2024-05-03T10:10:15.438;537925221008481039;286826;310768;274673;5081;
2024-05-03T10:10:15.456;537925221026648658;286740;310588;274525;5008;
2024-05-03T10:10:15.474;537925221044816277;286605;310513;274451;4965;
2024-05-03T10:10:15.493;537925221062983896;286524;310480;274434;4969;
2024-05-03T10:10:15.511;537925221081151515;286509;310449;274437;4969;
2024-05-03T10:10:15.529;537925221099319134;286498;310545;274402;5043;
2024-05-03T10:10:15.547;537925221117486753;286569;310500;274428;5016;
2024-05-03T10:10:15.565;537925221135654372;286561;310594;274446;5087;
2024-05-03T10:10:15.583;537925221153821991;286630;310620;274484;5056;
2024-05-03T10:10:15.602;537925221171989610;286686;310658;274537;5088;
2024-05-03T10:10:15.620;537925221190157229;286766;310708;274502;5069;
2024-05-03T10:10:15.638;537925221208324848;286834;310777;274604;5096;
2024-05-03T10:10:15.656;537925221226492467;286889;310873;274676;5131;
2024-05-03T10:10:15.674;537925221244660086;287014;310998;274767;5174;
2024-05-03T10:10:15.692;537925221262827705;287068;311076;274878;5154;
2024-05-03T10:10:15.711;537925221280995324;287147;311097;274867;5123;
2024-05-03T10:10:15.729;537925221299162943;287304;311222;275017;5146;
2024-05-03T10:10:15.747;537925221317330562;287335;311364;275070;5169;
2024-05-03T10:10:15.765;537925221335498181;287424;311364;275106;5221;
2024-05-03T10:10:15.783;537925221353665800;287504;311479;275207;5194;
2024-05-03T10:10:15.801;537925221371833419;287549;311568;275178;5159;
2024-05-03T10:10:15.820;537925221390001038;287644;311798;275342;5191;
2024-05-03T10:10:15.838;537925221408168657;287748;311839;275427;5213;
2024-05-03T10:10:15.856;537925221426336276;287842;311921;275486;5169;
2024-05-03T10:10:15.874;537925221444503895;287906;312022;275540;5196;
2024-05-03T10:10:15.892;537925221462671514;288064;312168;275743;5249;
2024-05-03T10:10:15.910;537925221480839133;288151;312346;275802;5236;
2024-05-03T10:10:15.929;537925221499006752;288312;312463;275858;5221;
2024-05-03T10:10:15.947;537925221517174371;288378;312606;275959;5214;
2024-05-03T10:10:15.965;537925221535341990;288422;312607;275979;5225;
2024-05-03T10:10:15.983;537925221553509609;288309;312484;275889;5198;
2024-05-03T10:10:16.001;537925221571677228;288066;312197;275661;5184;
2024-05-03T10:10:16.019;537925221589844847;287785;311939;275322;5206;
2024-05-03T10:10:16.038;537925221608012466;287462;311592;274982;5194;
2024-05-03T10:10:16.056;537925221626180085;287106;311267;274640;5158;
2024-05-03T10:10:16.074;537925221644347704;286860;310937;274419;5184;
2024-05-03T10:10:16.092;537925221662515323;286665;310743;274149;5118;
2024-05-03T10:10:16.110;537925221680682942;286516;310486;273998;5182;
2024-05-03T10:10:16.128;537925221698850561;286405;310381;273796;5162;
2024-05-03T10:10:16.147;537925221717018180;286195;310181;273691;5138;
2024-05-03T10:10:16.165;537925221735185799;286097;310020;273465;5213;
2024-05-03T10:10:16.183;537925221753352585;285939;309886;273309;5118;
2024-05-03T10:10:16.201;537925221771519369;285862;309810;273199;5086;
2024-05-03T10:10:16.219;537925221789686153;285752;309689;273025;5085;
2024-05-03T10:10:16.237;537925221807852937;285583;309535;272911;4997;
2024-05-03T10:10:16.256;537925221826019721;285463;309385;272722;4967;
2024-05-03T10:10:16.274;537925221844186505;285404;309229;272638;4983;
2024-05-03T10:10:16.292;537925221862353289;285220;309075;272405;4872;
2024-05-03T10:10:16.310;537925221880520073;285006;308984;272257;4874;
2024-05-03T10:10:16.328;537925221898686857;284851;308760;272093;4734;
2024-05-03T10:10:16.346;537925221916853641;284615;308525;271863;4653;
2024-05-03T10:10:16.365;537925221935020425;284460;308323;271627;4449;
2024-05-03T10:10:16.383;537925221953187209;284282;308099;271445;4271;
2024-05-03T10:10:16.401;537925221971353993;284091;307881;271167;4082;
2024-05-03T10:10:16.419;537925221989520777;283863;307629;270978;3847;
2024-05-03T10:10:16.437;537925222007687561;283677;307464;270738;3643;
2024-05-03T10:10:16.455;537925222025854345;283375;307170;270478;3315;
2024-05-03T10:10:16.474;537925222044021129;283113;306912;270255;2996;
2024-05-03T10:10:16.492;537925222062187913;282855;306740;269987;2749;
2024-05-03T10:10:16.510;537925222080354697;282669;306558;269731;2472;
2024-05-03T10:10:16.528;537925222098521481;282458;306345;269487;2210;
2024-05-03T10:10:16.546;537925222116688265;282318;306131;269255;2024;
2024-05-03T10:10:16.564;537925222134855049;282183;305979;269164;1797;
2024-05-03T10:10:16.583;537925222153021833;281997;305883;269087;1595;
2024-05-03T10:10:16.601;537925222171188617;281963;305835;268963;1469;
2024-05-03T10:10:16.619;537925222189355401;281879;305809;268884;1408;
2024-05-03T10:10:16.637;537925222207522185;281913;305865;268945;1394;
2024-05-03T10:10:16.655;537925222225688969;281977;305960;268993;1331;
2024-05-03T10:10:16.673;537925222243855753;282038;305986;269042;1267;
2024-05-03T10:10:16.692;537925222262022537;282122;306053;269119;1257;
2024-05-03T10:10:16.710;537925222280189321;282164;306141;269169;1250;
2024-05-03T10:10:16.728;537925222298356105;282297;306285;269238;1264;
2024-05-03T10:10:16.746;537925222316522889;282304;306369;269363;1192;
2024-05-03T10:10:16.764;537925222334689673;282389;306480;269439;1152;
2024-05-03T10:10:16.782;537925222352856457;282556;306620;269545;1185;
2024-05-03T10:10:16.801;537925222371023241;282682;306730;269690;1217;
2024-05-03T10:10:16.819;537925222389190025;282793;306894;269835;1199;
2024-05-03T10:10:16.837;537925222407356809;282870;306974;269890;1156;
2024-05-03T10:10:16.855;537925222425523593;282869;307057;269915;1198;
2024-05-03T10:10:16.873;537925222443690377;282774;306964;269751;1184;
2024-05-03T10:10:16.891;537925222461857161;282598;306771;269564;1195;
2024-05-03T10:10:16.910;537925222480023945;282302;306451;269243;1148;
2024-05-03T10:10:16.928;537925222498190729;281986;306079;268909;1083;
2024-05-03T10:10:16.946;537925222516357299;281755;305808;268634;1116;
2024-05-03T10:10:16.964;537925222534523865;281438;305425;268317;1146;
2024-05-03T10:10:16.982;537925222552690431;281225;305292;268118;1152;
2024-05-03T10:10:17.000;537925222570856997;281096;305141;267928;1121;
2024-05-03T10:10:17.019;537925222589023563;280982;304935;267785;1148;
2024-05-03T10:10:17.037;537925222607190129;280871;304843;267650;1145;
2024-05-03T10:10:17.055;537925222625356695;280718;304692;267511;1175;
2024-05-03T10:10:17.073;537925222643523261;280610;304541;267330;1156;
2024-05-03T10:10:17.091;537925222661689827;280467;304456;267221;1141;
2024-05-03T10:10:17.109;537925222679856393;280437;304383;267170;1137;
2024-05-03T10:10:17.128;537925222698022959;280375;304213;267038;1132;
2024-05-03T10:10:17.146;537925222716189525;280224;304095;266882;1048;
2024-05-03T10:10:17.164;537925222734356091;280203;304002;266857;1137;
2024-05-03T10:10:17.182;537925222752522657;280132;304029;266791;1146;
2024-05-03T10:10:17.200;537925222770689223;279999;303846;266698;1105;
2024-05-03T10:10:17.218;537925222788855789;279973;303773;266576;1106;
2024-05-03T10:10:17.237;537925222807022355;279946;303719;266466;1129;
2024-05-03T10:10:17.255;537925222825188921;279931;303661;266409;1157;
2024-05-03T10:10:17.273;537925222843355487;279931;303671;266423;1184;
2024-05-03T10:10:17.291;537925222861522053;279922;303624;266441;1194;
2024-05-03T10:10:17.309;537925222879688619;279957;303719;266494;1228;
2024-05-03T10:10:17.327;537925222897855185;279966;303770;266483;1152;
2024-05-03T10:10:17.346;537925222916021751;279984;303786;266508;1165;
2024-05-03T10:10:17.364;537925222934188317;280067;303891;266595;1158;
2024-05-03T10:10:17.382;537925222952354883;280122;303936;266666;1203;
2024-05-03T10:10:17.400;537925222970521449;280210;303989;266756;1239;
2024-05-03T10:10:17.418;537925222988688015;280333;304009;266827;1234;
2024-05-03T10:10:17.436;537925223006854581;280386;304159;266816;1237;
2024-05-03T10:10:17.455;537925223025021147;280434;304212;266804;1211;
2024-05-03T10:10:17.473;537925223043187713;280525;304304;266928;1303;
2024-05-03T10:10:17.491;537925223061354279;280640;304406;267037;1247;
2024-05-03T10:10:17.509;537925223079520845;280687;304400;267059;1211;
2024-05-03T10:10:17.527;537925223097687411;280786;304556;267199;1250;
2024-05-03T10:10:17.545;537925223115853977;280854;304617;267196;1184;
2024-05-03T10:10:17.564;537925223134020543;280923;304756;267319;1190;
2024-05-03T10:10:17.582;537925223152187109;281064;304893;267457;1195;
2024-05-03T10:10:17.600;537925223170353675;281195;305041;267532;1205;
2024-05-03T10:10:17.618;537925223188520241;281252;305061;267596;1228;
2024-05-03T10:10:17.636;537925223206686807;281311;305167;267623;1197;
2024-05-03T10:10:17.654;537925223224853373;281470;305337;267792;1229;
2024-05-03T10:10:17.673;537925223243019939;281539;305445;267926;1137;
2024-05-03T10:10:17.691;537925223261186505;281650;305568;267966;1163;
2024-05-03T10:10:17.709;537925223279353561;281788;305695;268091;1177;
2024-05-03T10:10:17.727;537925223297520599;281972;305897;268287;1216;
2024-05-03T10:10:17.745;537925223315687637;282040;305992;268360;1135;
2024-05-03T10:10:17.763;537925223333854675;282209;306118;268523;1160;
2024-05-03T10:10:17.782;537925223352021713;282245;306258;268588;1144;
2024-05-03T10:10:17.800;537925223370188751;282251;306246;268581;1124;
2024-05-03T10:10:17.818;537925223388355789;282122;306079;268407;1126;
2024-05-03T10:10:17.836;537925223406522827;281901;305809;268229;1093;
2024-05-03T10:10:17.854;537925223424689865;281651;305550;267936;1138;
2024-05-03T10:10:17.872;537925223442856903;281350;305321;267657;1084;
2024-05-03T10:10:17.891;537925223461023941;281185;305130;267448;1099;
2024-05-03T10:10:17.909;537925223479190979;280946;304853;267241;1081;
2024-05-03T10:10:17.927;537925223497358017;280807;304646;267035;1086;
2024-05-03T10:10:17.945;537925223515525055;280747;304550;266938;1096;
2024-05-03T10:10:17.963;537925223533692093;280599;304448;266783;1123;
2024-05-03T10:10:17.981;537925223551859131;280577;304377;266669;1107;
2024-05-03T10:10:18.000;537925223570026169;280435;304275;266533;1116;
2024-05-03T10:10:18.018;537925223588193207;280325;304132;266452;1127;
2024-05-03T10:10:18.036;537925223606360245;280293;304037;266421;1128;
2024-05-03T10:10:18.054;537925223624527283;280280;304044;266389;1139;
2024-05-03T10:10:18.072;537925223642694321;280256;303935;266331;1150;
2024-05-03T10:10:18.090;537925223660861359;280211;303874;266196;1111;
2024-05-03T10:10:18.109;537925223679028397;280188;303898;266112;1143;
2024-05-03T10:10:18.127;537925223697195435;280149;303827;266074;1173;
2024-05-03T10:10:18.145;537925223715362473;280076;303763;266047;1137;
2024-05-03T10:10:18.163;537925223733529511;280005;303636;265996;1170;
2024-05-03T10:10:18.181;537925223751696549;279983;303579;265934;1127;
2024-05-03T10:10:18.199;537925223769863587;279923;303509;265910;1093;
2024-05-03T10:10:18.218;537925223788030625;279992;303597;265925;1103;
2024-05-03T10:10:18.236;537925223806197663;280071;303618;265965;1135;
2024-05-03T10:10:18.254;537925223824364701;280071;303706;266011;1161;
2024-05-03T10:10:18.272;537925223842531739;280059;303691;265992;1093;
2024-05-03T10:10:18.290;537925223860698777;280149;303775;266130;1168;
2024-05-03T10:10:18.308;537925223878865815;280207;303861;266109;1144;
2024-05-03T10:10:18.327;537925223897032853;280382;303969;266260;1184;
2024-05-03T10:10:18.345;537925223915199891;280461;304098;266371;1233;
2024-05-03T10:10:18.363;537925223933366929;280504;304188;266398;1147;
2024-05-03T10:10:18.381;537925223951533967;280658;304237;266463;1187;
2024-05-03T10:10:18.399;537925223969701005;280691;304356;266579;1175;
2024-05-03T10:10:18.417;537925223987868043;280794;304448;266688;1122;
2024-05-03T10:10:18.436;537925224006035081;280931;304555;266812;1120;
2024-05-03T10:10:18.454;537925224024202119;280986;304686;266859;1095;
2024-05-03T10:10:18.472;537925224042368955;281136;304789;266925;1175;
2024-05-03T10:10:18.490;537925224060535775;281238;304868;267099;1202;
2024-05-03T10:10:18.508;537925224078702595;281341;305043;267245;1201;
2024-05-03T10:10:18.526;537925224096869415;281447;305101;267321;1154;
2024-05-03T10:10:18.545;537925224115036235;281549;305289;267423;1122;
2024-05-03T10:10:18.563;537925224133203055;281762;305462;267616;1169;
2024-05-03T10:10:18.581;537925224151369875;281825;305583;267706;1195;
2024-05-03T10:10:18.599;537925224169536695;281987;305658;267840;1205;
2024-05-03T10:10:18.617;537925224187703515;282049;305792;267977;1119;
2024-05-03T10:10:18.635;537925224205870335;282289;306055;268150;1155;
2024-05-03T10:10:18.654;537925224224037155;282458;306231;268265;1098;
2024-05-03T10:10:18.672;537925224242203975;282614;306397;268408;1179;
2024-05-03T10:10:18.690;537925224260370795;282612;306443;268513;1129;
2024-05-03T10:10:18.708;537925224278537615;282621;306450;268503;1128;
2024-05-03T10:10:18.726;537925224296704435;282482;306222;268293;1119;
2024-05-03T10:10:18.744;537925224314871255;282316;306094;268107;1135;
2024-05-03T10:10:18.763;537925224333038075;282133;305888;267942;1143;
2024-05-03T10:10:18.781;537925224351204895;281917;305691;267751;1169;
2024-05-03T10:10:18.799;537925224369371715;281765;305495;267547;1211;
2024-05-03T10:10:18.817;537925224387538535;281671;305329;267401;1169;
2024-05-03T10:10:18.835;537925224405705355;281622;305266;267322;1146;
2024-05-03T10:10:18.853;537925224423872175;281548;305198;267227;1114;
2024-05-03T10:10:18.872;537925224442038995;281475;305243;267291;1084;
2024-05-03T10:10:18.890;537925224460205815;281518;305172;267219;1126;
2024-05-03T10:10:18.908;537925224478372635;281467;305137;267150;1119;
2024-05-03T10:10:18.926;537925224496539455;281476;305119;267186;1129;
2024-05-03T10:10:18.944;537925224514706275;281503;305056;267203;1175;
2024-05-03T10:10:18.962;537925224532873095;281466;305066;267162;1213;
2024-05-03T10:10:18.981;537925224551039915;281490;305041;267166;1184;
2024-05-03T10:10:18.999;537925224569206735;281409;305001;267121;1150;
2024-05-03T10:10:19.017;537925224587373555;281409;305012;267055;1121;
2024-05-03T10:10:19.035;537925224605540375;281334;304877;267016;1104;
2024-05-03T10:10:19.053;537925224623707195;281363;304901;267031;1138;
2024-05-03T10:10:19.071;537925224641874015;281391;304936;267006;1184;
2024-05-03T10:10:19.090;537925224660040835;281399;304915;267011;1150;
2024-05-03T10:10:19.108;537925224678207655;281398;304970;267016;1169;
2024-05-03T10:10:19.126;537925224696374475;281451;305005;267125;1180;
2024-05-03T10:10:19.144;537925224714541295;281543;305089;267156;1152;
2024-05-03T10:10:19.162;537925224732708115;281583;305160;267209;1121;
2024-05-03T10:10:19.180;537925224750874935;281710;305268;267294;1128;
2024-05-03T10:10:19.199;537925224769041755;281804;305327;267422;1096;
2024-05-03T10:10:19.217;537925224787208575;281941;305425;267562;1184;
2024-05-03T10:10:19.235;537925224805375804;282013;305532;267611;1163;
2024-05-03T10:10:19.253;537925224823542991;282113;305624;267606;1101;
2024-05-03T10:10:19.271;537925224841710178;282265;305766;267751;1148;
2024-05-03T10:10:19.289;537925224859877365;282384;305904;267831;1139;
2024-05-03T10:10:19.308;537925224878044552;282440;305945;268007;1110;
2024-05-03T10:10:19.326;537925224896211739;282537;306094;268071;1129;
2024-05-03T10:10:19.344;537925224914378926;282684;306241;268247;1185;
2024-05-03T10:10:19.362;537925224932546113;282800;306362;268330;1144;
2024-05-03T10:10:19.380;537925224950713300;282887;306451;268476;1107;
2024-05-03T10:10:19.398;537925224968880487;283003;306649;268601;1175;
2024-05-03T10:10:19.417;537925224987047674;283169;306750;268711;1158;
2024-05-03T10:10:19.435;537925225005214861;283310;306921;268905;1140;
2024-05-03T10:10:19.453;537925225023382048;283488;307069;269071;1154;
2024-05-03T10:10:19.471;537925225041549235;283587;307232;269189;1153;
2024-05-03T10:10:19.489;537925225059716422;283728;307410;269348;1141;
2024-05-03T10:10:19.507;537925225077883609;283820;307515;269411;1178;
2024-05-03T10:10:19.526;537925225096050796;283854;307502;269509;1144;
2024-05-03T10:10:19.544;537925225114217983;283722;307352;269362;1117;
2024-05-03T10:10:19.562;537925225132385170;283547;307145;269161;1098;
2024-05-03T10:10:19.580;537925225150552357;283404;307016;269021;1177;
2024-05-03T10:10:19.598;537925225168719544;283267;306832;268896;1101;
2024-05-03T10:10:19.616;537925225186886731;283102;306722;268688;1136;
2024-05-03T10:10:19.635;537925225205053918;282999;306552;268557;1135;
2024-05-03T10:10:19.653;537925225223221105;282935;306527;268597;1114;
2024-05-03T10:10:19.671;537925225241388292;282955;306454;268555;1141;
2024-05-03T10:10:19.689;537925225259555479;282936;306410;268439;1117;
2024-05-03T10:10:19.707;537925225277722666;282925;306417;268476;1130;
2024-05-03T10:10:19.725;537925225295889853;282921;306443;268514;1170;
2024-05-03T10:10:19.744;537925225314057040;282890;306414;268478;1116;
2024-05-03T10:10:19.762;537925225332224227;282974;306435;268535;1172;
2024-05-03T10:10:19.780;537925225350391414;283006;306438;268532;1136;
2024-05-03T10:10:19.798;537925225368558601;283015;306461;268513;1150;
2024-05-03T10:10:19.816;537925225386725788;283005;306418;268484;1154;
2024-05-03T10:10:19.834;537925225404892975;282979;306429;268500;1155;
2024-05-03T10:10:19.853;537925225423060162;282977;306396;268421;1103;
2024-05-03T10:10:19.871;537925225441227349;282988;306403;268424;1178;
2024-05-03T10:10:19.889;537925225459394536;282991;306351;268424;1161;
2024-05-03T10:10:19.907;537925225477561723;283036;306362;268478;1160;
2024-05-03T10:10:19.925;537925225495728910;283079;306440;268533;1122;
2024-05-03T10:10:19.943;537925225513896097;283094;306490;268557;1121;
2024-05-03T10:10:19.962;537925225532063284;283278;306665;268704;1198;
2024-05-03T10:10:19.980;537925225550230471;283279;306729;268753;1166;
2024-05-03T10:10:19.998;537925225568397658;283365;306839;268824;1141;
2024-05-03T10:10:20.016;537925225586564336;283529;306934;268967;1132;
2024-05-03T10:10:20.034;537925225604730974;283669;307047;268998;1111;
2024-05-03T10:10:20.052;537925225622897612;283681;307174;269071;1147;
2024-05-03T10:10:20.071;537925225641064250;283817;307291;269224;1131;
2024-05-03T10:10:20.089;537925225659230888;283952;307346;269277;1152;
2024-05-03T10:10:20.107;537925225677397526;284053;307540;269465;1144;
2024-05-03T10:10:20.125;537925225695564164;284149;307633;269567;1161;
2024-05-03T10:10:20.143;537925225713730802;284229;307700;269652;1111;
2024-05-03T10:10:20.161;537925225731897440;284372;307920;269797;1131;
2024-05-03T10:10:20.180;537925225750064078;284457;308030;269936;1136;
2024-05-03T10:10:20.198;537925225768230716;284604;308128;270075;1178;
2024-05-03T10:10:20.216;537925225786397354;284701;308249;270106;1169;
2024-05-03T10:10:20.234;537925225804563992;284835;308445;270328;1148;
2024-05-03T10:10:20.252;537925225822730630;284974;308603;270484;1145;
2024-05-03T10:10:20.270;537925225840897268;285073;308711;270531;1121;
2024-05-03T10:10:20.289;537925225859063906;285289;308940;270673;1167;
2024-05-03T10:10:20.307;537925225877230544;285329;308951;270765;1150;
2024-05-03T10:10:20.325;537925225895397182;285339;308947;270757;1201;
2024-05-03T10:10:20.343;537925225913563820;285202;308802;270681;1192;
2024-05-03T10:10:20.361;537925225931730458;285025;308609;270469;1185;
2024-05-03T10:10:20.379;537925225949897096;284791;308329;270270;1152;
2024-05-03T10:10:20.398;537925225968063734;284592;308031;269957;1112;
2024-05-03T10:10:20.416;537925225986230372;284463;307924;269850;1145;
2024-05-03T10:10:20.434;537925226004397010;284333;307828;269680;1109;
2024-05-03T10:10:20.452;537925226022563648;284292;307664;269498;1146;
2024-05-03T10:10:20.470;537925226040730286;284205;307622;269468;1120;
2024-05-03T10:10:20.488;537925226058896924;284145;307483;269395;1122;
2024-05-03T10:10:20.507;537925226077063562;284078;307357;269349;1165;
2024-05-03T10:10:20.525;537925226095230200;284031;307350;269285;1181;
2024-05-03T10:10:20.543;537925226113396838;283866;307160;269126;1105;
2024-05-03T10:10:20.561;537925226131563476;283851;307193;269127;1131;
2024-05-03T10:10:20.579;537925226149730114;283814;307099;269081;1147;
2024-05-03T10:10:20.597;537925226167896752;283844;307015;269014;1144;
2024-05-03T10:10:20.616;537925226186063390;283763;306982;268915;1113;
2024-05-03T10:10:20.634;537925226204230028;283792;306971;268965;1165;
2024-05-03T10:10:20.652;537925226222396666;283837;307001;268973;1195;
2024-05-03T10:10:20.670;537925226240563304;283744;306853;268883;1156;
2024-05-03T10:10:20.688;537925226258729942;283761;306874;268919;1178;
2024-05-03T10:10:20.706;537925226276896580;283754;306849;268888;1136;
2024-05-03T10:10:20.725;537925226295063218;283746;306887;268894;1119;
2024-05-03T10:10:20.743;537925226313229856;283783;306910;268931;1168;
2024-05-03T10:10:20.761;537925226331396494;283917;307009;269007;1181;
2024-05-03T10:10:20.779;537925226349564636;283869;306998;269055;1154;
2024-05-03T10:10:20.797;537925226367732764;284044;307148;269121;1161;
2024-05-03T10:10:20.815;537925226385900892;284156;307210;269204;1181;
2024-05-03T10:10:20.834;537925226404069020;284203;307276;269290;1158;
2024-05-03T10:10:20.852;537925226422237148;284268;307384;269375;1140;
2024-05-03T10:10:20.870;537925226440405276;284382;307458;269428;1130;
2024-05-03T10:10:20.888;537925226458573404;284506;307596;269550;1166;
2024-05-03T10:10:20.906;537925226476741532;284595;307672;269636;1122;
2024-05-03T10:10:20.924;537925226494909660;284644;307809;269750;1117;
2024-05-03T10:10:20.943;537925226513077788;284761;307937;269861;1137;
2024-05-03T10:10:20.961;537925226531245916;284854;307988;269941;1144;
2024-05-03T10:10:20.979;537925226549414044;284980;308135;270040;1145;
2024-05-03T10:10:20.997;537925226567582172;285070;308221;270195;1165;
2024-05-03T10:10:21.015;537925226585750300;285188;308379;270325;1165;
2024-05-03T10:10:21.033;537925226603918428;285351;308492;270435;1138;
2024-05-03T10:10:21.052;537925226622086556;285475;308656;270578;1155;
2024-05-03T10:10:21.070;537925226640254684;285592;308765;270740;1177;
2024-05-03T10:10:21.088;537925226658422812;285696;308914;270877;1185;
2024-05-03T10:10:21.106;537925226676590940;285855;309113;271026;1167;
2024-05-03T10:10:21.124;537925226694759068;285977;309220;271109;1162;
2024-05-03T10:10:21.142;537925226712927196;286110;309419;271304;1151;
2024-05-03T10:10:21.161;537925226731095324;286313;309635;271487;1198;
2024-05-03T10:10:21.179;537925226749263452;286404;309835;271625;1165;
2024-05-03T10:10:21.197;537925226767431580;286596;309985;271752;1174;
2024-05-03T10:10:21.215;537925226785599708;286745;310132;271908;1152;
2024-05-03T10:10:21.233;537925226803767836;286764;310159;271949;1204;
2024-05-03T10:10:21.251;537925226821935964;286661;310045;271903;1183;
2024-05-03T10:10:21.270;537925226840104092;286539;309890;271775;1205;
2024-05-03T10:10:21.288;537925226858272220;286384;309693;271593;1164;
2024-05-03T10:10:21.306;537925226876440348;286228;309503;271406;1162;
2024-05-03T10:10:21.324;537925226894608476;285996;309288;271210;1222;
2024-05-03T10:10:21.342;537925226912776604;285925;309181;271099;1171;
2024-05-03T10:10:21.361;537925226930944732;285802;309048;271011;1171;
2024-05-03T10:10:21.379;537925226949112860;285787;309006;270939;1209;
2024-05-03T10:10:21.397;537925226967280988;285749;308867;270907;1167;
2024-05-03T10:10:21.415;537925226985449116;285653;308862;270806;1129;
2024-05-03T10:10:21.433;537925227003617244;285633;308764;270741;1145;
2024-05-03T10:10:21.451;537925227021785372;285524;308635;270656;1173;
2024-05-03T10:10:21.470;537925227039953500;285520;308607;270585;1128;
2024-05-03T10:10:21.488;537925227058121628;285530;308559;270584;1156;
2024-05-03T10:10:21.506;537925227076289135;285538;308512;270560;1216;
2024-05-03T10:10:21.524;537925227094456606;285481;308447;270569;1157;
2024-05-03T10:10:21.542;537925227112624077;285473;308448;270494;1179;
2024-05-03T10:10:21.560;537925227130791548;285425;308443;270478;1170;
2024-05-03T10:10:21.579;537925227148959019;285446;308435;270527;1141;
2024-05-03T10:10:21.597;537925227167126490;285429;308395;270530;1120;
2024-05-03T10:10:21.615;537925227185293961;285482;308405;270504;1182;
2024-05-03T10:10:21.633;537925227203461432;285456;308405;270562;1131;
2024-05-03T10:10:21.651;537925227221628903;285517;308457;270629;1154;
2024-05-03T10:10:21.669;537925227239796374;285560;308529;270621;1109;
2024-05-03T10:10:21.688;537925227257963845;285570;308539;270643;1123;
2024-05-03T10:10:21.706;537925227276131316;285663;308606;270731;1190;
2024-05-03T10:10:21.724;537925227294298787;285801;308750;270835;1203;
2024-05-03T10:10:21.742;537925227312466258;285861;308787;270911;1155;
2024-05-03T10:10:21.760;537925227330633729;285909;308919;271023;1213;
2024-05-03T10:10:21.778;537925227348801200;286052;309011;271120;1161;
2024-05-03T10:10:21.797;537925227366968671;286141;309112;271161;1113;
2024-05-03T10:10:21.815;537925227385136142;286253;309159;271227;1150;
2024-05-03T10:10:21.833;537925227403303613;286311;309189;271331;1146;
2024-05-03T10:10:21.851;537925227421471084;286434;309364;271485;1187;
2024-05-03T10:10:21.869;537925227439638555;286560;309511;271628;1147;
2024-05-03T10:10:21.887;537925227457806026;286617;309588;271704;1146;
2024-05-03T10:10:21.906;537925227475973497;286761;309741;271850;1094;
2024-05-03T10:10:21.924;537925227494140968;286936;309901;271989;1196;
2024-05-03T10:10:21.942;537925227512308439;287039;310046;272147;1233;
2024-05-03T10:10:21.960;537925227530475910;287132;310171;272297;1169;
2024-05-03T10:10:21.978;537925227548643381;287268;310271;272426;1197;
2024-05-03T10:10:21.996;537925227566810852;287460;310465;272608;1222;
2024-05-03T10:10:22.015;537925227584978323;287611;310650;272721;1190;
2024-05-03T10:10:22.033;537925227603145794;287750;310777;272874;1173;
2024-05-03T10:10:22.051;537925227621313265;287908;310916;272990;1199;
2024-05-03T10:10:22.069;537925227639480736;288030;311128;273151;1221;
2024-05-03T10:10:22.087;537925227657648207;288181;311273;273307;1177;
2024-05-03T10:10:22.105;537925227675815678;288292;311439;273535;1173;
2024-05-03T10:10:22.124;537925227693983149;288532;311631;273713;1195;
2024-05-03T10:10:22.142;537925227712150620;288680;311812;273859;1183;
2024-05-03T10:10:22.160;537925227730318091;288826;311984;274019;1191;
2024-05-03T10:10:22.178;537925227748485562;288991;312115;274209;1232;
2024-05-03T10:10:22.196;537925227766653033;289077;312309;274331;1246;
2024-05-03T10:10:22.214;537925227784820504;289048;312278;274322;1215;
2024-05-03T10:10:22.233;537925227802987975;288910;312144;274169;1183;
2024-05-03T10:10:22.251;537925227821155446;288757;311990;274045;1215;
2024-05-03T10:10:22.269;537925227839322917;288602;311836;273906;1231;
2024-05-03T10:10:22.287;537925227857491122;288462;311651;273711;1234;
2024-05-03T10:10:22.305;537925227875659303;288386;311524;273654;1245;
2024-05-03T10:10:22.323;537925227893827484;288363;311437;273627;1301;
2024-05-03T10:10:22.342;537925227911995665;288298;311374;273591;1280;
2024-05-03T10:10:22.360;537925227930163846;288329;311350;273572;1327;
2024-05-03T10:10:22.378;537925227948332027;288342;311331;273514;1286;
2024-05-03T10:10:22.396;537925227966500208;288316;311299;273525;1322;
2024-05-03T10:10:22.414;537925227984668389;288278;311255;273491;1339;
2024-05-03T10:10:22.432;537925228002836570;288256;311192;273504;1301;
2024-05-03T10:10:22.451;537925228021004751;288288;311221;273483;1389;
2024-05-03T10:10:22.469;537925228039172932;288292;311249;273485;1380;
2024-05-03T10:10:22.487;537925228057341113;288375;311263;273554;1407;
2024-05-03T10:10:22.505;537925228075509294;288437;311381;273650;1550;
2024-05-03T10:10:22.523;537925228093677475;288475;311493;273805;1593;
2024-05-03T10:10:22.541;537925228111845656;288725;311608;273963;1821;
2024-05-03T10:10:22.560;537925228130013837;288925;311864;274209;1994;
2024-05-03T10:10:22.578;537925228148182018;289209;312050;274434;2264;
2024-05-03T10:10:22.596;537925228166350199;289517;312330;274724;2512;
2024-05-03T10:10:22.614;537925228184518380;289865;312713;274998;2793;
2024-05-03T10:10:22.632;537925228202686561;290211;313001;275352;3118;
2024-05-03T10:10:22.650;537925228220854742;290534;313364;275717;3347;
2024-05-03T10:10:22.669;537925228239022923;290883;313742;276099;3617;
2024-05-03T10:10:22.687;537925228257191104;291293;314113;276477;3909;
2024-05-03T10:10:22.705;537925228275359285;291550;314448;276877;4106;
2024-05-03T10:10:22.723;537925228293527466;291830;314773;277208;4327;
2024-05-03T10:10:22.741;537925228311695647;292172;315044;277449;4585;
2024-05-03T10:10:22.759;537925228329863828;292398;315329;277733;4652;
2024-05-03T10:10:22.778;537925228348032009;292738;315561;277966;4816;
2024-05-03T10:10:22.796;537925228366200190;292871;315759;278188;4920;
2024-05-03T10:10:22.814;537925228384368371;293029;315939;278342;5000;
2024-05-03T10:10:22.832;537925228402536552;293259;316131;278581;5077;
2024-05-03T10:10:22.850;537925228420704733;293426;316377;278801;5146;
2024-05-03T10:10:22.868;537925228438872914;293683;316547;278969;5261;
2024-05-03T10:10:22.887;537925228457041095;293857;316790;279196;5293;
2024-05-03T10:10:22.905;537925228475209276;294013;316956;279326;5380;
2024-05-03T10:10:22.923;537925228493377457;294178;317151;279559;5382;
2024-05-03T10:10:22.941;537925228511545638;294352;317343;279770;5409;
2024-05-03T10:10:22.959;537925228529713819;294560;317545;279951;5503;
2024-05-03T10:10:22.977;537925228547882000;294735;317804;280196;5551;
2024-05-03T10:10:22.996;537925228566050181;294885;317979;280315;5598;
2024-05-03T10:10:23.014;537925228584218362;295074;318105;280602;5684;
2024-05-03T10:10:23.032;537925228602386543;295310;318382;280798;5706;
2024-05-03T10:10:23.050;537925228620554724;295475;318547;280966;5698;
2024-05-03T10:10:23.068;537925228638724257;295719;318761;281203;5794;
2024-05-03T10:10:23.086;537925228656893787;295824;318952;281380;5821;
2024-05-03T10:10:23.105;537925228675063317;295972;319168;281529;5836;
2024-05-03T10:10:23.123;537925228693232847;296059;319226;281692;5854;
2024-05-03T10:10:23.141;537925228711402377;296105;319285;281690;5838;
2024-05-03T10:10:23.159;537925228729571907;295987;319165;281643;5911;
2024-05-03T10:10:23.177;537925228747741437;295839;319066;281503;5843;
2024-05-03T10:10:23.195;537925228765910967;295769;318939;281429;5874;
2024-05-03T10:10:23.214;537925228784080497;295687;318757;281358;5863;
2024-05-03T10:10:23.232;537925228802250027;295566;318643;281303;5899;
2024-05-03T10:10:23.250;537925228820419557;295525;318669;281317;5954;
2024-05-03T10:10:23.268;537925228838589087;295549;318621;281260;5930;
2024-05-03T10:10:23.286;537925228856758617;295518;318591;281282;5912;
2024-05-03T10:10:23.304;537925228874928147;295527;318620;281253;5925;
2024-05-03T10:10:23.323;537925228893097677;295597;318602;281269;5874;
2024-05-03T10:10:23.341;537925228911267207;295577;318569;281272;5844;
2024-05-03T10:10:23.359;537925228929436737;295602;318634;281321;5898;
2024-05-03T10:10:23.377;537925228947606267;295672;318655;281352;5927;
2024-05-03T10:10:23.395;537925228965775797;295712;318668;281408;5939;
2024-05-03T10:10:23.414;537925228983945327;295688;318681;281432;5950;
2024-05-03T10:10:23.432;537925229002114857;295670;318678;281401;5933;
2024-05-03T10:10:23.450;537925229020284387;295626;318702;281368;5899;
2024-05-03T10:10:23.468;537925229038453917;295596;318680;281328;5907;
2024-05-03T10:10:23.486;537925229056623447;295599;318642;281391;5814;
2024-05-03T10:10:23.504;537925229074792977;295689;318705;281419;5871;
2024-05-03T10:10:23.523;537925229092962507;295718;318738;281463;5845;
2024-05-03T10:10:23.541;537925229111132037;295750;318791;281542;5829;
2024-05-03T10:10:23.559;537925229129301567;295847;318879;281572;5861;
2024-05-03T10:10:23.577;537925229147471097;295893;318980;281693;5778;
2024-05-03T10:10:23.595;537925229165640627;296030;319017;281813;5826;
2024-05-03T10:10:23.613;537925229183810157;296108;319113;281856;5826;
2024-05-03T10:10:23.632;537925229201979687;296094;319223;281969;5799;
2024-05-03T10:10:23.650;537925229220149217;296236;319320;281986;5811;
2024-05-03T10:10:23.668;537925229238318747;296345;319430;282186;5830;
2024-05-03T10:10:23.686;537925229256488277;296522;319622;282396;5859;
2024-05-03T10:10:23.704;537925229274657807;296612;319701;282439;5843;
2024-05-03T10:10:23.722;537925229292827337;296636;319838;282481;5832;
2024-05-03T10:10:23.741;537925229310996867;296807;320001;282633;5832;
2024-05-03T10:10:23.759;537925229329166397;296918;320123;282708;5805;
2024-05-03T10:10:23.777;537925229347335927;297050;320263;282807;5767;
2024-05-03T10:10:23.795;537925229365505457;297175;320339;282945;5763;
2024-05-03T10:10:23.813;537925229383674987;297190;320479;283078;5838;
2024-05-03T10:10:23.831;537925229401844517;297391;320692;283228;5873;
2024-05-03T10:10:23.850;537925229420015367;297538;320821;283393;5858;
2024-05-03T10:10:23.868;537925229438186183;297657;320948;283478;5876;
2024-05-03T10:10:23.886;537925229456356999;297783;321082;283581;5860;
2024-05-03T10:10:23.904;537925229474527815;297968;321295;283755;5916;
2024-05-03T10:10:23.922;537925229492698631;298112;321442;283890;5888;
2024-05-03T10:10:23.940;537925229510869447;298209;321574;284018;5858;
2024-05-03T10:10:23.959;537925229529040263;298293;321677;284167;5855;
2024-05-03T10:10:23.977;537925229547211079;298283;321719;284187;5960;
2024-05-03T10:10:23.995;537925229565381895;298146;321533;284057;5893;
2024-05-03T10:10:24.013;537925229583552711;297984;321411;283969;5875;
2024-05-03T10:10:24.031;537925229601723527;297863;321161;283786;5921;
2024-05-03T10:10:24.049;537925229619894343;297750;321051;283567;5929;
2024-05-03T10:10:24.068;537925229638065159;297612;320955;283461;5921;
2024-05-03T10:10:24.086;537925229656235975;297536;320805;283417;5918;
2024-05-03T10:10:24.104;537925229674406791;297489;320771;283353;5925;
2024-05-03T10:10:24.122;537925229692577607;297382;320709;283324;5896;
2024-05-03T10:10:24.140;537925229710748423;297380;320609;283293;5898;
2024-05-03T10:10:24.158;537925229728919239;297298;320524;283223;5895;
2024-05-03T10:10:24.177;537925229747090055;297356;320509;283183;5908;
2024-05-03T10:10:24.195;537925229765260871;297308;320544;283181;5912;
2024-05-03T10:10:24.213;537925229783431687;297318;320526;283085;5878;
2024-05-03T10:10:24.231;537925229801602503;297285;320486;283152;5894;
2024-05-03T10:10:24.249;537925229819773319;297260;320530;283078;5870;
2024-05-03T10:10:24.268;537925229837944135;297200;320376;283019;5870;
2024-05-03T10:10:24.286;537925229856114951;297183;320339;283000;5861;
2024-05-03T10:10:24.304;537925229874285767;297172;320350;283030;5846;
2024-05-03T10:10:24.322;537925229892456583;297165;320334;282969;5841;
2024-05-03T10:10:24.340;537925229910627399;297156;320344;283039;5858;
2024-05-03T10:10:24.358;537925229928798215;297171;320389;283008;5869;
2024-05-03T10:10:24.377;537925229946969031;297233;320341;282988;5870;
2024-05-03T10:10:24.395;537925229965139847;297314;320393;283049;5876;
2024-05-03T10:10:24.413;537925229983310663;297354;320523;283138;5897;
2024-05-03T10:10:24.431;537925230001481479;297393;320581;283179;5913;
2024-05-03T10:10:24.449;537925230019652295;297501;320674;283248;5870;
2024-05-03T10:10:24.467;537925230037823111;297581;320763;283325;5904;
2024-05-03T10:10:24.486;537925230055993927;297639;320801;283406;5893;
2024-05-03T10:10:24.504;537925230074164743;297744;320963;283498;5881;
2024-05-03T10:10:24.522;537925230092335559;297788;321005;283571;5861;
2024-05-03T10:10:24.540;537925230110506375;297861;321124;283693;5884;
2024-05-03T10:10:24.558;537925230128677191;297930;321232;283818;5837;
2024-05-03T10:10:24.576;537925230146848007;298047;321258;283905;5853;
2024-05-03T10:10:24.595;537925230165018823;298150;321396;283941;5857;
2024-05-03T10:10:24.613;537925230183187340;298229;321465;284067;5835;
2024-05-03T10:10:24.631;537925230201355831;298349;321648;284118;5853;
2024-05-03T10:10:24.649;537925230219524322;298411;321821;284194;5869;
2024-05-03T10:10:24.667;537925230237692813;298481;321888;284299;5836;
2024-05-03T10:10:24.685;537925230255861304;298614;322007;284485;5796;
2024-05-03T10:10:24.704;537925230274029795;298756;322144;284605;5797;
2024-05-03T10:10:24.722;537925230292198286;298850;322287;284723;5831;
2024-05-03T10:10:24.740;537925230310366777;298917;322404;284814;5828;
2024-05-03T10:10:24.758;537925230328535268;299052;322536;284945;5805;
2024-05-03T10:10:24.776;537925230346703759;299193;322676;285044;5821;
2024-05-03T10:10:24.794;537925230364872250;299321;322806;285190;5869;
2024-05-03T10:10:24.813;537925230383040741;299470;322996;285347;5843;
2024-05-03T10:10:24.831;537925230401209232;299605;323157;285489;5831;
2024-05-03T10:10:24.849;537925230419377723;299824;323353;285700;5903;
2024-05-03T10:10:24.867;537925230437546214;299775;323395;285739;5846;
2024-05-03T10:10:24.885;537925230455714705;299778;323406;285709;5803;
2024-05-03T10:10:24.903;537925230473883196;299654;323285;285583;5828;
2024-05-03T10:10:24.922;537925230492051687;299416;323098;285426;5806;
2024-05-03T10:10:24.940;537925230510220178;299294;322890;285309;5784;
2024-05-03T10:10:24.958;537925230528388669;299144;322742;285121;5753;
2024-05-03T10:10:24.976;537925230546557160;299024;322533;285025;5821;
2024-05-03T10:10:24.994;537925230564725651;298902;322438;284863;5756;
2024-05-03T10:10:25.012;537925230582894142;298838;322345;284820;5727;
2024-05-03T10:10:25.031;537925230601062633;298718;322251;284690;5669;
2024-05-03T10:10:25.049;537925230619231124;298602;322199;284582;5625;
2024-05-03T10:10:25.067;537925230637399615;298556;322091;284588;5668;
2024-05-03T10:10:25.085;537925230655568106;298447;322030;284461;5588;
2024-05-03T10:10:25.103;537925230673736597;298357;321873;284276;5549;
2024-05-03T10:10:25.121;537925230691905088;298237;321803;284244;5507;
2024-05-03T10:10:25.140;537925230710073579;298191;321715;284128;5409;
2024-05-03T10:10:25.158;537925230728242070;298075;321614;284117;5324;
2024-05-03T10:10:25.176;537925230746410561;298004;321498;283977;5285;
2024-05-03T10:10:25.194;537925230764579052;297856;321427;283909;5221;
2024-05-03T10:10:25.212;537925230782747543;297793;321369;283809;5158;
2024-05-03T10:10:25.230;537925230800916034;297692;321228;283815;5058;
2024-05-03T10:10:25.249;537925230819084525;297550;321051;283626;5014;
2024-05-03T10:10:25.267;537925230837253016;297492;321025;283585;4937;
2024-05-03T10:10:25.285;537925230855421507;297392;320936;283487;4768;
2024-05-03T10:10:25.303;537925230873589998;297332;320834;283429;4702;
2024-05-03T10:10:25.321;537925230891758489;297247;320736;283354;4565;
2024-05-03T10:10:25.339;537925230909926980;297086;320624;283217;4405;
2024-05-03T10:10:25.358;537925230928095471;297035;320559;283163;4322;
2024-05-03T10:10:25.376;537925230946263663;296985;320510;283127;4140;
2024-05-03T10:10:25.394;537925230964431827;296839;320355;282972;3970;
2024-05-03T10:10:25.412;537925230982599991;296791;320301;282938;3845;
2024-05-03T10:10:25.430;537925231000768155;296685;320241;282899;3703;
2024-05-03T10:10:25.448;537925231018936319;296539;320121;282747;3432;
2024-05-03T10:10:25.467;537925231037104483;296465;320059;282638;3308;
2024-05-03T10:10:25.485;537925231055272647;296390;320036;282597;3139;
2024-05-03T10:10:25.503;537925231073440811;296290;319910;282495;2972;
2024-05-03T10:10:25.521;537925231091608975;296213;319885;282457;2841;
2024-05-03T10:10:25.539;537925231109777139;296141;319814;282351;2690;
2024-05-03T10:10:25.558;537925231127945303;296058;319752;282350;2529;
2024-05-03T10:10:25.576;537925231146113467;296076;319751;282327;2407;
2024-05-03T10:10:25.594;537925231164281631;296106;319742;282338;2316;
2024-05-03T10:10:25.612;537925231182449795;296044;319765;282329;2219;
2024-05-03T10:10:25.630;537925231200617959;296065;319786;282358;2119;
2024-05-03T10:10:25.648;537925231218786123;296134;319908;282460;2124;
2024-05-03T10:10:25.667;537925231236954287;296206;319941;282469;2061;
2024-05-03T10:10:25.685;537925231255122451;296329;320022;282607;2065;
2024-05-03T10:10:25.703;537925231273290615;296359;320157;282602;2000;
2024-05-03T10:10:25.721;537925231291458779;296452;320271;282762;2006;
2024-05-03T10:10:25.739;537925231309626943;296537;320386;282812;1976;
2024-05-03T10:10:25.757;537925231327795107;296586;320425;282925;1951;
2024-05-03T10:10:25.776;537925231345963271;296663;320570;283015;1946;
2024-05-03T10:10:25.794;537925231364131435;296747;320686;283162;1865;
2024-05-03T10:10:25.812;537925231382299599;296856;320801;283289;1778;
2024-05-03T10:10:25.830;537925231400467763;296877;320772;283204;1829;
2024-05-03T10:10:25.848;537925231418635927;296757;320745;283162;1776;
2024-05-03T10:10:25.866;537925231436804091;296628;320584;282994;1792;
2024-05-03T10:10:25.885;537925231454972255;296441;320428;282833;1785;
2024-05-03T10:10:25.903;537925231473140419;296257;320213;282686;1759;
2024-05-03T10:10:25.921;537925231491308583;296081;320021;282527;1748;
2024-05-03T10:10:25.939;537925231509476747;295992;319918;282390;1759;
2024-05-03T10:10:25.957;537925231527644911;295902;319747;282285;1759;
2024-05-03T10:10:25.975;537925231545813075;295815;319711;282176;1720;
2024-05-03T10:10:25.994;537925231563981239;295770;319652;282192;1704;
2024-05-03T10:10:26.012;537925231582149403;295787;319730;282147;1682;
2024-05-03T10:10:26.030;537925231600317567;295724;319588;282120;1689;
2024-05-03T10:10:26.048;537925231618485731;295633;319527;282032;1629;
2024-05-03T10:10:26.066;537925231636653895;295605;319518;281989;1653;
2024-05-03T10:10:26.084;537925231654822059;295646;319542;282050;1711;
2024-05-03T10:10:26.103;537925231672990223;295617;319489;281955;1656;
2024-05-03T10:10:26.121;537925231691158387;295647;319439;281943;1682;
2024-05-03T10:10:26.139;537925231709327271;295656;319463;281942;1738;
2024-05-03T10:10:26.157;537925231727496127;295560;319347;281872;1676;
2024-05-03T10:10:26.175;537925231745664983;295479;319388;281819;1695;
2024-05-03T10:10:26.193;537925231763833839;295441;319378;281709;1667;
2024-05-03T10:10:26.212;537925231782002695;295448;319388;281791;1612;
2024-05-03T10:10:26.230;537925231800171551;295530;319365;281818;1673;
2024-05-03T10:10:26.248;537925231818340407;295516;319383;281855;1597;
2024-05-03T10:10:26.266;537925231836509263;295510;319341;281934;1627;
2024-05-03T10:10:26.284;537925231854678119;295621;319452;281976;1583;
2024-05-03T10:10:26.302;537925231872846975;295716;319518;281959;1649;
2024-05-03T10:10:26.321;537925231891015831;295706;319554;281982;1623;
2024-05-03T10:10:26.339;537925231909184687;295763;319662;282065;1611;
2024-05-03T10:10:26.357;537925231927353543;295840;319766;282154;1618;
2024-05-03T10:10:26.375;537925231945522399;295882;319823;282205;1591;
2024-05-03T10:10:26.393;537925231963691255;295936;319918;282305;1581;
2024-05-03T10:10:26.411;537925231981860111;296078;320031;282456;1590;
2024-05-03T10:10:26.430;537925232000028967;296141;320109;282439;1548;
2024-05-03T10:10:26.448;537925232018197823;296237;320194;282510;1550;
2024-05-03T10:10:26.466;537925232036366679;296301;320314;282602;1609;
2024-05-03T10:10:26.484;537925232054535535;296382;320333;282683;1540;
2024-05-03T10:10:26.502;537925232072704391;296430;320436;282785;1527;
2024-05-03T10:10:26.520;537925232090873247;296514;320589;282877;1543;
2024-05-03T10:10:26.539;537925232109042103;296661;320709;282993;1578;
2024-05-03T10:10:26.557;537925232127210959;296679;320767;283041;1535;
2024-05-03T10:10:26.575;537925232145379815;296789;320853;283129;1508;
2024-05-03T10:10:26.593;537925232163548671;296917;320977;283271;1514;
2024-05-03T10:10:26.611;537925232181717527;296946;321103;283340;1468;
2024-05-03T10:10:26.629;537925232199886383;297095;321179;283504;1556;
2024-05-03T10:10:26.648;537925232218055239;297230;321315;283585;1521;
2024-05-03T10:10:26.666;537925232236224095;297350;321409;283720;1535;
2024-05-03T10:10:26.684;537925232254392951;297460;321598;283805;1501;
2024-05-03T10:10:26.702;537925232272561807;297589;321693;283969;1486;
2024-05-03T10:10:26.720;537925232290730663;297682;321820;284035;1454;
2024-05-03T10:10:26.738;537925232308899519;297801;322014;284165;1527;
2024-05-03T10:10:26.757;537925232327068375;297840;322043;284261;1503;
2024-05-03T10:10:26.775;537925232345237231;297754;322032;284183;1456;
2024-05-03T10:10:26.793;537925232363406087;297626;321920;284183;1482;
2024-05-03T10:10:26.811;537925232381574943;297512;321701;283934;1418;
2024-05-03T10:10:26.829;537925232399743799;297327;321512;283819;1452;
2024-05-03T10:10:26.847;537925232417912655;297162;321447;283759;1435;
2024-05-03T10:10:26.866;537925232436081511;297080;321335;283617;1429;
2024-05-03T10:10:26.884;537925232454250367;297063;321331;283643;1478;
2024-05-03T10:10:26.902;537925232472419223;297043;321273;283571;1487;
2024-05-03T10:10:26.920;537925232490588079;297001;321211;283533;1476;
2024-05-03T10:10:26.938;537925232508759946;296998;321280;283555;1459;
2024-05-03T10:10:26.956;537925232526931782;297051;321322;283554;1400;
2024-05-03T10:10:26.975;537925232545103618;297012;321292;283555;1437;
2024-05-03T10:10:26.993;537925232563275454;297008;321291;283598;1389;
2024-05-03T10:10:27.011;537925232581447290;297059;321385;283593;1479;
2024-05-03T10:10:27.029;537925232599619126;297084;321327;283599;1455;
2024-05-03T10:10:27.047;537925232617790962;297060;321387;283638;1510;
2024-05-03T10:10:27.066;537925232635962798;297083;321366;283669;1509;
2024-05-03T10:10:27.084;537925232654134634;297128;321409;283723;1572;
2024-05-03T10:10:27.102;537925232672306470;297156;321504;283745;1601;
2024-05-03T10:10:27.120;537925232690478306;297222;321546;283814;1661;
2024-05-03T10:10:27.138;537925232708650142;297290;321588;283942;1741;
2024-05-03T10:10:27.156;537925232726821978;297388;321683;283930;1798;
2024-05-03T10:10:27.175;537925232744993814;297561;321858;284200;1928;
2024-05-03T10:10:27.193;537925232763165650;297754;322105;284381;2098;
2024-05-03T10:10:27.211;537925232781337486;297992;322330;284612;2205;
2024-05-03T10:10:27.229;537925232799509322;298196;322489;284812;2339;
2024-05-03T10:10:27.247;537925232817681158;298374;322767;285026;2461;
2024-05-03T10:10:27.265;537925232835852994;298566;322979;285287;2591;
2024-05-03T10:10:27.284;537925232854024830;298836;323258;285553;2795;
2024-05-03T10:10:27.302;537925232872196666;299074;323465;285742;2910;
2024-05-03T10:10:27.320;537925232890368502;299348;323730;285969;3107;
2024-05-03T10:10:27.338;537925232908540338;299602;323993;286233;3305;
2024-05-03T10:10:27.356;537925232926712174;299871;324265;286577;3503;
2024-05-03T10:10:27.374;537925232944884010;300095;324528;286767;3622;
2024-05-03T10:10:27.393;537925232963055846;300391;324790;287113;3810;
2024-05-03T10:10:27.411;537925232981227682;300546;325085;287345;3984;
2024-05-03T10:10:27.429;537925232999399518;300773;325268;287554;4072;
2024-05-03T10:10:27.447;537925233017571354;300935;325438;287807;4164;
2024-05-03T10:10:27.465;537925233035743190;301184;325700;288003;4284;
2024-05-03T10:10:27.483;537925233053915026;301490;325977;288181;4451;
2024-05-03T10:10:27.502;537925233072086862;301657;326227;288483;4549;
2024-05-03T10:10:27.520;537925233090258698;301863;326419;288640;4671;
2024-05-03T10:10:27.538;537925233108430534;302008;326647;288861;4755;
2024-05-03T10:10:27.556;537925233126602370;302180;326834;289084;4839;
2024-05-03T10:10:27.574;537925233144774206;302403;327102;289266;4954;
2024-05-03T10:10:27.593;537925233162946042;302620;327293;289495;5026;
2024-05-03T10:10:27.611;537925233181117878;302657;327398;289558;4996;
2024-05-03T10:10:27.629;537925233199289714;302757;327417;289554;5087;
2024-05-03T10:10:27.647;537925233217461550;302644;327365;289577;5146;
2024-05-03T10:10:27.665;537925233235633386;302556;327217;289502;5250;
2024-05-03T10:10:27.683;537925233253805222;302377;327116;289355;5219;
2024-05-03T10:10:27.702;537925233271977058;302253;327040;289369;5304;
2024-05-03T10:10:27.720;537925233290148169;302264;327031;289296;5347;
2024-05-03T10:10:27.738;537925233308319264;302217;326964;289217;5306;
2024-05-03T10:10:27.756;537925233326490359;302217;327007;289220;5380;
2024-05-03T10:10:27.774;537925233344661454;302236;326990;289251;5435;
2024-05-03T10:10:27.792;537925233362832549;302213;326971;289295;5397;
2024-05-03T10:10:27.811;537925233381003644;302282;327059;289280;5472;
2024-05-03T10:10:27.829;537925233399174739;302326;327096;289341;5507;
2024-05-03T10:10:27.847;537925233417345834;302310;327089;289338;5506;
2024-05-03T10:10:27.865;537925233435516929;302331;327143;289351;5522;
2024-05-03T10:10:27.883;537925233453688024;302360;327182;289381;5489;
2024-05-03T10:10:27.901;537925233471859119;302366;327210;289444;5551;
2024-05-03T10:10:27.920;537925233490030214;302392;327268;289477;5566;
2024-05-03T10:10:27.938;537925233508201309;302322;327183;289420;5567;
2024-05-03T10:10:27.956;537925233526372404;302237;327170;289417;5572;
2024-05-03T10:10:27.974;537925233544543499;302281;327196;289375;5568;
2024-05-03T10:10:27.992;537925233562714594;302308;327243;289468;5638;
2024-05-03T10:10:28.010;537925233580885689;302301;327231;289398;5545;
2024-05-03T10:10:28.029;537925233599056784;302335;327277;289435;5555;
2024-05-03T10:10:28.047;537925233617227879;302396;327412;289547;5554;
2024-05-03T10:10:28.065;537925233635398974;302422;327401;289615;5533;
2024-05-03T10:10:28.083;537925233653570069;302532;327480;289632;5550;
2024-05-03T10:10:28.101;537925233671741164;302606;327565;289713;5531;
2024-05-03T10:10:28.119;537925233689912259;302681;327645;289809;5602;
2024-05-03T10:10:28.138;537925233708083354;302731;327776;289844;5562;
2024-05-03T10:10:28.156;537925233726254449;302780;327896;289996;5593;
2024-05-03T10:10:28.174;537925233744425544;302878;327942;290031;5577;
2024-05-03T10:10:28.192;537925233762596639;302965;328062;290124;5613;
2024-05-03T10:10:28.210;537925233780767734;303078;328105;290199;5632;
2024-05-03T10:10:28.228;537925233798938829;303098;328160;290335;5586;
2024-05-03T10:10:28.247;537925233817109924;303226;328255;290398;5651;
2024-05-03T10:10:28.265;537925233835281019;303297;328424;290516;5662;
2024-05-03T10:10:28.283;537925233853452114;303366;328474;290610;5675;
2024-05-03T10:10:28.301;537925233871623209;303398;328577;290655;5620;
2024-05-03T10:10:28.319;537925233889794304;303524;328611;290720;5589;
2024-05-03T10:10:28.338;537925233907965399;303603;328720;290821;5615;
2024-05-03T10:10:28.356;537925233926136494;303658;328892;290934;5654;
2024-05-03T10:10:28.374;537925233944307589;303760;328957;291066;5636;
2024-05-03T10:10:28.392;537925233962478684;303875;329118;291114;5628;
2024-05-03T10:10:28.410;537925233980649779;303931;329228;291219;5633;
2024-05-03T10:10:28.428;537925233998820874;304008;329362;291322;5606;
2024-05-03T10:10:28.447;537925234016991969;304170;329477;291496;5620;
2024-05-03T10:10:28.465;537925234035163064;304221;329489;291506;5554;
2024-05-03T10:10:28.483;537925234053334159;304158;329454;291421;5577;
2024-05-03T10:10:28.501;537925234071505254;304021;329341;291318;5638;
2024-05-03T10:10:28.519;537925234089676349;303851;329190;291198;5637;
2024-05-03T10:10:28.537;537925234107846074;303735;329002;291078;5702;
2024-05-03T10:10:28.556;537925234126015781;303559;328901;290920;5624;
2024-05-03T10:10:28.574;537925234144185488;303397;328749;290813;5658;
2024-05-03T10:10:28.592;537925234162355195;303337;328751;290771;5698;
2024-05-03T10:10:28.610;537925234180524902;303273;328702;290714;5708;
2024-05-03T10:10:28.628;537925234198694609;303190;328635;290666;5674;
2024-05-03T10:10:28.646;537925234216864316;303170;328550;290620;5632;
2024-05-03T10:10:28.665;537925234235034023;303095;328551;290585;5642;
2024-05-03T10:10:28.683;537925234253203730;303036;328464;290504;5651;
2024-05-03T10:10:28.701;537925234271373437;303009;328430;290438;5664;
2024-05-03T10:10:28.719;537925234289543144;303018;328480;290423;5702;
2024-05-03T10:10:28.737;537925234307712851;302931;328480;290395;5676;
2024-05-03T10:10:28.755;537925234325882558;302887;328390;290390;5607;
2024-05-03T10:10:28.774;537925234344052265;302863;328319;290327;5641;
2024-05-03T10:10:28.792;537925234362221972;302809;328271;290358;5627;
2024-05-03T10:10:28.810;537925234380391679;302768;328236;290319;5657;
2024-05-03T10:10:28.828;537925234398561386;302805;328226;290282;5641;
2024-05-03T10:10:28.846;537925234416731093;302722;328223;290244;5608;
2024-05-03T10:10:28.864;537925234434900800;302693;328187;290275;5651;
2024-05-03T10:10:28.883;537925234453070507;302699;328249;290291;5667;
2024-05-03T10:10:28.901;537925234471240214;302748;328327;290314;5653;
2024-05-03T10:10:28.919;537925234489409921;302785;328379;290281;5648;
2024-05-03T10:10:28.937;537925234507579628;302826;328387;290288;5675;
2024-05-03T10:10:28.955;537925234525749335;302797;328355;290342;5703;
2024-05-03T10:10:28.973;537925234543919042;302882;328453;290451;5710;
2024-05-03T10:10:28.992;537925234562088749;302903;328524;290463;5653;
2024-05-03T10:10:29.010;537925234580258456;303013;328535;290529;5693;
2024-05-03T10:10:29.028;537925234598428163;302987;328649;290652;5740;
2024-05-03T10:10:29.046;537925234616597870;303002;328736;290635;5688;
2024-05-03T10:10:29.064;537925234634767577;303091;328754;290702;5705;
2024-05-03T10:10:29.082;537925234652937284;303196;328824;290820;5705;
2024-05-03T10:10:29.101;537925234671106991;303227;328973;290877;5644;
2024-05-03T10:10:29.119;537925234689276698;303307;329026;290966;5734;
2024-05-03T10:10:29.137;537925234707446405;303376;329148;291049;5720;
2024-05-03T10:10:29.155;537925234725616112;303396;329178;291078;5720;
2024-05-03T10:10:29.173;537925234743785819;303504;329210;291179;5765;
2024-05-03T10:10:29.192;537925234761955526;303524;329296;291283;5803;
2024-05-03T10:10:29.210;537925234780125233;303656;329399;291356;5796;
2024-05-03T10:10:29.228;537925234798294940;303721;329476;291395;5778;
2024-05-03T10:10:29.246;537925234816464647;303808;329614;291520;5820;
2024-05-03T10:10:29.264;537925234834634354;303911;329702;291561;5792;
2024-05-03T10:10:29.282;537925234852804061;304024;329836;291668;5781;
2024-05-03T10:10:29.301;537925234870973768;304065;329906;291757;5735;
2024-05-03T10:10:29.319;537925234889141585;304186;330065;291862;5717;
2024-05-03T10:10:29.337;537925234907309386;304322;330188;291969;5785;
2024-05-03T10:10:29.355;537925234925477187;304375;330249;292114;5789;
2024-05-03T10:10:29.373;537925234943644988;304412;330348;292163;5815;
2024-05-03T10:10:29.391;537925234961812789;304299;330229;292036;5802;
2024-05-03T10:10:29.410;537925234979980590;304127;330088;291916;5818;
2024-05-03T10:10:29.428;537925234998148391;303936;329891;291765;5799;
2024-05-03T10:10:29.446;537925235016316192;303751;329704;291592;5785;
2024-05-03T10:10:29.464;537925235034483993;303555;329553;291427;5799;
2024-05-03T10:10:29.482;537925235052651794;303411;329420;291282;5784;
2024-05-03T10:10:29.500;537925235070819595;303409;329352;291259;5860;
2024-05-03T10:10:29.519;537925235088987396;303230;329275;291172;5867;
2024-05-03T10:10:29.537;537925235107155197;303130;329169;291053;5820;
2024-05-03T10:10:29.555;537925235125322998;303100;329142;291053;5811;
2024-05-03T10:10:29.573;537925235143490799;303035;329074;290979;5797;
2024-05-03T10:10:29.591;537925235161658600;302933;328978;290857;5761;
2024-05-03T10:10:29.609;537925235179826401;302953;328951;290869;5847;
2024-05-03T10:10:29.628;537925235197994202;302897;328930;290875;5767;
2024-05-03T10:10:29.646;537925235216162003;302836;328899;290801;5765;
2024-05-03T10:10:29.664;537925235234329804;302763;328817;290740;5771;
2024-05-03T10:10:29.682;537925235252497605;302665;328739;290670;5786;
2024-05-03T10:10:29.700;537925235270665406;302615;328770;290574;5785;
2024-05-03T10:10:29.718;537925235288833207;302578;328651;290467;5769;
2024-05-03T10:10:29.737;537925235307001008;302512;328615;290489;5792;
2024-05-03T10:10:29.755;537925235325168809;302395;328541;290418;5805;
2024-05-03T10:10:29.773;537925235343336610;302353;328492;290403;5827;
2024-05-03T10:10:29.791;537925235361504411;302324;328499;290420;5803;
2024-05-03T10:10:29.809;537925235379672212;302404;328552;290398;5755;
2024-05-03T10:10:29.827;537925235397840013;302440;328587;290422;5774;
2024-05-03T10:10:29.846;537925235416007814;302409;328598;290420;5803;
2024-05-03T10:10:29.864;537925235434175615;302497;328618;290454;5819;
2024-05-03T10:10:29.882;537925235452343416;302466;328703;290456;5838;
2024-05-03T10:10:29.900;537925235470511217;302491;328705;290521;5791;
2024-05-03T10:10:29.918;537925235488679018;302537;328726;290530;5814;
2024-05-03T10:10:29.936;537925235506846819;302610;328811;290676;5764;
2024-05-03T10:10:29.955;537925235525014620;302631;328851;290714;5839;
2024-05-03T10:10:29.973;537925235543182421;302682;328930;290737;5778;
2024-05-03T10:10:29.991;537925235561350222;302765;329009;290791;5842;
2024-05-03T10:10:30.009;537925235579518023;302793;329050;290892;5825;
2024-05-03T10:10:30.027;537925235597685824;302799;329052;290852;5805;
2024-05-03T10:10:30.045;537925235615853625;302886;329138;290946;5789;
2024-05-03T10:10:30.064;537925235634021426;302993;329187;291008;5790;
2024-05-03T10:10:30.082;537925235652192167;303051;329262;291062;5836;
2024-05-03T10:10:30.100;537925235670362889;303086;329330;291116;5874;
2024-05-03T10:10:30.118;537925235688533611;303162;329476;291225;5864;
2024-05-03T10:10:30.136;537925235706704333;303203;329525;291335;5822;
2024-05-03T10:10:30.154;537925235724875055;303340;329571;291406;5827;
2024-05-03T10:10:30.173;537925235743045777;303375;329648;291485;5848;
2024-05-03T10:10:30.191;537925235761216499;303422;329761;291574;5841;
2024-05-03T10:10:30.209;537925235779387221;303550;329831;291633;5846;
2024-05-03T10:10:30.227;537925235797557943;303567;329950;291678;5793;
2024-05-03T10:10:30.245;537925235815728665;303696;330097;291847;5855;
2024-05-03T10:10:30.263;537925235833899387;303815;330186;291918;5822;
2024-05-03T10:10:30.282;537925235852070109;303939;330357;292048;5880;
2024-05-03T10:10:30.300;537925235870240831;303912;330283;292038;5846;
2024-05-03T10:10:30.318;537925235888411553;303866;330163;291985;5826;
2024-05-03T10:10:30.336;537925235906582275;303690;329996;291890;5833;
2024-05-03T10:10:30.354;537925235924752997;303448;329810;291722;5837;
2024-05-03T10:10:30.372;537925235942923719;303231;329676;291499;5828;
2024-05-03T10:10:30.391;537925235961094441;303108;329542;291304;5780;
2024-05-03T10:10:30.409;537925235979265163;302898;329329;291231;5763;
2024-05-03T10:10:30.427;537925235997435885;302825;329311;291126;5863;
2024-05-03T10:10:30.445;537925236015606607;302827;329224;291046;5802;
2024-05-03T10:10:30.463;537925236033777329;302720;329155;290954;5854;
2024-05-03T10:10:30.482;537925236051948051;302637;329040;290939;5848;
2024-05-03T10:10:30.500;537925236070118773;302566;329019;290947;5882;
2024-05-03T10:10:30.518;537925236088289495;302523;328987;290919;5894;
2024-05-03T10:10:30.536;537925236106460217;302455;328925;290844;5870;
2024-05-03T10:10:30.554;537925236124630939;302532;328868;290852;5760;
2024-05-03T10:10:30.572;537925236142801661;302481;328860;290831;5853;
2024-05-03T10:10:30.591;537925236160972383;302369;328864;290819;5881;
2024-05-03T10:10:30.609;537925236179143105;302277;328786;290734;5873;
2024-05-03T10:10:30.627;537925236197313827;302237;328729;290661;5874;
2024-05-03T10:10:30.645;537925236215484549;302193;328640;290591;5856;
2024-05-03T10:10:30.663;537925236233655271;302112;328596;290541;5867;
2024-05-03T10:10:30.681;537925236251825993;302028;328531;290491;5840;
2024-05-03T10:10:30.700;537925236269996715;301949;328461;290474;5816;
2024-05-03T10:10:30.718;537925236288167437;301991;328548;290501;5906;
2024-05-03T10:10:30.736;537925236306338159;302044;328519;290497;5856;
2024-05-03T10:10:30.754;537925236324508881;302001;328478;290536;5870;
2024-05-03T10:10:30.772;537925236342679603;302013;328527;290553;5909;
2024-05-03T10:10:30.790;537925236360850325;302080;328630;290613;5920;
2024-05-03T10:10:30.809;537925236379021047;302030;328577;290632;5844;
2024-05-03T10:10:30.827;537925236397191769;302058;328676;290679;5835;
2024-05-03T10:10:30.845;537925236415362491;302154;328705;290781;5853;
2024-05-03T10:10:30.863;537925236433533213;302166;328672;290770;5887;
2024-05-03T10:10:30.881;537925236451703935;302170;328769;290837;5848;
2024-05-03T10:10:30.899;537925236469875219;302236;328764;290864;5835;
2024-05-03T10:10:30.918;537925236488046471;302360;328849;290949;5915;
2024-05-03T10:10:30.936;537925236506217723;302300;328868;290952;5865;
2024-05-03T10:10:30.954;537925236524388975;302338;328869;290996;5878;
2024-05-03T10:10:30.972;537925236542560227;302403;328915;291024;5896;
2024-05-03T10:10:30.990;537925236560731479;302390;328973;291057;5862;
2024-05-03T10:10:31.008;537925236578902731;302406;328999;291091;5811;
2024-05-03T10:10:31.027;537925236597073983;302444;329002;291121;5785;
2024-05-03T10:10:31.045;537925236615245235;302519;329150;291186;5841;
2024-05-03T10:10:31.063;537925236633416487;302550;329159;291275;5838;
2024-05-03T10:10:31.081;537925236651587739;302634;329311;291367;5848;
2024-05-03T10:10:31.099;537925236669758991;302720;329280;291449;5842;
2024-05-03T10:10:31.117;537925236687930243;302792;329443;291539;5823;
2024-05-03T10:10:31.136;537925236706101495;302803;329464;291540;5820;
2024-05-03T10:10:31.154;537925236724272747;302698;329348;291496;5781;
2024-05-03T10:10:31.172;537925236742443999;302545;329242;291351;5809;
2024-05-03T10:10:31.190;537925236760615251;302341;328989;291189;5809;
2024-05-03T10:10:31.208;537925236778786503;302100;328777;291012;5812;
2024-05-03T10:10:31.227;537925236796957755;301833;328523;290765;5743;
2024-05-03T10:10:31.245;537925236815129007;301687;328339;290600;5754;
2024-05-03T10:10:31.263;537925236833300259;301474;328187;290408;5750;
2024-05-03T10:10:31.281;537925236851471511;301287;328012;290270;5713;
2024-05-03T10:10:31.299;537925236869642763;301140;327875;290199;5778;
2024-05-03T10:10:31.317;537925236887814015;301059;327805;290096;5773;
2024-05-03T10:10:31.336;537925236905985267;300921;327706;289979;5823;
2024-05-03T10:10:31.354;537925236924156519;300858;327538;289877;5748;
2024-05-03T10:10:31.372;537925236942327771;300748;327509;289780;5762;
2024-05-03T10:10:31.390;537925236960499023;300634;327381;289744;5744;
2024-05-03T10:10:31.408;537925236978670275;300580;327341;289627;5730;
2024-05-03T10:10:31.426;537925236996841527;300517;327214;289551;5811;
2024-05-03T10:10:31.445;537925237015012779;300402;327074;289478;5836;
2024-05-03T10:10:31.463;537925237033184031;300282;327079;289414;5755;
2024-05-03T10:10:31.481;537925237051355283;300095;326893;289245;5753;
2024-05-03T10:10:31.499;537925237069526535;300048;326825;289130;5788;
2024-05-03T10:10:31.517;537925237087697787;299917;326720;289118;5828;
2024-05-03T10:10:31.535;537925237105869039;299826;326627;289033;5735;
2024-05-03T10:10:31.554;537925237124040291;299812;326579;288988;5777;
2024-05-03T10:10:31.572;537925237142211543;299747;326580;288940;5789;
2024-05-03T10:10:31.590;537925237160382795;299733;326581;288898;5813;
2024-05-03T10:10:31.608;537925237178554047;299747;326493;288926;5726;
2024-05-03T10:10:31.626;537925237196725299;299662;326560;288880;5804;
2024-05-03T10:10:31.644;537925237214896551;299668;326523;288915;5754;
2024-05-03T10:10:31.663;537925237233065368;299680;326518;288958;5788;
2024-05-03T10:10:31.681;537925237251234157;299669;326562;288972;5791;
2024-05-03T10:10:31.699;537925237269402946;299749;326573;288994;5849;
2024-05-03T10:10:31.717;537925237287571735;299700;326578;289013;5809;
2024-05-03T10:10:31.735;537925237305740524;299744;326655;289001;5812;
2024-05-03T10:10:31.753;537925237323909313;299693;326612;288988;5763;
2024-05-03T10:10:31.772;537925237342078102;299764;326648;289019;5740;
2024-05-03T10:10:31.790;537925237360246891;299801;326754;289110;5814;
2024-05-03T10:10:31.808;537925237378415680;299814;326776;289125;5822;
2024-05-03T10:10:31.826;537925237396584469;299896;326829;289196;5871;
2024-05-03T10:10:31.844;537925237414753258;299926;326843;289179;5806;
2024-05-03T10:10:31.862;537925237432922047;299937;326879;289246;5770;
2024-05-03T10:10:31.881;537925237451090836;299995;326912;289324;5847;
2024-05-03T10:10:31.899;537925237469259625;300058;326959;289325;5827;
2024-05-03T10:10:31.917;537925237487428414;300090;327062;289394;5803;
2024-05-03T10:10:31.935;537925237505597203;300144;327129;289471;5809;
2024-05-03T10:10:31.953;537925237523765992;300190;327178;289524;5778;
2024-05-03T10:10:31.971;537925237541934781;300262;327243;289615;5806;
2024-05-03T10:10:31.990;537925237560103570;300340;327296;289655;5786;
2024-05-03T10:10:32.008;537925237578272359;300366;327358;289704;5808;
2024-05-03T10:10:32.026;537925237596441148;300464;327417;289694;5794;
2024-05-03T10:10:32.044;537925237614609937;300303;327292;289637;5803;
2024-05-03T10:10:32.062;537925237632778726;300074;327095;289435;5774;
2024-05-03T10:10:32.081;537925237650947515;299794;326839;289230;5804;
2024-05-03T10:10:32.099;537925237669116304;299517;326625;288963;5789;
2024-05-03T10:10:32.117;537925237687285093;299168;326313;288660;5806;
2024-05-03T10:10:32.135;537925237705453882;298902;326005;288464;5796;
2024-05-03T10:10:32.153;537925237723622671;298680;325780;288251;5829;
2024-05-03T10:10:32.171;537925237741791460;298468;325583;288051;5754;
2024-05-03T10:10:32.190;537925237759960249;298284;325401;287890;5781;
2024-05-03T10:10:32.208;537925237778129038;298106;325242;287719;5775;
2024-05-03T10:10:32.226;537925237796297827;297901;325060;287554;5726;
2024-05-03T10:10:32.244;537925237814466616;297795;324853;287419;5759;
2024-05-03T10:10:32.262;537925237832635405;297581;324676;287250;5773;
2024-05-03T10:10:32.280;537925237850804194;297426;324607;287186;5717;
2024-05-03T10:10:32.299;537925237868972983;297308;324472;287051;5770;
2024-05-03T10:10:32.317;537925237887141772;297173;324353;286889;5745;
2024-05-03T10:10:32.335;537925237905310561;297049;324253;286789;5773;
2024-05-03T10:10:32.353;537925237923479350;296935;324113;286637;5802;
2024-05-03T10:10:32.371;537925237941648139;296771;323990;286514;5764;
2024-05-03T10:10:32.389;537925237959816928;296666;323851;286401;5764;
2024-05-03T10:10:32.408;537925237977985717;296499;323754;286287;5759;
2024-05-03T10:10:32.426;537925237996154506;296401;323661;286202;5736;
2024-05-03T10:10:32.444;537925238014323295;296329;323593;286111;5745;
2024-05-03T10:10:32.462;537925238032492084;296244;323501;286071;5761;
2024-05-03T10:10:32.480;537925238050659762;296227;323473;286061;5797;
2024-05-03T10:10:32.498;537925238068827404;296234;323448;286013;5779;
2024-05-03T10:10:32.517;537925238086995046;296206;323398;285960;5754;
2024-05-03T10:10:32.535;537925238105162688;296170;323390;285959;5742;
2024-05-03T10:10:32.553;537925238123330330;296147;323414;285973;5761;
2024-05-03T10:10:32.571;537925238141497972;296134;323394;285955;5736;
2024-05-03T10:10:32.589;537925238159665614;296166;323406;286021;5729;
2024-05-03T10:10:32.607;537925238177833256;296246;323459;286011;5735;
2024-05-03T10:10:32.626;537925238196000898;296220;323517;286038;5778;
2024-05-03T10:10:32.644;537925238214168540;296263;323545;286112;5776;
2024-05-03T10:10:32.662;537925238232336182;296230;323552;286044;5768;
2024-05-03T10:10:32.680;537925238250503824;296280;323557;286074;5784;
2024-05-03T10:10:32.698;537925238268671466;296259;323563;286088;5761;
2024-05-03T10:10:32.716;537925238286839108;296297;323624;286132;5788;
2024-05-03T10:10:32.735;537925238305006750;296405;323738;286211;5809;
2024-05-03T10:10:32.753;537925238323174392;296458;323775;286266;5813;
2024-05-03T10:10:32.771;537925238341342034;296463;323810;286204;5826;
2024-05-03T10:10:32.789;537925238359509676;296504;323892;286406;5801;
2024-05-03T10:10:32.807;537925238377677318;296561;323959;286464;5854;
2024-05-03T10:10:32.825;537925238395844960;296631;323985;286496;5835;
2024-05-03T10:10:32.844;537925238414012602;296716;324031;286592;5812;
2024-05-03T10:10:32.862;537925238432180244;296746;324147;286634;5814;
2024-05-03T10:10:32.880;537925238450347886;296860;324238;286694;5841;
2024-05-03T10:10:32.898;537925238468515528;296919;324298;286750;5805;
2024-05-03T10:10:32.916;537925238486683170;297006;324427;286838;5828;
2024-05-03T10:10:32.934;537925238504850812;297075;324499;286917;5784;
2024-05-03T10:10:32.953;537925238523018454;297185;324599;287057;5829;
2024-05-03T10:10:32.971;537925238541186096;297317;324703;287176;5905;
2024-05-03T10:10:32.989;537925238559353738;297334;324707;287189;5899;
2024-05-03T10:10:33.007;537925238577521380;297359;324771;287205;5865;
2024-05-03T10:10:33.025;537925238595689022;297243;324707;287090;5848;
2024-05-03T10:10:33.043;537925238613856664;297081;324469;286947;5864;
2024-05-03T10:10:33.062;537925238632024306;296766;324241;286684;5853;
2024-05-03T10:10:33.080;537925238650191948;296493;323952;286412;5859;
2024-05-03T10:10:33.098;537925238668359590;296173;323701;286198;5833;
2024-05-03T10:10:33.116;537925238686527232;295996;323510;285972;5840;
2024-05-03T10:10:33.134;537925238704694874;295751;323264;285773;5860;
2024-05-03T10:10:33.152;537925238722862516;295608;323127;285666;5863;
2024-05-03T10:10:33.171;537925238741030158;295435;323017;285590;5912;
2024-05-03T10:10:33.189;537925238759197800;295276;322863;285443;5925;
2024-05-03T10:10:33.207;537925238777365442;295166;322755;285306;5874;
2024-05-03T10:10:33.225;537925238795533084;295093;322670;285241;5908;
2024-05-03T10:10:33.243;537925238813700726;295031;322572;285157;5847;
2024-05-03T10:10:33.261;537925238831868368;294991;322541;285074;5873;
2024-05-03T10:10:33.280;537925238850036560;294843;322392;284948;5831;
2024-05-03T10:10:33.298;537925238868204724;294800;322320;284868;5890;
2024-05-03T10:10:33.316;537925238886372888;294658;322279;284788;5890;
2024-05-03T10:10:33.334;537925238904541052;294418;322063;284591;5844;
2024-05-03T10:10:33.352;537925238922709216;294389;322025;284512;5862;
2024-05-03T10:10:33.370;537925238940877380;294276;321847;284404;5864;
2024-05-03T10:10:33.389;537925238959045544;294202;321796;284281;5846;
2024-05-03T10:10:33.407;537925238977213708;294164;321779;284258;5879;
2024-05-03T10:10:33.425;537925238995381872;294089;321757;284223;5883;
2024-05-03T10:10:33.443;537925239013550036;294091;321709;284228;5830;
2024-05-03T10:10:33.461;537925239031718200;294099;321656;284194;5828;
2024-05-03T10:10:33.479;537925239049886364;294085;321703;284236;5879;
2024-05-03T10:10:33.498;537925239068054528;294117;321732;284271;5860;
2024-05-03T10:10:33.516;537925239086222692;294096;321753;284201;5843;
2024-05-03T10:10:33.534;537925239104390856;294151;321738;284234;5866;
2024-05-03T10:10:33.552;537925239122559020;294140;321787;284280;5845;
2024-05-03T10:10:33.570;537925239140727184;294167;321739;284271;5801;
2024-05-03T10:10:33.588;537925239158895348;294215;321820;284254;5867;
2024-05-03T10:10:33.607;537925239177063512;294163;321853;284265;5813;
2024-05-03T10:10:33.625;537925239195231676;294247;321881;284398;5830;
2024-05-03T10:10:33.643;537925239213399840;294332;321970;284404;5847;
2024-05-03T10:10:33.661;537925239231568004;294358;321982;284450;5903;
2024-05-03T10:10:33.679;537925239249736168;294402;322049;284532;5901;
2024-05-03T10:10:33.697;537925239267904332;294428;322126;284552;5898;
2024-05-03T10:10:33.716;537925239286072496;294551;322199;284529;5864;
2024-05-03T10:10:33.734;537925239304240660;294510;322211;284610;5845;
2024-05-03T10:10:33.752;537925239322408824;294654;322322;284698;5886;
2024-05-03T10:10:33.770;537925239340576988;294723;322413;284751;5873;
2024-05-03T10:10:33.788;537925239358745152;294822;322520;284774;5846;
2024-05-03T10:10:33.806;537925239376913316;294854;322542;284831;5857;
2024-05-03T10:10:33.825;537925239395081480;294892;322603;284919;5897;
2024-05-03T10:10:33.843;537925239413249644;294952;322700;284985;5864;
2024-05-03T10:10:33.861;537925239431417808;295113;322738;285097;5829;
2024-05-03T10:10:33.879;537925239449585972;295168;322887;285163;5879;
2024-05-03T10:10:33.897;537925239467754136;295218;322897;285202;5835;
2024-05-03T10:10:33.915;537925239485922300;295217;322885;285170;5884;
2024-05-03T10:10:33.934;537925239504090464;295010;322800;285042;5843;
2024-05-03T10:10:33.952;537925239522258628;294761;322533;284819;5925;
2024-05-03T10:10:33.970;537925239540426792;294374;322229;284547;5837;
2024-05-03T10:10:33.988;537925239558594956;294079;321952;284256;5797;
2024-05-03T10:10:34.006;537925239576763120;293792;321711;283887;5820;
2024-05-03T10:10:34.024;537925239594931284;293564;321455;283707;5862;
2024-05-03T10:10:34.043;537925239613099160;293356;321254;283499;5796;
2024-05-03T10:10:34.061;537925239631267034;293204;321105;283333;5861;
2024-05-03T10:10:34.079;537925239649434908;293073;320947;283206;5856;
2024-05-03T10:10:34.097;537925239667602782;293022;320830;283067;5849;
2024-05-03T10:10:34.115;537925239685770656;292872;320724;282978;5935;
2024-05-03T10:10:34.133;537925239703938530;292613;320533;282772;5892;
2024-05-03T10:10:34.152;537925239722106404;292548;320461;282628;5879;
2024-05-03T10:10:34.170;537925239740274278;292388;320371;282466;5857;
2024-05-03T10:10:34.188;537925239758442152;292256;320240;282407;5850;
2024-05-03T10:10:34.206;537925239776610026;292118;320129;282243;5821;
2024-05-03T10:10:34.224;537925239794777900;292084;320086;282148;5795;
2024-05-03T10:10:34.243;537925239812945774;291979;319966;282066;5837;
2024-05-03T10:10:34.261;537925239831113648;291845;319866;282016;5876;
2024-05-03T10:10:34.279;537925239849281522;291737;319775;281827;5799;
2024-05-03T10:10:34.297;537925239867449396;291669;319703;281790;5824;
2024-05-03T10:10:34.315;537925239885617270;291677;319685;281748;5829;
2024-05-03T10:10:34.333;537925239903785144;291514;319610;281631;5831;
2024-05-03T10:10:34.352;537925239921953018;291604;319609;281650;5842;
2024-05-03T10:10:34.370;537925239940120892;291537;319598;281621;5769;
2024-05-03T10:10:34.388;537925239958288766;291536;319669;281594;5794;
2024-05-03T10:10:34.406;537925239976456640;291626;319702;281635;5788;
2024-05-03T10:10:34.424;537925239994624514;291608;319692;281637;5847;
2024-05-03T10:10:34.442;537925240012792388;291617;319696;281653;5781;
2024-05-03T10:10:34.461;537925240030960262;291710;319721;281667;5788;
2024-05-03T10:10:34.479;537925240049128136;291819;319823;281762;5798;
2024-05-03T10:10:34.497;537925240067296010;291823;319854;281725;5768;
2024-05-03T10:10:34.515;537925240085463884;291900;319905;281791;5826;
2024-05-03T10:10:34.533;537925240103631758;291973;319969;281884;5823;
2024-05-03T10:10:34.551;537925240121799632;291988;319987;281917;5797;
2024-05-03T10:10:34.570;537925240139967506;292014;320036;281923;5801;
2024-05-03T10:10:34.588;537925240158135380;292073;320130;282010;5805;
2024-05-03T10:10:34.606;537925240176303254;292151;320220;282074;5788;
2024-05-03T10:10:34.624;537925240194471128;292254;320333;282176;5755;
2024-05-03T10:10:34.642;537925240212639002;292373;320342;282248;5745;
2024-05-03T10:10:34.660;537925240230806876;292425;320460;282352;5799;
2024-05-03T10:10:34.679;537925240248974750;292548;320606;282452;5824;
2024-05-03T10:10:34.697;537925240267142624;292653;320727;282538;5790;
2024-05-03T10:10:34.715;537925240285310498;292781;320862;282608;5801;
2024-05-03T10:10:34.733;537925240303478372;292924;320959;282726;5807;
2024-05-03T10:10:34.751;537925240321646246;293054;321018;282829;5833;
2024-05-03T10:10:34.769;537925240339814120;293157;321215;282905;5796;
2024-05-03T10:10:34.788;537925240357981994;293246;321328;283022;5801;
2024-05-03T10:10:34.806;537925240376150461;293397;321527;283187;5770;
2024-05-03T10:10:34.824;537925240394318916;293492;321582;283265;5825;
2024-05-03T10:10:34.842;537925240412487371;293519;321570;283228;5790;
2024-05-03T10:10:34.860;537925240430655826;293374;321488;283137;5797;
2024-05-03T10:10:34.878;537925240448824281;293178;321346;282965;5824;
2024-05-03T10:10:34.897;537925240466992736;292998;321108;282716;5842;
2024-05-03T10:10:34.915;537925240485161191;292696;320833;282409;5810;
2024-05-03T10:10:34.933;537925240503329646;292500;320710;282254;5828;
2024-05-03T10:10:34.951;537925240521498101;292317;320510;282077;5844;
2024-05-03T10:10:34.969;537925240539666556;292221;320426;281924;5875;
2024-05-03T10:10:34.987;537925240557835011;292079;320323;281760;5827;
2024-05-03T10:10:35.006;537925240576003466;291988;320220;281630;5804;
2024-05-03T10:10:35.024;537925240594171921;291915;320255;281545;5802;
2024-05-03T10:10:35.042;537925240612340376;291817;320113;281511;5792;
2024-05-03T10:10:35.060;537925240630508831;291717;320047;281408;5811;
2024-05-03T10:10:35.078;537925240648677286;291641;320004;281348;5753;
2024-05-03T10:10:35.096;537925240666845741;291595;319939;281169;5761;
2024-05-03T10:10:35.115;537925240685014196;291574;319864;281166;5808;
2024-05-03T10:10:35.133;537925240703182651;291548;319814;281074;5752;
2024-05-03T10:10:35.151;537925240721351106;291469;319775;280993;5720;
2024-05-03T10:10:35.169;537925240739519561;291393;319695;280997;5726;
2024-05-03T10:10:35.187;537925240757688016;291292;319622;280851;5674;
2024-05-03T10:10:35.205;537925240775856471;291257;319620;280739;5705;
2024-05-03T10:10:35.224;537925240794024926;291229;319575;280663;5706;
2024-05-03T10:10:35.242;537925240812193381;291179;319516;280597;5619;
2024-05-03T10:10:35.260;537925240830361836;291215;319530;280617;5676;
2024-05-03T10:10:35.278;537925240848530291;291191;319541;280615;5633;
2024-05-03T10:10:35.296;537925240866698746;291228;319514;280626;5573;
2024-05-03T10:10:35.314;537925240884867201;291243;319510;280640;5546;
2024-05-03T10:10:35.333;537925240903035656;291273;319554;280646;5551;
2024-05-03T10:10:35.351;537925240921204111;291315;319629;280680;5521;
2024-05-03T10:10:35.369;537925240939372566;291344;319686;280730;5535;
2024-05-03T10:10:35.387;537925240957541021;291362;319694;280749;5467;
2024-05-03T10:10:35.405;537925240975709476;291369;319700;280683;5336;
2024-05-03T10:10:35.423;537925240993877931;291438;319740;280750;5374;
2024-05-03T10:10:35.442;537925241012046386;291481;319804;280798;5366;
2024-05-03T10:10:35.460;537925241030214841;291482;319820;280799;5284;
2024-05-03T10:10:35.478;537925241048383296;291553;319867;280777;5205;
2024-05-03T10:10:35.496;537925241066551751;291571;319860;280767;5154;
2024-05-03T10:10:35.514;537925241084720206;291663;319848;280804;5137;
2024-05-03T10:10:35.532;537925241102888661;291638;319950;280821;5036;
2024-05-03T10:10:35.551;537925241121057116;291686;320008;280854;4950;
2024-05-03T10:10:35.569;537925241139225465;291744;320038;280920;4866;
2024-05-03T10:10:35.587;537925241157393774;291712;319979;280921;4736;
2024-05-03T10:10:35.605;537925241175562083;291754;320060;280920;4766;
2024-05-03T10:10:35.623;537925241193730392;291811;320121;280939;4695;
2024-05-03T10:10:35.641;537925241211898701;291857;320162;280969;4575;
2024-05-03T10:10:35.660;537925241230067010;291895;320181;280962;4521;
2024-05-03T10:10:35.678;537925241248235319;291967;320282;281043;4458;
2024-05-03T10:10:35.696;537925241266403628;292025;320329;281058;4374;
2024-05-03T10:10:35.714;537925241284571937;292114;320446;281135;4295;
2024-05-03T10:10:35.732;537925241302740246;292157;320456;281159;4191;
2024-05-03T10:10:35.750;537925241320908555;292183;320591;281234;4146;
2024-05-03T10:10:35.769;537925241339076864;292220;320597;281236;4084;
2024-05-03T10:10:35.787;537925241357245173;292196;320507;281208;3999;
2024-05-03T10:10:35.805;537925241375413482;292062;320372;281094;3979;
2024-05-03T10:10:35.823;537925241393581791;291729;320068;280744;3799;
2024-05-03T10:10:35.841;537925241411750100;291513;319892;280520;3714;
2024-05-03T10:10:35.859;537925241429918409;291226;319622;280204;3636;
2024-05-03T10:10:35.878;537925241448086718;290944;319399;279981;3569;
2024-05-03T10:10:35.896;537925241466255027;290715;319148;279707;3522;
2024-05-03T10:10:35.914;537925241484423336;290568;318974;279513;3438;
2024-05-03T10:10:35.932;537925241502591645;290445;318825;279348;3357;
2024-05-03T10:10:35.950;537925241520759954;290307;318761;279220;3265;
2024-05-03T10:10:35.968;537925241538928263;290236;318637;279138;3196;
2024-05-03T10:10:35.987;537925241557096572;290152;318502;278988;3130;
2024-05-03T10:10:36.005;537925241575264881;290048;318430;278951;3093;
2024-05-03T10:10:36.023;537925241593433190;289989;318342;278867;3003;
2024-05-03T10:10:36.041;537925241611601499;289926;318289;278696;2945;
2024-05-03T10:10:36.059;537925241629769808;289816;318277;278627;2913;
2024-05-03T10:10:36.077;537925241647938117;289838;318264;278594;2935;
2024-05-03T10:10:36.096;537925241666106426;289725;318145;278550;2885;
2024-05-03T10:10:36.114;537925241684274735;289724;318145;278560;2864;
2024-05-03T10:10:36.132;537925241702443044;289687;318029;278426;2836;
2024-05-03T10:10:36.150;537925241720611353;289681;318094;278439;2867;
2024-05-03T10:10:36.168;537925241738779662;289724;318162;278475;2902;
2024-05-03T10:10:36.187;537925241756947971;289769;318119;278480;2966;
2024-05-03T10:10:36.205;537925241775116280;289807;318123;278450;2915;
2024-05-03T10:10:36.223;537925241793284589;289849;318203;278519;2909;
2024-05-03T10:10:36.241;537925241811452898;289972;318271;278583;2955;
2024-05-03T10:10:36.259;537925241829621207;290060;318391;278648;2979;
2024-05-03T10:10:36.277;537925241847789516;290143;318480;278740;3063;
2024-05-03T10:10:36.296;537925241865957825;290274;318568;278870;3066;
2024-05-03T10:10:36.314;537925241884126134;290465;318765;278957;3137;
2024-05-03T10:10:36.332;537925241902294978;290569;318854;279111;3248;
2024-05-03T10:10:36.350;537925241920463796;290779;319061;279276;3338;
2024-05-03T10:10:36.368;537925241938632614;290884;319184;279387;3375;
2024-05-03T10:10:36.386;537925241956801432;291052;319310;279564;3421;
2024-05-03T10:10:36.405;537925241974970250;291193;319536;279662;3531;
2024-05-03T10:10:36.423;537925241993139068;291350;319703;279855;3604;
2024-05-03T10:10:36.441;537925242011307886;291537;319858;280065;3695;
2024-05-03T10:10:36.459;537925242029476704;291730;320022;280201;3792;
2024-05-03T10:10:36.477;537925242047645522;292031;320247;280468;4001;
2024-05-03T10:10:36.495;537925242065814340;292197;320408;280620;4017;
2024-05-03T10:10:36.514;537925242083983158;292406;320653;280873;4169;
2024-05-03T10:10:36.532;537925242102151976;292651;320906;281033;4223;
2024-05-03T10:10:36.550;537925242120320794;292894;321145;281262;4350;
2024-05-03T10:10:36.568;537925242138489612;293108;321345;281501;4501;
2024-05-03T10:10:36.586;537925242156658430;293387;321599;281730;4599;
2024-05-03T10:10:36.604;537925242174827248;293609;321880;281965;4752;
2024-05-03T10:10:36.623;537925242192996066;293822;322078;282167;4855;
2024-05-03T10:10:36.641;537925242211164884;294152;322349;282396;4949;
2024-05-03T10:10:36.659;537925242229333702;294332;322568;282624;5053;
2024-05-03T10:10:36.677;537925242247502520;294504;322721;282780;5085;
2024-05-03T10:10:36.695;537925242265671338;294542;322749;282836;5176;
2024-05-03T10:10:36.713;537925242283840156;294540;322734;282841;5258;
2024-05-03T10:10:36.732;537925242302008974;294430;322678;282770;5311;
2024-05-03T10:10:36.750;537925242320177792;294289;322574;282684;5360;
2024-05-03T10:10:36.768;537925242338346610;294256;322479;282561;5426;
2024-05-03T10:10:36.786;537925242356515428;294218;322456;282479;5500;
2024-05-03T10:10:36.804;537925242374684246;294168;322423;282437;5501;
2024-05-03T10:10:36.822;537925242392853064;294174;322414;282364;5573;
2024-05-03T10:10:36.841;537925242411021882;294182;322440;282402;5591;
2024-05-03T10:10:36.859;537925242429190700;294289;322451;282477;5667;
2024-05-03T10:10:36.877;537925242447359518;294280;322492;282488;5672;
2024-05-03T10:10:36.895;537925242465528336;294234;322521;282438;5682;
2024-05-03T10:10:36.913;537925242483697154;294337;322660;282541;5756;
2024-05-03T10:10:36.931;537925242501865972;294452;322642;282564;5815;
2024-05-03T10:10:36.950;537925242520034790;294481;322717;282626;5888;
2024-05-03T10:10:36.968;537925242538203608;294504;322714;282593;5948;
2024-05-03T10:10:36.986;537925242556372426;294490;322751;282617;5916;
2024-05-03T10:10:37.004;537925242574541244;294522;322795;282658;5913;
2024-05-03T10:10:37.022;537925242592710062;294570;322749;282669;5925;
2024-05-03T10:10:37.040;537925242610878880;294556;322752;282666;6044;
2024-05-03T10:10:37.059;537925242629047698;294644;322764;282725;6008;
2024-05-03T10:10:37.077;537925242647216516;294648;322805;282679;5965;
2024-05-03T10:10:37.095;537925242665384616;294703;322864;282747;6064;
2024-05-03T10:10:37.113;537925242683552708;294851;322971;282880;6089;
2024-05-03T10:10:37.131;537925242701720800;294882;323044;282937;6064;
2024-05-03T10:10:37.149;537925242719888892;294918;323073;282972;6104;
2024-05-03T10:10:37.168;537925242738056984;295001;323114;283054;6096;
2024-05-03T10:10:37.186;537925242756225076;295095;323215;283161;6134;
2024-05-03T10:10:37.204;537925242774393168;295200;323356;283260;6130;
2024-05-03T10:10:37.222;537925242792561260;295335;323484;283356;6183;
2024-05-03T10:10:37.240;537925242810729352;295433;323533;283412;6145;
2024-05-03T10:10:37.258;537925242828897444;295509;323648;283504;6183;
2024-05-03T10:10:37.277;537925242847065536;295537;323648;283544;6184;
2024-05-03T10:10:37.295;537925242865233628;295652;323755;283647;6171;
2024-05-03T10:10:37.313;537925242883401720;295755;323867;283738;6194;
2024-05-03T10:10:37.331;537925242901569812;295844;323937;283863;6128;
2024-05-03T10:10:37.349;537925242919737904;295899;324043;283934;6173;
2024-05-03T10:10:37.367;537925242937905996;296023;324120;284001;6197;
2024-05-03T10:10:37.386;537925242956074088;296103;324210;284141;6072;
2024-05-03T10:10:37.404;537925242974242180;296176;324229;284130;6052;
2024-05-03T10:10:37.422;537925242992410272;296247;324299;284194;6068;
2024-05-03T10:10:37.440;537925243010578364;296311;324417;284336;6074;
2024-05-03T10:10:37.458;537925243028746456;296455;324528;284457;6014;
2024-05-03T10:10:37.476;537925243046914548;296523;324526;284514;5966;
2024-05-03T10:10:37.495;537925243065082640;296662;324654;284659;5959;
2024-05-03T10:10:37.513;537925243083250732;296752;324695;284694;5935;
2024-05-03T10:10:37.531;537925243101418824;296754;324744;284734;5895;
2024-05-03T10:10:37.549;537925243119586916;296649;324667;284684;5768;
2024-05-03T10:10:37.567;537925243137755008;296487;324478;284485;5772;
2024-05-03T10:10:37.585;537925243155923100;296337;324336;284299;5754;
2024-05-03T10:10:37.604;537925243174091192;296102;324104;284118;5688;
2024-05-03T10:10:37.622;537925243192259284;295857;323936;283938;5581;
2024-05-03T10:10:37.640;537925243210427376;295742;323739;283755;5536;
2024-05-03T10:10:37.658;537925243228595468;295649;323670;283650;5449;
2024-05-03T10:10:37.676;537925243246763560;295508;323632;283539;5420;
2024-05-03T10:10:37.694;537925243264931652;295403;323477;283401;5298;
2024-05-03T10:10:37.713;537925243283099744;295318;323355;283313;5169;
2024-05-03T10:10:37.731;537925243301267836;295193;323240;283222;5082;
2024-05-03T10:10:37.749;537925243319435928;295071;323058;283120;4940;
2024-05-03T10:10:37.767;537925243337604020;295015;322952;282979;4815;
2024-05-03T10:10:37.785;537925243355772112;294796;322742;282739;4564;
2024-05-03T10:10:37.804;537925243373940204;294508;322513;282492;4308;
2024-05-03T10:10:37.822;537925243392108296;294328;322269;282256;4092;
2024-05-03T10:10:37.840;537925243410276388;294012;321941;281908;3777;
2024-05-03T10:10:37.858;537925243428443928;293688;321617;281573;3524;
2024-05-03T10:10:37.876;537925243446611438;293319;321282;281265;3140;
2024-05-03T10:10:37.894;537925243464778948;293039;320920;280924;2830;
2024-05-03T10:10:37.913;537925243482946458;292805;320621;280649;2532;
2024-05-03T10:10:37.931;537925243501113968;292564;320422;280396;2299;
2024-05-03T10:10:37.949;537925243519281478;292314;320188;280235;2033;
2024-05-03T10:10:37.967;537925243537448988;292215;320071;280121;1872;
2024-05-03T10:10:37.985;537925243555616498;292128;319969;280022;1703;
2024-05-03T10:10:38.003;537925243573784008;292097;319934;280001;1625;
2024-05-03T10:10:38.022;537925243591951518;292033;319908;279924;1518;
2024-05-03T10:10:38.040;537925243610119028;292039;319922;279979;1378;
2024-05-03T10:10:38.058;537925243628286538;292063;319916;279985;1338;
2024-05-03T10:10:38.076;537925243646454048;292072;319935;279995;1350;
2024-05-03T10:10:38.094;537925243664621558;292166;320018;280084;1314;
2024-05-03T10:10:38.112;537925243682789068;292219;320119;280140;1298;
2024-05-03T10:10:38.131;537925243700956578;292312;320174;280197;1266;
2024-05-03T10:10:38.149;537925243719124088;292438;320259;280337;1280;
2024-05-03T10:10:38.167;537925243737291598;292445;320222;280279;1336;
2024-05-03T10:10:38.185;537925243755459108;292542;320350;280446;1264;
2024-05-03T10:10:38.203;537925243773626618;292579;320488;280476;1262;
2024-05-03T10:10:38.221;537925243791794128;292712;320503;280583;1279;
2024-05-03T10:10:38.240;537925243809961638;292773;320588;280696;1196;
2024-05-03T10:10:38.258;537925243828129148;292913;320782;280837;1204;
2024-05-03T10:10:38.276;537925243846296658;292987;320762;280872;1151;
2024-05-03T10:10:38.294;537925243864464168;293102;320885;280935;1207;
2024-05-03T10:10:38.312;537925243882631678;293167;321016;281082;1236;
2024-05-03T10:10:38.330;537925243900799188;293237;321109;281224;1240;
2024-05-03T10:10:38.349;537925243918966698;293380;321214;281300;1180;
2024-05-03T10:10:38.367;537925243937134208;293498;321345;281429;1216;
