Phone timestamp;sensor timestamp [ns];channel 0;channel 1;channel 2;ambient
2024-05-03T17:23:49.955;537951235306257629;543376;503087;485869;947;
2024-05-03T17:23:49.973;537951235324428202;543609;503246;486054;915;
2024-05-03T17:23:49.991;537951235342598775;543828;503494;486259;926;
2024-05-03T17:23:50.009;537951235360769348;544188;503712;486567;934;
2024-05-03T17:23:50.027;537951235378939921;544510;504117;486933;993;
2024-05-03T17:23:50.045;537951235397110494;544865;504454;487294;950;
2024-05-03T17:23:50.064;537951235415281067;545310;504847;487763;972;
2024-05-03T17:23:50.082;537951235433451640;545679;505214;488100;992;
2024-05-03T17:23:50.100;537951235451622213;546077;505541;488467;948;
2024-05-03T17:23:50.118;537951235469792786;546490;505933;488850;1006;
2024-05-03T17:23:50.136;537951235487963359;546912;506264;489246;990;
2024-05-03T17:23:50.154;537951235506133932;547366;506637;489638;985;
2024-05-03T17:23:50.173;537951235524304505;547779;507048;490019;1071;
2024-05-03T17:23:50.191;537951235542475078;548238;507578;490464;1076;
2024-05-03T17:23:50.209;537951235560645651;548614;507868;490809;1038;
2024-05-03T17:23:50.227;537951235578816224;548783;508145;491097;1086;
2024-05-03T17:23:50.245;537951235596986797;548360;507795;490734;1027;
2024-05-03T17:23:50.263;537951235615157370;547537;507110;489913;1007;
2024-05-03T17:23:50.282;537951235633327943;546445;506265;488960;998;
2024-05-03T17:23:50.300;537951235651498516;545304;505340;487926;998;
2024-05-03T17:23:50.318;537951235669669089;544392;504500;487097;1016;
2024-05-03T17:23:50.336;537951235687839662;543628;503884;486405;1033;
2024-05-03T17:23:50.354;537951235706010235;543192;503414;485942;1021;
2024-05-03T17:23:50.372;537951235724180808;542963;503295;485773;1033;
2024-05-03T17:23:50.391;537951235742351381;542905;503254;485737;1029;
2024-05-03T17:23:50.409;537951235760521954;543076;503425;485856;1002;
2024-05-03T17:23:50.427;537951235778692527;543146;503568;485944;974;
2024-05-03T17:23:50.445;537951235796863100;543426;503839;486259;979;
2024-05-03T17:23:50.463;537951235815033673;543679;504004;486442;981;
2024-05-03T17:23:50.481;537951235833204246;543961;504231;486713;1026;
2024-05-03T17:23:50.500;537951235851374819;544111;504324;486825;981;
2024-05-03T17:23:50.518;537951235869545392;544161;504395;486891;980;
2024-05-03T17:23:50.536;537951235887715965;544120;504439;486975;1000;
2024-05-03T17:23:50.554;537951235905886538;544078;504455;486954;1011;
2024-05-03T17:23:50.572;537951235924057111;544108;504401;486905;991;
2024-05-03T17:23:50.590;537951235942227684;544101;504506;486992;980;
2024-05-03T17:23:50.609;537951235960398283;544294;504553;487100;1020;
2024-05-03T17:23:50.627;537951235978568856;544437;504838;487277;1014;
2024-05-03T17:23:50.645;537951235996739429;544549;504989;487468;973;
2024-05-03T17:23:50.663;537951236014910002;544980;505221;487742;985;
2024-05-03T17:23:50.681;537951236033080575;545272;505549;488038;993;
2024-05-03T17:23:50.699;537951236051251148;545647;505925;488451;964;
2024-05-03T17:23:50.718;537951236069421721;545966;506347;488774;957;
2024-05-03T17:23:50.736;537951236087592294;546421;506665;489164;980;
2024-05-03T17:23:50.754;537951236105762867;546801;507039;489497;1016;
2024-05-03T17:23:50.772;537951236123933440;547245;507424;490000;983;
2024-05-03T17:23:50.790;537951236142104013;547591;507732;490283;953;
2024-05-03T17:23:50.809;537951236160274586;548000;508099;490624;942;
2024-05-03T17:23:50.827;537951236178445159;548423;508539;491080;991;
2024-05-03T17:23:50.845;537951236196615732;548837;508896;491463;958;
2024-05-03T17:23:50.863;537951236214786305;549230;509271;491862;943;
2024-05-03T17:23:50.881;537951236232956878;549399;509477;492055;955;
2024-05-03T17:23:50.899;537951236251127451;548987;509153;491677;973;
2024-05-03T17:23:50.918;537951236269298024;548105;508469;490950;948;
2024-05-03T17:23:50.936;537951236287468597;547215;507667;490125;993;
2024-05-03T17:23:50.954;537951236305639170;546229;506897;489222;981;
2024-05-03T17:23:50.972;537951236323809743;545396;506218;488489;965;
2024-05-03T17:23:50.990;537951236341980316;544805;505707;487921;975;
2024-05-03T17:23:51.008;537951236360150889;544518;505477;487673;1024;
2024-05-03T17:23:51.027;537951236378321462;544407;505456;487623;1050;
2024-05-03T17:23:51.045;537951236396492035;544428;505483;487669;1067;
2024-05-03T17:23:51.063;537951236414662608;544647;505705;487855;1037;
2024-05-03T17:23:51.081;537951236432833181;544960;505894;488173;1075;
2024-05-03T17:23:51.099;537951236451003754;545256;506247;488402;1012;
2024-05-03T17:23:51.117;537951236469174327;545616;506540;488816;1042;
2024-05-03T17:23:51.136;537951236487344900;545943;506780;489045;1106;
2024-05-03T17:23:51.154;537951236505515473;546068;506958;489173;1069;
2024-05-03T17:23:51.172;537951236523686046;546094;506936;489258;1123;
2024-05-03T17:23:51.190;537951236541856619;546112;507022;489248;1045;
2024-05-03T17:23:51.208;537951236560027192;546079;507034;489260;1067;
2024-05-03T17:23:51.226;537951236578197765;546138;507078;489329;1098;
2024-05-03T17:23:51.245;537951236596368338;546238;507160;489427;1098;
2024-05-03T17:23:51.263;537951236614538911;546318;507253;489572;1087;
2024-05-03T17:23:51.281;537951236632709484;546577;507552;489809;1139;
2024-05-03T17:23:51.299;537951236650880057;546821;507709;490011;1153;
2024-05-03T17:23:51.317;537951236669049176;547081;507976;490250;1045;
2024-05-03T17:23:51.335;537951236687218285;547428;508335;490627;1109;
2024-05-03T17:23:51.354;537951236705387394;547738;508670;490987;1097;
2024-05-03T17:23:51.372;537951236723556503;548082;509020;491281;1077;
2024-05-03T17:23:51.390;537951236741725612;548481;509385;491639;1107;
2024-05-03T17:23:51.408;537951236759894721;548856;509730;492053;1152;
2024-05-03T17:23:51.426;537951236778063830;549313;510025;492432;1097;
2024-05-03T17:23:51.444;537951236796232939;549664;510463;492804;1098;
2024-05-03T17:23:51.463;537951236814402048;550188;510818;493213;1106;
2024-05-03T17:23:51.481;537951236832571157;550574;511177;493547;1067;
2024-05-03T17:23:51.499;537951236850740266;550698;511428;493792;1116;
2024-05-03T17:23:51.517;537951236868909375;550310;511056;493477;1087;
2024-05-03T17:23:51.535;537951236887078484;549508;510415;492726;1146;
2024-05-03T17:23:51.553;537951236905247593;548556;509664;491890;1138;
2024-05-03T17:23:51.572;537951236923416702;547560;508863;491026;1100;
2024-05-03T17:23:51.590;537951236941585811;546782;508152;490263;1138;
2024-05-03T17:23:51.608;537951236959754920;546147;507699;489712;1194;
2024-05-03T17:23:51.626;537951236977924029;545782;507332;489421;1139;
2024-05-03T17:23:51.644;537951236996093138;545707;507258;489321;1148;
2024-05-03T17:23:51.663;537951237014262247;545735;507217;489332;1167;
2024-05-03T17:23:51.681;537951237032431356;545864;507388;489428;1138;
2024-05-03T17:23:51.699;537951237050600465;546123;507575;489615;1115;
2024-05-03T17:23:51.717;537951237068769574;546349;507837;489921;1133;
2024-05-03T17:23:51.735;537951237086938683;546719;508092;490213;1144;
2024-05-03T17:23:51.753;537951237105107792;546983;508313;490453;1192;
2024-05-03T17:23:51.772;537951237123276901;547061;508440;490526;1150;
2024-05-03T17:23:51.790;537951237141446010;547116;508522;490569;1136;
2024-05-03T17:23:51.808;537951237159615119;547060;508447;490611;1189;
2024-05-03T17:23:51.826;537951237177784228;547080;508375;490558;1181;
2024-05-03T17:23:51.844;537951237195953337;547081;508392;490616;1148;
2024-05-03T17:23:51.862;537951237214122446;547076;508384;490595;1145;
2024-05-03T17:23:51.881;537951237232291555;547140;508460;490712;1121;
2024-05-03T17:23:51.899;537951237250460664;547360;508642;490907;1205;
2024-05-03T17:23:51.917;537951237268629773;547591;508885;491028;1169;
2024-05-03T17:23:51.935;537951237286798882;547904;509108;491349;1180;
2024-05-03T17:23:51.953;537951237304969091;548180;509406;491640;1117;
2024-05-03T17:23:51.971;537951237323139290;548521;509643;491895;1094;
2024-05-03T17:23:51.990;537951237341309489;548920;509960;492225;1175;
2024-05-03T17:23:52.008;537951237359479688;549231;510248;492564;1084;
2024-05-03T17:23:52.026;537951237377649887;549631;510604;492995;1124;
2024-05-03T17:23:52.044;537951237395820086;550046;511010;493364;1134;
2024-05-03T17:23:52.062;537951237413990285;550434;511374;493683;1195;
2024-05-03T17:23:52.080;537951237432160484;550818;511677;493974;1169;
2024-05-03T17:23:52.099;537951237450330683;550777;511670;494013;1145;
2024-05-03T17:23:52.117;537951237468500882;550177;511166;493474;1140;
2024-05-03T17:23:52.135;537951237486671081;549199;510319;492589;1126;
2024-05-03T17:23:52.153;537951237504841280;548019;509394;491565;1109;
2024-05-03T17:23:52.171;537951237523011479;547010;508470;490642;1131;
2024-05-03T17:23:52.189;537951237541181678;546018;507605;489791;1149;
2024-05-03T17:23:52.208;537951237559351877;545412;507081;489273;1155;
2024-05-03T17:23:52.226;537951237577522076;544934;506646;488799;1074;
2024-05-03T17:23:52.244;537951237595692275;544801;506526;488718;1058;
2024-05-03T17:23:52.262;537951237613862474;544743;506442;488636;1132;
2024-05-03T17:23:52.280;537951237632032673;544782;506410;488646;1082;
2024-05-03T17:23:52.298;537951237650202872;544845;506480;488745;1131;
2024-05-03T17:23:52.317;537951237668373071;545052;506572;488901;1140;
2024-05-03T17:23:52.335;537951237686543270;545191;506668;489051;1110;
2024-05-03T17:23:52.353;537951237704713469;545249;506747;489109;1082;
2024-05-03T17:23:52.371;537951237722883668;545307;506725;489179;1079;
2024-05-03T17:23:52.389;537951237741053867;545291;506781;489210;1068;
2024-05-03T17:23:52.407;537951237759224066;545266;506672;489199;1114;
2024-05-03T17:23:52.426;537951237777394265;545229;506624;489118;1069;
2024-05-03T17:23:52.444;537951237795564464;545171;506623;489109;1066;
2024-05-03T17:23:52.462;537951237813734663;545168;506648;489068;1047;
2024-05-03T17:23:52.480;537951237831904862;545294;506826;489309;1112;
2024-05-03T17:23:52.498;537951237850075061;545474;506901;489475;1092;
2024-05-03T17:23:52.516;537951237868245260;545675;507083;489647;1079;
2024-05-03T17:23:52.535;537951237886415459;546014;507323;489874;1052;
2024-05-03T17:23:52.553;537951237904585658;546337;507583;490179;1078;
2024-05-03T17:23:52.571;537951237922755857;546736;507856;490615;1101;
2024-05-03T17:23:52.589;537951237940927804;546974;508259;490925;1066;
2024-05-03T17:23:52.607;537951237959099747;547373;508522;491229;1052;
2024-05-03T17:23:52.626;537951237977271690;547743;508851;491538;1063;
2024-05-03T17:23:52.644;537951237995443633;548120;509083;491884;1060;
2024-05-03T17:23:52.662;537951238013615576;548499;509500;492297;1089;
2024-05-03T17:23:52.680;537951238031787519;548982;509848;492668;1024;
2024-05-03T17:23:52.698;537951238049959462;549198;510148;492944;1028;
2024-05-03T17:23:52.716;537951238068131405;548836;509789;492659;1060;
2024-05-03T17:23:52.735;537951238086303348;547955;509027;491889;1036;
2024-05-03T17:23:52.753;537951238104475291;546820;508049;490851;1021;
2024-05-03T17:23:52.771;537951238122647234;545556;506992;489694;1031;
2024-05-03T17:23:52.789;537951238140819177;544368;506008;488609;968;
2024-05-03T17:23:52.807;537951238158991120;543552;505218;487801;1030;
2024-05-03T17:23:52.825;537951238177163063;543002;504692;487390;1067;
2024-05-03T17:23:52.844;537951238195335006;542568;504303;487035;1064;
2024-05-03T17:23:52.862;537951238213506949;542418;504085;486819;1047;
2024-05-03T17:23:52.880;537951238231678892;542350;504012;486734;1054;
2024-05-03T17:23:52.898;537951238249850835;542324;503954;486722;1096;
2024-05-03T17:23:52.916;537951238268022778;542305;503986;486756;1130;
2024-05-03T17:23:52.934;537951238286194721;542408;504021;486851;1029;
2024-05-03T17:23:52.953;537951238304366664;542513;504056;487028;1013;
2024-05-03T17:23:52.971;537951238322538607;542575;504112;487057;1032;
2024-05-03T17:23:52.989;537951238340710550;542634;504164;487106;1052;
2024-05-03T17:23:53.007;537951238358882493;542661;504118;487128;1094;
2024-05-03T17:23:53.025;537951238377054436;542536;504017;487101;990;
2024-05-03T17:23:53.043;537951238395226379;542485;504022;487001;1014;
2024-05-03T17:23:53.062;537951238413398322;542522;503970;487068;1114;
2024-05-03T17:23:53.080;537951238431570265;542542;504027;487147;1035;
2024-05-03T17:23:53.098;537951238449742208;542689;504159;487220;1049;
2024-05-03T17:23:53.116;537951238467914151;542914;504314;487453;1051;
2024-05-03T17:23:53.134;537951238486086094;543094;504526;487733;1051;
2024-05-03T17:23:53.153;537951238504258037;543427;504830;488056;1075;
2024-05-03T17:23:53.171;537951238522429980;543745;505104;488364;1034;
2024-05-03T17:23:53.189;537951238540601923;544155;505404;488636;1046;
2024-05-03T17:23:53.207;537951238558773866;544418;505684;488991;1067;
2024-05-03T17:23:53.225;537951238576944175;544910;506017;489352;1038;
2024-05-03T17:23:53.243;537951238595114468;545275;506386;489818;1076;
2024-05-03T17:23:53.262;537951238613284761;545604;506743;490104;1041;
2024-05-03T17:23:53.280;537951238631455054;545991;507001;490432;1035;
2024-05-03T17:23:53.298;537951238649625347;546418;507392;490834;1009;
2024-05-03T17:23:53.316;537951238667795640;546813;507781;491254;989;
2024-05-03T17:23:53.334;537951238685965933;547033;507944;491426;997;
2024-05-03T17:23:53.352;537951238704136226;546523;507654;491026;1033;
2024-05-03T17:23:53.371;537951238722306519;545612;506890;490248;981;
2024-05-03T17:23:53.389;537951238740476812;544522;505828;489255;995;
2024-05-03T17:23:53.407;537951238758647105;543340;504831;488217;1034;
2024-05-03T17:23:53.425;537951238776817398;542242;503945;487297;964;
2024-05-03T17:23:53.443;537951238794987691;541459;503169;486487;1007;
2024-05-03T17:23:53.461;537951238813157984;540918;502742;486054;998;
2024-05-03T17:23:53.480;537951238831328277;540646;502440;485782;1003;
2024-05-03T17:23:53.498;537951238849498570;540523;502297;485712;1052;
2024-05-03T17:23:53.516;537951238867668863;540451;502255;485686;967;
2024-05-03T17:23:53.534;537951238885839156;540430;502195;485669;934;
2024-05-03T17:23:53.552;537951238904009449;540587;502323;485769;977;
2024-05-03T17:23:53.570;537951238922179742;540698;502444;485975;966;
2024-05-03T17:23:53.589;537951238940350035;540833;502612;486117;990;
2024-05-03T17:23:53.607;537951238958520328;540886;502638;486192;1003;
2024-05-03T17:23:53.625;537951238976690621;540896;502627;486275;1016;
2024-05-03T17:23:53.643;537951238994860914;540923;502533;486293;1009;
2024-05-03T17:23:53.661;537951239013031207;540887;502536;486249;1036;
2024-05-03T17:23:53.679;537951239031201500;540787;502569;486290;982;
2024-05-03T17:23:53.698;537951239049371793;540883;502629;486309;948;
2024-05-03T17:23:53.716;537951239067542086;541076;502717;486461;1015;
2024-05-03T17:23:53.734;537951239085712379;541158;502874;486552;1004;
2024-05-03T17:23:53.752;537951239103882672;541369;503056;486841;979;
2024-05-03T17:23:53.770;537951239122052965;541707;503286;487147;1049;
2024-05-03T17:23:53.788;537951239140223258;542013;503618;487463;973;
2024-05-03T17:23:53.807;537951239158393551;542399;503893;487865;1038;
2024-05-03T17:23:53.825;537951239176563844;542798;504323;488204;1026;
2024-05-03T17:23:53.843;537951239194734137;543189;504644;488555;1023;
2024-05-03T17:23:53.861;537951239212904430;543618;504983;488970;1009;
2024-05-03T17:23:53.879;537951239231074723;543973;505324;489264;960;
2024-05-03T17:23:53.897;537951239249246670;544399;505724;489716;994;
2024-05-03T17:23:53.916;537951239267418613;544758;506103;490121;1017;
2024-05-03T17:23:53.934;537951239285590556;545269;506480;490452;1026;
2024-05-03T17:23:53.952;537951239303762499;545659;506853;490919;962;
2024-05-03T17:23:53.970;537951239321934442;546092;507242;491343;1025;
2024-05-03T17:23:53.988;537951239340106385;546490;507598;491676;970;
2024-05-03T17:23:54.007;537951239358278328;546824;507894;492006;1017;
2024-05-03T17:23:54.025;537951239376450271;546515;507704;491734;927;
2024-05-03T17:23:54.043;537951239394622214;545682;507064;491017;998;
2024-05-03T17:23:54.061;537951239412794157;544637;506153;490087;958;
2024-05-03T17:23:54.079;537951239430966100;543472;505221;489045;1046;
2024-05-03T17:23:54.097;537951239449138043;542394;504347;488150;990;
2024-05-03T17:23:54.116;537951239467309986;541560;503678;487446;985;
2024-05-03T17:23:54.134;537951239485481929;541045;503218;486971;985;
2024-05-03T17:23:54.152;537951239503653872;540818;502943;486728;976;
2024-05-03T17:23:54.170;537951239521825815;540737;502860;486725;998;
2024-05-03T17:23:54.188;537951239539997758;540776;502852;486797;970;
2024-05-03T17:23:54.206;537951239558169701;540894;502859;486871;966;
2024-05-03T17:23:54.225;537951239576341644;541072;503109;487022;923;
2024-05-03T17:23:54.243;537951239594513587;541230;503213;487267;922;
2024-05-03T17:23:54.261;537951239612685530;541441;503388;487462;984;
2024-05-03T17:23:54.279;537951239630857473;541537;503506;487538;967;
2024-05-03T17:23:54.297;537951239649029416;541599;503529;487610;982;
2024-05-03T17:23:54.315;537951239667201359;541563;503584;487631;975;
2024-05-03T17:23:54.334;537951239685373302;541554;503576;487635;950;
2024-05-03T17:23:54.352;537951239703545245;541558;503570;487620;1004;
2024-05-03T17:23:54.370;537951239721717188;541540;503622;487669;1063;
2024-05-03T17:23:54.388;537951239739889131;541667;503761;487785;1058;
2024-05-03T17:23:54.406;537951239758061074;541815;503937;487930;1058;
2024-05-03T17:23:54.424;537951239776233017;542076;504139;488209;1085;
2024-05-03T17:23:54.443;537951239794404960;542318;504391;488513;998;
2024-05-03T17:23:54.461;537951239812576903;542665;504650;488751;958;
2024-05-03T17:23:54.479;537951239830748846;543093;505052;489097;1052;
2024-05-03T17:23:54.497;537951239848920789;543527;505464;489483;1043;
2024-05-03T17:23:54.515;537951239867092732;543973;505863;489887;1038;
2024-05-03T17:23:54.534;537951239885264675;544300;506215;490348;1105;
2024-05-03T17:23:54.552;537951239903436618;544761;506689;490774;1123;
2024-05-03T17:23:54.570;537951239921608123;545169;507035;491142;1153;
2024-05-03T17:23:54.588;537951239939779612;545608;507433;491546;1138;
2024-05-03T17:23:54.606;537951239957951101;546055;507782;491902;1173;
2024-05-03T17:23:54.624;537951239976122590;546496;508184;492384;1182;
2024-05-03T17:23:54.643;537951239994294079;546867;508584;492670;1148;
2024-05-03T17:23:54.661;537951240012465568;547276;508997;493171;1143;
2024-05-03T17:23:54.679;537951240030637057;547785;509400;493598;1253;
2024-05-03T17:23:54.697;537951240048808546;548227;509852;494020;1259;
2024-05-03T17:23:54.715;537951240066980035;548361;510061;494170;1327;
2024-05-03T17:23:54.733;537951240085151524;547891;509637;493742;1293;
2024-05-03T17:23:54.752;537951240103323013;546986;509010;493079;1323;
2024-05-03T17:23:54.770;537951240121494502;545966;508229;492088;1371;
2024-05-03T17:23:54.788;537951240139665991;544912;507311;491122;1348;
2024-05-03T17:23:54.806;537951240157837480;544137;506573;490484;1402;
2024-05-03T17:23:54.824;537951240176008969;543486;506090;489920;1478;
2024-05-03T17:23:54.842;537951240194180458;543111;505875;489625;1515;
2024-05-03T17:23:54.861;537951240212351947;543123;505866;489579;1539;
2024-05-03T17:23:54.879;537951240230523436;543179;505856;489604;1526;
2024-05-03T17:23:54.897;537951240248694925;543367;506078;489842;1606;
2024-05-03T17:23:54.915;537951240266866414;543628;506341;490108;1661;
2024-05-03T17:23:54.933;537951240285037903;543913;506553;490308;1607;
2024-05-03T17:23:54.951;537951240303209392;544194;506774;490615;1680;
2024-05-03T17:23:54.970;537951240321380881;544411;506956;490816;1656;
2024-05-03T17:23:54.988;537951240339552370;544553;507161;490988;1690;
2024-05-03T17:23:55.006;537951240357723859;544589;507230;490911;1665;
2024-05-03T17:23:55.024;537951240375895348;544535;507200;490924;1703;
2024-05-03T17:23:55.042;537951240394066837;544474;507131;490939;1697;
2024-05-03T17:23:55.060;537951240412238326;544344;507151;490979;1656;
2024-05-03T17:23:55.079;537951240430409815;544490;507238;490988;1670;
2024-05-03T17:23:55.097;537951240448581304;544621;507331;491069;1616;
2024-05-03T17:23:55.115;537951240466752793;544766;507526;491253;1615;
2024-05-03T17:23:55.133;537951240484924282;545032;507795;491496;1590;
2024-05-03T17:23:55.151;537951240503095771;545324;508019;491793;1564;
2024-05-03T17:23:55.170;537951240521267260;545694;508319;492171;1538;
2024-05-03T17:23:55.188;537951240539438749;546035;508678;492469;1457;
2024-05-03T17:23:55.206;537951240557610238;546308;508985;492730;1412;
2024-05-03T17:23:55.224;537951240575781727;546591;509210;493082;1313;
2024-05-03T17:23:55.242;537951240593953662;547015;509526;493369;1313;
2024-05-03T17:23:55.260;537951240612125563;547330;509905;493705;1230;
2024-05-03T17:23:55.279;537951240630297464;547662;510196;493960;1204;
2024-05-03T17:23:55.297;537951240648469365;548091;510572;494304;1153;
2024-05-03T17:23:55.315;537951240666641266;548530;510995;494708;1170;
2024-05-03T17:23:55.333;537951240684813167;548891;511371;495126;1154;
2024-05-03T17:23:55.351;537951240702985068;549293;511694;495446;1127;
2024-05-03T17:23:55.369;537951240721156969;549648;512065;495790;1074;
2024-05-03T17:23:55.388;537951240739328870;549790;512290;495998;967;
2024-05-03T17:23:55.406;537951240757500771;549466;512053;495702;912;
2024-05-03T17:23:55.424;537951240775672672;548736;511404;495068;882;
2024-05-03T17:23:55.442;537951240793844573;547723;510579;494181;791;
2024-05-03T17:23:55.460;537951240812016474;546686;509818;493211;640;
2024-05-03T17:23:55.478;537951240830188375;545675;508861;492261;484;
2024-05-03T17:23:55.497;537951240848360276;544988;508219;491666;444;
2024-05-03T17:23:55.515;537951240866532177;544451;507785;491175;252;
2024-05-03T17:23:55.533;537951240884704078;544215;507619;490867;158;
2024-05-03T17:23:55.551;537951240902875979;544192;507577;490851;49;
2024-05-03T17:23:55.569;537951240921047880;544283;507687;490950;2;
2024-05-03T17:23:55.587;537951240939219781;544541;507798;491120;-90;
2024-05-03T17:23:55.606;537951240957391682;544763;508049;491342;-230;
2024-05-03T17:23:55.624;537951240975563583;545054;508302;491517;-249;
2024-05-03T17:23:55.642;537951240993735484;545300;508422;491685;-331;
2024-05-03T17:23:55.660;537951241011907385;545437;508593;491857;-347;
2024-05-03T17:23:55.678;537951241030079286;545522;508603;491951;-350;
2024-05-03T17:23:55.696;537951241048251187;545476;508619;491949;-399;
2024-05-03T17:23:55.715;537951241066423088;545431;508631;491909;-420;
2024-05-03T17:23:55.733;537951241084594989;545425;508680;491913;-440;
2024-05-03T17:23:55.751;537951241102766890;545462;508690;491925;-459;
2024-05-03T17:23:55.769;537951241120938791;545643;508811;492070;-446;
2024-05-03T17:23:55.787;537951241139110692;545783;508908;492158;-482;
2024-05-03T17:23:55.806;537951241157282593;546023;509116;492363;-504;
2024-05-03T17:23:55.824;537951241175454494;546330;509476;492642;-505;
2024-05-03T17:23:55.842;537951241193626395;546682;509786;492973;-521;
2024-05-03T17:23:55.860;537951241211798296;546977;510045;493341;-511;
2024-05-03T17:23:55.878;537951241229970197;547383;510374;493654;-464;
2024-05-03T17:23:55.896;537951241248142098;547786;510763;493988;-497;
2024-05-03T17:23:55.915;537951241266312585;548151;511119;494371;-507;
2024-05-03T17:23:55.933;537951241284483045;548561;511460;494721;-492;
2024-05-03T17:23:55.951;537951241302653505;548944;511836;495095;-525;
2024-05-03T17:23:55.969;537951241320823965;549320;512187;495411;-571;
2024-05-03T17:23:55.987;537951241338994425;549744;512567;495776;-581;
2024-05-03T17:23:56.005;537951241357164885;550180;512992;496127;-598;
2024-05-03T17:23:56.024;537951241375335345;550495;513263;496418;-617;
2024-05-03T17:23:56.042;537951241393505805;550234;513040;496189;-670;
2024-05-03T17:23:56.060;537951241411676265;549501;512434;495586;-549;
2024-05-03T17:23:56.078;537951241429846725;548561;511761;494775;-522;
2024-05-03T17:23:56.096;537951241448017185;547622;510965;493824;-549;
2024-05-03T17:23:56.114;537951241466187645;546791;510211;493060;-507;
2024-05-03T17:23:56.133;537951241484358105;546092;509648;492423;-542;
2024-05-03T17:23:56.151;537951241502528565;545751;509472;492017;-476;
2024-05-03T17:23:56.169;537951241520699025;545801;509432;492018;-366;
2024-05-03T17:23:56.187;537951241538869485;546036;509639;492157;-212;
2024-05-03T17:23:56.205;537951241557039945;546251;509861;492284;-163;
2024-05-03T17:23:56.223;537951241575210405;546455;510049;492412;-270;
2024-05-03T17:23:56.242;537951241593380865;547074;510497;492768;-214;
2024-05-03T17:23:56.260;537951241611551325;547606;511025;493194;-109;
2024-05-03T17:23:56.278;537951241629721785;548058;511457;493552;47;
2024-05-03T17:23:56.296;537951241647892245;548324;511858;493796;108;
2024-05-03T17:23:56.314;537951241666062705;548851;512279;493978;173;
2024-05-03T17:23:56.332;537951241684233165;548975;512609;494080;303;
2024-05-03T17:23:56.351;537951241702403625;549074;512838;494174;422;
2024-05-03T17:23:56.369;537951241720574085;549357;513133;494286;475;
2024-05-03T17:23:56.387;537951241738744545;549692;513571;494446;668;
2024-05-03T17:23:56.405;537951241756915005;550006;513983;494767;781;
2024-05-03T17:23:56.423;537951241775085465;550535;514474;495163;859;
2024-05-03T17:23:56.441;537951241793255925;551202;515003;495672;948;
2024-05-03T17:23:56.460;537951241811426385;552013;515615;496168;968;
2024-05-03T17:23:56.478;537951241829596845;552890;516146;496743;1049;
2024-05-03T17:23:56.496;537951241847767305;553536;516529;497349;1055;
2024-05-03T17:23:56.514;537951241865937765;554249;517002;497842;1074;
2024-05-03T17:23:56.532;537951241884108225;555130;517553;498367;1077;
2024-05-03T17:23:56.551;537951241902277941;555969;517973;498841;997;
2024-05-03T17:23:56.569;537951241920447637;556839;518337;499437;1017;
2024-05-03T17:23:56.587;537951241938617333;557466;518685;499880;993;
2024-05-03T17:23:56.605;537951241956787029;558142;519043;500406;1025;
2024-05-03T17:23:56.623;537951241974956725;558885;519426;500957;1042;
2024-05-03T17:23:56.641;537951241993126421;559562;519807;501413;1008;
2024-05-03T17:23:56.660;537951242011296117;560061;519969;501699;1042;
2024-05-03T17:23:56.678;537951242029465813;559926;519678;501458;1032;
2024-05-03T17:23:56.696;537951242047635509;559312;518891;500673;986;
2024-05-03T17:23:56.714;537951242065805205;558569;517890;499703;1067;
2024-05-03T17:23:56.732;537951242083974901;557828;516783;498655;1048;
2024-05-03T17:23:56.750;537951242102144597;557195;515614;497716;1000;
2024-05-03T17:23:56.769;537951242120314293;556827;514668;496871;1062;
2024-05-03T17:23:56.787;537951242138483989;556661;513971;496216;1028;
2024-05-03T17:23:56.805;537951242156653685;556685;513528;495834;1082;
2024-05-03T17:23:56.823;537951242174823381;556769;513272;495598;1034;
2024-05-03T17:23:56.841;537951242192993077;556954;513128;495536;1083;
2024-05-03T17:23:56.859;537951242211162773;557320;513078;495508;1093;
2024-05-03T17:23:56.878;537951242229332469;557815;513045;495532;1152;
2024-05-03T17:23:56.896;537951242247502165;558253;513132;495588;1137;
2024-05-03T17:23:56.914;537951242265671861;558649;513217;495651;1136;
2024-05-03T17:23:56.932;537951242283841557;558939;513228;495640;1068;
2024-05-03T17:23:56.950;537951242302011253;559144;513207;495643;1161;
2024-05-03T17:23:56.968;537951242320180949;559236;513169;495632;1171;
2024-05-03T17:23:56.987;537951242338350645;559274;513135;495502;1205;
2024-05-03T17:23:57.005;537951242356520341;559066;513175;495288;1180;
2024-05-03T17:23:57.023;537951242374690037;558930;513286;495278;1202;
2024-05-03T17:23:57.041;537951242392859733;558855;513406;495276;1230;
2024-05-03T17:23:57.059;537951242411029429;558788;513517;495297;1202;
2024-05-03T17:23:57.077;537951242429199125;558669;513769;495526;1250;
2024-05-03T17:23:57.096;537951242447368821;558831;514041;495779;1302;
2024-05-03T17:23:57.114;537951242465538517;558939;514323;496077;1343;
2024-05-03T17:23:57.132;537951242483708213;559200;514660;496419;1321;
2024-05-03T17:23:57.150;537951242501877909;559690;514951;496755;1374;
2024-05-03T17:23:57.168;537951242520047605;560198;515271;497095;1447;
2024-05-03T17:23:57.186;537951242538217301;560781;515624;497443;1366;
2024-05-03T17:23:57.205;537951242556387726;561436;515902;497841;1368;
2024-05-03T17:23:57.223;537951242574558143;561978;516202;498247;1316;
2024-05-03T17:23:57.241;537951242592728560;562497;516433;498513;1320;
2024-05-03T17:23:57.259;537951242610898977;562891;516618;498775;1325;
2024-05-03T17:23:57.277;537951242629069394;563332;516833;499032;1333;
2024-05-03T17:23:57.295;537951242647239811;563682;517054;499307;1259;
2024-05-03T17:23:57.314;537951242665410228;563650;517137;499310;1255;
2024-05-03T17:23:57.332;537951242683580645;562797;516523;498604;1316;
2024-05-03T17:23:57.350;537951242701751062;561587;515665;497663;1375;
2024-05-03T17:23:57.368;537951242719921479;560124;514687;496487;1344;
2024-05-03T17:23:57.386;537951242738091896;558558;513761;495415;1316;
2024-05-03T17:23:57.405;537951242756262313;557198;512979;494492;1408;
2024-05-03T17:23:57.423;537951242774432730;555979;512478;493794;1389;
2024-05-03T17:23:57.441;537951242792603147;555054;512241;493472;1339;
2024-05-03T17:23:57.459;537951242810773564;554543;512176;493383;1352;
2024-05-03T17:23:57.477;537951242828943981;554324;512173;493450;1336;
2024-05-03T17:23:57.495;537951242847114398;554208;512069;493552;1283;
2024-05-03T17:23:57.514;537951242865284815;553829;512041;493597;1335;
2024-05-03T17:23:57.532;537951242883455232;553630;512178;493934;1336;
2024-05-03T17:23:57.550;537951242901625649;553520;512361;494206;1354;
2024-05-03T17:23:57.568;537951242919796066;553534;512504;494426;1359;
2024-05-03T17:23:57.586;537951242937966483;553514;512515;494520;1372;
2024-05-03T17:23:57.604;537951242956136900;553502;512424;494648;1395;
2024-05-03T17:23:57.623;537951242974307317;553350;512331;494690;1428;
2024-05-03T17:23:57.641;537951242992477734;553260;512291;494672;1441;
2024-05-03T17:23:57.659;537951243010648151;553064;512150;494634;1366;
2024-05-03T17:23:57.677;537951243028818568;552868;512015;494620;1378;
2024-05-03T17:23:57.695;537951243046988985;552852;512022;494671;1356;
2024-05-03T17:23:57.713;537951243065159402;552894;512099;494839;1293;
2024-05-03T17:23:57.732;537951243083329819;553039;512202;495038;1267;
2024-05-03T17:23:57.750;537951243101500236;553170;512406;495279;1280;
2024-05-03T17:23:57.768;537951243119670653;553425;512601;495597;1256;
2024-05-03T17:23:57.786;537951243137841070;553593;512808;495866;1255;
2024-05-03T17:23:57.804;537951243156011487;553817;513132;496206;1211;
2024-05-03T17:23:57.822;537951243174181904;554139;513349;496510;1153;
2024-05-03T17:23:57.841;537951243192352321;554380;513519;496742;1044;
2024-05-03T17:23:57.859;537951243210522738;554570;513730;496958;943;
2024-05-03T17:23:57.877;537951243228691827;554817;513925;497288;761;
2024-05-03T17:23:57.895;537951243246860892;555075;514080;497627;685;
2024-05-03T17:23:57.913;537951243265029957;555198;514300;497822;560;
2024-05-03T17:23:57.931;537951243283199022;555385;514521;498041;474;
2024-05-03T17:23:57.950;537951243301368087;555611;514710;498232;387;
2024-05-03T17:23:57.968;537951243319537152;555794;514984;498588;324;
2024-05-03T17:23:57.986;537951243337706217;555592;514817;498473;296;
2024-05-03T17:23:58.004;537951243355875282;554935;514244;497858;259;
2024-05-03T17:23:58.022;537951243374044347;553823;513316;496861;234;
2024-05-03T17:23:58.040;537951243392213412;552807;512347;495738;192;
2024-05-03T17:23:58.059;537951243410382477;551593;511322;494712;198;
2024-05-03T17:23:58.077;537951243428551542;550592;510421;493737;202;
2024-05-03T17:23:58.095;537951243446720607;549844;509757;493009;175;
2024-05-03T17:23:58.113;537951243464889672;549321;509360;492736;240;
2024-05-03T17:23:58.131;537951243483058737;548896;509050;492441;229;
2024-05-03T17:23:58.149;537951243501227802;548552;508816;492369;236;
2024-05-03T17:23:58.168;537951243519396867;548341;508653;492468;252;
2024-05-03T17:23:58.186;537951243537565932;548144;508596;492493;279;
2024-05-03T17:23:58.204;537951243555734997;548333;508713;492677;327;
2024-05-03T17:23:58.222;537951243573904062;548556;509012;492868;290;
2024-05-03T17:23:58.240;537951243592073127;548688;509163;493059;288;
2024-05-03T17:23:58.258;537951243610242192;548792;509141;493117;230;
2024-05-03T17:23:58.277;537951243628411257;548731;509030;493055;213;
2024-05-03T17:23:58.295;537951243646580322;548313;508796;492877;215;
2024-05-03T17:23:58.313;537951243664749387;547823;508435;492658;264;
2024-05-03T17:23:58.331;537951243682918452;547382;508201;492565;191;
2024-05-03T17:23:58.349;537951243701087517;547342;508242;492653;166;
2024-05-03T17:23:58.367;537951243719256582;547675;508540;492857;157;
2024-05-03T17:23:58.386;537951243737425647;548170;508927;493250;205;
2024-05-03T17:23:58.404;537951243755594712;548844;509503;493689;209;
2024-05-03T17:23:58.422;537951243773763777;549403;509983;494185;207;
2024-05-03T17:23:58.440;537951243791932842;550151;510507;494669;221;
2024-05-03T17:23:58.458;537951243810101907;550867;511002;495094;244;
2024-05-03T17:23:58.477;537951243828270972;551421;511542;495607;304;
2024-05-03T17:23:58.495;537951243846440037;551907;512057;495977;286;
2024-05-03T17:23:58.513;537951243864608934;552283;512484;496391;262;
2024-05-03T17:23:58.531;537951243882777825;552656;513050;496826;269;
2024-05-03T17:23:58.549;537951243900946716;553030;513471;497204;260;
2024-05-03T17:23:58.567;537951243919115607;553382;513793;497636;292;
2024-05-03T17:23:58.586;537951243937284498;553613;513964;497904;255;
2024-05-03T17:23:58.604;537951243955453389;554504;514344;498494;274;
2024-05-03T17:23:58.622;537951243973622280;555136;514707;498965;185;
2024-05-03T17:23:58.640;537951243991791171;555146;515154;499242;137;
2024-05-03T17:23:58.658;537951244009960062;555140;515513;499453;62;
2024-05-03T17:23:58.676;537951244028128953;554739;515392;499140;-44;
2024-05-03T17:23:58.695;537951244046297844;553383;514797;498161;-98;
2024-05-03T17:23:58.713;537951244064466735;551218;513678;496678;-150;
2024-05-03T17:23:58.731;537951244082635626;547795;511943;495104;-154;
2024-05-03T17:23:58.749;537951244100804517;544854;510011;493870;-168;
2024-05-03T17:23:58.767;537951244118973408;542742;508724;492733;-242;
2024-05-03T17:23:58.785;537951244137142299;541026;508008;492032;-170;
2024-05-03T17:23:58.804;537951244155311190;539762;507528;491507;-171;
2024-05-03T17:23:58.822;537951244173480081;538732;507396;491342;-186;
2024-05-03T17:23:58.840;537951244191648972;537891;507542;491324;-159;
2024-05-03T17:23:58.858;537951244209817863;537376;507845;491345;-105;
2024-05-03T17:23:58.876;537951244227986754;537547;508007;491554;-26;
2024-05-03T17:23:58.894;537951244246155645;538174;508087;491909;-51;
2024-05-03T17:23:58.913;537951244264324536;538860;508100;492324;-43;
2024-05-03T17:23:58.931;537951244282493427;539495;508213;492636;2;
2024-05-03T17:23:58.949;537951244300662318;539825;508200;492731;-81;
2024-05-03T17:23:58.967;537951244318831209;539934;508157;492673;-127;
2024-05-03T17:23:58.985;537951244337000100;539953;507977;492588;-132;
2024-05-03T17:23:59.003;537951244355168991;539722;507406;492476;-116;
2024-05-03T17:23:59.022;537951244373337894;523811;507241;492413;-73;
2024-05-03T17:23:59.040;537951244391506785;472911;537039;505017;195;
2024-05-03T17:23:59.058;537951244409675676;462126;535005;540268;451;
2024-05-03T17:23:59.076;537951244427844567;445662;522985;530743;646;
2024-05-03T17:23:59.094;537951244446013458;435209;504308;535854;950;
2024-05-03T17:23:59.112;537951244464182349;425268;487487;556402;1332;
2024-05-03T17:23:59.131;537951244482351240;410729;505578;581933;1842;
2024-05-03T17:23:59.149;537951244500520131;422489;567357;611772;2696;
2024-05-03T17:23:59.167;537951244518689022;555369;706059;744230;4328;
2024-05-03T17:23:59.185;537951244536857913;743376;835155;901764;5997;
2024-05-03T17:23:59.203;537951244555026804;734964;831900;904293;6051;
2024-05-03T17:23:59.221;537951244573195695;615595;725592;788232;5030;
2024-05-03T17:23:59.240;537951244591364586;516124;608166;655801;3710;
2024-05-03T17:23:59.258;537951244609533477;470393;536810;564799;2496;
2024-05-03T17:23:59.276;537951244627702368;453128;509824;524541;1718;
2024-05-03T17:23:59.294;537951244645871259;447733;498558;506132;1248;
2024-05-03T17:23:59.312;537951244664040150;448069;493199;497719;849;
2024-05-03T17:23:59.330;537951244682209041;449422;490961;494533;623;
2024-05-03T17:23:59.349;537951244700377932;450149;491048;494144;576;
2024-05-03T17:23:59.367;537951244718546823;450420;491924;494866;429;
2024-05-03T17:23:59.385;537951244736715714;450293;492976;495497;322;
2024-05-03T17:23:59.403;537951244754885481;449430;494050;495736;274;
2024-05-03T17:23:59.421;537951244773055244;448045;494793;495691;180;
2024-05-03T17:23:59.439;537951244791225007;446512;494700;495325;139;
2024-05-03T17:23:59.458;537951244809394770;444968;494099;494567;-16;
2024-05-03T17:23:59.476;537951244827564533;443627;493192;493671;-60;
2024-05-03T17:23:59.494;537951244845734296;442423;492481;492957;-115;
2024-05-03T17:23:59.512;537951244863904059;441549;492002;492558;-88;
2024-05-03T17:23:59.530;537951244882073822;440837;491847;492399;-108;
2024-05-03T17:23:59.548;537951244900243585;440363;491929;492483;-65;
2024-05-03T17:23:59.567;537951244918413348;440125;491966;492799;3;
2024-05-03T17:23:59.585;537951244936583111;440240;491904;493315;57;
2024-05-03T17:23:59.603;537951244954752874;440475;491946;493933;127;
2024-05-03T17:23:59.621;537951244972922637;440803;492026;494332;185;
2024-05-03T17:23:59.639;537951244991092400;440963;491974;494754;228;
2024-05-03T17:23:59.658;537951245009262163;441020;491957;494936;314;
2024-05-03T17:23:59.676;537951245027431926;441101;491872;495102;311;
2024-05-03T17:23:59.694;537951245045601689;440994;491556;495114;326;
2024-05-03T17:23:59.712;537951245063771452;440981;491513;495358;397;
2024-05-03T17:23:59.730;537951245081941215;440961;491348;495479;430;
2024-05-03T17:23:59.748;537951245100110978;440877;491350;495656;434;
2024-05-03T17:23:59.767;537951245118280741;441076;491575;496007;539;
2024-05-03T17:23:59.785;537951245136450504;441293;491728;496384;565;
2024-05-03T17:23:59.803;537951245154620267;441555;492174;496838;637;
2024-05-03T17:23:59.821;537951245172790030;441833;492625;497222;683;
2024-05-03T17:23:59.839;537951245190959793;442199;492992;497635;758;
2024-05-03T17:23:59.857;537951245209129556;442425;493430;498089;787;
2024-05-03T17:23:59.876;537951245227299319;442730;493802;498474;801;
2024-05-03T17:23:59.894;537951245245469082;443034;494286;498882;822;
2024-05-03T17:23:59.912;537951245263638845;443305;494658;499414;899;
2024-05-03T17:23:59.930;537951245281808608;443543;495026;499826;924;
2024-05-03T17:23:59.948;537951245299978371;443803;495381;500255;928;
2024-05-03T17:23:59.966;537951245318148134;444048;495728;500710;926;
2024-05-03T17:23:59.985;537951245336317897;444366;496111;501151;949;
2024-05-03T17:24:00.003;537951245354487660;444708;496550;501540;975;
2024-05-03T17:24:00.021;537951245372657423;444918;496901;502001;961;
2024-05-03T17:24:00.039;537951245390826328;444891;496867;502069;943;
2024-05-03T17:24:00.057;537951245408995219;444265;495987;501606;997;
2024-05-03T17:24:00.075;537951245427164110;443295;494683;500806;949;
2024-05-03T17:24:00.094;537951245445333001;442131;493186;499746;951;
2024-05-03T17:24:00.112;537951245463501892;440995;491787;498734;960;
2024-05-03T17:24:00.130;537951245481670783;439881;490489;497778;974;
2024-05-03T17:24:00.148;537951245499839674;439112;489554;497103;923;
2024-05-03T17:24:00.166;537951245518008565;438643;489023;496575;983;
2024-05-03T17:24:00.184;537951245536177456;438302;488654;496359;939;
2024-05-03T17:24:00.203;537951245554346347;438128;488710;496297;970;
2024-05-03T17:24:00.221;537951245572515238;438122;488804;496358;979;
2024-05-03T17:24:00.239;537951245590684129;438130;488973;496475;929;
2024-05-03T17:24:00.257;537951245608853020;438238;489200;496651;911;
2024-05-03T17:24:00.275;537951245627021911;438414;489501;496895;958;
2024-05-03T17:24:00.293;537951245645190802;438443;489723;497088;999;
2024-05-03T17:24:00.312;537951245663359693;438467;489788;497164;977;
2024-05-03T17:24:00.330;537951245681528584;438322;489660;497129;921;
2024-05-03T17:24:00.348;537951245699697475;438142;489504;496991;874;
2024-05-03T17:24:00.366;537951245717866366;437907;489327;496852;892;
2024-05-03T17:24:00.384;537951245736035257;437825;489222;496774;910;
2024-05-03T17:24:00.402;537951245754204148;437689;489285;496752;883;
2024-05-03T17:24:00.421;537951245772373039;437697;489273;496800;898;
2024-05-03T17:24:00.439;537951245790541930;437735;489318;496917;841;
2024-05-03T17:24:00.457;537951245808710821;437904;489612;497209;849;
2024-05-03T17:24:00.475;537951245826879712;438034;490043;497410;858;
2024-05-03T17:24:00.493;537951245845048603;438221;490380;497704;823;
2024-05-03T17:24:00.511;537951245863217494;438548;490790;498035;860;
2024-05-03T17:24:00.530;537951245881386385;438827;491281;498318;880;
2024-05-03T17:24:00.548;537951245899555276;439131;491679;498689;799;
2024-05-03T17:24:00.566;537951245917724167;439377;492033;499014;823;
2024-05-03T17:24:00.584;537951245935893058;439679;492440;499369;822;
2024-05-03T17:24:00.602;537951245954061949;439967;492936;499795;854;
2024-05-03T17:24:00.620;537951245972230840;440362;493449;500118;877;
2024-05-03T17:24:00.639;537951245990399731;440670;493951;500552;878;
2024-05-03T17:24:00.657;537951246008568622;440972;494319;500859;862;
2024-05-03T17:24:00.675;537951246026738063;440688;493903;500675;863;
2024-05-03T17:24:00.693;537951246044907490;439965;492888;500011;840;
2024-05-03T17:24:00.711;537951246063076917;438913;491566;499102;842;
2024-05-03T17:24:00.729;537951246081246344;437759;490083;498011;862;
2024-05-03T17:24:00.748;537951246099415771;436590;488665;496856;865;
2024-05-03T17:24:00.766;537951246117585198;435670;487512;495905;827;
2024-05-03T17:24:00.784;537951246135754625;434986;486735;495196;845;
2024-05-03T17:24:00.802;537951246153924052;434554;486279;494779;816;
2024-05-03T17:24:00.820;537951246172093479;434277;486074;494503;790;
2024-05-03T17:24:00.839;537951246190262906;434201;486097;494391;788;
2024-05-03T17:24:00.857;537951246208432333;434251;486269;494437;801;
2024-05-03T17:24:00.875;537951246226601760;434360;486489;494541;834;
2024-05-03T17:24:00.893;537951246244771187;434520;486766;494763;805;
2024-05-03T17:24:00.911;537951246262940614;434610;486960;494888;851;
2024-05-03T17:24:00.929;537951246281110041;434706;487057;494918;812;
2024-05-03T17:24:00.948;537951246299279468;434721;487062;494915;797;
2024-05-03T17:24:00.966;537951246317448895;434628;487032;494803;742;
2024-05-03T17:24:00.984;537951246335618322;434468;486895;494668;771;
2024-05-03T17:24:01.002;537951246353787749;434296;486727;494560;710;
2024-05-03T17:24:01.020;537951246371957176;434218;486697;494542;723;
2024-05-03T17:24:01.038;537951246390126603;434292;486707;494568;827;
2024-05-03T17:24:01.057;537951246408296030;434299;486817;494566;792;
2024-05-03T17:24:01.075;537951246426465457;434425;486974;494750;779;
2024-05-03T17:24:01.093;537951246444634884;434573;487283;494938;770;
2024-05-03T17:24:01.111;537951246462804311;434843;487647;495236;778;
2024-05-03T17:24:01.129;537951246480973738;435062;488045;495502;770;
2024-05-03T17:24:01.147;537951246499143165;435390;488433;495822;792;
2024-05-03T17:24:01.166;537951246517312592;435697;488831;496147;788;
2024-05-03T17:24:01.184;537951246535482019;436013;489313;496473;789;
2024-05-03T17:24:01.202;537951246553651446;436340;489723;496879;768;
2024-05-03T17:24:01.220;537951246571820873;436660;490232;497282;753;
2024-05-03T17:24:01.238;537951246589990300;437058;490707;497671;748;
2024-05-03T17:24:01.256;537951246608159727;437419;491122;497964;737;
2024-05-03T17:24:01.275;537951246626329154;437681;491465;498314;743;
2024-05-03T17:24:01.293;537951246644498581;437420;491052;498115;705;
2024-05-03T17:24:01.311;537951246662668008;436626;489962;497371;717;
2024-05-03T17:24:01.329;537951246680837435;435533;488533;496208;757;
2024-05-03T17:24:01.347;537951246699003998;434252;486785;494807;762;
2024-05-03T17:24:01.365;537951246717170538;432914;485180;493467;764;
2024-05-03T17:24:01.384;537951246735337078;431774;483870;492339;680;
2024-05-03T17:24:01.402;537951246753503618;430931;482873;491491;786;
2024-05-03T17:24:01.420;537951246771670158;430418;482239;490883;769;
2024-05-03T17:24:01.438;537951246789836698;430058;481841;490433;751;
2024-05-03T17:24:01.456;537951246808003238;429828;481698;490115;699;
2024-05-03T17:24:01.474;537951246826169778;429721;481632;489981;701;
2024-05-03T17:24:01.493;537951246844336318;429674;481714;489896;772;
2024-05-03T17:24:01.511;537951246862502858;429725;481768;489845;721;
2024-05-03T17:24:01.529;537951246880669398;429774;481828;489889;694;
2024-05-03T17:24:01.547;537951246898835938;429785;481914;489810;691;
2024-05-03T17:24:01.565;537951246917002478;429731;481835;489719;691;
2024-05-03T17:24:01.583;537951246935169018;429648;481766;489669;714;
2024-05-03T17:24:01.602;537951246953335558;429552;481578;489596;721;
2024-05-03T17:24:01.620;537951246971502098;429356;481431;489345;696;
2024-05-03T17:24:01.638;537951246989668638;429246;481279;489149;696;
2024-05-03T17:24:01.656;537951247007835178;429233;481250;489042;763;
2024-05-03T17:24:01.674;537951247026001718;429339;481350;489091;775;
2024-05-03T17:24:01.692;537951247044168258;429299;481452;489094;656;
2024-05-03T17:24:01.711;537951247062334798;429440;481684;489209;674;
2024-05-03T17:24:01.729;537951247080501338;429641;482011;489426;705;
2024-05-03T17:24:01.747;537951247098667878;429933;482380;489696;609;
2024-05-03T17:24:01.765;537951247116834418;430168;482760;489874;646;
2024-05-03T17:24:01.783;537951247135000958;430538;483222;490172;716;
2024-05-03T17:24:01.801;537951247153167498;430847;483617;490472;719;
2024-05-03T17:24:01.820;537951247171334038;431169;484022;490809;709;
2024-05-03T17:24:01.838;537951247189500578;431567;484423;491199;742;
2024-05-03T17:24:01.856;537951247207667118;431909;484887;491513;740;
2024-05-03T17:24:01.874;537951247225833658;432206;485370;491832;731;
2024-05-03T17:24:01.892;537951247244000198;432593;485788;492212;792;
2024-05-03T17:24:01.910;537951247262166738;432950;486173;492557;712;
2024-05-03T17:24:01.929;537951247280333278;433067;486273;492635;710;
2024-05-03T17:24:01.947;537951247298499818;432466;485556;492043;747;
2024-05-03T17:24:01.965;537951247316666358;431395;484094;490908;708;
2024-05-03T17:24:01.983;537951247334832898;429990;482274;489384;700;
2024-05-03T17:24:02.001;537951247352999438;428620;480487;487887;675;
2024-05-03T17:24:02.019;537951247371170206;427283;478886;486488;730;
2024-05-03T17:24:02.038;537951247389340962;426204;477630;485269;701;
2024-05-03T17:24:02.056;537951247407511718;425354;476681;484347;688;
2024-05-03T17:24:02.074;537951247425682474;424835;476192;483675;691;
2024-05-03T17:24:02.092;537951247443853230;424534;475880;483252;719;
2024-05-03T17:24:02.110;537951247462023986;424379;475738;482937;719;
2024-05-03T17:24:02.128;537951247480194742;424268;475641;482675;695;
2024-05-03T17:24:02.147;537951247498365498;424276;475648;482468;654;
2024-05-03T17:24:02.165;537951247516536254;424137;475730;482406;687;
2024-05-03T17:24:02.183;537951247534707010;424125;475719;482289;688;
2024-05-03T17:24:02.201;537951247552877766;424133;475698;482250;689;
2024-05-03T17:24:02.219;537951247571048522;424022;475725;482183;697;
2024-05-03T17:24:02.237;537951247589219278;423929;475688;481936;693;
2024-05-03T17:24:02.256;537951247607390034;423758;475435;481732;680;
2024-05-03T17:24:02.274;537951247625560790;423612;475269;481504;735;
2024-05-03T17:24:02.292;537951247643731546;423615;475247;481385;724;
2024-05-03T17:24:02.310;537951247661902302;423566;475251;481269;776;
2024-05-03T17:24:02.328;537951247680073058;423671;475303;481207;789;
2024-05-03T17:24:02.346;537951247698243814;423701;475453;481268;714;
2024-05-03T17:24:02.365;537951247716414570;423906;475757;481501;759;
2024-05-03T17:24:02.383;537951247734585326;424198;476175;481676;775;
2024-05-03T17:24:02.401;537951247752756082;424504;476504;481910;753;
2024-05-03T17:24:02.419;537951247770926838;424762;476946;482222;788;
2024-05-03T17:24:02.437;537951247789097594;425149;477340;482521;760;
2024-05-03T17:24:02.456;537951247807268350;425456;477801;482790;768;
2024-05-03T17:24:02.474;537951247825439106;425769;478269;483171;751;
2024-05-03T17:24:02.492;537951247843609862;426141;478693;483534;693;
2024-05-03T17:24:02.510;537951247861780618;426545;479095;483897;751;
2024-05-03T17:24:02.528;537951247879951374;426940;479553;484259;792;
2024-05-03T17:24:02.546;537951247898122130;427229;479946;484569;808;
2024-05-03T17:24:02.565;537951247916292886;427614;480407;484906;806;
2024-05-03T17:24:02.583;537951247934463642;428039;480867;485313;755;
2024-05-03T17:24:02.601;537951247952634398;428343;481296;485676;794;
2024-05-03T17:24:02.619;537951247970805154;428664;481602;485946;825;
2024-05-03T17:24:02.637;537951247988975910;428425;481237;485710;807;
2024-05-03T17:24:02.655;537951248007146666;427432;479921;484677;788;
2024-05-03T17:24:02.674;537951248025316249;426140;478285;483342;775;
2024-05-03T17:24:02.692;537951248043485818;424717;476501;481870;744;
2024-05-03T17:24:02.710;537951248061655387;423227;474740;480243;756;
2024-05-03T17:24:02.728;537951248079824956;422078;473267;478991;767;
2024-05-03T17:24:02.746;537951248097994525;421193;472258;477948;727;
2024-05-03T17:24:02.764;537951248116164094;420667;471730;477221;780;
2024-05-03T17:24:02.783;537951248134333663;420327;471436;476848;738;
2024-05-03T17:24:02.801;537951248152503232;420179;471305;476709;713;
2024-05-03T17:24:02.819;537951248170672801;420121;471309;476447;708;
2024-05-03T17:24:02.837;537951248188842370;420148;471331;476403;708;
2024-05-03T17:24:02.855;537951248207011939;420176;471439;476412;692;
2024-05-03T17:24:02.873;537951248225181508;420325;471607;476445;741;
2024-05-03T17:24:02.892;537951248243351077;420289;471715;476462;671;
2024-05-03T17:24:02.910;537951248261520646;420278;471749;476454;742;
2024-05-03T17:24:02.928;537951248279690215;420306;471675;476338;793;
2024-05-03T17:24:02.946;537951248297859784;420182;471570;476142;726;
2024-05-03T17:24:02.964;537951248316029353;420050;471434;475988;735;
2024-05-03T17:24:02.982;537951248334198922;419949;471376;475867;653;
2024-05-03T17:24:03.001;537951248352368491;420032;471374;475847;722;
2024-05-03T17:24:03.019;537951248370538060;419994;471443;475885;707;
2024-05-03T17:24:03.037;537951248388707629;420162;471641;475997;689;
2024-05-03T17:24:03.055;537951248406877198;420397;472030;476211;778;
2024-05-03T17:24:03.073;537951248425046767;420756;472345;476511;740;
2024-05-03T17:24:03.091;537951248443216336;421048;472810;476848;775;
2024-05-03T17:24:03.110;537951248461385905;421450;473262;477182;792;
2024-05-03T17:24:03.128;537951248479555474;421826;473713;477648;798;
2024-05-03T17:24:03.146;537951248497725043;422160;474191;477938;799;
2024-05-03T17:24:03.164;537951248515894612;422579;474672;478332;811;
2024-05-03T17:24:03.182;537951248534064181;422967;475100;478622;720;
2024-05-03T17:24:03.200;537951248552233750;423284;475541;479025;694;
2024-05-03T17:24:03.219;537951248570403319;423726;476002;479484;739;
2024-05-03T17:24:03.237;537951248588572888;424043;476416;479893;716;
2024-05-03T17:24:03.255;537951248606742457;424444;476890;480225;678;
2024-05-03T17:24:03.273;537951248624912026;424798;477394;480735;704;
2024-05-03T17:24:03.291;537951248643081595;425262;477808;481142;701;
2024-05-03T17:24:03.309;537951248661251164;425614;478248;481528;679;
2024-05-03T17:24:03.328;537951248679422459;426019;478733;481916;693;
2024-05-03T17:24:03.346;537951248697593748;426463;479255;482377;710;
2024-05-03T17:24:03.364;537951248715765037;426855;479792;482847;731;
2024-05-03T17:24:03.382;537951248733936326;426883;479791;482931;710;
2024-05-03T17:24:03.400;537951248752107615;426281;479007;482378;774;
2024-05-03T17:24:03.419;537951248770278904;425177;477411;481186;752;
2024-05-03T17:24:03.437;537951248788450193;423949;475760;479880;758;
2024-05-03T17:24:03.455;537951248806621482;422442;473873;478381;634;
2024-05-03T17:24:03.473;537951248824792771;421209;472405;477126;711;
2024-05-03T17:24:03.491;537951248842964060;420364;471210;476047;704;
2024-05-03T17:24:03.509;537951248861135349;419676;470537;475372;706;
2024-05-03T17:24:03.528;537951248879306638;419324;470219;474982;724;
2024-05-03T17:24:03.546;537951248897477927;419346;470193;474913;728;
2024-05-03T17:24:03.564;537951248915649216;419329;470271;474853;719;
2024-05-03T17:24:03.582;537951248933820505;419407;470445;474928;692;
2024-05-03T17:24:03.600;537951248951991794;419575;470689;475078;665;
2024-05-03T17:24:03.618;537951248970163083;419828;470910;475335;686;
2024-05-03T17:24:03.637;537951248988334372;419920;471165;475432;691;
2024-05-03T17:24:03.655;537951249006505661;419959;471213;475484;707;
2024-05-03T17:24:03.673;537951249024676950;419965;471163;475489;752;
2024-05-03T17:24:03.691;537951249042848239;419894;471069;475397;669;
2024-05-03T17:24:03.709;537951249061019528;419900;471024;475315;695;
2024-05-03T17:24:03.727;537951249079190817;419852;470995;475233;716;
2024-05-03T17:24:03.746;537951249097362106;419732;470828;475175;675;
2024-05-03T17:24:03.764;537951249115533395;419828;470962;475270;701;
2024-05-03T17:24:03.782;537951249133704684;420012;471182;475469;713;
2024-05-03T17:24:03.800;537951249151875973;420212;471403;475679;684;
2024-05-03T17:24:03.818;537951249170047262;420459;471857;475971;686;
2024-05-03T17:24:03.836;537951249188218551;420761;472216;476363;689;
2024-05-03T17:24:03.855;537951249206389840;421228;472711;476729;683;
2024-05-03T17:24:03.873;537951249224561129;421641;473246;477144;729;
2024-05-03T17:24:03.891;537951249242732418;422045;473744;477637;750;
2024-05-03T17:24:03.909;537951249260903707;422438;474264;478059;742;
2024-05-03T17:24:03.927;537951249279074996;422828;474801;478565;669;
2024-05-03T17:24:03.945;537951249297246285;423279;475262;478971;688;
2024-05-03T17:24:03.964;537951249315416710;423768;475819;479436;713;
2024-05-03T17:24:03.982;537951249333587127;424221;476291;479951;691;
2024-05-03T17:24:04.000;537951249351757544;424656;476836;480423;701;
2024-05-03T17:24:04.018;537951249369927961;425071;477218;480862;750;
2024-05-03T17:24:04.036;537951249388098378;425494;477773;481252;696;
2024-05-03T17:24:04.055;537951249406268795;425905;478264;481783;726;
2024-05-03T17:24:04.073;537951249424439212;426292;478744;482216;726;
2024-05-03T17:24:04.091;537951249442609629;426744;479260;482668;685;
2024-05-03T17:24:04.109;537951249460780046;427121;479814;483238;706;
2024-05-03T17:24:04.127;537951249478950463;427518;480328;483718;707;
2024-05-03T17:24:04.145;537951249497120880;428056;480893;484236;703;
2024-05-03T17:24:04.164;537951249515291297;428015;480804;484225;688;
2024-05-03T17:24:04.182;537951249533461714;427396;479896;483632;775;
2024-05-03T17:24:04.200;537951249551632131;426307;478375;482584;670;
2024-05-03T17:24:04.218;537951249569802548;425107;476820;481324;651;
2024-05-03T17:24:04.236;537951249587972965;423751;475169;480076;669;
2024-05-03T17:24:04.254;537951249606143382;422761;473886;478932;750;
2024-05-03T17:24:04.273;537951249624313799;421996;472972;478139;692;
2024-05-03T17:24:04.291;537951249642484216;421478;472410;477583;712;
2024-05-03T17:24:04.309;537951249660654633;421265;472215;477420;658;
2024-05-03T17:24:04.327;537951249678825050;421273;472295;477432;690;
2024-05-03T17:24:04.345;537951249696995467;421329;472571;477580;720;
2024-05-03T17:24:04.363;537951249715165884;421603;472882;477842;730;
2024-05-03T17:24:04.382;537951249733336301;421885;473195;478080;670;
2024-05-03T17:24:04.400;537951249751506718;422144;473673;478358;670;
2024-05-03T17:24:04.418;537951249769677135;422442;473916;478681;740;
2024-05-03T17:24:04.436;537951249787847552;422528;474085;478788;683;
2024-05-03T17:24:04.454;537951249806017969;422504;474153;478894;663;
2024-05-03T17:24:04.472;537951249824188386;422524;474089;478845;667;
2024-05-03T17:24:04.491;537951249842358803;422485;474018;478774;612;
2024-05-03T17:24:04.509;537951249860529220;422478;473977;478824;598;
2024-05-03T17:24:04.527;537951249878699637;422558;474060;478921;705;
2024-05-03T17:24:04.545;537951249896870054;422706;474230;479060;677;
2024-05-03T17:24:04.563;537951249915040471;422926;474488;479280;639;
2024-05-03T17:24:04.581;537951249933210888;423203;474912;479683;699;
2024-05-03T17:24:04.600;537951249951382247;423533;475329;480008;731;
2024-05-03T17:24:04.618;537951249969553579;423906;475798;480469;716;
2024-05-03T17:24:04.636;537951249987724911;424298;476335;480937;678;
2024-05-03T17:24:04.654;537951250005896243;424730;476920;481443;701;
2024-05-03T17:24:04.672;537951250024067575;425268;477518;481973;777;
2024-05-03T17:24:04.690;537951250042238907;425712;477991;482400;716;
2024-05-03T17:24:04.709;537951250060410239;426177;478655;482922;716;
2024-05-03T17:24:04.727;537951250078581571;426673;479236;483473;739;
2024-05-03T17:24:04.745;537951250096752903;427126;479811;483967;721;
2024-05-03T17:24:04.763;537951250114924235;427560;480439;484546;760;
2024-05-03T17:24:04.781;537951250133095567;428090;480974;485037;712;
2024-05-03T17:24:04.800;537951250151266899;428559;481528;485533;738;
2024-05-03T17:24:04.818;537951250169438231;428988;482110;486082;696;
2024-05-03T17:24:04.836;537951250187609563;429471;482717;486633;753;
2024-05-03T17:24:04.854;537951250205780895;429883;483267;487089;721;
2024-05-03T17:24:04.872;537951250223952227;430391;483904;487637;724;
2024-05-03T17:24:04.890;537951250242123559;430907;484531;488222;764;
2024-05-03T17:24:04.909;537951250260294891;431175;484830;488624;704;
2024-05-03T17:24:04.927;537951250278466223;430893;484322;488404;683;
2024-05-03T17:24:04.945;537951250296637555;430185;483215;487686;696;
2024-05-03T17:24:04.963;537951250314808887;429226;481957;486727;695;
2024-05-03T17:24:04.981;537951250332980219;428038;480535;485693;697;
2024-05-03T17:24:04.999;537951250351151551;427060;479283;484736;694;
2024-05-03T17:24:05.018;537951250369322883;426266;478308;483936;712;
2024-05-03T17:24:05.036;537951250387494215;425824;477702;483443;656;
2024-05-03T17:24:05.054;537951250405665547;425621;477518;483281;677;
2024-05-03T17:24:05.072;537951250423836879;425609;477609;483275;631;
2024-05-03T17:24:05.090;537951250442008211;425721;477840;483443;629;
2024-05-03T17:24:05.108;537951250460179543;426047;478219;483797;650;
2024-05-03T17:24:05.127;537951250478350875;426399;478698;484095;680;
2024-05-03T17:24:05.145;537951250496522207;426748;479173;484509;676;
2024-05-03T17:24:05.163;537951250514693539;427174;479648;484908;729;
2024-05-03T17:24:05.181;537951250532864871;427388;479990;485221;718;
2024-05-03T17:24:05.199;537951250551036203;427548;480088;485340;709;
2024-05-03T17:24:05.217;537951250569207535;427671;480212;485524;767;
2024-05-03T17:24:05.236;537951250587378112;427693;480301;485633;824;
2024-05-03T17:24:05.254;537951250605548659;427701;480255;485721;838;
2024-05-03T17:24:05.272;537951250623719206;427873;480328;485894;898;
2024-05-03T17:24:05.290;537951250641889753;428043;480543;486053;956;
2024-05-03T17:24:05.308;537951250660060300;428320;480797;486299;980;
2024-05-03T17:24:05.326;537951250678230847;428579;481177;486616;965;
2024-05-03T17:24:05.345;537951250696401394;428923;481672;487003;987;
2024-05-03T17:24:05.363;537951250714571941;429331;482156;487497;1038;
2024-05-03T17:24:05.381;537951250732742488;429765;482681;487972;965;
2024-05-03T17:24:05.399;537951250750913035;430175;483283;488432;1002;
2024-05-03T17:24:05.417;537951250769083582;430703;483885;488969;1018;
2024-05-03T17:24:05.435;537951250787254129;431125;484433;489477;1078;
2024-05-03T17:24:05.454;537951250805424676;431607;484988;489916;1037;
2024-05-03T17:24:05.472;537951250823595223;432201;485602;490433;1048;
2024-05-03T17:24:05.490;537951250841765770;432701;486084;490976;1036;
2024-05-03T17:24:05.508;537951250859936317;433194;486705;491515;1102;
2024-05-03T17:24:05.526;537951250878106864;433654;487203;491924;1058;
2024-05-03T17:24:05.545;537951250896277411;434102;487950;492526;1074;
2024-05-03T17:24:05.563;537951250914447958;434686;488599;493174;1149;
2024-05-03T17:24:05.581;537951250932618505;435036;489156;493625;1104;
2024-05-03T17:24:05.599;537951250950789052;435227;489361;493935;1103;
2024-05-03T17:24:05.617;537951250968959599;434850;488820;493620;1102;
2024-05-03T17:24:05.635;537951250987130146;434026;487755;492889;1059;
2024-05-03T17:24:05.654;537951251005300693;433226;486534;492074;1075;
2024-05-03T17:24:05.672;537951251023471240;432289;485352;491204;1038;
2024-05-03T17:24:05.690;537951251041641787;431499;484340;490486;1030;
2024-05-03T17:24:05.708;537951251059812334;430957;483719;490007;949;
2024-05-03T17:24:05.726;537951251077982881;430632;483446;489773;994;
2024-05-03T17:24:05.744;537951251096153428;430526;483394;489724;868;
2024-05-03T17:24:05.763;537951251114323975;430623;483524;489851;881;
2024-05-03T17:24:05.781;537951251132494522;430869;483918;490093;865;
2024-05-03T17:24:05.799;537951251150665069;431190;484280;490488;802;
2024-05-03T17:24:05.817;537951251168835616;431519;484801;490812;757;
2024-05-03T17:24:05.835;537951251187006163;431842;485295;491202;699;
2024-05-03T17:24:05.853;537951251205176710;432119;485619;491639;673;
2024-05-03T17:24:05.872;537951251223347449;432433;485738;491716;648;
2024-05-03T17:24:05.890;537951251241518171;432586;485927;491838;587;
2024-05-03T17:24:05.908;537951251259688893;432682;486176;492018;524;
2024-05-03T17:24:05.926;537951251277859615;432644;486362;492229;444;
2024-05-03T17:24:05.944;537951251296030337;432611;486452;492299;407;
2024-05-03T17:24:05.962;537951251314201059;432542;486597;492431;303;
2024-05-03T17:24:05.981;537951251332371781;432559;486794;492628;243;
2024-05-03T17:24:05.999;537951251350542503;432615;486993;492731;73;
2024-05-03T17:24:06.017;537951251368713225;433122;487328;492972;13;
2024-05-03T17:24:06.035;537951251386883947;433683;487631;493174;-16;
2024-05-03T17:24:06.053;537951251405054669;434127;487904;493315;-108;
2024-05-03T17:24:06.071;537951251423225391;434421;487965;493403;-199;
2024-05-03T17:24:06.090;537951251441396113;434624;488180;493507;-266;
2024-05-03T17:24:06.108;537951251459566835;434952;488658;493642;-289;
2024-05-03T17:24:06.126;537951251477737557;435034;489089;493755;-350;
2024-05-03T17:24:06.144;537951251495908279;435095;489608;493864;-306;
2024-05-03T17:24:06.162;537951251514079001;435166;490113;493808;-357;
2024-05-03T17:24:06.180;537951251532249723;435389;490588;494038;-338;
2024-05-03T17:24:06.199;537951251550420445;435742;491112;494406;-405;
2024-05-03T17:24:06.217;537951251568591167;436242;491807;494882;-450;
2024-05-03T17:24:06.235;537951251586761889;436484;492185;495059;-473;
2024-05-03T17:24:06.253;537951251604932611;436565;492040;494898;-430;
2024-05-03T17:24:06.271;537951251623103333;436248;491555;494219;-433;
2024-05-03T17:24:06.290;537951251641274055;435567;490587;493408;-452;
2024-05-03T17:24:06.308;537951251659444777;434920;489500;492375;-435;
2024-05-03T17:24:06.326;537951251677615499;434418;488337;491123;-395;
2024-05-03T17:24:06.344;537951251695786221;433965;487409;489904;-368;
2024-05-03T17:24:06.362;537951251713956943;433606;486714;489001;-303;
2024-05-03T17:24:06.380;537951251732127665;433326;486087;488338;-279;
2024-05-03T17:24:06.399;537951251750298387;433210;485366;488091;-246;
2024-05-03T17:24:06.417;537951251768469109;433577;484577;488281;-126;
2024-05-03T17:24:06.435;537951251786639831;433780;484214;488590;-130;
2024-05-03T17:24:06.453;537951251804810553;434070;484270;489118;-217;
2024-05-03T17:24:06.471;537951251822981275;434366;484465;489756;-154;
2024-05-03T17:24:06.489;537951251841151997;434685;484612;490235;-190;
2024-05-03T17:24:06.508;537951251859321848;434906;484409;490616;-136;
2024-05-03T17:24:06.526;537951251877491686;435054;484253;491014;-130;
2024-05-03T17:24:06.544;537951251895661524;435304;484245;491540;-95;
2024-05-03T17:24:06.562;537951251913831362;435626;484415;492010;-52;
2024-05-03T17:24:06.580;537951251932001200;435995;484669;492407;-75;
2024-05-03T17:24:06.598;537951251950171038;436429;485046;492821;-33;
2024-05-03T17:24:06.617;537951251968340876;437050;485485;493337;-31;
2024-05-03T17:24:06.635;537951251986510714;437504;485867;493851;-57;
2024-05-03T17:24:06.653;537951252004680552;437953;486245;494376;-35;
2024-05-03T17:24:06.671;537951252022850390;438500;486551;494877;-42;
2024-05-03T17:24:06.689;537951252041020228;438884;486764;495381;-61;
2024-05-03T17:24:06.707;537951252059190066;439309;487211;495943;6;
2024-05-03T17:24:06.726;537951252077359904;439730;487638;496459;42;
2024-05-03T17:24:06.744;537951252095529742;440196;488257;497076;19;
2024-05-03T17:24:06.762;537951252113699580;440987;489019;497795;70;
2024-05-03T17:24:06.780;537951252131869418;441724;489731;498460;131;
2024-05-03T17:24:06.798;537951252150039256;442565;490386;499283;141;
2024-05-03T17:24:06.816;537951252168209094;443414;490960;500223;251;
2024-05-03T17:24:06.835;537951252186378932;444047;491105;500918;263;
2024-05-03T17:24:06.853;537951252204548770;444261;490246;501082;249;
2024-05-03T17:24:06.871;537951252222718608;443997;488523;500829;313;
2024-05-03T17:24:06.889;537951252240888446;443321;486255;500341;312;
2024-05-03T17:24:06.907;537951252259058284;442315;483458;499891;347;
2024-05-03T17:24:06.925;537951252277228122;441563;480929;499361;433;
2024-05-03T17:24:06.944;537951252295397960;440997;479502;499091;446;
2024-05-03T17:24:06.962;537951252313567798;440634;479116;499030;518;
2024-05-03T17:24:06.980;537951252331737636;440488;479347;499038;450;
2024-05-03T17:24:06.998;537951252349907474;440459;479811;499253;369;
2024-05-03T17:24:07.016;537951252368077312;440537;480316;499476;386;
2024-05-03T17:24:07.034;537951252386246565;440589;480816;499904;294;
2024-05-03T17:24:07.053;537951252404415808;440950;481486;500432;246;
2024-05-03T17:24:07.071;537951252422585051;441715;482317;500794;229;
2024-05-03T17:24:07.089;537951252440754294;442649;483080;501121;208;
2024-05-03T17:24:07.107;537951252458923537;443553;483561;500963;210;
2024-05-03T17:24:07.125;537951252477092780;444167;483404;500530;164;
2024-05-03T17:24:07.144;537951252495262023;444417;482752;499756;183;
2024-05-03T17:24:07.162;537951252513431266;444432;481642;498857;181;
2024-05-03T17:24:07.180;537951252531600509;444080;480491;497986;195;
2024-05-03T17:24:07.198;537951252549769752;443373;479388;497357;183;
2024-05-03T17:24:07.216;537951252567938995;442680;478785;497175;259;
2024-05-03T17:24:07.234;537951252586108238;441544;478354;497303;285;
2024-05-03T17:24:07.253;537951252604277481;440852;476352;497438;310;
2024-05-03T17:24:07.271;537951252622446724;458541;455191;494612;477;
2024-05-03T17:24:07.289;537951252640615967;487882;452060;501237;615;
2024-05-03T17:24:07.307;537951252658785210;504218;500791;530928;687;
2024-05-03T17:24:07.325;537951252676954453;506835;558174;558188;871;
2024-05-03T17:24:07.343;537951252695123696;518174;596034;565353;939;
2024-05-03T17:24:07.362;537951252713292939;519224;613814;563523;992;
2024-05-03T17:24:07.380;537951252731462182;512734;622522;562184;999;
2024-05-03T17:24:07.398;537951252749631425;510132;626666;562134;979;
2024-05-03T17:24:07.416;537951252767800668;511273;630541;562920;889;
2024-05-03T17:24:07.434;537951252785969911;513507;634201;564435;767;
2024-05-03T17:24:07.452;537951252804139154;513248;633361;566912;606;
2024-05-03T17:24:07.471;537951252822308397;513605;631980;568559;463;
2024-05-03T17:24:07.489;537951252840477640;515153;632423;568481;344;
2024-05-03T17:24:07.507;537951252858648061;515541;631402;566748;167;
2024-05-03T17:24:07.525;537951252876818478;514011;628505;563973;102;
2024-05-03T17:24:07.543;537951252894988895;512516;625145;560967;7;
2024-05-03T17:24:07.561;537951252913159312;513501;624074;559596;-122;
2024-05-03T17:24:07.580;537951252931329729;517558;625958;560558;-181;
2024-05-03T17:24:07.598;537951252949500146;522633;629036;562362;-33;
2024-05-03T17:24:07.616;537951252967670563;526464;631726;563559;88;
2024-05-03T17:24:07.634;537951252985840980;528770;633149;564176;163;
2024-05-03T17:24:07.652;537951253004011397;530075;633965;564480;304;
2024-05-03T17:24:07.670;537951253022181814;530839;634221;564636;416;
2024-05-03T17:24:07.689;537951253040352231;531255;634237;564670;513;
2024-05-03T17:24:07.707;537951253058522648;531321;634096;564599;603;
2024-05-03T17:24:07.725;537951253076693065;531368;633780;564379;643;
2024-05-03T17:24:07.743;537951253094863482;531268;633567;564207;626;
2024-05-03T17:24:07.761;537951253113033899;531115;633344;563977;663;
2024-05-03T17:24:07.779;537951253131204316;530973;633037;563733;652;
2024-05-03T17:24:07.798;537951253149374733;530769;632773;563475;625;
2024-05-03T17:24:07.816;537951253167545150;530695;632630;563342;670;
2024-05-03T17:24:07.834;537951253185715567;530634;632478;563253;651;
2024-05-03T17:24:07.852;537951253203885984;530572;632408;563209;626;
2024-05-03T17:24:07.870;537951253222056401;530607;632416;563330;703;
2024-05-03T17:24:07.888;537951253240226818;530723;632467;563506;750;
2024-05-03T17:24:07.907;537951253258397235;530765;632446;563551;755;
2024-05-03T17:24:07.925;537951253276567652;530893;632478;563697;754;
2024-05-03T17:24:07.943;537951253294738069;530953;632531;563916;742;
2024-05-03T17:24:07.961;537951253312908486;531153;632635;564047;773;
2024-05-03T17:24:07.979;537951253331078903;531214;632758;564143;794;
2024-05-03T17:24:07.997;537951253349249320;531404;632957;564285;805;
2024-05-03T17:24:08.016;537951253367419737;531517;633176;564538;843;
2024-05-03T17:24:08.034;537951253385590154;531643;633285;564753;892;
2024-05-03T17:24:08.052;537951253403760571;531776;633383;564951;911;
2024-05-03T17:24:08.070;537951253421930996;531862;633516;565064;952;
2024-05-03T17:24:08.088;537951253440101413;531626;633186;564838;1008;
2024-05-03T17:24:08.107;537951253458271830;530786;632410;564037;925;
2024-05-03T17:24:08.125;537951253476442247;529882;631385;563121;955;
2024-05-03T17:24:08.143;537951253494612664;529009;630297;562326;997;
2024-05-03T17:24:08.161;537951253512783081;528042;629201;561439;972;
2024-05-03T17:24:08.179;537951253530953498;527312;628457;560776;976;
2024-05-03T17:24:08.197;537951253549123915;526799;627763;560309;990;
2024-05-03T17:24:08.216;537951253567294332;526358;627242;559906;970;
2024-05-03T17:24:08.234;537951253585464749;526081;626872;559607;999;
2024-05-03T17:24:08.252;537951253603635166;525681;626458;559315;997;
2024-05-03T17:24:08.270;537951253621805583;525446;626185;559072;925;
2024-05-03T17:24:08.288;537951253639976000;525223;625873;558821;872;
2024-05-03T17:24:08.306;537951253658146417;525048;625695;558616;909;
2024-05-03T17:24:08.325;537951253676316834;524823;625485;558433;930;
2024-05-03T17:24:08.343;537951253694487251;524714;625315;558343;924;
2024-05-03T17:24:08.361;537951253712657668;524529;625044;558183;892;
2024-05-03T17:24:08.379;537951253730828085;524361;624893;558044;848;
2024-05-03T17:24:08.397;537951253748998502;524232;624711;557951;826;
2024-05-03T17:24:08.415;537951253767168919;524103;624557;557892;820;
2024-05-03T17:24:08.434;537951253785339336;523959;624317;557877;830;
2024-05-03T17:24:08.452;537951253803509753;523858;624135;557859;844;
2024-05-03T17:24:08.470;537951253821680170;523678;623960;557814;780;
2024-05-03T17:24:08.488;537951253839850587;523659;623864;557882;733;
2024-05-03T17:24:08.506;537951253858021004;523738;623969;558000;804;
2024-05-03T17:24:08.524;537951253876191421;523707;623953;558127;795;
2024-05-03T17:24:08.543;537951253894361838;523704;623943;558250;758;
2024-05-03T17:24:08.561;537951253912532255;523833;624107;558440;747;
2024-05-03T17:24:08.579;537951253930702672;523966;624227;558579;799;
2024-05-03T17:24:08.597;537951253948873089;524098;624402;558690;776;
2024-05-03T17:24:08.615;537951253967043506;524224;624570;559007;754;
2024-05-03T17:24:08.633;537951253985213923;524451;624749;559254;739;
2024-05-03T17:24:08.652;537951254003384340;524630;624955;559545;777;
2024-05-03T17:24:08.670;537951254021554757;524911;625164;560127;797;
2024-05-03T17:24:08.688;537951254039725174;525243;625405;560791;781;
2024-05-03T17:24:08.706;537951254057895591;525482;625633;561439;794;
2024-05-03T17:24:08.724;537951254076066016;525795;625814;562064;834;
2024-05-03T17:24:08.742;537951254094236433;526081;626042;562480;833;
2024-05-03T17:24:08.761;537951254112406850;526331;626172;562813;885;
2024-05-03T17:24:08.779;537951254130577267;526588;626402;563092;846;
2024-05-03T17:24:08.797;537951254148747684;526797;626646;563427;788;
2024-05-03T17:24:08.815;537951254166918101;526588;626318;563275;834;
2024-05-03T17:24:08.833;537951254185088518;525904;625522;562812;831;
2024-05-03T17:24:08.852;537951254203258935;525048;624496;562110;842;
2024-05-03T17:24:08.870;537951254221429352;524172;623482;561308;896;
2024-05-03T17:24:08.888;537951254239599769;523296;622412;560547;866;
2024-05-03T17:24:08.906;537951254257770186;522584;621532;559942;863;
2024-05-03T17:24:08.924;537951254275940603;522040;620871;559526;896;
2024-05-03T17:24:08.942;537951254294111020;521591;620353;559312;861;
2024-05-03T17:24:08.961;537951254312281437;521352;620045;559214;876;
2024-05-03T17:24:08.979;537951254330451854;521124;619762;559268;859;
2024-05-03T17:24:08.997;537951254348622271;520857;619500;559276;834;
2024-05-03T17:24:09.015;537951254366792688;520636;619293;559265;837;
2024-05-03T17:24:09.033;537951254384963105;520560;619149;559296;905;
2024-05-03T17:24:09.051;537951254403133522;520413;619095;559407;931;
2024-05-03T17:24:09.070;537951254421303939;520367;618946;559419;876;
2024-05-03T17:24:09.088;537951254439474356;520122;618765;559391;911;
2024-05-03T17:24:09.106;537951254457644773;519925;618557;559396;887;
2024-05-03T17:24:09.124;537951254475815190;519716;618478;559612;897;
2024-05-03T17:24:09.142;537951254493985607;519458;618464;559709;917;
2024-05-03T17:24:09.160;537951254512156024;519158;618372;559858;892;
2024-05-03T17:24:09.179;537951254530326441;518880;618368;560018;917;
2024-05-03T17:24:09.197;537951254548496858;518575;618407;560150;879;
2024-05-03T17:24:09.215;537951254566667275;518457;618462;560294;890;
2024-05-03T17:24:09.233;537951254584837692;518370;618439;560368;847;
2024-05-03T17:24:09.251;537951254603008109;518329;618566;560475;793;
2024-05-03T17:24:09.269;537951254621178526;518441;618779;560789;830;
2024-05-03T17:24:09.288;537951254639348943;518395;619070;561073;816;
2024-05-03T17:24:09.306;537951254657519360;518371;619306;561501;794;
2024-05-03T17:24:09.324;537951254675689777;518142;619575;561810;791;
2024-05-03T17:24:09.342;537951254693860194;517930;619734;562131;848;
2024-05-03T17:24:09.360;537951254712030611;517583;619957;562380;834;
2024-05-03T17:24:09.378;537951254730200808;517481;620132;562630;866;
2024-05-03T17:24:09.397;537951254748370977;517258;620239;562874;862;
2024-05-03T17:24:09.415;537951254766541146;517117;620468;563038;887;
2024-05-03T17:24:09.433;537951254784711315;517003;620669;563226;917;
2024-05-03T17:24:09.451;537951254802881484;516869;620849;563482;941;
2024-05-03T17:24:09.469;537951254821051653;516779;621075;563669;961;
2024-05-03T17:24:09.487;537951254839221822;516799;621260;563905;967;
2024-05-03T17:24:09.506;537951254857391991;516809;621548;564213;942;
2024-05-03T17:24:09.524;537951254875562160;516957;621759;564529;916;
2024-05-03T17:24:09.542;537951254893732329;517093;622010;564860;939;
2024-05-03T17:24:09.560;537951254911902498;517369;622388;565186;921;
2024-05-03T17:24:09.578;537951254930072667;517474;622695;565534;906;
2024-05-03T17:24:09.596;537951254948242836;517826;622986;565839;948;
2024-05-03T17:24:09.615;537951254966413005;517938;623213;566059;923;
2024-05-03T17:24:09.633;537951254984583174;517546;622893;565815;932;
2024-05-03T17:24:09.651;537951255002753343;516774;622030;565103;911;
2024-05-03T17:24:09.669;537951255020923512;515773;620875;564156;934;
2024-05-03T17:24:09.687;537951255039093681;514595;619551;562935;914;
2024-05-03T17:24:09.706;537951255057263850;513587;618321;561843;834;
2024-05-03T17:24:09.724;537951255075434019;512679;617291;560897;821;
2024-05-03T17:24:09.742;537951255093604188;512014;616515;560207;850;
2024-05-03T17:24:09.760;537951255111774357;511542;615976;559750;927;
2024-05-03T17:24:09.778;537951255129944526;511149;615584;559431;868;
2024-05-03T17:24:09.796;537951255148114695;510886;615366;559214;910;
2024-05-03T17:24:09.815;537951255166284864;510712;615202;559021;870;
2024-05-03T17:24:09.833;537951255184455033;510523;615006;558911;809;
2024-05-03T17:24:09.851;537951255202625202;510432;614871;558797;839;
2024-05-03T17:24:09.869;537951255220795371;510340;614767;558755;865;
2024-05-03T17:24:09.887;537951255238965540;510131;614629;558674;832;
2024-05-03T17:24:09.905;537951255257135709;510019;614398;558528;830;
2024-05-03T17:24:09.924;537951255275305878;509778;614173;558409;784;
2024-05-03T17:24:09.942;537951255293476047;509628;613959;558199;806;
2024-05-03T17:24:09.960;537951255311646216;509315;613782;557892;890;
2024-05-03T17:24:09.978;537951255329816385;509081;613484;557637;873;
2024-05-03T17:24:09.996;537951255347986554;508966;613346;557610;850;
2024-05-03T17:24:10.014;537951255366156723;509001;613311;557593;833;
2024-05-03T17:24:10.033;537951255384326892;509168;613428;557708;752;
2024-05-03T17:24:10.051;537951255402496597;509188;613559;557812;713;
2024-05-03T17:24:10.069;537951255420666270;509241;613606;557965;673;
2024-05-03T17:24:10.087;537951255438835943;509188;613694;558112;644;
2024-05-03T17:24:10.105;537951255457005616;509155;613826;558223;614;
2024-05-03T17:24:10.123;537951255475175289;509074;613961;558342;584;
2024-05-03T17:24:10.142;537951255493344962;509277;614162;558536;530;
2024-05-03T17:24:10.160;537951255511514635;509598;614481;558839;566;
2024-05-03T17:24:10.178;537951255529684308;509857;614848;559079;570;
2024-05-03T17:24:10.196;537951255547853981;510098;615154;559360;590;
2024-05-03T17:24:10.214;537951255566023654;510393;615416;559603;558;
2024-05-03T17:24:10.232;537951255584193327;510490;615755;559854;546;
2024-05-03T17:24:10.251;537951255602363000;510804;616085;560161;592;
2024-05-03T17:24:10.269;537951255620532673;511056;616423;560296;559;
2024-05-03T17:24:10.287;537951255638702346;511306;616758;560494;576;
2024-05-03T17:24:10.305;537951255656872019;511518;617024;560725;620;
2024-05-03T17:24:10.323;537951255675041692;511517;617367;560954;585;
2024-05-03T17:24:10.341;537951255693211365;511626;617613;561063;615;
2024-05-03T17:24:10.360;537951255711381038;511729;617845;561277;572;
2024-05-03T17:24:10.378;537951255729550711;511850;618148;561401;546;
2024-05-03T17:24:10.396;537951255747720384;511977;618260;561629;570;
2024-05-03T17:24:10.414;537951255765890057;512189;618462;561963;625;
2024-05-03T17:24:10.432;537951255784059730;512407;618737;562281;522;
2024-05-03T17:24:10.450;537951255802229403;512612;618952;562609;489;
2024-05-03T17:24:10.469;537951255820399076;512442;618766;562582;497;
2024-05-03T17:24:10.487;537951255838568749;511778;618136;561979;471;
2024-05-03T17:24:10.505;537951255856738422;510960;617130;561112;529;
2024-05-03T17:24:10.523;537951255874908095;510051;615914;559920;440;
2024-05-03T17:24:10.541;537951255893077768;509000;614663;558854;473;
2024-05-03T17:24:10.559;537951255911247441;508119;613607;557837;483;
2024-05-03T17:24:10.578;537951255929417114;507423;612793;557011;477;
2024-05-03T17:24:10.596;537951255947586787;506964;612091;556433;521;
2024-05-03T17:24:10.614;537951255965756460;506693;611849;556095;504;
2024-05-03T17:24:10.632;537951255983926133;506523;611614;555834;496;
2024-05-03T17:24:10.650;537951256002095806;506400;611589;555789;532;
2024-05-03T17:24:10.669;537951256020265479;506268;611562;555700;546;
2024-05-03T17:24:10.687;537951256038435152;506144;611569;555601;532;
2024-05-03T17:24:10.705;537951256056604825;506349;611527;555645;578;
2024-05-03T17:24:10.723;537951256074774498;506453;611634;555720;580;
2024-05-03T17:24:10.741;537951256092944171;506517;611600;555802;558;
2024-05-03T17:24:10.759;537951256111113992;506510;611349;555848;552;
2024-05-03T17:24:10.778;537951256129283790;506381;611068;555647;498;
2024-05-03T17:24:10.796;537951256147453588;506216;610899;555448;553;
2024-05-03T17:24:10.814;537951256165623386;505924;610750;555124;496;
2024-05-03T17:24:10.832;537951256183793184;505685;610749;554910;572;
2024-05-03T17:24:10.850;537951256201962982;505411;610882;554767;563;
2024-05-03T17:24:10.868;537951256220132780;505303;610871;554806;616;
2024-05-03T17:24:10.887;537951256238302578;505364;610977;554987;587;
2024-05-03T17:24:10.905;537951256256472376;505576;611281;555237;710;
2024-05-03T17:24:10.923;537951256274642174;505835;611567;555446;730;
2024-05-03T17:24:10.941;537951256292811972;506097;611857;555763;740;
2024-05-03T17:24:10.959;537951256310981770;506374;612246;556103;748;
2024-05-03T17:24:10.977;537951256329151568;506609;612600;556347;786;
2024-05-03T17:24:10.996;537951256347321366;506850;612862;556657;727;
2024-05-03T17:24:11.014;537951256365491164;507222;613296;557012;722;
2024-05-03T17:24:11.032;537951256383660962;507586;613772;557411;724;
2024-05-03T17:24:11.050;537951256401830760;508038;614259;557838;747;
2024-05-03T17:24:11.068;537951256420000558;508648;614657;558217;661;
2024-05-03T17:24:11.086;537951256438170356;509419;615259;558855;616;
2024-05-03T17:24:11.105;537951256456340154;510393;615778;559453;501;
2024-05-03T17:24:11.123;537951256474509952;511550;616334;560128;372;
2024-05-03T17:24:11.141;537951256492679750;512617;616560;560464;273;
2024-05-03T17:24:11.159;537951256510849548;513671;616353;560482;226;
2024-05-03T17:24:11.177;537951256529019346;514378;615872;560191;123;
2024-05-03T17:24:11.195;537951256547189144;515067;615465;559987;44;
2024-05-03T17:24:11.214;537951256565358942;515437;615298;559940;-38;
2024-05-03T17:24:11.232;537951256583528740;515636;615445;559919;-31;
2024-05-03T17:24:11.250;537951256601698538;515757;616114;559998;-26;
2024-05-03T17:24:11.268;537951256619868336;515633;617227;561007;-30;
2024-05-03T17:24:11.286;537951256638038134;515433;618066;561589;-3;
2024-05-03T17:24:11.304;537951256656207932;515080;618057;561122;-61;
2024-05-03T17:24:11.323;537951256674377730;514709;617667;560166;-54;
2024-05-03T17:24:11.341;537951256692547528;514157;616999;558855;-118;
2024-05-03T17:24:11.359;537951256710717326;513689;616386;557506;-95;
2024-05-03T17:24:11.377;537951256728887124;513357;615769;556347;-99;
2024-05-03T17:24:11.395;537951256747056922;513152;615270;555501;-89;
2024-05-03T17:24:11.413;537951256765226720;513345;614921;554918;-124;
2024-05-03T17:24:11.432;537951256783397141;513713;614638;554403;-51;
2024-05-03T17:24:11.450;537951256801567558;514256;614731;554125;-90;
2024-05-03T17:24:11.468;537951256819737975;514981;615139;554037;-40;
2024-05-03T17:24:11.486;537951256837908392;515722;615517;554091;23;
2024-05-03T17:24:11.504;537951256856078809;516529;616184;554122;18;
2024-05-03T17:24:11.522;537951256874249226;517215;616816;554234;-12;
2024-05-03T17:24:11.541;537951256892419643;517754;617344;554166;23;
2024-05-03T17:24:11.559;537951256910590060;517995;617568;553808;1;
2024-05-03T17:24:11.577;537951256928760477;517973;617351;553471;17;
2024-05-03T17:24:11.595;537951256946930894;517491;616531;553200;13;
2024-05-03T17:24:11.613;537951256965101311;516579;614997;552972;74;
2024-05-03T17:24:11.632;537951256983271728;515306;612478;552856;114;
2024-05-03T17:24:11.650;537951257001442145;513907;606452;553146;199;
2024-05-03T17:24:11.668;537951257019612562;519788;586567;549665;343;
2024-05-03T17:24:11.686;537951257037782979;535298;558558;534949;516;
2024-05-03T17:24:11.704;537951257055953396;551655;524126;521475;641;
2024-05-03T17:24:11.722;537951257074123813;564941;500728;516612;789;
2024-05-03T17:24:11.741;537951257092294230;586895;450195;497855;974;
2024-05-03T17:24:11.759;537951257110464647;578532;424214;458182;1044;
2024-05-03T17:24:11.777;537951257128635064;559742;395885;427821;1136;
2024-05-03T17:24:11.795;537951257146805481;529525;362278;402255;1426;
2024-05-03T17:24:11.813;537951257164975898;578590;374477;438485;2354;
2024-05-03T17:24:11.831;537951257183146315;720295;522549;574095;4141;
2024-05-03T17:24:11.850;537951257201316732;974742;760367;786537;6279;
2024-05-03T17:24:11.868;537951257219487149;1328073;1004490;981482;8415;
2024-05-03T17:24:11.886;537951257237656918;1655331;1211689;1161894;10198;
2024-05-03T17:24:11.904;537951257255826671;1915970;1385142;1316148;11462;
2024-05-03T17:24:11.922;537951257273996424;2018737;1442483;1388569;11873;
2024-05-03T17:24:11.940;537951257292166177;1906754;1353903;1343142;11189;
2024-05-03T17:24:11.959;537951257310335930;1504848;1107837;1144207;9081;
2024-05-03T17:24:11.977;537951257328505683;1016679;786743;832236;6279;
2024-05-03T17:24:11.995;537951257346675436;748664;564603;617875;4123;
2024-05-03T17:24:12.013;537951257364845189;632134;466655;527583;2976;
2024-05-03T17:24:12.031;537951257383014942;574765;431381;497461;2440;
2024-05-03T17:24:12.049;537951257401184695;539601;417448;490472;2222;
2024-05-03T17:24:12.068;537951257419354448;521664;412023;486018;2095;
2024-05-03T17:24:12.086;537951257437524201;513752;409856;482382;1979;
2024-05-03T17:24:12.104;537951257455693954;510820;408983;480118;1918;
2024-05-03T17:24:12.122;537951257473863707;509953;409159;479702;1902;
2024-05-03T17:24:12.140;537951257492033460;510229;410250;479700;1650;
2024-05-03T17:24:12.158;537951257510203213;510545;411027;480285;1359;
2024-05-03T17:24:12.177;537951257528372966;509000;409917;484375;1101;
2024-05-03T17:24:12.195;537951257546542719;506761;408519;489241;911;
2024-05-03T17:24:12.213;537951257564712472;504670;407438;492372;687;
2024-05-03T17:24:12.231;537951257582882225;504140;407376;493611;502;
2024-05-03T17:24:12.249;537951257601051978;504463;408088;494408;387;
2024-05-03T17:24:12.267;537951257619221731;505173;409407;495121;414;
2024-05-03T17:24:12.286;537951257637391484;506253;411006;495994;399;
2024-05-03T17:24:12.304;537951257655560387;506981;412247;496661;394;
2024-05-03T17:24:12.322;537951257673729278;507610;413350;497480;463;
2024-05-03T17:24:12.340;537951257691898169;508306;414383;498169;469;
2024-05-03T17:24:12.358;537951257710067060;509166;415391;498987;512;
2024-05-03T17:24:12.376;537951257728235951;510106;416483;499949;590;
2024-05-03T17:24:12.395;537951257746404842;511015;417513;500721;632;
2024-05-03T17:24:12.413;537951257764573733;512023;418432;501589;693;
2024-05-03T17:24:12.431;537951257782742624;513099;419394;502527;695;
2024-05-03T17:24:12.449;537951257800911515;514151;420354;503468;796;
2024-05-03T17:24:12.467;537951257819080406;515226;421236;504457;778;
2024-05-03T17:24:12.485;537951257837249297;516379;422107;505377;821;
2024-05-03T17:24:12.504;537951257855418188;517536;423051;506375;827;
2024-05-03T17:24:12.522;537951257873587079;518592;423930;507272;861;
2024-05-03T17:24:12.540;537951257891755970;519672;424874;508213;861;
2024-05-03T17:24:12.558;537951257909924861;520774;425715;509210;769;
2024-05-03T17:24:12.576;537951257928093752;521909;426558;510086;711;
2024-05-03T17:24:12.595;537951257946262643;522982;427395;510976;721;
2024-05-03T17:24:12.613;537951257964431534;524055;428109;511803;665;
2024-05-03T17:24:12.631;537951257982600425;524998;428831;512686;643;
2024-05-03T17:24:12.649;537951258000769316;525956;429572;513501;534;
2024-05-03T17:24:12.667;537951258018938207;526979;430341;514373;557;
2024-05-03T17:24:12.685;537951258037107098;527754;430926;515010;567;
2024-05-03T17:24:12.704;537951258055275989;528109;431179;515306;521;
2024-05-03T17:24:12.722;537951258073444880;528044;431104;515315;537;
2024-05-03T17:24:12.740;537951258091613771;527715;430883;515165;454;
2024-05-03T17:24:12.758;537951258109782662;527392;430575;515052;498;
2024-05-03T17:24:12.776;537951258127951553;527070;430392;514917;503;
2024-05-03T17:24:12.794;537951258146120444;527048;430433;514984;518;
2024-05-03T17:24:12.813;537951258164289335;527086;430508;515239;503;
2024-05-03T17:24:12.831;537951258182458226;527289;430757;515549;483;
2024-05-03T17:24:12.849;537951258200627117;527752;431116;515994;503;
2024-05-03T17:24:12.867;537951258218796008;528190;431517;516358;440;
2024-05-03T17:24:12.885;537951258236964899;528809;432016;516977;475;
2024-05-03T17:24:12.903;537951258255133790;529491;432603;517550;467;
2024-05-03T17:24:12.922;537951258273302681;530244;433177;518142;475;
2024-05-03T17:24:12.940;537951258291472454;530851;433690;518702;434;
2024-05-03T17:24:12.958;537951258309642217;531446;434045;519237;414;
2024-05-03T17:24:12.976;537951258327811980;531883;434370;519598;396;
2024-05-03T17:24:12.994;537951258345981743;532429;434710;519951;369;
2024-05-03T17:24:13.012;537951258364151506;532851;435030;520293;342;
2024-05-03T17:24:13.031;537951258382321269;533286;435355;520623;310;
2024-05-03T17:24:13.049;537951258400491032;533728;435683;520967;280;
2024-05-03T17:24:13.067;537951258418660795;534247;436084;521299;300;
2024-05-03T17:24:13.085;537951258436830558;534755;436513;521696;285;
2024-05-03T17:24:13.103;537951258455000321;535328;437030;522106;222;
2024-05-03T17:24:13.121;537951258473170084;535926;437577;522534;249;
2024-05-03T17:24:13.140;537951258491339847;536450;438148;522950;285;
2024-05-03T17:24:13.158;537951258509509610;537133;438793;523552;267;
2024-05-03T17:24:13.176;537951258527679373;537824;439288;524006;211;
2024-05-03T17:24:13.194;537951258545849136;538587;439858;524594;265;
2024-05-03T17:24:13.212;537951258564018899;539379;440362;525130;209;
2024-05-03T17:24:13.230;537951258582188662;540096;440939;525741;260;
2024-05-03T17:24:13.249;537951258600358425;540793;441417;526273;245;
2024-05-03T17:24:13.267;537951258618528188;541550;441912;526838;268;
2024-05-03T17:24:13.285;537951258636697951;542344;442406;527368;322;
2024-05-03T17:24:13.303;537951258654867714;542989;442882;527925;297;
2024-05-03T17:24:13.321;537951258673037477;543517;443293;528279;264;
2024-05-03T17:24:13.339;537951258691207240;543881;443500;528565;231;
2024-05-03T17:24:13.358;537951258709377003;543562;443201;528329;167;
2024-05-03T17:24:13.376;537951258727546766;542874;442618;527906;189;
2024-05-03T17:24:13.394;537951258745716529;542090;441893;527369;193;
2024-05-03T17:24:13.412;537951258763886292;541247;441352;526779;232;
2024-05-03T17:24:13.430;537951258782056055;540481;440784;526408;224;
2024-05-03T17:24:13.448;537951258800225818;540006;440436;526139;228;
2024-05-03T17:24:13.467;537951258818395581;539870;440282;526127;209;
2024-05-03T17:24:13.485;537951258836565344;539875;440393;526243;244;
2024-05-03T17:24:13.503;537951258854735107;540015;440533;526406;249;
2024-05-03T17:24:13.521;537951258872904870;540423;440811;526691;277;
2024-05-03T17:24:13.539;537951258891074633;540737;441100;526932;235;
2024-05-03T17:24:13.557;537951258909244396;541123;441343;527165;207;
2024-05-03T17:24:13.576;537951258927412642;541497;441618;527380;197;
2024-05-03T17:24:13.594;537951258945580854;541817;441994;527618;198;
2024-05-03T17:24:13.612;537951258963749066;542106;442272;527787;212;
2024-05-03T17:24:13.630;537951258981917278;542379;442502;527832;189;
2024-05-03T17:24:13.648;537951259000085490;542536;442596;527933;151;
2024-05-03T17:24:13.666;537951259018253702;542824;442803;528044;238;
2024-05-03T17:24:13.685;537951259036421914;543003;442917;528101;185;
2024-05-03T17:24:13.703;537951259054590126;543358;443151;528183;140;
2024-05-03T17:24:13.721;537951259072758338;543632;443219;528306;174;
2024-05-03T17:24:13.739;537951259090926550;543969;443514;528431;171;
2024-05-03T17:24:13.757;537951259109094762;544409;443744;528474;223;
2024-05-03T17:24:13.776;537951259127262974;544865;444010;528520;148;
2024-05-03T17:24:13.794;537951259145431186;545423;444366;528589;173;
2024-05-03T17:24:13.812;537951259163599398;545798;444700;528640;177;
2024-05-03T17:24:13.830;537951259181767610;546262;444976;528649;155;
2024-05-03T17:24:13.848;537951259199935822;546672;445301;528662;173;
2024-05-03T17:24:13.866;537951259218104034;547083;445467;528744;149;
2024-05-03T17:24:13.885;537951259236272246;547375;445717;528580;189;
2024-05-03T17:24:13.903;537951259254440458;547646;445899;528485;188;
2024-05-03T17:24:13.921;537951259272608670;547926;446145;528479;226;
2024-05-03T17:24:13.939;537951259290776882;548196;446284;528383;263;
2024-05-03T17:24:13.957;537951259308945094;548483;446411;528310;230;
2024-05-03T17:24:13.975;537951259327113306;548800;446572;528312;260;
2024-05-03T17:24:13.994;537951259345281518;549116;446656;528246;238;
2024-05-03T17:24:14.012;537951259363449730;549081;446597;528035;227;
2024-05-03T17:24:14.030;537951259381617942;548584;446053;527549;269;
2024-05-03T17:24:14.048;537951259399786154;547799;445360;526764;286;
2024-05-03T17:24:14.066;537951259417954366;547013;444598;525945;299;
2024-05-03T17:24:14.084;537951259436122578;546360;443952;525121;305;
2024-05-03T17:24:14.103;537951259454290790;545789;443433;524471;191;
2024-05-03T17:24:14.121;537951259472459002;545345;443122;524071;238;
2024-05-03T17:24:14.139;537951259490627214;544989;442836;523827;215;
2024-05-03T17:24:14.157;537951259508795426;544739;442763;523687;178;
2024-05-03T17:24:14.175;537951259526963638;544436;442585;523605;217;
2024-05-03T17:24:14.193;537951259545131850;543953;442542;523538;155;
2024-05-03T17:24:14.212;537951259563300062;543436;442408;523651;218;
2024-05-03T17:24:14.230;537951259581468313;542924;442238;523671;179;
2024-05-03T17:24:14.248;537951259599636550;542551;442130;523889;167;
2024-05-03T17:24:14.266;537951259617804787;542105;442007;524088;117;
2024-05-03T17:24:14.284;537951259635973024;541626;442074;524344;134;
2024-05-03T17:24:14.302;537951259654141261;540955;442137;524349;83;
2024-05-03T17:24:14.321;537951259672309498;540169;442316;524477;85;
2024-05-03T17:24:14.339;537951259690477735;539269;442764;524514;134;
2024-05-03T17:24:14.357;537951259708645972;538417;443557;524757;54;
2024-05-03T17:24:14.375;537951259726814209;537783;444423;525177;81;
2024-05-03T17:24:14.393;537951259744982446;537624;445101;525791;117;
2024-05-03T17:24:14.411;537951259763150683;537838;445819;526420;81;
2024-05-03T17:24:14.430;537951259781318920;538494;446631;527284;76;
2024-05-03T17:24:14.448;537951259799487157;539323;447320;528132;103;
2024-05-03T17:24:14.466;537951259817655394;540198;447977;528886;100;
2024-05-03T17:24:14.484;537951259835823631;541021;448521;529685;154;
2024-05-03T17:24:14.502;537951259853991868;541724;449044;530435;162;
2024-05-03T17:24:14.520;537951259872160105;542336;449572;531184;116;
2024-05-03T17:24:14.539;537951259890328342;542914;450085;531806;177;
2024-05-03T17:24:14.557;537951259908496579;543432;450565;532420;216;
2024-05-03T17:24:14.575;537951259926664816;544262;451008;533134;195;
2024-05-03T17:24:14.593;537951259944833053;545126;451539;533830;250;
2024-05-03T17:24:14.611;537951259963001290;546109;451976;534370;303;
2024-05-03T17:24:14.629;537951259981169527;547209;452541;534853;296;
2024-05-03T17:24:14.648;537951259999337764;548230;452985;535254;361;
2024-05-03T17:24:14.666;537951260017506001;549469;453567;535610;379;
2024-05-03T17:24:14.684;537951260035674238;550519;454192;535895;369;
2024-05-03T17:24:14.702;537951260053842475;551477;454712;536048;491;
2024-05-03T17:24:14.720;537951260072010712;551451;454716;535600;490;
2024-05-03T17:24:14.738;537951260090178949;551076;454296;534869;519;
2024-05-03T17:24:14.757;537951260108347186;550214;453625;534035;502;
2024-05-03T17:24:14.775;537951260126515423;549074;452926;533316;561;
2024-05-03T17:24:14.793;537951260144683660;547657;452176;532601;518;
2024-05-03T17:24:14.811;537951260162851897;546229;451432;532181;448;
2024-05-03T17:24:14.829;537951260181020134;544772;450839;531797;393;
2024-05-03T17:24:14.847;537951260199188371;543164;450311;531536;430;
2024-05-03T17:24:14.866;537951260217354722;541537;449768;531368;404;
2024-05-03T17:24:14.884;537951260235521051;539968;449479;531251;372;
2024-05-03T17:24:14.902;537951260253687380;538464;449227;531030;360;
2024-05-03T17:24:14.920;537951260271853709;537603;449293;530998;296;
2024-05-03T17:24:14.938;537951260290020038;537239;449417;531074;285;
2024-05-03T17:24:14.956;537951260308186367;537021;449576;531176;245;
2024-05-03T17:24:14.975;537951260326352696;537003;449762;531360;346;
2024-05-03T17:24:14.993;537951260344519025;536824;449796;531482;308;
2024-05-03T17:24:15.011;537951260362685354;535455;450097;531725;341;
2024-05-03T17:24:15.029;537951260380851683;533161;451020;531999;269;
2024-05-03T17:24:15.047;537951260399018012;529712;452978;532488;372;
2024-05-03T17:24:15.065;537951260417184341;525871;455531;533310;361;
2024-05-03T17:24:15.084;537951260435350670;523752;457782;534121;371;
2024-05-03T17:24:15.102;537951260453516999;523695;459214;534876;409;
2024-05-03T17:24:15.120;537951260471683328;524286;460262;535638;375;
2024-05-03T17:24:15.138;537951260489849657;525113;461019;536318;337;
2024-05-03T17:24:15.156;537951260508015986;525960;461625;536994;372;
2024-05-03T17:24:15.174;537951260526182315;526811;462245;537583;389;
2024-05-03T17:24:15.193;537951260544348644;527598;462696;538236;398;
2024-05-03T17:24:15.211;537951260562514973;528358;463169;538810;363;
2024-05-03T17:24:15.229;537951260580681302;529177;463548;539341;430;
2024-05-03T17:24:15.247;537951260598847631;529928;463901;539945;352;
2024-05-03T17:24:15.265;537951260617013960;530862;464222;540514;398;
2024-05-03T17:24:15.283;537951260635180289;531693;464498;540963;396;
2024-05-03T17:24:15.302;537951260653346618;532565;464703;541432;421;
2024-05-03T17:24:15.320;537951260671512947;533429;465006;541920;434;
2024-05-03T17:24:15.338;537951260689679276;534494;465348;542524;441;
2024-05-03T17:24:15.356;537951260707845605;535445;465730;543062;423;
2024-05-03T17:24:15.374;537951260726013217;536311;466145;543628;456;
2024-05-03T17:24:15.392;537951260744180817;537179;466446;544112;560;
2024-05-03T17:24:15.411;537951260762348417;537754;466738;544482;498;
2024-05-03T17:24:15.429;537951260780516017;537866;466620;544664;508;
2024-05-03T17:24:15.447;537951260798683617;537337;466000;544202;569;
2024-05-03T17:24:15.465;537951260816851217;536510;465086;543554;552;
2024-05-03T17:24:15.483;537951260835018817;535571;464295;542862;604;
2024-05-03T17:24:15.501;537951260853186417;534883;463636;542489;678;
2024-05-03T17:24:15.520;537951260871354017;534680;463010;542299;703;
2024-05-03T17:24:15.538;537951260889521617;534774;462227;542392;811;
2024-05-03T17:24:15.556;537951260907689217;534935;460670;542476;925;
2024-05-03T17:24:15.574;537951260925856817;535990;457711;542401;1018;
2024-05-03T17:24:15.592;537951260944024417;539900;451970;542018;1137;
2024-05-03T17:24:15.610;537951260962192017;549555;443237;540958;1299;
2024-05-03T17:24:15.629;537951260980359617;569151;431179;539921;1493;
2024-05-03T17:24:15.647;537951260998527217;597290;421612;537861;1704;
2024-05-03T17:24:15.665;537951261016694817;613160;418594;519375;1964;
2024-05-03T17:24:15.683;537951261034862417;630421;413314;504585;2216;
2024-05-03T17:24:15.701;537951261053030017;639547;409044;494240;2415;
2024-05-03T17:24:15.719;537951261071197617;635575;403979;484936;2646;
2024-05-03T17:24:15.738;537951261089365217;621864;400775;480338;2962;
2024-05-03T17:24:15.756;537951261107532817;640416;433002;495924;3719;
2024-05-03T17:24:15.774;537951261125700417;812346;600675;645062;5775;
2024-05-03T17:24:15.792;537951261143868017;1278795;901765;1179050;8808;
2024-05-03T17:24:15.810;537951261162035617;1907549;1341482;1940708;11880;
2024-05-03T17:24:15.828;537951261180203217;2096921;2079544;2096921;15073;
2024-05-03T17:24:15.847;537951261198372114;2096921;2096921;2096921;18783;
2024-05-03T17:24:15.865;537951261216541005;2096921;2096921;2096921;22466;
2024-05-03T17:24:15.883;537951261234709896;2096921;2096921;2096921;25324;
2024-05-03T17:24:15.901;537951261252878787;2096921;2096921;2096921;26895;
2024-05-03T17:24:15.919;537951261271047678;2096921;2096921;2096921;27050;
2024-05-03T17:24:15.937;537951261289216569;2096921;2096921;2096921;27559;
2024-05-03T17:24:15.956;537951261307385460;2096921;2096921;2096921;29419;
2024-05-03T17:24:15.974;537951261325554351;2096921;2096921;2096921;32176;
2024-05-03T17:24:15.992;537951261343723242;2096921;2096921;2096921;34812;
2024-05-03T17:24:16.010;537951261361892133;1986071;1869202;1988976;37888;
2024-05-03T17:24:16.028;537951261380061024;1769117;1648920;1777247;40477;
2024-05-03T17:24:16.046;537951261398229915;1721667;1597189;1727517;40878;
2024-05-03T17:24:16.065;537951261416398806;1762106;1635221;1763540;40299;
2024-05-03T17:24:16.083;537951261434567697;1834821;1705897;1830963;39236;
2024-05-03T17:24:16.101;537951261452736588;1909852;1781141;1903161;38547;
2024-05-03T17:24:16.119;537951261470905479;1639817;1512308;1632512;-355858;
2024-05-03T17:24:16.137;537951261489074370;1692026;1579544;1684764;-513406;
2024-05-03T17:24:16.155;537951261507243261;1758003;1662649;1745787;-576111;
2024-05-03T17:24:16.174;537951261525412152;1759754;1667419;1739553;-600536;
2024-05-03T17:24:16.192;537951261543581043;1864795;1771755;1830128;-611037;
2024-05-03T17:24:16.210;537951261561749940;2096921;1934848;2096921;-619160;
2024-05-03T17:24:16.228;537951261579918831;1203256;923006;1221669;-632124;
2024-05-03T17:24:16.246;537951261598087722;473518;254441;384686;-643541;
2024-05-03T17:24:16.264;537951261616256613;177634;-9735;53782;-648134;
2024-05-03T17:24:16.283;537951261634425504;57039;-113851;-78468;-649973;
2024-05-03T17:24:16.301;537951261652594395;7128;-155015;-131256;-650781;
2024-05-03T17:24:16.319;537951261670763286;-14445;-171282;-152403;-651153;
2024-05-03T17:24:16.337;537951261688932177;-25155;-178004;-160502;-651290;
2024-05-03T17:24:16.355;537951261707101068;-31847;-181160;-163180;-651476;
2024-05-03T17:24:16.374;537951261725269959;-36855;-182510;-163557;-651565;
2024-05-03T17:24:16.392;537951261743438850;-41282;-183026;-162907;-651566;
2024-05-03T17:24:16.410;537951261761607741;-44402;-182916;-161900;-651615;
2024-05-03T17:24:16.428;537951261779776632;-45796;-182268;-161027;-651651;
2024-05-03T17:24:16.446;537951261797945523;-46701;-181755;-160479;-651682;
2024-05-03T17:24:16.464;537951261816114414;-47131;-181228;-159888;-651628;
2024-05-03T17:24:16.483;537951261834283305;-47054;-180579;-159322;-651648;
2024-05-03T17:24:16.501;537951261852452196;-46596;-179792;-158682;-651656;
2024-05-03T17:24:16.519;537951261870621087;-32647;-125393;-110791;-455989;
2024-05-03T17:24:16.537;537951261888790709;-26684;-103677;-91540;-378272;
2024-05-03T17:24:16.555;537951261906960315;-24059;-94815;-83665;-347374;
2024-05-03T17:24:16.573;537951261925129921;-22639;-90949;-80239;-335062;
2024-05-03T17:24:16.592;537951261943299527;-21886;-89220;-78722;-330151;
2024-05-03T17:24:16.610;537951261961469133;-21371;-88260;-77945;-328270;
2024-05-03T17:24:16.628;537951261979638739;-20809;-87490;-77427;-327462;
2024-05-03T17:24:16.646;537951261997808345;-20446;-86874;-77031;-327083;
2024-05-03T17:24:16.664;537951262015977951;-19996;-86226;-76721;-326981;
2024-05-03T17:24:16.682;537951262034147557;-19524;-85607;-76382;-326850;
2024-05-03T17:24:16.701;537951262052317163;-19117;-85076;-75968;-326836;
2024-05-03T17:24:16.719;537951262070486769;-18880;-84545;-75580;-326855;
2024-05-03T17:24:16.737;537951262088656375;-18629;-84055;-75208;-326880;
2024-05-03T17:24:16.755;537951262106825981;-18400;-83567;-74818;-326848;
2024-05-03T17:24:16.773;537951262124995587;-18085;-83066;-74407;-326796;
2024-05-03T17:24:16.791;537951262143165193;-17811;-82656;-74006;-326842;
2024-05-03T17:24:16.810;537951262161334799;-17500;-82261;-73755;-326812;
2024-05-03T17:24:16.828;537951262179504405;-17298;-81864;-73491;-326822;
2024-05-03T17:24:16.846;537951262197674011;-17196;-81658;-73364;-326826;
2024-05-03T17:24:16.864;537951262215843617;-17195;-81550;-73355;-326806;
2024-05-03T17:24:16.882;537951262234013223;-17272;-81519;-73365;-326806;
2024-05-03T17:24:16.900;537951262252182829;-17370;-81456;-73426;-326764;
2024-05-03T17:24:16.919;537951262270352435;-17534;-81503;-73489;-326810;
2024-05-03T17:24:16.937;537951262288522041;-17502;-81447;-73488;-326773;
2024-05-03T17:24:16.955;537951262306691647;-17532;-81371;-73447;-326810;
2024-05-03T17:24:16.973;537951262324861253;-17476;-81302;-73397;-326855;
2024-05-03T17:24:16.991;537951262343030859;-17325;-81047;-73248;-326856;
2024-05-03T17:24:17.009;537951262361200465;-17153;-80822;-73069;-326860;
2024-05-03T17:24:17.028;537951262379370071;-16908;-80576;-72830;-326848;
2024-05-03T17:24:17.046;537951262397539677;-16628;-80241;-72516;-326803;
2024-05-03T17:24:17.064;537951262415709283;-16420;-80031;-72322;-326865;
2024-05-03T17:24:17.082;537951262433878889;-16209;-79792;-72103;-326796;
2024-05-03T17:24:17.100;537951262452048495;-16026;-79589;-71965;-326773;
2024-05-03T17:24:17.118;537951262470218813;-15900;-79423;-71757;-326813;
2024-05-03T17:24:17.137;537951262488389121;-15814;-79236;-71654;-326812;
2024-05-03T17:24:17.155;537951262506559429;-15739;-79163;-71558;-326830;
2024-05-03T17:24:17.173;537951262524729737;-15604;-78964;-71436;-326813;
2024-05-03T17:24:17.191;537951262542900045;-15542;-78844;-71363;-326796;
2024-05-03T17:24:17.209;537951262561070353;-15469;-78706;-71307;-326810;
2024-05-03T17:24:17.227;537951262579240661;-15366;-78659;-71165;-326830;
2024-05-03T17:24:17.246;537951262597410969;-15245;-78435;-71025;-326813;
2024-05-03T17:24:17.264;537951262615581277;-15146;-78260;-70877;-326803;
2024-05-03T17:24:17.282;537951262633751585;-14998;-78070;-70714;-326806;
2024-05-03T17:24:17.300;537951262651921893;-14815;-77832;-70507;-326816;
2024-05-03T17:24:17.318;537951262670092201;-14591;-77647;-70312;-326798;
2024-05-03T17:24:17.337;537951262688262509;-14390;-77400;-70105;-326826;
2024-05-03T17:24:17.355;537951262706432817;-14173;-77190;-69880;-326785;
2024-05-03T17:24:17.373;537951262724603125;-13991;-76966;-69680;-326810;
2024-05-03T17:24:17.391;537951262742773433;-13844;-76769;-69576;-326855;
2024-05-03T17:24:17.409;537951262760943741;-13546;-76481;-69295;-326788;
2024-05-03T17:24:17.427;537951262779114049;-13389;-76289;-69114;-326843;
2024-05-03T17:24:17.446;537951262797284357;-13149;-76160;-68969;-326799;
2024-05-03T17:24:17.464;537951262815454665;-12958;-75959;-68836;-326777;
2024-05-03T17:24:17.482;537951262833624973;-12803;-75756;-68594;-326767;
2024-05-03T17:24:17.500;537951262851795281;-12802;-75719;-68595;-326847;
2024-05-03T17:24:17.518;537951262869965589;-12903;-75757;-68742;-326847;
2024-05-03T17:24:17.536;537951262888135897;-12944;-75907;-68882;-326865;
2024-05-03T17:24:17.555;537951262906306205;-13182;-76071;-69069;-326854;
2024-05-03T17:24:17.573;537951262924476513;-13383;-76183;-69143;-326822;
2024-05-03T17:24:17.591;537951262942646821;-13472;-76296;-69254;-326790;
2024-05-03T17:24:17.609;537951262960817129;-13631;-76385;-69364;-326814;
2024-05-03T17:24:17.627;537951262978987437;-13654;-76348;-69315;-326842;
2024-05-03T17:24:17.645;537951262997157745;-13591;-76228;-69231;-326841;
2024-05-03T17:24:17.664;537951263015328053;-13455;-76158;-69128;-326816;
2024-05-03T17:24:17.682;537951263033498361;-13433;-76026;-69020;-326844;
2024-05-03T17:24:17.700;537951263051668669;-13312;-75889;-68865;-326846;
2024-05-03T17:24:17.718;537951263069838977;-13237;-75737;-68717;-326814;
2024-05-03T17:24:17.736;537951263088009285;-13114;-75627;-68645;-326793;
2024-05-03T17:24:17.754;537951263106179593;-13068;-75532;-68541;-326775;
2024-05-03T17:24:17.773;537951263124349901;-13042;-75524;-68499;-326831;
2024-05-03T17:24:17.791;537951263142520209;-12983;-75422;-68429;-326838;
2024-05-03T17:24:17.809;537951263160690517;-12921;-75334;-68356;-326847;
2024-05-03T17:24:17.827;537951263178860825;-12972;-75251;-68318;-326838;
2024-05-03T17:24:17.845;537951263197031133;-12862;-75116;-68225;-326847;
2024-05-03T17:24:17.863;537951263215201441;-12861;-75081;-68124;-326847;
2024-05-03T17:24:17.882;537951263233370606;-12836;-75038;-68054;-326816;
2024-05-03T17:24:17.900;537951263251539751;-12785;-74926;-67966;-326866;
2024-05-03T17:24:17.918;537951263269708896;-12675;-74848;-67800;-326824;
2024-05-03T17:24:17.936;537951263287878041;-12552;-74691;-67699;-326842;
2024-05-03T17:24:17.954;537951263306047186;-12450;-74574;-67625;-326816;
2024-05-03T17:24:17.972;537951263324216331;-12330;-74405;-67465;-326836;
2024-05-03T17:24:17.991;537951263342385476;-12152;-74307;-67314;-326832;
2024-05-03T17:24:18.009;537951263360554621;-12008;-74078;-67094;-326863;
2024-05-03T17:24:18.027;537951263378723766;-11867;-73929;-66949;-326798;
2024-05-03T17:24:18.045;537951263396892911;-11697;-73776;-66769;-326813;
2024-05-03T17:24:18.063;537951263415062056;-11560;-73658;-66681;-326847;
2024-05-03T17:24:18.081;537951263433231201;-11464;-73549;-66526;-326848;
2024-05-03T17:24:18.100;537951263451400346;-11292;-73432;-66383;-326820;
2024-05-03T17:24:18.118;537951263469569491;-11200;-73408;-66321;-326844;
2024-05-03T17:24:18.136;537951263487738636;-11241;-73432;-66382;-326818;
2024-05-03T17:24:18.154;537951263505907781;-11385;-73487;-66516;-326816;
2024-05-03T17:24:18.172;537951263524076926;-11618;-73713;-66675;-326833;
2024-05-03T17:24:18.190;537951263542246071;-11755;-73929;-66871;-326801;
2024-05-03T17:24:18.209;537951263560415216;-12002;-74107;-67047;-326856;
2024-05-03T17:24:18.227;537951263578584361;-12052;-74219;-67117;-326833;
2024-05-03T17:24:18.245;537951263596753506;-12161;-74327;-67219;-326859;
2024-05-03T17:24:18.263;537951263614922651;-12173;-74319;-67168;-326866;
2024-05-03T17:24:18.281;537951263633091796;-12193;-74284;-67150;-326850;
2024-05-03T17:24:18.300;537951263651260941;-12162;-74220;-67033;-326799;
2024-05-03T17:24:18.318;537951263669430086;-12087;-74139;-66992;-326822;
2024-05-03T17:24:18.336;537951263687599231;-12038;-74096;-66881;-326791;
2024-05-03T17:24:18.354;537951263705768376;-11985;-74039;-66811;-326842;
2024-05-03T17:24:18.372;537951263723937521;-11925;-73926;-66663;-326766;
2024-05-03T17:24:18.390;537951263742106666;-11970;-73877;-66591;-326836;
2024-05-03T17:24:18.409;537951263760275811;-11958;-73912;-66485;-326769;
2024-05-03T17:24:18.427;537951263778444956;-12080;-73936;-66427;-326861;
2024-05-03T17:24:18.445;537951263796614101;-12097;-73948;-66250;-326806;
2024-05-03T17:24:18.463;537951263814783246;-12087;-73927;-66161;-326768;
2024-05-03T17:24:18.481;537951263832952391;-12206;-73920;-66056;-326797;
2024-05-03T17:24:18.499;537951263851121536;-12104;-73854;-65875;-326784;
2024-05-03T17:24:18.518;537951263869290681;-11975;-73644;-65612;-326724;
2024-05-03T17:24:18.536;537951263887459826;-11955;-73534;-65514;-326693;
2024-05-03T17:24:18.554;537951263905628971;-12002;-73427;-65425;-326712;
2024-05-03T17:24:18.572;537951263923798116;-11992;-73417;-65357;-326667;
2024-05-03T17:24:18.590;537951263941967261;-12083;-73442;-65290;-326695;
2024-05-03T17:24:18.608;537951263960136406;-12094;-73315;-65135;-326675;
2024-05-03T17:24:18.627;537951263978305551;-12021;-73211;-65052;-326632;
2024-05-03T17:24:18.645;537951263996473701;-12035;-72982;-64966;-326626;
2024-05-03T17:24:18.663;537951264014641829;-11896;-72759;-64851;-326563;
2024-05-03T17:24:18.681;537951264032809957;-11866;-72652;-64773;-326585;
2024-05-03T17:24:18.699;537951264050978085;-11806;-72519;-64696;-326643;
2024-05-03T17:24:18.717;537951264069146213;-11748;-72353;-64499;-326577;
2024-05-03T17:24:18.736;537951264087314341;-11745;-72324;-64488;-326579;
2024-05-03T17:24:18.754;537951264105482469;-11852;-72339;-64483;-326572;
2024-05-03T17:24:18.772;537951264123650597;-12022;-72550;-64683;-326501;
2024-05-03T17:24:18.790;537951264141818725;-12225;-72703;-64847;-326542;
2024-05-03T17:24:18.808;537951264159986853;-12472;-72955;-65081;-326553;
2024-05-03T17:24:18.826;537951264178154981;-12624;-73118;-65239;-326493;
2024-05-03T17:24:18.845;537951264196323109;-12784;-73235;-65343;-326395;
2024-05-03T17:24:18.863;537951264214491237;-12846;-73245;-65405;-326375;
2024-05-03T17:24:18.881;537951264232659365;-12888;-73212;-65319;-326387;
2024-05-03T17:24:18.899;537951264250827493;-12885;-73199;-65308;-326321;
2024-05-03T17:24:18.917;537951264268995621;-12830;-73096;-65157;-326261;
2024-05-03T17:24:18.935;537951264287163749;-12795;-73083;-65103;-326244;
2024-05-03T17:24:18.954;537951264305331877;-12796;-73044;-65032;-326210;
2024-05-03T17:24:18.972;537951264323500005;-12729;-72899;-64896;-326157;
2024-05-03T17:24:18.990;537951264341668133;-12770;-72899;-64886;-326188;
2024-05-03T17:24:19.008;537951264359836261;-12720;-72806;-64776;-326160;
2024-05-03T17:24:19.026;537951264378004389;-12650;-72734;-64741;-326143;
2024-05-03T17:24:19.044;537951264396172517;-12612;-72660;-64641;-326132;
2024-05-03T17:24:19.063;537951264414340645;-12576;-72684;-64633;-326091;
2024-05-03T17:24:19.081;537951264432508773;-12583;-72622;-64501;-326075;
2024-05-03T17:24:19.099;537951264450676901;-12610;-72598;-64531;-326093;
2024-05-03T17:24:19.117;537951264468845029;-12588;-72533;-64438;-326042;
2024-05-03T17:24:19.135;537951264487013157;-12543;-72469;-64383;-326099;
2024-05-03T17:24:19.153;537951264505181285;-12438;-72412;-64287;-326073;
2024-05-03T17:24:19.172;537951264523349413;-12332;-72362;-64175;-326016;
2024-05-03T17:24:19.190;537951264541517541;-12232;-72257;-64089;-326019;
2024-05-03T17:24:19.208;537951264559685669;-12121;-72112;-63971;-326020;
2024-05-03T17:24:19.226;537951264577853797;-12078;-72024;-63870;-326062;
2024-05-03T17:24:19.244;537951264596021925;-11927;-71919;-63758;-326042;
2024-05-03T17:24:19.262;537951264614190053;-11834;-71816;-63636;-326079;
2024-05-03T17:24:19.281;537951264632358181;-11748;-71740;-63574;-326072;
2024-05-03T17:24:19.299;537951264650526309;-11572;-71602;-63438;-326076;
2024-05-03T17:24:19.317;537951264668694437;-11546;-71512;-63334;-326107;
2024-05-03T17:24:19.335;537951264686862565;-11483;-71396;-63288;-326123;
2024-05-03T17:24:19.353;537951264705030693;-11445;-71341;-63259;-326127;
2024-05-03T17:24:19.371;537951264723198821;-11482;-71473;-63291;-326085;
2024-05-03T17:24:19.390;537951264741366949;-11673;-71706;-63524;-326138;
2024-05-03T17:24:19.408;537951264759535032;-12067;-71968;-63825;-326124;
2024-05-03T17:24:19.426;537951264777703087;-12384;-72309;-64109;-326158;
2024-05-03T17:24:19.444;537951264795871142;-12715;-72632;-64443;-326122;
2024-05-03T17:24:19.462;537951264814039197;-13008;-72862;-64691;-326183;
2024-05-03T17:24:19.480;537951264832207252;-13189;-73062;-64891;-326197;
2024-05-03T17:24:19.499;537951264850375307;-13304;-73140;-64917;-326197;
2024-05-03T17:24:19.517;537951264868543362;-13339;-73156;-64937;-326180;
2024-05-03T17:24:19.535;537951264886711417;-13460;-73186;-64982;-326211;
2024-05-03T17:24:19.553;537951264904879472;-13523;-73226;-64971;-326247;
2024-05-03T17:24:19.571;537951264923047527;-13528;-73237;-65029;-326210;
2024-05-03T17:24:19.589;537951264941215582;-13568;-73170;-64956;-326250;
2024-05-03T17:24:19.608;537951264959383637;-13563;-73228;-64972;-326224;
2024-05-03T17:24:19.626;537951264977551692;-13585;-73232;-64857;-326229;
2024-05-03T17:24:19.644;537951264995719747;-13570;-73204;-64835;-326301;
2024-05-03T17:24:19.662;537951265013887802;-13605;-73204;-64840;-326303;
2024-05-03T17:24:19.680;537951265032055857;-13563;-73202;-64813;-326248;
2024-05-03T17:24:19.698;537951265050223912;-13627;-73209;-64814;-326241;
2024-05-03T17:24:19.717;537951265068391967;-13684;-73270;-64857;-326221;
2024-05-03T17:24:19.735;537951265086560022;-13723;-73225;-64847;-326266;
2024-05-03T17:24:19.753;537951265104728077;-13711;-73206;-64785;-326263;
2024-05-03T17:24:19.771;537951265122896132;-13692;-73094;-64712;-326240;
2024-05-03T17:24:19.789;537951265141064187;-13685;-73088;-64666;-326281;
2024-05-03T17:24:19.807;537951265159232242;-13605;-73001;-64599;-326260;
2024-05-03T17:24:19.826;537951265177400297;-13585;-72930;-64535;-326217;
2024-05-03T17:24:19.844;537951265195568352;-13513;-72863;-64479;-326265;
2024-05-03T17:24:19.862;537951265213736407;-13401;-72783;-64353;-326207;
2024-05-03T17:24:19.880;537951265231904462;-13369;-72728;-64294;-326226;
2024-05-03T17:24:19.898;537951265250072517;-13393;-72704;-64250;-326300;
2024-05-03T17:24:19.916;537951265268240572;-13395;-72642;-64150;-326279;
2024-05-03T17:24:19.935;537951265286408627;-13391;-72576;-64075;-326228;
2024-05-03T17:24:19.953;537951265304576682;-13350;-72577;-63990;-326262;
2024-05-03T17:24:19.971;537951265322744737;-13260;-72507;-63898;-326239;
2024-05-03T17:24:19.989;537951265340912792;-13148;-72323;-63780;-326223;
2024-05-03T17:24:20.007;537951265359080847;-13043;-72276;-63675;-326235;
2024-05-03T17:24:20.025;537951265377248902;-13019;-72294;-63653;-326227;
2024-05-03T17:24:20.044;537951265395416957;-13118;-72367;-63744;-326243;
2024-05-03T17:24:20.062;537951265413585012;-13317;-72601;-63970;-326253;
2024-05-03T17:24:20.080;537951265431753067;-13735;-73036;-64370;-326252;
2024-05-03T17:24:20.098;537951265449921122;-14221;-73442;-64780;-326260;
2024-05-03T17:24:20.116;537951265468089177;-14645;-73972;-65213;-326213;
2024-05-03T17:24:20.134;537951265486257232;-15064;-74389;-65605;-326253;
2024-05-03T17:24:20.153;537951265504425287;-15407;-74747;-65928;-326223;
2024-05-03T17:24:20.171;537951265522593336;-15661;-74959;-66215;-326211;
2024-05-03T17:24:20.189;537951265540761349;-15843;-75177;-66371;-326220;
2024-05-03T17:24:20.207;537951265558929362;-16047;-75352;-66514;-326196;
2024-05-03T17:24:20.225;537951265577097375;-16186;-75587;-66630;-326220;
2024-05-03T17:24:20.244;537951265595265388;-16414;-75763;-66790;-326241;
2024-05-03T17:24:20.262;537951265613433401;-16589;-75965;-66928;-326216;
2024-05-03T17:24:20.280;537951265631601414;-16695;-76055;-67049;-326230;
2024-05-03T17:24:20.298;537951265649769427;-16787;-76223;-67174;-326232;
2024-05-03T17:24:20.316;537951265667937440;-16943;-76351;-67367;-326218;
2024-05-03T17:24:20.334;537951265686105453;-17002;-76517;-67429;-326211;
2024-05-03T17:24:20.353;537951265704273466;-17195;-76676;-67561;-326203;
2024-05-03T17:24:20.371;537951265722441479;-17390;-76911;-67839;-326192;
2024-05-03T17:24:20.389;537951265740609492;-17538;-77091;-67954;-326201;
2024-05-03T17:24:20.407;537951265758777505;-17701;-77270;-68139;-326199;
2024-05-03T17:24:20.425;537951265776945518;-17861;-77384;-68215;-326198;
2024-05-03T17:24:20.443;537951265795113531;-18001;-77566;-68334;-326184;
2024-05-03T17:24:20.462;537951265813281544;-18069;-77673;-68443;-326142;
2024-05-03T17:24:20.480;537951265831449557;-18108;-77758;-68494;-326124;
2024-05-03T17:24:20.498;537951265849617570;-18242;-77861;-68574;-326176;
2024-05-03T17:24:20.516;537951265867785583;-18320;-77976;-68704;-326145;
2024-05-03T17:24:20.534;537951265885953596;-18440;-78032;-68749;-326214;
2024-05-03T17:24:20.552;537951265904121609;-18534;-78138;-68803;-326211;
2024-05-03T17:24:20.571;537951265922289622;-18546;-78153;-68828;-326213;
2024-05-03T17:24:20.589;537951265940457635;-18589;-78266;-68881;-326225;
2024-05-03T17:24:20.607;537951265958625648;-18631;-78317;-68863;-326165;
2024-05-03T17:24:20.625;537951265976793661;-18630;-78411;-68924;-326248;
2024-05-03T17:24:20.643;537951265994961674;-18593;-78333;-68931;-326205;
