Phone timestamp;sensor timestamp [ns];channel 0;channel 1;channel 2;ambient
2024-05-04T09:21:45.678;538008710406248384;111053;123544;345457;-448235;
2024-05-04T09:21:45.696;538008710424425122;111213;123627;345670;-448229;
2024-05-04T09:21:45.714;538008710442601860;111420;123911;345865;-448163;
2024-05-04T09:21:45.732;538008710460778598;111499;124093;346079;-448175;
2024-05-04T09:21:45.750;538008710478955336;111538;124032;346194;-448190;
2024-05-04T09:21:45.768;538008710497132074;111538;123998;346251;-448220;
2024-05-04T09:21:45.787;538008710515308812;111487;123983;346274;-448215;
2024-05-04T09:21:45.805;538008710533485550;111381;123842;346219;-448187;
2024-05-04T09:21:45.823;538008710551662288;111290;123777;346025;-448212;
2024-05-04T09:21:45.841;538008710569839026;111160;123604;346017;-448161;
2024-05-04T09:21:45.859;538008710588015764;111131;123595;345935;-448161;
2024-05-04T09:21:45.877;538008710606192502;111116;123569;345849;-448197;
2024-05-04T09:21:45.896;538008710624369240;111077;123476;346018;-448185;
2024-05-04T09:21:45.914;538008710642545978;111070;123500;346014;-448213;
2024-05-04T09:21:45.932;538008710660722716;111061;123532;345988;-448191;
2024-05-04T09:21:45.950;538008710678899454;111106;123597;346119;-448212;
2024-05-04T09:21:45.968;538008710697076192;111171;123746;346273;-448167;
2024-05-04T09:21:45.987;538008710715252930;111350;123820;346417;-448223;
2024-05-04T09:21:46.005;538008710733429668;111513;123841;346482;-448212;
2024-05-04T09:21:46.023;538008710751606406;111546;124017;346705;-448174;
2024-05-04T09:21:46.041;538008710769783144;111686;124058;346813;-448142;
2024-05-04T09:21:46.059;538008710787959882;111671;124078;346866;-448153;
2024-05-04T09:21:46.077;538008710806136620;111676;124199;346944;-448127;
2024-05-04T09:21:46.096;538008710824313358;111721;124129;346940;-448180;
2024-05-04T09:21:46.114;538008710842490096;111794;124169;347051;-448209;
2024-05-04T09:21:46.132;538008710860666834;111804;124206;347160;-448134;
2024-05-04T09:21:46.150;538008710878843572;111812;124239;347223;-448205;
2024-05-04T09:21:46.168;538008710897020310;111863;124290;347231;-448280;
2024-05-04T09:21:46.186;538008710915197048;111960;124339;347304;-448261;
2024-05-04T09:21:46.205;538008710933373786;111971;124499;347388;-448305;
2024-05-04T09:21:46.223;538008710951550524;112064;124520;347435;-448318;
2024-05-04T09:21:46.241;538008710969727262;112162;124586;347584;-448305;
2024-05-04T09:21:46.259;538008710987904000;112339;124683;347722;-448335;
2024-05-04T09:21:46.277;538008711006080738;112431;124810;347931;-448297;
2024-05-04T09:21:46.296;538008711024257476;112476;124898;348087;-448275;
2024-05-04T09:21:46.314;538008711042434214;112669;125070;348379;-448249;
2024-05-04T09:21:46.332;538008711060610952;112718;125198;348536;-448290;
2024-05-04T09:21:46.350;538008711078787690;112813;125293;348673;-448306;
2024-05-04T09:21:46.368;538008711096964428;112946;125373;348699;-448338;
2024-05-04T09:21:46.386;538008711115141166;113125;125487;348946;-448318;
2024-05-04T09:21:46.405;538008711133317904;113162;125650;349055;-448284;
2024-05-04T09:21:46.423;538008711151494642;113356;125702;349140;-448303;
2024-05-04T09:21:46.441;538008711169671412;113376;125881;349374;-448275;
2024-05-04T09:21:46.459;538008711187848150;113525;125967;349475;-448287;
2024-05-04T09:21:46.477;538008711206024888;113674;126130;349639;-448241;
2024-05-04T09:21:46.495;538008711224201626;113725;126218;349827;-448221;
2024-05-04T09:21:46.514;538008711242378364;113804;126325;349991;-448221;
2024-05-04T09:21:46.532;538008711260555102;113920;126334;350055;-448263;
2024-05-04T09:21:46.550;538008711278731840;114025;126487;350230;-448280;
2024-05-04T09:21:46.568;538008711296908578;114134;126482;350231;-448448;
2024-05-04T09:21:46.586;538008711315085316;114187;126627;350365;-448425;
2024-05-04T09:21:46.605;538008711333262054;114282;126734;350554;-448429;
2024-05-04T09:21:46.623;538008711351438792;114323;126788;350686;-448511;
2024-05-04T09:21:46.641;538008711369615530;114446;126921;350783;-448488;
2024-05-04T09:21:46.659;538008711387792268;114584;127068;350924;-448449;
2024-05-04T09:21:46.677;538008711405969006;114517;127107;351133;-448483;
2024-05-04T09:21:46.695;538008711424145744;114625;127094;351211;-448457;
2024-05-04T09:21:46.714;538008711442322482;114564;127041;351174;-448492;
2024-05-04T09:21:46.732;538008711460499220;114501;126887;351131;-448478;
2024-05-04T09:21:46.750;538008711478675958;114327;126708;350977;-448531;
2024-05-04T09:21:46.768;538008711496852696;114073;126506;350793;-448598;
2024-05-04T09:21:46.786;538008711515029434;114019;126429;350677;-448636;
2024-05-04T09:21:46.804;538008711533206172;114020;126501;350738;-448529;
2024-05-04T09:21:46.823;538008711551382910;113960;126480;350806;-448504;
2024-05-04T09:21:46.841;538008711569559648;114085;126573;350848;-448414;
2024-05-04T09:21:46.859;538008711587736386;114189;126666;350956;-448396;
2024-05-04T09:21:46.877;538008711605913124;114110;126631;350956;-448420;
2024-05-04T09:21:46.895;538008711624089862;114255;126758;351033;-448407;
2024-05-04T09:21:46.914;538008711642266600;114214;126681;351110;-448432;
2024-05-04T09:21:46.932;538008711660443338;114374;126791;351252;-448436;
2024-05-04T09:21:46.950;538008711678620076;114372;126920;351345;-448448;
2024-05-04T09:21:46.968;538008711696796814;114472;126965;351464;-448456;
2024-05-04T09:21:46.986;538008711714973552;114637;126999;351560;-448471;
2024-05-04T09:21:47.004;538008711733150290;114636;127083;351618;-448545;
2024-05-04T09:21:47.023;538008711751327028;114683;127067;351653;-448486;
2024-05-04T09:21:47.041;538008711769503766;114622;126994;351659;-448574;
2024-05-04T09:21:47.059;538008711787680504;114610;127045;351660;-448537;
2024-05-04T09:21:47.077;538008711805857242;114580;127024;351694;-448623;
2024-05-04T09:21:47.095;538008711824033980;114632;127144;351754;-448607;
2024-05-04T09:21:47.113;538008711842210718;114668;127101;351841;-448612;
2024-05-04T09:21:47.132;538008711860387456;114754;127175;351931;-448578;
2024-05-04T09:21:47.150;538008711878564194;114830;127287;352071;-448556;
2024-05-04T09:21:47.168;538008711896740932;114902;127360;352164;-448647;
2024-05-04T09:21:47.186;538008711914917670;114995;127369;352211;-448676;
2024-05-04T09:21:47.204;538008711933096218;115046;127425;352317;-448723;
2024-05-04T09:21:47.223;538008711951274725;115164;127515;352451;-448772;
2024-05-04T09:21:47.241;538008711969453232;115276;127671;352669;-448757;
2024-05-04T09:21:47.259;538008711987631739;115262;127628;352670;-448810;
2024-05-04T09:21:47.277;538008712005810246;115317;127790;352869;-448733;
2024-05-04T09:21:47.295;538008712023988753;115454;127930;353014;-448778;
2024-05-04T09:21:47.313;538008712042167260;115594;127985;353146;-448733;
2024-05-04T09:21:47.332;538008712060345767;115650;128081;353194;-448725;
2024-05-04T09:21:47.350;538008712078524274;115742;128110;353317;-448733;
2024-05-04T09:21:47.368;538008712096702781;115863;128234;353435;-448690;
2024-05-04T09:21:47.386;538008712114881288;115901;128353;353634;-448713;
2024-05-04T09:21:47.404;538008712133059795;115969;128408;353733;-448722;
2024-05-04T09:21:47.422;538008712151238302;116091;128562;353888;-448704;
2024-05-04T09:21:47.441;538008712169416809;116214;128657;353949;-448739;
2024-05-04T09:21:47.459;538008712187595316;116358;128782;354099;-448768;
2024-05-04T09:21:47.477;538008712205773823;116356;128826;354205;-448785;
2024-05-04T09:21:47.495;538008712223952330;116558;128904;354332;-448784;
2024-05-04T09:21:47.513;538008712242130837;116537;128963;354417;-448827;
2024-05-04T09:21:47.532;538008712260309344;116611;129118;354527;-448854;
2024-05-04T09:21:47.550;538008712278487851;116714;129132;354628;-448838;
2024-05-04T09:21:47.568;538008712296666358;116784;129095;354725;-448800;
2024-05-04T09:21:47.586;538008712314844865;116712;129050;354733;-448917;
2024-05-04T09:21:47.604;538008712333023372;116624;128947;354700;-448927;
2024-05-04T09:21:47.622;538008712351201879;116486;128866;354587;-448960;
2024-05-04T09:21:47.641;538008712369380386;116200;128671;354467;-448982;
2024-05-04T09:21:47.659;538008712387558893;116055;128436;354320;-448993;
2024-05-04T09:21:47.677;538008712405737400;115866;128273;354057;-448992;
2024-05-04T09:21:47.695;538008712423915907;115746;128146;353971;-449011;
2024-05-04T09:21:47.713;538008712442094414;115654;128045;353932;-449085;
2024-05-04T09:21:47.732;538008712460272921;115619;127926;353820;-449147;
2024-05-04T09:21:47.750;538008712478451428;115572;127822;353842;-449164;
2024-05-04T09:21:47.768;538008712496629935;115404;127751;353742;-449200;
2024-05-04T09:21:47.786;538008712514808442;115360;127657;353674;-449261;
2024-05-04T09:21:47.804;538008712532986949;115312;127704;353672;-449235;
2024-05-04T09:21:47.822;538008712551165456;115379;127661;353745;-449280;
2024-05-04T09:21:47.841;538008712569343963;115350;127673;353707;-449354;
2024-05-04T09:21:47.859;538008712587522470;115377;127656;353792;-449397;
2024-05-04T09:21:47.877;538008712605700977;115430;127696;353833;-449365;
2024-05-04T09:21:47.895;538008712623879484;115502;127727;353847;-449353;
2024-05-04T09:21:47.913;538008712642057991;115463;127779;353834;-449354;
2024-05-04T09:21:47.931;538008712660236498;115497;127720;353853;-449321;
2024-05-04T09:21:47.950;538008712678415005;115547;127661;353967;-449318;
2024-05-04T09:21:47.968;538008712696593512;115568;127663;353978;-449380;
2024-05-04T09:21:47.986;538008712714772238;115585;127684;353948;-449345;
2024-05-04T09:21:48.004;538008712732950938;115547;127594;354002;-449420;
2024-05-04T09:21:48.022;538008712751129638;115471;127638;353962;-449446;
2024-05-04T09:21:48.041;538008712769308338;115468;127634;354040;-449463;
2024-05-04T09:21:48.059;538008712787487038;115541;127663;354166;-449433;
2024-05-04T09:21:48.077;538008712805665738;115535;127648;354102;-449452;
2024-05-04T09:21:48.095;538008712823844438;115633;127702;354294;-449447;
2024-05-04T09:21:48.113;538008712842023138;115701;127803;354314;-449461;
2024-05-04T09:21:48.131;538008712860201838;115788;127918;354395;-449495;
2024-05-04T09:21:48.150;538008712878380538;115792;127979;354508;-449486;
2024-05-04T09:21:48.168;538008712896559238;115814;127905;354529;-449476;
2024-05-04T09:21:48.186;538008712914737938;115817;127959;354577;-449580;
2024-05-04T09:21:48.204;538008712932916638;115872;128000;354659;-449599;
2024-05-04T09:21:48.222;538008712951095338;115899;128079;354787;-449635;
2024-05-04T09:21:48.241;538008712969274038;115975;128156;354771;-449681;
2024-05-04T09:21:48.259;538008712987452738;116003;128177;354856;-449679;
2024-05-04T09:21:48.277;538008713005631438;116116;128203;354929;-449669;
2024-05-04T09:21:48.295;538008713023810138;116132;128231;355045;-449688;
2024-05-04T09:21:48.313;538008713041988838;116255;128307;355119;-449705;
2024-05-04T09:21:48.331;538008713060167538;116307;128433;355241;-449714;
2024-05-04T09:21:48.350;538008713078346238;116358;128526;355312;-449622;
2024-05-04T09:21:48.368;538008713096524938;116405;128534;355341;-449591;
2024-05-04T09:21:48.386;538008713114703638;116538;128629;355514;-449694;
2024-05-04T09:21:48.404;538008713132882338;116588;128729;355543;-449648;
2024-05-04T09:21:48.422;538008713151061038;116565;128775;355665;-449634;
2024-05-04T09:21:48.440;538008713169239738;116623;128788;355783;-449628;
2024-05-04T09:21:48.459;538008713187418438;116624;128825;355818;-449522;
2024-05-04T09:21:48.477;538008713205597138;116509;128626;355782;-449593;
2024-05-04T09:21:48.495;538008713223775838;116435;128486;355688;-449549;
2024-05-04T09:21:48.513;538008713241954538;116163;128242;355477;-449594;
2024-05-04T09:21:48.531;538008713260133238;115966;128045;355230;-449643;
2024-05-04T09:21:48.550;538008713278311938;115816;127789;355148;-449569;
2024-05-04T09:21:48.568;538008713296490638;115759;127697;355047;-449619;
2024-05-04T09:21:48.586;538008713314669338;115600;127474;354844;-449669;
2024-05-04T09:21:48.604;538008713332848038;115492;127420;354707;-449624;
2024-05-04T09:21:48.622;538008713351026738;115401;127259;354699;-449609;
2024-05-04T09:21:48.640;538008713369205438;115320;127132;354650;-449675;
2024-05-04T09:21:48.659;538008713387384138;115356;127195;354671;-449662;
2024-05-04T09:21:48.677;538008713405562838;115349;127135;354613;-449620;
2024-05-04T09:21:48.695;538008713423741538;115406;127163;354714;-449558;
2024-05-04T09:21:48.713;538008713441920238;115417;127210;354758;-449603;
2024-05-04T09:21:48.731;538008713460098938;115449;127223;354816;-449593;
2024-05-04T09:21:48.750;538008713478276608;115455;127227;354903;-449606;
2024-05-04T09:21:48.768;538008713496454264;115474;127247;354861;-449555;
2024-05-04T09:21:48.786;538008713514631920;115507;127213;354909;-449469;
2024-05-04T09:21:48.804;538008713532809576;115494;127115;354834;-449477;
2024-05-04T09:21:48.822;538008713550987232;115438;127133;354817;-449471;
2024-05-04T09:21:48.840;538008713569164888;115437;127059;354820;-449486;
2024-05-04T09:21:48.859;538008713587342544;115365;126989;354795;-449498;
2024-05-04T09:21:48.877;538008713605520200;115417;126947;354750;-449491;
2024-05-04T09:21:48.895;538008713623697856;115444;126879;354767;-449457;
2024-05-04T09:21:48.913;538008713641875512;115398;126848;354799;-449480;
2024-05-04T09:21:48.931;538008713660053168;115373;126896;354767;-449463;
2024-05-04T09:21:48.949;538008713678230824;115410;126920;354818;-449436;
2024-05-04T09:21:48.968;538008713696408480;115496;126971;354848;-449400;
2024-05-04T09:21:48.986;538008713714586136;115551;127023;355025;-449347;
2024-05-04T09:21:49.004;538008713732763792;115598;127077;355034;-449249;
2024-05-04T09:21:49.022;538008713750941448;115723;127151;355152;-449177;
2024-05-04T09:21:49.040;538008713769119104;115774;127258;355229;-449171;
2024-05-04T09:21:49.059;538008713787296760;115856;127299;355302;-449063;
2024-05-04T09:21:49.077;538008713805474416;115844;127401;355480;-449026;
2024-05-04T09:21:49.095;538008713823652072;115905;127364;355480;-449058;
2024-05-04T09:21:49.113;538008713841829728;115923;127395;355531;-449127;
2024-05-04T09:21:49.131;538008713860007384;115879;127412;355579;-449127;
2024-05-04T09:21:49.149;538008713878185040;115805;127244;355534;-449255;
2024-05-04T09:21:49.168;538008713896362696;115766;127245;355507;-449349;
2024-05-04T09:21:49.186;538008713914540352;115741;127205;355540;-449444;
2024-05-04T09:21:49.204;538008713932718008;115713;127169;355498;-449561;
2024-05-04T09:21:49.222;538008713950895664;115706;127167;355571;-449636;
2024-05-04T09:21:49.240;538008713969073320;115742;127224;355665;-449691;
2024-05-04T09:21:49.259;538008713987250976;115803;127188;355731;-449659;
2024-05-04T09:21:49.277;538008714005428632;115919;127311;355804;-449622;
2024-05-04T09:21:49.295;538008714023606288;115984;127402;355948;-449586;
2024-05-04T09:21:49.313;538008714041783944;115931;127385;355913;-449596;
2024-05-04T09:21:49.331;538008714059961600;115939;127287;355947;-449577;
2024-05-04T09:21:49.349;538008714078139256;115746;127105;355834;-449666;
2024-05-04T09:21:49.368;538008714096316912;115519;126798;355621;-449757;
2024-05-04T09:21:49.386;538008714114494568;115259;126518;355390;-449747;
2024-05-04T09:21:49.404;538008714132672224;114996;126215;355143;-449834;
2024-05-04T09:21:49.422;538008714150849880;114839;125989;354887;-449847;
2024-05-04T09:21:49.440;538008714169027536;114767;125875;354744;-449801;
2024-05-04T09:21:49.458;538008714187205192;114675;125734;354737;-449777;
2024-05-04T09:21:49.477;538008714205382848;114666;125711;354749;-449751;
2024-05-04T09:21:49.495;538008714223560504;114739;125675;354726;-449648;
2024-05-04T09:21:49.513;538008714241738160;114826;125651;354687;-449550;
2024-05-04T09:21:49.531;538008714259915698;114784;125638;354606;-449592;
2024-05-04T09:21:49.549;538008714278093236;114771;125626;354757;-449419;
2024-05-04T09:21:49.568;538008714296270774;114924;125748;354855;-449362;
2024-05-04T09:21:49.586;538008714314448312;114997;125793;354963;-449333;
2024-05-04T09:21:49.604;538008714332625850;115059;125832;355122;-449233;
2024-05-04T09:21:49.622;538008714350803388;115105;125812;355072;-449200;
2024-05-04T09:21:49.640;538008714368980926;115065;125751;355056;-449188;
2024-05-04T09:21:49.658;538008714387158464;114976;125632;355067;-449170;
2024-05-04T09:21:49.677;538008714405336002;115008;125548;355128;-449234;
2024-05-04T09:21:49.695;538008714423513540;115092;125554;355158;-449186;
2024-05-04T09:21:49.713;538008714441691078;115291;125657;355286;-449009;
2024-05-04T09:21:49.731;538008714459868616;115429;125762;355441;-448781;
2024-05-04T09:21:49.749;538008714478046154;115669;125995;355705;-448448;
2024-05-04T09:21:49.767;538008714496223692;115654;126178;355842;-448269;
2024-05-04T09:21:49.786;538008714514401230;115748;126325;355940;-448130;
2024-05-04T09:21:49.804;538008714532578768;115762;126307;356072;-448117;
2024-05-04T09:21:49.822;538008714550756306;115871;126306;356191;-448118;
2024-05-04T09:21:49.840;538008714568933844;116011;126375;356171;-448090;
2024-05-04T09:21:49.858;538008714587111382;115897;126184;356035;-448305;
2024-05-04T09:21:49.877;538008714605288920;115803;125983;355896;-448481;
2024-05-04T09:21:49.895;538008714623466458;115692;125748;355687;-448633;
2024-05-04T09:21:49.913;538008714641643996;115717;125570;355669;-448820;
2024-05-04T09:21:49.931;538008714659821534;115712;125525;355647;-448744;
2024-05-04T09:21:49.949;538008714677999072;115886;125665;355802;-448611;
2024-05-04T09:21:49.967;538008714696176610;116065;125867;356031;-448366;
2024-05-04T09:21:49.986;538008714714354148;116201;125970;356201;-448175;
2024-05-04T09:21:50.004;538008714732531686;116346;126167;356431;-448048;
2024-05-04T09:21:50.022;538008714750709224;116482;126243;356587;-447990;
2024-05-04T09:21:50.040;538008714768886762;116558;126213;356604;-448041;
2024-05-04T09:21:50.058;538008714787064300;116491;126134;356581;-448044;
2024-05-04T09:21:50.076;538008714805241838;116376;125992;356582;-448200;
2024-05-04T09:21:50.095;538008714823419376;116240;125797;356558;-448300;
2024-05-04T09:21:50.113;538008714841596914;116125;125709;356491;-448417;
2024-05-04T09:21:50.131;538008714859774452;116000;125607;356441;-448413;
2024-05-04T09:21:50.149;538008714877951990;115745;125315;356274;-448492;
2024-05-04T09:21:50.167;538008714896129528;115566;125161;356138;-448458;
2024-05-04T09:21:50.186;538008714914307066;115382;124905;356050;-448447;
2024-05-04T09:21:50.204;538008714932484604;115160;124574;355840;-448435;
2024-05-04T09:21:50.222;538008714950662142;114971;124366;355712;-448329;
2024-05-04T09:21:50.240;538008714968839680;114850;124239;355436;-448273;
2024-05-04T09:21:50.258;538008714987017218;114766;124037;355349;-448205;
2024-05-04T09:21:50.276;538008715005194756;114531;123816;355081;-448205;
2024-05-04T09:21:50.295;538008715023372614;114382;123676;355014;-448129;
2024-05-04T09:21:50.313;538008715041550442;114264;123566;354831;-448107;
2024-05-04T09:21:50.331;538008715059728270;114233;123502;354819;-447993;
2024-05-04T09:21:50.349;538008715077906098;114226;123428;354808;-447959;
2024-05-04T09:21:50.367;538008715096083926;114243;123484;354858;-447848;
2024-05-04T09:21:50.386;538008715114261754;114209;123538;354857;-447746;
2024-05-04T09:21:50.404;538008715132439582;114298;123461;354876;-447706;
2024-05-04T09:21:50.422;538008715150617410;114282;123428;354882;-447538;
2024-05-04T09:21:50.440;538008715168795238;114175;123467;354845;-447626;
2024-05-04T09:21:50.458;538008715186973066;114243;123399;354816;-447529;
2024-05-04T09:21:50.476;538008715205150894;114202;123287;354788;-447457;
2024-05-04T09:21:50.495;538008715223328722;114197;123278;354767;-447430;
2024-05-04T09:21:50.513;538008715241506550;114176;123232;354668;-447306;
2024-05-04T09:21:50.531;538008715259684378;114179;123269;354606;-447289;
2024-05-04T09:21:50.549;538008715277862206;114185;123192;354516;-447164;
2024-05-04T09:21:50.567;538008715296040034;114055;123158;354439;-447203;
2024-05-04T09:21:50.585;538008715314217862;114166;123215;354559;-447094;
2024-05-04T09:21:50.604;538008715332395690;114191;123294;354538;-447063;
2024-05-04T09:21:50.622;538008715350573518;114242;123314;354615;-446982;
2024-05-04T09:21:50.640;538008715368751346;114352;123387;354764;-446926;
2024-05-04T09:21:50.658;538008715386929174;114433;123423;354792;-446874;
2024-05-04T09:21:50.676;538008715405107002;114474;123449;354748;-446791;
2024-05-04T09:21:50.695;538008715423284830;114579;123550;354869;-446733;
2024-05-04T09:21:50.713;538008715441462658;114597;123609;354884;-446720;
2024-05-04T09:21:50.731;538008715459640486;114559;123611;354841;-446624;
2024-05-04T09:21:50.749;538008715477818314;114597;123636;354966;-446638;
2024-05-04T09:21:50.767;538008715495996142;114688;123759;354995;-446613;
2024-05-04T09:21:50.785;538008715514173970;114799;123931;355058;-446519;
2024-05-04T09:21:50.804;538008715532351798;114864;124010;355184;-446432;
2024-05-04T09:21:50.822;538008715550529626;114927;124132;355311;-446306;
2024-05-04T09:21:50.840;538008715568707454;115077;124234;355521;-446174;
2024-05-04T09:21:50.858;538008715586885282;115227;124390;355642;-446072;
2024-05-04T09:21:50.876;538008715605063110;115252;124473;355661;-446043;
2024-05-04T09:21:50.894;538008715623240938;115417;124720;355838;-445950;
2024-05-04T09:21:50.913;538008715641418766;115615;124773;355882;-445852;
2024-05-04T09:21:50.931;538008715659596594;115704;124861;356096;-445747;
2024-05-04T09:21:50.949;538008715677774422;115783;125034;356198;-445695;
2024-05-04T09:21:50.967;538008715695952250;115693;124880;356090;-445635;
2024-05-04T09:21:50.985;538008715714130078;115467;124630;355907;-445605;
2024-05-04T09:21:51.004;538008715732307906;115150;124258;355610;-445595;
2024-05-04T09:21:51.022;538008715750485734;114697;123990;355295;-445625;
2024-05-04T09:21:51.040;538008715768663562;114536;123683;354946;-445525;
2024-05-04T09:21:51.058;538008715786842347;114299;123511;354713;-445473;
2024-05-04T09:21:51.076;538008715805021120;114157;123303;354516;-445378;
2024-05-04T09:21:51.094;538008715823199893;114019;123223;354397;-445233;
2024-05-04T09:21:51.113;538008715841378666;114126;123313;354398;-445063;
2024-05-04T09:21:51.131;538008715859557439;114156;123387;354443;-444873;
2024-05-04T09:21:51.149;538008715877736212;114276;123553;354495;-444612;
2024-05-04T09:21:51.167;538008715895914985;114401;123735;354659;-444382;
2024-05-04T09:21:51.185;538008715914093758;114616;123964;354884;-444056;
2024-05-04T09:21:51.204;538008715932272531;114772;124125;355089;-443750;
2024-05-04T09:21:51.222;538008715950451304;114889;124324;355296;-443469;
2024-05-04T09:21:51.240;538008715968630077;115097;124569;355627;-443182;
2024-05-04T09:21:51.258;538008715986808850;115394;124837;356021;-442785;
2024-05-04T09:21:51.276;538008716004987623;115564;125010;356341;-442465;
2024-05-04T09:21:51.294;538008716023166396;115635;125164;356575;-442190;
2024-05-04T09:21:51.313;538008716041345169;115772;125334;356821;-441918;
2024-05-04T09:21:51.331;538008716059523942;115994;125533;357123;-441676;
2024-05-04T09:21:51.349;538008716077702715;116063;125687;357195;-441480;
2024-05-04T09:21:51.367;538008716095881488;116299;125904;357505;-441274;
2024-05-04T09:21:51.385;538008716114060261;116468;126085;357676;-441131;
2024-05-04T09:21:51.403;538008716132239034;116734;126367;357986;-440911;
2024-05-04T09:21:51.422;538008716150417807;116872;126643;358171;-440866;
2024-05-04T09:21:51.440;538008716168596580;117099;126808;358421;-440784;
2024-05-04T09:21:51.458;538008716186775353;117341;127074;358657;-440759;
2024-05-04T09:21:51.476;538008716204954126;117568;127324;358871;-440721;
2024-05-04T09:21:51.494;538008716223132899;117828;127561;359038;-440631;
2024-05-04T09:21:51.513;538008716241311672;118056;127654;359252;-440649;
2024-05-04T09:21:51.531;538008716259490445;118296;127917;359343;-440622;
2024-05-04T09:21:51.549;538008716277669218;118542;128101;359467;-440627;
2024-05-04T09:21:51.567;538008716295847991;118660;128177;359577;-440631;
2024-05-04T09:21:51.585;538008716314026764;118882;128401;359714;-440594;
2024-05-04T09:21:51.603;538008716332205537;118988;128666;359857;-440632;
2024-05-04T09:21:51.622;538008716350384310;119076;128737;359941;-440636;
2024-05-04T09:21:51.640;538008716368563083;119258;128938;360007;-440635;
2024-05-04T09:21:51.658;538008716386741856;119366;128952;360062;-440659;
2024-05-04T09:21:51.676;538008716404920629;119513;129107;360141;-440691;
2024-05-04T09:21:51.694;538008716423099402;119659;129311;360190;-440718;
2024-05-04T09:21:51.713;538008716441278175;119773;129430;360318;-440757;
2024-05-04T09:21:51.731;538008716459456948;119906;129547;360458;-440774;
2024-05-04T09:21:51.749;538008716477635721;119851;129573;360493;-440884;
2024-05-04T09:21:51.767;538008716495814494;119843;129559;360415;-440933;
2024-05-04T09:21:51.785;538008716513993267;119789;129548;360408;-441073;
2024-05-04T09:21:51.803;538008716532172040;119699;129406;360215;-441154;
2024-05-04T09:21:51.822;538008716550350087;119483;129220;359993;-441232;
2024-05-04T09:21:51.840;538008716568528134;119142;128956;359643;-441281;
2024-05-04T09:21:51.858;538008716586706181;118798;128594;359287;-441403;
2024-05-04T09:21:51.876;538008716604884228;118563;128337;358919;-441394;
2024-05-04T09:21:51.894;538008716623062275;118247;127968;358507;-441382;
2024-05-04T09:21:51.912;538008716641240322;118018;127741;358275;-441416;
2024-05-04T09:21:51.931;538008716659418369;117767;127561;358056;-441415;
2024-05-04T09:21:51.949;538008716677596416;117615;127487;357758;-441495;
2024-05-04T09:21:51.967;538008716695774463;117439;127250;357531;-441537;
2024-05-04T09:21:51.985;538008716713952510;117327;127139;357378;-441534;
2024-05-04T09:21:52.003;538008716732130557;117170;127023;357116;-441616;
2024-05-04T09:21:52.022;538008716750308604;117100;126873;356961;-441686;
2024-05-04T09:21:52.040;538008716768486651;116990;126734;356817;-441699;
2024-05-04T09:21:52.058;538008716786664698;116882;126626;356617;-441772;
2024-05-04T09:21:52.076;538008716804842745;116776;126573;356491;-441761;
2024-05-04T09:21:52.094;538008716823020792;116738;126502;356331;-441785;
2024-05-04T09:21:52.112;538008716841198839;116610;126318;356224;-441807;
2024-05-04T09:21:52.131;538008716859376886;116462;126241;356052;-441830;
2024-05-04T09:21:52.149;538008716877554933;116315;126206;355904;-441812;
2024-05-04T09:21:52.167;538008716895732980;116110;126160;355810;-441776;
2024-05-04T09:21:52.185;538008716913911027;116101;125989;355600;-441864;
2024-05-04T09:21:52.203;538008716932089074;116135;125992;355535;-441923;
2024-05-04T09:21:52.222;538008716950267121;116118;125927;355415;-442035;
2024-05-04T09:21:52.240;538008716968445168;116031;125947;355209;-442069;
2024-05-04T09:21:52.258;538008716986623215;115814;125729;354931;-442214;
2024-05-04T09:21:52.276;538008717004801262;115500;125470;354644;-442435;
2024-05-04T09:21:52.294;538008717022979309;115274;125343;354441;-442560;
2024-05-04T09:21:52.312;538008717041157356;115126;125137;354229;-442811;
2024-05-04T09:21:52.331;538008717059335403;114912;125093;354133;-443011;
2024-05-04T09:21:52.349;538008717077513450;114925;124918;353958;-443233;
2024-05-04T09:21:52.367;538008717095691497;114754;124688;353705;-443440;
2024-05-04T09:21:52.385;538008717113869544;114393;124526;353277;-443753;
2024-05-04T09:21:52.403;538008717132047591;114116;124224;352893;-443981;
2024-05-04T09:21:52.421;538008717150225638;113758;124041;352665;-444169;
2024-05-04T09:21:52.440;538008717168403685;113569;123950;352430;-444230;
2024-05-04T09:21:52.458;538008717186581732;113426;123863;352269;-444347;
2024-05-04T09:21:52.476;538008717204759779;113398;123921;352267;-444419;
2024-05-04T09:21:52.494;538008717222937826;113522;124021;352498;-444462;
2024-05-04T09:21:52.512;538008717241115873;113642;123925;352427;-444800;
2024-05-04T09:21:52.531;538008717259293920;113428;123564;352093;-445074;
2024-05-04T09:21:52.549;538008717277471967;112971;123308;351719;-445403;
2024-05-04T09:21:52.567;538008717295650014;112659;123219;351548;-445579;
2024-05-04T09:21:52.585;538008717313826566;112596;123180;351587;-445692;
2024-05-04T09:21:52.603;538008717332003086;112967;123455;351875;-445518;
2024-05-04T09:21:52.621;538008717350179606;113260;123747;352242;-445302;
2024-05-04T09:21:52.640;538008717368356126;113382;123935;352326;-445197;
2024-05-04T09:21:52.658;538008717386532646;113398;123988;352453;-445292;
2024-05-04T09:21:52.676;538008717404709166;113310;123843;352383;-445499;
2024-05-04T09:21:52.694;538008717422885686;113234;123671;352273;-445577;
2024-05-04T09:21:52.712;538008717441062206;113201;123648;352314;-445510;
2024-05-04T09:21:52.730;538008717459238726;113295;123712;352400;-445319;
2024-05-04T09:21:52.749;538008717477415246;113381;123767;352538;-445004;
2024-05-04T09:21:52.767;538008717495591766;113367;123831;352724;-444679;
2024-05-04T09:21:52.785;538008717513768286;113386;123859;352684;-444388;
2024-05-04T09:21:52.803;538008717531944806;113353;123934;352568;-444240;
2024-05-04T09:21:52.821;538008717550121326;113329;123945;352530;-444134;
2024-05-04T09:21:52.840;538008717568297846;113241;123890;352386;-444108;
2024-05-04T09:21:52.858;538008717586474366;113095;123716;352161;-444124;
2024-05-04T09:21:52.876;538008717604650886;112945;123502;351983;-444266;
2024-05-04T09:21:52.894;538008717622827406;112810;123359;351800;-444324;
2024-05-04T09:21:52.912;538008717641003926;112643;123298;351601;-444335;
2024-05-04T09:21:52.930;538008717659180446;112639;123237;351544;-444391;
2024-05-04T09:21:52.949;538008717677356966;112484;123239;351489;-444353;
2024-05-04T09:21:52.967;538008717695533486;112438;123256;351463;-444405;
2024-05-04T09:21:52.985;538008717713710006;112480;123303;351388;-444389;
2024-05-04T09:21:53.003;538008717731886526;112444;123245;351338;-444405;
2024-05-04T09:21:53.021;538008717750063046;112318;123236;351265;-444488;
2024-05-04T09:21:53.039;538008717768239566;112266;123159;351150;-444487;
2024-05-04T09:21:53.058;538008717786416086;112109;123093;350966;-444522;
2024-05-04T09:21:53.076;538008717804592606;112041;123020;350832;-444598;
2024-05-04T09:21:53.094;538008717822769126;111945;122929;350754;-444609;
2024-05-04T09:21:53.112;538008717840945646;111885;122970;350691;-444587;
2024-05-04T09:21:53.130;538008717859122166;111790;122958;350663;-444577;
2024-05-04T09:21:53.149;538008717877298686;111953;123105;350629;-444508;
2024-05-04T09:21:53.167;538008717895475206;111939;123067;350679;-444537;
2024-05-04T09:21:53.185;538008717913651726;111983;123188;350767;-444542;
2024-05-04T09:21:53.203;538008717931828246;111938;123151;350699;-444637;
2024-05-04T09:21:53.221;538008717950004766;112017;123203;350734;-444614;
2024-05-04T09:21:53.239;538008717968181286;112058;123226;350751;-444674;
2024-05-04T09:21:53.258;538008717986357806;111995;123286;350679;-444761;
2024-05-04T09:21:53.276;538008718004534326;111994;123303;350744;-444868;
2024-05-04T09:21:53.294;538008718022710846;111936;123204;350646;-444958;
2024-05-04T09:21:53.312;538008718040887366;111841;123171;350626;-445089;
2024-05-04T09:21:53.330;538008718059063886;111919;123238;350668;-445121;
2024-05-04T09:21:53.348;538008718077241860;111840;123230;350562;-445277;
2024-05-04T09:21:53.367;538008718095419834;111916;123201;350592;-445295;
2024-05-04T09:21:53.385;538008718113597808;111922;123299;350609;-445424;
2024-05-04T09:21:53.403;538008718131775782;111896;123206;350509;-445512;
2024-05-04T09:21:53.421;538008718149953756;111909;123254;350555;-445531;
2024-05-04T09:21:53.439;538008718168131730;111855;123274;350603;-445634;
2024-05-04T09:21:53.458;538008718186309704;111954;123327;350608;-445644;
2024-05-04T09:21:53.476;538008718204487678;111966;123457;350698;-445649;
2024-05-04T09:21:53.494;538008718222665652;112100;123608;350830;-445625;
2024-05-04T09:21:53.512;538008718240843626;112131;123715;351007;-445573;
2024-05-04T09:21:53.530;538008718259021600;112223;123843;351075;-445620;
2024-05-04T09:21:53.548;538008718277199574;112239;123820;351082;-445583;
2024-05-04T09:21:53.567;538008718295377548;112097;123749;350999;-445534;
2024-05-04T09:21:53.585;538008718313555522;111939;123583;350823;-445587;
2024-05-04T09:21:53.603;538008718331733496;111687;123372;350590;-445516;
2024-05-04T09:21:53.621;538008718349911470;111453;123188;350469;-445529;
2024-05-04T09:21:53.639;538008718368089444;111340;123015;350295;-445462;
2024-05-04T09:21:53.658;538008718386267418;111247;122910;350124;-445400;
2024-05-04T09:21:53.676;538008718404445392;111100;122799;349982;-445398;
2024-05-04T09:21:53.694;538008718422623366;111013;122706;349929;-445359;
2024-05-04T09:21:53.712;538008718440801340;111043;122774;349879;-445260;
2024-05-04T09:21:53.730;538008718458979314;111018;122830;349870;-445246;
2024-05-04T09:21:53.748;538008718477157288;111009;122825;349782;-445195;
2024-05-04T09:21:53.767;538008718495335262;110935;122699;349617;-445243;
2024-05-04T09:21:53.785;538008718513513236;110929;122706;349618;-445254;
2024-05-04T09:21:53.803;538008718531691210;110932;122745;349691;-445313;
2024-05-04T09:21:53.821;538008718549869184;110885;122785;349646;-445261;
2024-05-04T09:21:53.839;538008718568047158;110933;122840;349617;-445284;
2024-05-04T09:21:53.857;538008718586225132;110895;122791;349622;-445298;
2024-05-04T09:21:53.876;538008718604403106;110897;122767;349561;-445334;
2024-05-04T09:21:53.894;538008718622581080;110809;122737;349482;-445334;
2024-05-04T09:21:53.912;538008718640759054;110827;122786;349516;-445238;
2024-05-04T09:21:53.930;538008718658937028;110894;122837;349506;-445246;
2024-05-04T09:21:53.948;538008718677115002;110883;122858;349521;-445255;
2024-05-04T09:21:53.967;538008718695292976;110926;122963;349546;-445267;
2024-05-04T09:21:53.985;538008718713470950;110966;122926;349557;-445244;
2024-05-04T09:21:54.003;538008718731648924;110959;122972;349587;-445188;
2024-05-04T09:21:54.021;538008718749826898;111000;123035;349638;-445205;
2024-05-04T09:21:54.039;538008718768004872;111064;123117;349751;-445226;
2024-05-04T09:21:54.057;538008718786182846;111187;123182;349851;-445203;
2024-05-04T09:21:54.076;538008718804360820;111300;123285;349891;-445211;
2024-05-04T09:21:54.094;538008718822538794;111303;123399;349987;-445178;
2024-05-04T09:21:54.112;538008718840714123;111363;123515;350107;-445201;
2024-05-04T09:21:54.130;538008718858889437;111457;123587;350156;-445191;
2024-05-04T09:21:54.148;538008718877064751;111606;123773;350274;-445123;
2024-05-04T09:21:54.166;538008718895240065;111705;123884;350374;-445183;
2024-05-04T09:21:54.185;538008718913415379;111759;123999;350577;-445170;
2024-05-04T09:21:54.203;538008718931590693;111972;124079;350653;-445212;
2024-05-04T09:21:54.221;538008718949766007;112136;124252;350832;-445160;
2024-05-04T09:21:54.239;538008718967941321;112182;124348;350941;-445262;
2024-05-04T09:21:54.257;538008718986116635;112301;124520;351123;-445206;
2024-05-04T09:21:54.276;538008719004291949;112460;124578;351161;-445146;
2024-05-04T09:21:54.294;538008719022467263;112540;124809;351336;-445103;
2024-05-04T09:21:54.312;538008719040642577;112646;124927;351437;-445088;
2024-05-04T09:21:54.330;538008719058817891;112834;125124;351639;-445066;
2024-05-04T09:21:54.348;538008719076993205;112980;125199;351831;-445083;
2024-05-04T09:21:54.366;538008719095168519;113050;125412;351933;-445050;
2024-05-04T09:21:54.385;538008719113343833;113210;125634;352073;-445025;
2024-05-04T09:21:54.403;538008719131519147;113315;125756;352355;-445102;
2024-05-04T09:21:54.421;538008719149694461;113354;125752;352349;-445095;
2024-05-04T09:21:54.439;538008719167869775;113327;125584;352213;-445166;
2024-05-04T09:21:54.457;538008719186045089;113122;125384;352044;-445202;
2024-05-04T09:21:54.475;538008719204220403;112926;125285;351885;-445228;
2024-05-04T09:21:54.494;538008719222395717;112717;125091;351677;-445218;
2024-05-04T09:21:54.512;538008719240571031;112557;125055;351624;-445228;
2024-05-04T09:21:54.530;538008719258746345;112383;124858;351394;-445198;
2024-05-04T09:21:54.548;538008719276921659;112369;124769;351301;-445226;
2024-05-04T09:21:54.566;538008719295096973;112288;124784;351227;-445201;
2024-05-04T09:21:54.585;538008719313272287;112239;124717;351208;-445246;
2024-05-04T09:21:54.603;538008719331447601;112216;124775;351099;-445195;
2024-05-04T09:21:54.621;538008719349622915;112190;124767;351132;-445172;
2024-05-04T09:21:54.639;538008719367798229;112266;124868;351189;-445139;
2024-05-04T09:21:54.657;538008719385973543;112271;124825;351216;-445144;
2024-05-04T09:21:54.675;538008719404148857;112362;124992;351320;-445120;
2024-05-04T09:21:54.694;538008719422324171;112401;124996;351276;-445089;
2024-05-04T09:21:54.712;538008719440499485;112422;125038;351358;-445082;
2024-05-04T09:21:54.730;538008719458674799;112510;125190;351326;-445047;
2024-05-04T09:21:54.748;538008719476850113;112511;125262;351447;-445055;
2024-05-04T09:21:54.766;538008719495025427;112572;125275;351478;-445006;
2024-05-04T09:21:54.784;538008719513200741;112511;125328;351471;-445058;
2024-05-04T09:21:54.803;538008719531376055;112532;125387;351505;-445010;
2024-05-04T09:21:54.821;538008719549551369;112539;125360;351483;-445006;
2024-05-04T09:21:54.839;538008719567726683;112593;125406;351581;-445037;
2024-05-04T09:21:54.857;538008719585901997;112597;125456;351629;-445019;
2024-05-04T09:21:54.875;538008719604077311;112587;125453;351617;-445073;
2024-05-04T09:21:54.894;538008719622251139;112714;125543;351679;-445131;
2024-05-04T09:21:54.912;538008719640424934;112752;125655;351676;-445129;
2024-05-04T09:21:54.930;538008719658598729;112830;125761;351761;-445132;
2024-05-04T09:21:54.948;538008719676772524;112875;125876;351820;-445150;
2024-05-04T09:21:54.966;538008719694946319;112855;125924;351954;-445097;
2024-05-04T09:21:54.984;538008719713120114;112923;125946;352053;-445122;
2024-05-04T09:21:55.003;538008719731293909;113042;126040;352202;-445086;
2024-05-04T09:21:55.021;538008719749467704;113217;126325;352352;-445080;
2024-05-04T09:21:55.039;538008719767641499;113441;126502;352606;-444967;
2024-05-04T09:21:55.057;538008719785815294;113606;126667;352862;-444892;
2024-05-04T09:21:55.075;538008719803989089;113727;126851;352948;-444896;
2024-05-04T09:21:55.093;538008719822162884;113985;127040;353250;-444782;
2024-05-04T09:21:55.112;538008719840336679;114123;127324;353524;-444691;
2024-05-04T09:21:55.130;538008719858510474;114412;127549;353726;-444593;
2024-05-04T09:21:55.148;538008719876684269;114602;127723;353918;-444657;
2024-05-04T09:21:55.166;538008719894858064;114768;127860;354153;-444588;
2024-05-04T09:21:55.184;538008719913031859;115056;128135;354451;-444444;
2024-05-04T09:21:55.202;538008719931205654;115219;128299;354619;-444522;
2024-05-04T09:21:55.221;538008719949379449;115524;128572;354814;-444379;
2024-05-04T09:21:55.239;538008719967553244;115810;128801;355093;-444220;
2024-05-04T09:21:55.257;538008719985727039;116040;128975;355382;-444124;
2024-05-04T09:21:55.275;538008720003900834;116210;129309;355742;-444052;
2024-05-04T09:21:55.293;538008720022074629;116441;129478;355948;-443945;
2024-05-04T09:21:55.312;538008720040248424;116486;129549;356071;-443944;
2024-05-04T09:21:55.330;538008720058422219;116401;129507;356122;-443916;
2024-05-04T09:21:55.348;538008720076596014;116350;129466;356066;-443804;
2024-05-04T09:21:55.366;538008720094769809;116274;129388;355964;-443754;
2024-05-04T09:21:55.384;538008720112943604;116234;129380;355955;-443717;
2024-05-04T09:21:55.402;538008720131117399;116225;129273;355882;-443710;
2024-05-04T09:21:55.421;538008720149291194;116166;129277;355877;-443670;
2024-05-04T09:21:55.439;538008720167464989;116220;129339;355897;-443604;
2024-05-04T09:21:55.457;538008720185638784;116238;129346;355859;-443564;
2024-05-04T09:21:55.475;538008720203812579;116254;129438;355949;-443510;
2024-05-04T09:21:55.493;538008720221986374;116335;129485;356038;-443509;
2024-05-04T09:21:55.511;538008720240160169;116362;129493;356077;-443531;
2024-05-04T09:21:55.530;538008720258333964;116381;129447;355950;-443611;
2024-05-04T09:21:55.548;538008720276507759;116423;129439;356034;-443640;
2024-05-04T09:21:55.566;538008720294681554;116355;129497;356009;-443703;
2024-05-04T09:21:55.584;538008720312855349;116380;129530;356045;-443754;
2024-05-04T09:21:55.602;538008720331029144;116362;129603;356067;-443764;
2024-05-04T09:21:55.620;538008720349202939;116374;129562;356000;-443774;
2024-05-04T09:21:55.639;538008720367376734;116292;129538;355998;-443902;
2024-05-04T09:21:55.657;538008720385553186;116284;129488;356078;-443881;
2024-05-04T09:21:55.675;538008720403729634;116285;129430;355942;-443942;
2024-05-04T09:21:55.693;538008720421906082;116329;129524;356033;-443932;
2024-05-04T09:21:55.711;538008720440082530;116222;129424;355953;-444077;
2024-05-04T09:21:55.730;538008720458258978;116243;129393;356006;-444075;
2024-05-04T09:21:55.748;538008720476435426;116272;129431;355963;-444115;
2024-05-04T09:21:55.766;538008720494611874;116355;129519;356082;-444140;
2024-05-04T09:21:55.784;538008720512788322;116445;129597;356176;-444054;
2024-05-04T09:21:55.802;538008720530964770;116573;129678;356388;-444050;
2024-05-04T09:21:55.820;538008720549141218;116697;129863;356440;-444032;
2024-05-04T09:21:55.839;538008720567317666;116779;129915;356613;-444022;
2024-05-04T09:21:55.857;538008720585494114;117004;130078;356788;-443986;
2024-05-04T09:21:55.875;538008720603670562;117185;130258;356995;-443889;
2024-05-04T09:21:55.893;538008720621847010;117347;130368;357225;-443812;
2024-05-04T09:21:55.911;538008720640023458;117587;130541;357377;-443802;
2024-05-04T09:21:55.929;538008720658199906;117795;130768;357603;-443696;
2024-05-04T09:21:55.948;538008720676376354;118045;130967;357909;-443612;
2024-05-04T09:21:55.966;538008720694552802;118262;131193;358030;-443537;
2024-05-04T09:21:55.984;538008720712729250;118638;131403;358402;-443317;
2024-05-04T09:21:56.002;538008720730905698;118821;131621;358716;-443201;
2024-05-04T09:21:56.020;538008720749082146;119089;131919;359065;-443035;
2024-05-04T09:21:56.039;538008720767258594;119355;132083;359373;-442823;
2024-05-04T09:21:56.057;538008720785435042;119682;132286;359705;-442673;
2024-05-04T09:21:56.075;538008720803611490;119847;132552;360037;-442588;
2024-05-04T09:21:56.093;538008720821787938;120078;132883;360483;-442328;
2024-05-04T09:21:56.111;538008720839964386;120501;133271;360913;-442162;
2024-05-04T09:21:56.129;538008720858140834;120803;133611;361374;-441901;
2024-05-04T09:21:56.148;538008720876317282;121145;133986;361756;-441721;
2024-05-04T09:21:56.166;538008720894493730;121403;134282;362176;-441560;
2024-05-04T09:21:56.184;538008720912670178;121575;134431;362401;-441485;
2024-05-04T09:21:56.202;538008720930846626;121677;134547;362632;-441422;
2024-05-04T09:21:56.220;538008720949023074;121717;134609;362826;-441303;
2024-05-04T09:21:56.238;538008720967199522;121733;134589;362900;-441308;
2024-05-04T09:21:56.257;538008720985375970;121674;134563;362908;-441252;
2024-05-04T09:21:56.275;538008721003552418;121634;134489;362893;-441269;
2024-05-04T09:21:56.293;538008721021728866;121584;134549;362987;-441154;
2024-05-04T09:21:56.311;538008721039905314;121537;134706;363031;-441136;
2024-05-04T09:21:56.329;538008721058081762;121622;134829;363325;-441045;
2024-05-04T09:21:56.348;538008721076258210;121753;134966;363427;-440943;
2024-05-04T09:21:56.366;538008721094434658;121913;135263;363744;-440800;
2024-05-04T09:21:56.384;538008721112611106;122057;135450;363938;-440748;
2024-05-04T09:21:56.402;538008721130787554;122212;135740;364220;-440727;
2024-05-04T09:21:56.420;538008721148961359;122546;136015;364497;-440514;
2024-05-04T09:21:56.438;538008721167135155;122857;136489;364906;-440371;
2024-05-04T09:21:56.457;538008721185308951;123149;136736;365223;-440266;
2024-05-04T09:21:56.475;538008721203482747;123428;137042;365611;-440132;
2024-05-04T09:21:56.493;538008721221656543;123657;137208;365890;-439976;
2024-05-04T09:21:56.511;538008721239830339;123867;137518;366290;-439843;
2024-05-04T09:21:56.529;538008721258004135;124095;137738;366598;-439723;
2024-05-04T09:21:56.547;538008721276177931;124279;137943;366938;-439635;
2024-05-04T09:21:56.566;538008721294351727;124517;138131;367283;-439533;
2024-05-04T09:21:56.584;538008721312525523;124812;138329;367577;-439434;
2024-05-04T09:21:56.602;538008721330699319;124914;138523;367834;-439387;
2024-05-04T09:21:56.620;538008721348873115;125147;138729;368057;-439309;
2024-05-04T09:21:56.638;538008721367046911;125270;138899;368324;-439272;
2024-05-04T09:21:56.656;538008721385220707;125547;139250;368635;-439177;
2024-05-04T09:21:56.675;538008721403394503;125805;139521;369065;-439019;
2024-05-04T09:21:56.693;538008721421568299;126130;139800;369464;-438874;
2024-05-04T09:21:56.711;538008721439742095;126302;140069;369844;-438766;
2024-05-04T09:21:56.729;538008721457915891;126553;140319;370232;-438687;
2024-05-04T09:21:56.747;538008721476089687;126888;140672;370669;-438554;
2024-05-04T09:21:56.766;538008721494263483;127187;140999;371009;-438515;
2024-05-04T09:21:56.784;538008721512437279;127590;141291;371394;-438417;
2024-05-04T09:21:56.802;538008721530611075;127803;141557;371815;-438334;
2024-05-04T09:21:56.820;538008721548784871;128097;141823;372252;-438278;
2024-05-04T09:21:56.838;538008721566958667;128388;142120;372512;-438159;
2024-05-04T09:21:56.856;538008721585132463;128607;142311;372826;-438172;
2024-05-04T09:21:56.875;538008721603306259;128815;142618;373181;-438076;
2024-05-04T09:21:56.893;538008721621480055;128996;142840;373535;-437999;
2024-05-04T09:21:56.911;538008721639653851;129309;143031;373896;-437958;
2024-05-04T09:21:56.929;538008721657827647;129550;143361;374379;-437839;
2024-05-04T09:21:56.947;538008721676001443;129857;143610;374700;-437778;
2024-05-04T09:21:56.965;538008721694175239;130065;143811;375102;-437801;
2024-05-04T09:21:56.984;538008721712349035;130230;143882;375380;-437802;
2024-05-04T09:21:57.002;538008721730522831;130449;144059;375730;-437766;
2024-05-04T09:21:57.020;538008721748696627;130793;144328;376051;-437639;
2024-05-04T09:21:57.038;538008721766870423;130976;144413;376352;-437681;
2024-05-04T09:21:57.056;538008721785044219;131092;144468;376502;-437664;
2024-05-04T09:21:57.074;538008721803218015;131152;144505;376589;-437637;
2024-05-04T09:21:57.093;538008721821391811;131147;144537;376535;-437747;
2024-05-04T09:21:57.111;538008721839565607;131179;144615;376560;-437710;
2024-05-04T09:21:57.129;538008721857739403;131142;144717;376381;-437891;
2024-05-04T09:21:57.147;538008721875913199;131101;144658;376251;-437993;
2024-05-04T09:21:57.165;538008721894086995;131030;144623;376112;-438175;
2024-05-04T09:21:57.184;538008721912262291;130979;144678;375975;-438326;
2024-05-04T09:21:57.202;538008721930437576;130977;144588;375757;-438506;
2024-05-04T09:21:57.220;538008721948612861;131029;144639;375587;-438736;
2024-05-04T09:21:57.238;538008721966788146;131092;144679;375543;-438827;
2024-05-04T09:21:57.256;538008721984963431;131160;144732;375352;-438909;
2024-05-04T09:21:57.274;538008722003138716;131206;144694;375313;-439136;
2024-05-04T09:21:57.293;538008722021314001;131269;144614;375125;-439296;
2024-05-04T09:21:57.311;538008722039489286;131198;144516;374885;-439519;
2024-05-04T09:21:57.329;538008722057664571;131001;144377;374527;-439820;
2024-05-04T09:21:57.347;538008722075839856;130809;144138;374240;-440073;
2024-05-04T09:21:57.365;538008722094015141;130547;143889;373904;-440294;
2024-05-04T09:21:57.383;538008722112190426;130291;143585;373549;-440526;
2024-05-04T09:21:57.402;538008722130365711;130061;143318;373133;-440865;
2024-05-04T09:21:57.420;538008722148540996;129853;143118;372854;-441115;
2024-05-04T09:21:57.438;538008722166716281;129642;142845;372531;-441365;
2024-05-04T09:21:57.456;538008722184891566;129490;142608;372256;-441600;
2024-05-04T09:21:57.474;538008722203066851;129327;142313;371919;-441883;
2024-05-04T09:21:57.492;538008722221242136;129119;142059;371629;-442118;
2024-05-04T09:21:57.511;538008722239417421;128738;141818;371309;-442413;
2024-05-04T09:21:57.529;538008722257592706;128398;141478;371012;-442766;
2024-05-04T09:21:57.547;538008722275767991;128065;141116;370641;-443186;
2024-05-04T09:21:57.565;538008722293943276;127695;140697;370194;-443520;
2024-05-04T09:21:57.583;538008722312118561;127330;140273;369772;-443995;
2024-05-04T09:21:57.602;538008722330293846;127013;139845;369344;-444409;
2024-05-04T09:21:57.620;538008722348469131;126684;139426;368872;-444839;
2024-05-04T09:21:57.638;538008722366644416;126413;139060;368562;-445153;
2024-05-04T09:21:57.656;538008722384819701;126225;138841;368444;-445340;
2024-05-04T09:21:57.674;538008722402994986;126065;138724;368424;-445461;
2024-05-04T09:21:57.692;538008722421170271;126092;138690;368351;-445457;
2024-05-04T09:21:57.711;538008722439345556;126121;138743;368364;-445455;
2024-05-04T09:21:57.729;538008722457520841;126185;138738;368575;-445414;
2024-05-04T09:21:57.747;538008722475696126;126187;138762;368641;-445356;
2024-05-04T09:21:57.765;538008722493871411;126223;138869;368625;-445325;
2024-05-04T09:21:57.783;538008722512046696;126163;138882;368731;-445354;
2024-05-04T09:21:57.801;538008722530221981;126189;138773;368704;-445399;
2024-05-04T09:21:57.820;538008722548397266;126087;138681;368684;-445484;
2024-05-04T09:21:57.838;538008722566572551;125985;138552;368591;-445539;
2024-05-04T09:21:57.856;538008722584747836;125867;138353;368416;-445536;
2024-05-04T09:21:57.874;538008722602923121;125598;138025;368216;-445618;
2024-05-04T09:21:57.892;538008722621098406;125289;137831;367949;-445620;
2024-05-04T09:21:57.911;538008722639273691;125044;137511;367585;-445716;
2024-05-04T09:21:57.929;538008722657448976;124739;137264;367345;-445799;
2024-05-04T09:21:57.947;538008722675624197;124510;137116;367189;-445874;
2024-05-04T09:21:57.965;538008722693799392;124412;137068;367069;-445851;
2024-05-04T09:21:57.983;538008722711974587;124227;136861;366880;-445926;
2024-05-04T09:21:58.001;538008722730149782;124112;136695;366741;-446033;
2024-05-04T09:21:58.020;538008722748324977;124083;136517;366558;-446072;
2024-05-04T09:21:58.038;538008722766500172;123930;136390;366424;-446161;
2024-05-04T09:21:58.056;538008722784675367;123831;136297;366302;-446132;
2024-05-04T09:21:58.074;538008722802850562;123749;136258;366310;-446111;
2024-05-04T09:21:58.092;538008722821025757;123784;136333;366430;-445997;
2024-05-04T09:21:58.110;538008722839200952;123866;136456;366572;-445807;
2024-05-04T09:21:58.129;538008722857376147;123963;136585;366810;-445563;
2024-05-04T09:21:58.147;538008722875551342;124172;136816;367019;-445331;
2024-05-04T09:21:58.165;538008722893726537;124254;136964;367108;-445161;
2024-05-04T09:21:58.183;538008722911901732;124481;137195;367270;-444941;
2024-05-04T09:21:58.201;538008722930076927;124773;137383;367441;-444704;
2024-05-04T09:21:58.220;538008722948252122;125027;137507;367581;-444512;
2024-05-04T09:21:58.238;538008722966427317;125327;137719;367821;-444295;
2024-05-04T09:21:58.256;538008722984602512;125546;137871;368028;-444119;
2024-05-04T09:21:58.274;538008723002777707;125805;137988;368234;-443960;
2024-05-04T09:21:58.292;538008723020952902;126033;138149;368504;-443818;
2024-05-04T09:21:58.310;538008723039128097;126282;138406;368764;-443640;
2024-05-04T09:21:58.329;538008723057303292;126600;138592;369141;-443484;
2024-05-04T09:21:58.347;538008723075478487;126992;138789;369285;-443326;
2024-05-04T09:21:58.365;538008723093653682;127235;138971;369496;-443142;
2024-05-04T09:21:58.383;538008723111828877;127589;139181;369577;-443064;
2024-05-04T09:21:58.401;538008723130004072;127990;139342;369593;-442884;
2024-05-04T09:21:58.419;538008723148179267;128455;139557;369595;-442720;
2024-05-04T09:21:58.438;538008723166354462;128799;139794;369793;-442541;
2024-05-04T09:21:58.456;538008723184529657;129393;140074;369909;-442352;
2024-05-04T09:21:58.474;538008723202704852;129930;140302;370024;-442148;
2024-05-04T09:21:58.492;538008723220880047;130358;140530;370258;-441962;
2024-05-04T09:21:58.510;538008723239055242;130899;140927;370479;-441765;
2024-05-04T09:21:58.528;538008723257230437;131411;141234;370870;-441470;
2024-05-04T09:21:58.547;538008723275405632;131887;141485;371213;-441254;
2024-05-04T09:21:58.565;538008723293580827;132170;141696;371638;-441032;
2024-05-04T09:21:58.583;538008723311756022;132568;141902;372241;-440838;
2024-05-04T09:21:58.601;538008723329931217;132834;142062;372637;-440682;
2024-05-04T09:21:58.619;538008723348106412;133020;142150;372962;-440492;
2024-05-04T09:21:58.638;538008723366281235;133210;142162;373197;-440336;
2024-05-04T09:21:58.656;538008723384456048;133255;142164;373261;-440247;
2024-05-04T09:21:58.674;538008723402630861;133025;141851;373294;-440294;
2024-05-04T09:21:58.692;538008723420805674;133053;141715;373389;-440227;
2024-05-04T09:21:58.710;538008723438980487;132988;141367;373518;-440268;
2024-05-04T09:21:58.728;538008723457155300;132974;141173;373740;-440303;
2024-05-04T09:21:58.747;538008723475330113;132997;141029;374069;-440381;
2024-05-04T09:21:58.765;538008723493504926;133066;140998;374340;-440484;
2024-05-04T09:21:58.783;538008723511679739;133172;140927;374455;-440614;
2024-05-04T09:21:58.801;538008723529854552;133243;140710;374670;-440731;
2024-05-04T09:21:58.819;538008723548029365;133507;140524;374871;-440770;
2024-05-04T09:21:58.837;538008723566204178;133952;140400;375131;-440792;
2024-05-04T09:21:58.856;538008723584378991;134293;140351;375477;-440880;
2024-05-04T09:21:58.874;538008723602553804;134682;140411;375752;-440947;
2024-05-04T09:21:58.892;538008723620728617;134845;140323;375922;-440938;
2024-05-04T09:21:58.910;538008723638903430;134970;140290;376128;-441047;
2024-05-04T09:21:58.928;538008723657078243;134961;140074;376236;-441226;
2024-05-04T09:21:58.947;538008723675253056;135088;139905;376373;-441351;
2024-05-04T09:21:58.965;538008723693427869;135194;139816;376562;-441464;
2024-05-04T09:21:58.983;538008723711602682;135377;139712;376566;-441639;
2024-05-04T09:21:59.001;538008723729777495;135643;139770;376828;-441713;
2024-05-04T09:21:59.019;538008723747952308;135844;139959;377085;-441754;
2024-05-04T09:21:59.037;538008723766127121;136075;140263;377433;-441846;
2024-05-04T09:21:59.056;538008723784301934;136235;140565;377738;-441958;
2024-05-04T09:21:59.074;538008723802476747;136366;140722;377866;-442221;
2024-05-04T09:21:59.092;538008723820651560;136397;140589;377866;-442386;
2024-05-04T09:21:59.110;538008723838826373;136419;140546;377889;-442659;
2024-05-04T09:21:59.128;538008723857001186;136743;140786;378082;-442667;
2024-05-04T09:21:59.146;538008723875175999;137131;141146;378535;-442580;
2024-05-04T09:21:59.165;538008723893350812;137610;141597;378912;-442536;
2024-05-04T09:21:59.183;538008723911525625;138001;142006;379233;-442468;
2024-05-04T09:21:59.201;538008723929700438;138229;142191;379415;-442526;
2024-05-04T09:21:59.219;538008723947875251;138506;142347;379584;-442632;
2024-05-04T09:21:59.237;538008723966050064;138581;142462;379647;-442828;
2024-05-04T09:21:59.255;538008723984224877;138662;142462;379603;-443101;
2024-05-04T09:21:59.274;538008724002399690;138604;142454;379660;-443301;
2024-05-04T09:21:59.292;538008724020574503;138564;142344;379632;-443557;
2024-05-04T09:21:59.310;538008724038749316;138698;142417;379745;-443774;
2024-05-04T09:21:59.328;538008724056924129;138763;142319;379620;-443953;
2024-05-04T09:21:59.346;538008724075098942;138770;142235;379523;-444263;
2024-05-04T09:21:59.365;538008724093273755;138845;142148;379540;-444473;
2024-05-04T09:21:59.383;538008724111448568;139036;142293;379714;-444489;
2024-05-04T09:21:59.401;538008724129623777;139289;142447;379925;-444492;
2024-05-04T09:21:59.419;538008724147798962;139294;142412;380097;-444521;
2024-05-04T09:21:59.437;538008724165974147;139138;142356;380087;-444508;
2024-05-04T09:21:59.455;538008724184149332;138674;142058;380054;-444651;
2024-05-04T09:21:59.474;538008724202324517;138437;141930;379904;-444798;
2024-05-04T09:21:59.492;538008724220499702;138224;141738;379842;-444925;
2024-05-04T09:21:59.510;538008724238674887;138295;141706;379837;-445014;
2024-05-04T09:21:59.528;538008724256850072;138407;141715;379854;-444948;
2024-05-04T09:21:59.546;538008724275025257;138498;141684;379834;-444814;
2024-05-04T09:21:59.564;538008724293200442;138422;141623;379940;-444816;
2024-05-04T09:21:59.583;538008724311375627;138334;141664;380036;-444748;
2024-05-04T09:21:59.601;538008724329550812;138215;141645;380172;-444734;
2024-05-04T09:21:59.619;538008724347725997;138278;141776;380250;-444724;
2024-05-04T09:21:59.637;538008724365901182;138437;141819;380426;-444663;
2024-05-04T09:21:59.655;538008724384076367;138254;141766;380401;-444711;
2024-05-04T09:21:59.674;538008724402251552;137999;141702;380498;-444694;
2024-05-04T09:21:59.692;538008724420426737;137697;141519;380396;-444723;
2024-05-04T09:21:59.710;538008724438601922;137679;141506;380387;-444767;
2024-05-04T09:21:59.728;538008724456777107;137743;141618;380345;-444709;
2024-05-04T09:21:59.746;538008724474952292;137720;141619;380425;-444714;
2024-05-04T09:21:59.764;538008724493127477;137663;141638;380453;-444754;
2024-05-04T09:21:59.783;538008724511302662;137689;141683;380522;-444763;
2024-05-04T09:21:59.801;538008724529477847;137883;141882;380618;-444715;
2024-05-04T09:21:59.819;538008724547653032;138040;142006;380819;-444677;
2024-05-04T09:21:59.837;538008724565828217;138283;142111;380967;-444619;
2024-05-04T09:21:59.855;538008724584003402;138537;142356;381101;-444590;
2024-05-04T09:21:59.873;538008724602178587;138824;142553;381284;-444615;
2024-05-04T09:21:59.892;538008724620353772;139101;142821;381475;-444496;
2024-05-04T09:21:59.910;538008724638528957;139521;143112;381656;-444407;
2024-05-04T09:21:59.928;538008724656704142;139869;143332;381958;-444285;
2024-05-04T09:21:59.946;538008724674879327;140196;143585;382242;-444177;
2024-05-04T09:21:59.964;538008724693054512;140379;143892;382495;-444123;
2024-05-04T09:21:59.982;538008724711229697;140511;144063;382595;-444118;
2024-05-04T09:22:00.001;538008724729404882;140573;144150;382651;-444144;
2024-05-04T09:22:00.019;538008724747580067;140723;144285;382808;-444095;
2024-05-04T09:22:00.037;538008724765755252;140865;144523;383003;-444093;
2024-05-04T09:22:00.055;538008724783930437;141083;144707;383221;-444148;
2024-05-04T09:22:00.073;538008724802105622;141388;145070;383330;-444102;
2024-05-04T09:22:00.092;538008724820280807;141712;145321;383476;-444058;
2024-05-04T09:22:00.110;538008724838455992;141953;145487;383570;-444119;
2024-05-04T09:22:00.128;538008724856630562;142001;145440;383412;-444177;
2024-05-04T09:22:00.146;538008724874805121;141861;145226;383144;-444381;
2024-05-04T09:22:00.164;538008724892979680;141618;144874;382707;-444672;
2024-05-04T09:22:00.182;538008724911154239;141058;144522;382135;-445012;
2024-05-04T09:22:00.201;538008724929328798;140482;143893;381508;-445434;
2024-05-04T09:22:00.219;538008724947503357;139750;143198;380690;-445919;
2024-05-04T09:22:00.237;538008724965677916;138883;142496;379886;-446530;
2024-05-04T09:22:00.255;538008724983852475;138230;141930;379228;-447025;
2024-05-04T09:22:00.273;538008725002027034;137513;141294;378498;-447499;
2024-05-04T09:22:00.291;538008725020201593;136913;140851;377878;-447814;
2024-05-04T09:22:00.310;538008725038376152;136416;140435;377427;-448064;
2024-05-04T09:22:00.328;538008725056550711;136033;140067;377127;-448270;
2024-05-04T09:22:00.346;538008725074725270;135798;139883;376944;-448361;
2024-05-04T09:22:00.364;538008725092899829;135653;139756;376771;-448390;
2024-05-04T09:22:00.382;538008725111074388;135498;139622;376644;-448454;
2024-05-04T09:22:00.401;538008725129248947;135269;139469;376520;-448466;
2024-05-04T09:22:00.419;538008725147423506;135086;139374;376464;-448347;
2024-05-04T09:22:00.437;538008725165598065;134851;139295;376326;-448333;
2024-05-04T09:22:00.455;538008725183772624;134760;139256;376242;-448288;
2024-05-04T09:22:00.473;538008725201947183;134607;139114;376019;-448256;
2024-05-04T09:22:00.491;538008725220121742;134568;139026;375845;-448295;
2024-05-04T09:22:00.510;538008725238296301;134501;138918;375668;-448290;
2024-05-04T09:22:00.528;538008725256470860;134437;138874;375523;-448253;
2024-05-04T09:22:00.546;538008725274645419;134415;138846;375474;-448203;
2024-05-04T09:22:00.564;538008725292819978;134413;138872;375502;-448108;
2024-05-04T09:22:00.582;538008725310994537;134352;138911;375474;-448024;
2024-05-04T09:22:00.600;538008725329169096;134428;138952;375484;-447955;
2024-05-04T09:22:00.619;538008725347343655;134382;138891;375426;-447959;
2024-05-04T09:22:00.637;538008725365518214;134418;139016;375400;-447830;
2024-05-04T09:22:00.655;538008725383692773;134380;139111;375424;-447689;
2024-05-04T09:22:00.673;538008725401867332;134404;139131;375359;-447666;
2024-05-04T09:22:00.691;538008725420041891;134437;139183;375334;-447625;
2024-05-04T09:22:00.709;538008725438216450;134368;139132;375147;-447631;
2024-05-04T09:22:00.728;538008725456391009;134278;139227;375111;-447617;
2024-05-04T09:22:00.746;538008725474565568;134183;139149;374928;-447604;
2024-05-04T09:22:00.764;538008725492740811;133955;139063;374709;-447744;
2024-05-04T09:22:00.782;538008725510916023;133875;138970;374665;-447770;
2024-05-04T09:22:00.800;538008725529091235;133783;138847;374652;-447847;
2024-05-04T09:22:00.819;538008725547266447;133684;138839;374660;-447856;
2024-05-04T09:22:00.837;538008725565441659;133511;138746;374599;-447913;
2024-05-04T09:22:00.855;538008725583616871;133295;138672;374340;-447992;
2024-05-04T09:22:00.873;538008725601792083;133063;138484;374101;-448067;
2024-05-04T09:22:00.891;538008725619967295;132605;138099;373675;-448261;
2024-05-04T09:22:00.909;538008725638142507;132137;137623;373107;-448407;
2024-05-04T09:22:00.928;538008725656317719;131588;137179;372453;-448653;
2024-05-04T09:22:00.946;538008725674492931;131076;136591;371716;-448886;
2024-05-04T09:22:00.964;538008725692668143;130509;136142;371120;-449161;
2024-05-04T09:22:00.982;538008725710843355;129882;135608;370420;-449476;
2024-05-04T09:22:01.000;538008725729018567;129357;135131;369817;-449687;
2024-05-04T09:22:01.018;538008725747193779;128908;134638;369183;-450045;
2024-05-04T09:22:01.037;538008725765368991;128464;134183;368578;-450219;
2024-05-04T09:22:01.055;538008725783544203;127982;133806;368046;-450398;
2024-05-04T09:22:01.073;538008725801719415;127546;133400;367577;-450601;
2024-05-04T09:22:01.091;538008725819894627;127266;133181;367233;-450733;
2024-05-04T09:22:01.109;538008725838069839;126890;132878;366816;-450870;
2024-05-04T09:22:01.127;538008725856245051;126596;132668;366398;-450973;
2024-05-04T09:22:01.146;538008725874420263;126298;132517;366233;-451013;
2024-05-04T09:22:01.164;538008725892595475;126013;132279;365885;-451075;
2024-05-04T09:22:01.182;538008725910770687;125730;132014;365529;-451197;
2024-05-04T09:22:01.200;538008725928945899;125540;131852;365326;-451179;
2024-05-04T09:22:01.218;538008725947121111;125236;131710;364994;-451313;
2024-05-04T09:22:01.237;538008725965296323;125018;131514;364796;-451330;
2024-05-04T09:22:01.255;538008725983471535;124785;131306;364511;-451412;
2024-05-04T09:22:01.273;538008726001646747;124671;131170;364291;-451471;
2024-05-04T09:22:01.291;538008726019821959;124485;131061;363999;-451505;
2024-05-04T09:22:01.309;538008726037997171;124368;130911;363878;-451517;
2024-05-04T09:22:01.327;538008726056172383;124281;130871;363749;-451478;
2024-05-04T09:22:01.346;538008726074347595;124185;130900;363719;-451382;
2024-05-04T09:22:01.364;538008726092522807;124170;130891;363790;-451335;
2024-05-04T09:22:01.382;538008726110698019;124211;131012;363775;-451306;
2024-05-04T09:22:01.400;538008726128872728;124298;131105;363807;-451164;
2024-05-04T09:22:01.418;538008726147047432;124339;131178;363941;-451048;
2024-05-04T09:22:01.436;538008726165222136;124416;131225;364003;-450990;
2024-05-04T09:22:01.455;538008726183396840;124448;131283;364030;-450940;
2024-05-04T09:22:01.473;538008726201571544;124491;131374;364128;-450891;
2024-05-04T09:22:01.491;538008726219746248;124497;131415;364132;-450835;
2024-05-04T09:22:01.509;538008726237920952;124540;131495;364147;-450784;
2024-05-04T09:22:01.527;538008726256095656;124578;131589;364162;-450750;
2024-05-04T09:22:01.546;538008726274270360;124557;131582;364186;-450723;
2024-05-04T09:22:01.564;538008726292445064;124631;131511;364124;-450771;
2024-05-04T09:22:01.582;538008726310619768;124683;131557;364152;-450778;
2024-05-04T09:22:01.600;538008726328794472;124590;131547;364110;-450800;
2024-05-04T09:22:01.618;538008726346969176;124595;131520;364155;-450761;
2024-05-04T09:22:01.636;538008726365143880;124593;131599;364191;-450729;
2024-05-04T09:22:01.655;538008726383318584;124505;131565;364067;-450771;
2024-05-04T09:22:01.673;538008726401493288;124279;131297;363814;-450863;
2024-05-04T09:22:01.691;538008726419667992;124045;131047;363561;-450836;
2024-05-04T09:22:01.709;538008726437842696;123801;130790;363257;-450848;
2024-05-04T09:22:01.727;538008726456017400;123471;130489;362951;-450848;
2024-05-04T09:22:01.745;538008726474192104;123176;130150;362616;-450819;
2024-05-04T09:22:01.764;538008726492366808;122955;129890;362299;-450806;
2024-05-04T09:22:01.782;538008726510541512;122773;129794;362060;-450814;
2024-05-04T09:22:01.800;538008726528716216;122649;129625;361851;-450729;
2024-05-04T09:22:01.818;538008726546890920;122391;129437;361608;-450660;
2024-05-04T09:22:01.836;538008726565065624;122394;129317;361481;-450602;
2024-05-04T09:22:01.854;538008726583240328;122227;129271;361291;-450560;
2024-05-04T09:22:01.873;538008726601415032;122094;129159;361102;-450472;
2024-05-04T09:22:01.891;538008726619589736;121999;128994;360878;-450557;
2024-05-04T09:22:01.909;538008726637764440;121877;128853;360736;-450564;
2024-05-04T09:22:01.927;538008726655939144;121648;128741;360550;-450608;
2024-05-04T09:22:01.945;538008726674113848;121499;128649;360356;-450595;
2024-05-04T09:22:01.964;538008726692288552;121427;128471;360161;-450514;
2024-05-04T09:22:01.982;538008726710463256;121206;128322;360079;-450598;
2024-05-04T09:22:02.000;538008726728637960;121099;128191;359834;-450619;
2024-05-04T09:22:02.018;538008726746812664;121043;128055;359752;-450560;
2024-05-04T09:22:02.036;538008726764987368;120961;127955;359618;-450504;
2024-05-04T09:22:02.054;538008726783162072;120897;127971;359476;-450506;
2024-05-04T09:22:02.073;538008726801336776;120860;127924;359394;-450396;
2024-05-04T09:22:02.091;538008726819511480;120880;127937;359429;-450306;
2024-05-04T09:22:02.109;538008726837686184;120838;127921;359334;-450272;
2024-05-04T09:22:02.127;538008726855860888;120768;127795;359231;-450225;
2024-05-04T09:22:02.145;538008726874035592;120775;127722;359138;-450279;
2024-05-04T09:22:02.163;538008726892212144;120698;127731;359074;-450301;
2024-05-04T09:22:02.182;538008726910388664;120674;127673;359040;-450242;
2024-05-04T09:22:02.200;538008726928565184;120651;127650;358979;-450288;
2024-05-04T09:22:02.218;538008726946741704;120617;127703;359013;-450302;
2024-05-04T09:22:02.236;538008726964918224;120652;127712;358950;-450257;
2024-05-04T09:22:02.254;538008726983094744;120722;127753;359013;-450216;
2024-05-04T09:22:02.273;538008727001271264;120772;127661;358992;-450228;
2024-05-04T09:22:02.291;538008727019447784;120781;127713;359009;-450207;
2024-05-04T09:22:02.309;538008727037624304;120744;127703;358964;-450197;
2024-05-04T09:22:02.327;538008727055800824;120740;127724;358952;-450183;
2024-05-04T09:22:02.345;538008727073977344;120634;127784;359010;-450157;
2024-05-04T09:22:02.363;538008727092153864;120538;127678;358898;-450159;
2024-05-04T09:22:02.382;538008727110330384;120445;127668;358845;-450108;
2024-05-04T09:22:02.400;538008727128506904;120464;127726;358856;-450068;
2024-05-04T09:22:02.418;538008727146683424;120462;127776;358812;-450033;
2024-05-04T09:22:02.436;538008727164859944;120441;127883;358862;-450011;
2024-05-04T09:22:02.454;538008727183036464;120550;127929;358978;-450004;
2024-05-04T09:22:02.472;538008727201212984;120658;127922;358936;-449959;
2024-05-04T09:22:02.491;538008727219389504;120599;128011;358879;-450021;
2024-05-04T09:22:02.509;538008727237566024;120463;127795;358705;-449975;
2024-05-04T09:22:02.527;538008727255742544;120248;127563;358497;-449973;
2024-05-04T09:22:02.545;538008727273919064;119892;127245;358145;-449999;
2024-05-04T09:22:02.563;538008727292095584;119578;126884;357767;-450047;
2024-05-04T09:22:02.582;538008727310272104;119296;126575;357495;-450060;
2024-05-04T09:22:02.600;538008727328448624;119038;126368;357179;-450066;
2024-05-04T09:22:02.618;538008727346625144;118847;126077;356803;-450031;
2024-05-04T09:22:02.636;538008727364801664;118609;125905;356515;-450066;
2024-05-04T09:22:02.654;538008727382978184;118475;125746;356279;-450041;
2024-05-04T09:22:02.672;538008727401154704;118304;125567;356040;-450018;
2024-05-04T09:22:02.691;538008727419331224;118191;125439;355828;-449983;
2024-05-04T09:22:02.709;538008727437507744;118092;125200;355600;-450035;
2024-05-04T09:22:02.727;538008727455684264;118016;125057;355414;-449965;
2024-05-04T09:22:02.745;538008727473860784;117893;125059;355310;-449999;
2024-05-04T09:22:02.763;538008727492037304;117830;125060;355332;-449962;
2024-05-04T09:22:02.781;538008727510213824;117860;125003;355231;-449958;
2024-05-04T09:22:02.800;538008727528390344;117758;124902;355111;-449939;
2024-05-04T09:22:02.818;538008727546566864;117686;124841;354979;-449859;
2024-05-04T09:22:02.836;538008727564743384;117594;124726;354825;-449805;
2024-05-04T09:22:02.854;538008727582919904;117578;124596;354650;-449764;
2024-05-04T09:22:02.872;538008727601096424;117456;124603;354572;-449748;
2024-05-04T09:22:02.891;538008727619272944;117424;124551;354459;-449696;
2024-05-04T09:22:02.909;538008727637449464;117399;124498;354347;-449693;
2024-05-04T09:22:02.927;538008727655625984;117336;124483;354293;-449651;
2024-05-04T09:22:02.945;538008727673802504;117328;124441;354217;-449605;
2024-05-04T09:22:02.963;538008727691977826;117330;124382;354095;-449627;
2024-05-04T09:22:02.981;538008727710153140;117325;124362;354065;-449635;
2024-05-04T09:22:03.000;538008727728328454;117341;124354;354041;-449649;
2024-05-04T09:22:03.018;538008727746503768;117363;124416;354024;-449639;
2024-05-04T09:22:03.036;538008727764679082;117396;124429;354030;-449622;
2024-05-04T09:22:03.054;538008727782854396;117472;124468;354093;-449583;
2024-05-04T09:22:03.072;538008727801029710;117439;124520;354133;-449557;
2024-05-04T09:22:03.090;538008727819205024;117447;124577;354140;-449579;
2024-05-04T09:22:03.109;538008727837380338;117447;124531;354101;-449610;
2024-05-04T09:22:03.127;538008727855555652;117520;124592;354096;-449631;
2024-05-04T09:22:03.145;538008727873730966;117509;124629;354100;-449627;
2024-05-04T09:22:03.163;538008727891906280;117480;124672;354111;-449630;
2024-05-04T09:22:03.181;538008727910081594;117589;124603;354146;-449611;
2024-05-04T09:22:03.200;538008727928256908;117618;124678;354142;-449647;
2024-05-04T09:22:03.218;538008727946432222;117669;124717;354072;-449605;
2024-05-04T09:22:03.236;538008727964607536;117632;124700;354138;-449644;
2024-05-04T09:22:03.254;538008727982782850;117784;124688;354203;-449579;
2024-05-04T09:22:03.272;538008728000958164;117758;124746;354188;-449590;
2024-05-04T09:22:03.290;538008728019133478;117774;124818;354281;-449600;
2024-05-04T09:22:03.309;538008728037308792;117884;124823;354323;-449592;
2024-05-04T09:22:03.327;538008728055484106;117939;124927;354371;-449528;
2024-05-04T09:22:03.345;538008728073659420;117957;124906;354420;-449518;
2024-05-04T09:22:03.363;538008728091834734;118074;124995;354521;-449536;
2024-05-04T09:22:03.381;538008728110010048;117966;124876;354443;-449557;
2024-05-04T09:22:03.399;538008728128185362;117734;124676;354188;-449557;
2024-05-04T09:22:03.418;538008728146360676;117519;124340;353895;-449561;
2024-05-04T09:22:03.436;538008728164535990;117248;124023;353570;-449589;
2024-05-04T09:22:03.454;538008728182711304;116799;123651;353172;-449664;
2024-05-04T09:22:03.472;538008728200886618;116499;123256;352675;-449618;
2024-05-04T09:22:03.490;538008728219061932;116213;122922;352298;-449601;
2024-05-04T09:22:03.508;538008728237237246;115954;122697;352023;-449642;
2024-05-04T09:22:03.527;538008728255412560;115715;122441;351693;-449675;
2024-05-04T09:22:03.545;538008728273587874;115538;122240;351443;-449668;
2024-05-04T09:22:03.563;538008728291763188;115333;121928;351189;-449693;
2024-05-04T09:22:03.581;538008728309938502;115168;121816;350899;-449728;
2024-05-04T09:22:03.599;538008728328113816;115026;121633;350678;-449690;
2024-05-04T09:22:03.618;538008728346289130;114919;121497;350483;-449736;
2024-05-04T09:22:03.636;538008728364464444;114871;121411;350410;-449723;
2024-05-04T09:22:03.654;538008728382639758;114847;121367;350307;-449743;
2024-05-04T09:22:03.672;538008728400815072;114647;121222;350132;-449746;
2024-05-04T09:22:03.690;538008728418990386;114559;121031;350040;-449694;
2024-05-04T09:22:03.708;538008728437165700;114508;120946;349938;-449663;
2024-05-04T09:22:03.727;538008728455341014;114288;120730;349671;-449700;
2024-05-04T09:22:03.745;538008728473515581;114189;120653;349453;-449751;
2024-05-04T09:22:03.763;538008728491690140;114103;120482;349355;-449809;
2024-05-04T09:22:03.781;538008728509864699;113971;120377;349208;-449816;
2024-05-04T09:22:03.799;538008728528039258;113854;120265;349077;-449884;
2024-05-04T09:22:03.817;538008728546213817;113818;120232;348980;-449845;
2024-05-04T09:22:03.836;538008728564388376;113751;120145;348917;-449844;
2024-05-04T09:22:03.854;538008728582562935;113670;120059;348743;-449872;
2024-05-04T09:22:03.872;538008728600737494;113672;120042;348747;-449868;
2024-05-04T09:22:03.890;538008728618912053;113702;120052;348776;-449833;
2024-05-04T09:22:03.908;538008728637086612;113714;120078;348694;-449835;
2024-05-04T09:22:03.927;538008728655261171;113747;120137;348718;-449825;
2024-05-04T09:22:03.945;538008728673435730;113723;120054;348704;-449848;
2024-05-04T09:22:03.963;538008728691610289;113729;120107;348712;-449827;
2024-05-04T09:22:03.981;538008728709784848;113728;120127;348772;-449756;
2024-05-04T09:22:03.999;538008728727959407;113796;120197;348827;-449770;
2024-05-04T09:22:04.017;538008728746133966;113858;120260;348867;-449789;
2024-05-04T09:22:04.036;538008728764308525;113962;120285;348922;-449805;
2024-05-04T09:22:04.054;538008728782483084;114040;120395;349060;-449770;
2024-05-04T09:22:04.072;538008728800657643;114046;120419;349070;-449810;
2024-05-04T09:22:04.090;538008728818832202;114106;120420;349134;-449748;
2024-05-04T09:22:04.108;538008728837006761;114156;120467;349228;-449708;
2024-05-04T09:22:04.126;538008728855181320;114274;120595;349249;-449713;
2024-05-04T09:22:04.145;538008728873355879;114305;120625;349299;-449669;
2024-05-04T09:22:04.163;538008728891530438;114358;120789;349369;-449689;
2024-05-04T09:22:04.181;538008728909704997;114451;120792;349441;-449600;
2024-05-04T09:22:04.199;538008728927879556;114475;120845;349477;-449617;
2024-05-04T09:22:04.217;538008728946054115;114616;120927;349567;-449661;
2024-05-04T09:22:04.235;538008728964228674;114610;121018;349658;-449770;
2024-05-04T09:22:04.254;538008728982403233;114738;121113;349769;-449651;
2024-05-04T09:22:04.272;538008729000577792;114800;121130;349861;-449634;
2024-05-04T09:22:04.290;538008729018752351;114748;121018;349750;-449635;
2024-05-04T09:22:04.308;538008729036926910;114476;120791;349550;-449623;
2024-05-04T09:22:04.326;538008729055101469;114230;120544;349311;-449649;
2024-05-04T09:22:04.345;538008729073276028;113940;120249;348952;-449641;
2024-05-04T09:22:04.363;538008729091450587;113623;119940;348653;-449697;
2024-05-04T09:22:04.381;538008729109625146;113258;119636;348286;-449702;
2024-05-04T09:22:04.399;538008729127799705;113026;119341;348021;-449758;
2024-05-04T09:22:04.417;538008729145974264;112814;119143;347629;-449776;
2024-05-04T09:22:04.435;538008729164148823;112608;118943;347456;-449652;
2024-05-04T09:22:04.454;538008729182323382;112567;118775;347300;-449696;
2024-05-04T09:22:04.472;538008729200497941;112370;118663;347139;-449710;
2024-05-04T09:22:04.490;538008729218672500;112293;118574;347014;-449695;
2024-05-04T09:22:04.508;538008729236846489;112235;118534;346918;-449730;
2024-05-04T09:22:04.526;538008729255020466;112170;118474;346900;-449737;
2024-05-04T09:22:04.544;538008729273194443;112128;118368;346790;-449795;
2024-05-04T09:22:04.563;538008729291368420;112088;118402;346761;-449720;
2024-05-04T09:22:04.581;538008729309542397;112058;118331;346604;-449796;
2024-05-04T09:22:04.599;538008729327716374;111994;118271;346520;-449834;
2024-05-04T09:22:04.617;538008729345890351;111978;118194;346410;-449807;
2024-05-04T09:22:04.635;538008729364064328;111888;117985;346215;-449831;
2024-05-04T09:22:04.653;538008729382238305;111706;117836;346142;-449941;
2024-05-04T09:22:04.672;538008729400412282;111603;117719;345960;-449943;
2024-05-04T09:22:04.690;538008729418586259;111523;117614;345808;-449977;
2024-05-04T09:22:04.708;538008729436760236;111446;117483;345695;-449995;
2024-05-04T09:22:04.726;538008729454934213;111344;117403;345632;-450050;
2024-05-04T09:22:04.744;538008729473108190;111323;117377;345649;-450077;
2024-05-04T09:22:04.763;538008729491282167;111266;117308;345508;-450140;
2024-05-04T09:22:04.781;538008729509456144;111238;117202;345421;-450226;
2024-05-04T09:22:04.799;538008729527630121;111287;117186;345331;-450308;
2024-05-04T09:22:04.817;538008729545804098;111206;117074;345232;-450414;
2024-05-04T09:22:04.835;538008729563978075;111157;116970;345261;-450387;
2024-05-04T09:22:04.853;538008729582152052;111142;116940;345301;-450474;
2024-05-04T09:22:04.872;538008729600326029;111153;116988;345390;-450472;
2024-05-04T09:22:04.890;538008729618500006;111267;117035;345422;-450460;
2024-05-04T09:22:04.908;538008729636673983;111336;117029;345416;-450492;
2024-05-04T09:22:04.926;538008729654847960;111484;117117;345577;-450456;
2024-05-04T09:22:04.944;538008729673021937;111607;117294;345660;-450449;
2024-05-04T09:22:04.962;538008729691195914;111735;117343;345822;-450346;
2024-05-04T09:22:04.981;538008729709369891;111852;117449;345971;-450367;
2024-05-04T09:22:04.999;538008729727543868;112024;117592;346065;-450327;
2024-05-04T09:22:05.017;538008729745717845;112242;117687;346255;-450304;
2024-05-04T09:22:05.035;538008729763891822;112426;117856;346397;-450239;
2024-05-04T09:22:05.053;538008729782065799;112590;117920;346534;-450232;
2024-05-04T09:22:05.071;538008729800239776;112757;117980;346633;-450197;
2024-05-04T09:22:05.090;538008729818413753;112910;118052;346728;-450139;
2024-05-04T09:22:05.108;538008729836587730;113069;118078;346841;-450160;
2024-05-04T09:22:05.126;538008729854761707;113218;118127;346969;-450155;
2024-05-04T09:22:05.144;538008729872935684;113246;118198;346932;-450157;
2024-05-04T09:22:05.162;538008729891109661;113383;118175;347018;-450239;
2024-05-04T09:22:05.181;538008729909283638;113249;117966;346939;-450221;
2024-05-04T09:22:05.199;538008729927457615;113006;117724;346774;-450270;
2024-05-04T09:22:05.217;538008729945631592;112725;117509;346501;-450228;
2024-05-04T09:22:05.235;538008729963805569;112494;117242;346182;-450143;
2024-05-04T09:22:05.253;538008729981979546;112224;116959;346006;-450120;
2024-05-04T09:22:05.271;538008730000155414;112012;116725;345711;-450145;
2024-05-04T09:22:05.290;538008730018331256;111864;116511;345535;-450118;
2024-05-04T09:22:05.308;538008730036507098;111776;116372;345311;-450103;
2024-05-04T09:22:05.326;538008730054682940;111618;116278;345131;-450114;
2024-05-04T09:22:05.344;538008730072858782;111573;116201;345058;-450064;
2024-05-04T09:22:05.362;538008730091034624;111635;116123;344978;-450085;
2024-05-04T09:22:05.380;538008730109210466;111574;116068;344939;-450139;
2024-05-04T09:22:05.399;538008730127386308;111484;116051;344879;-450171;
2024-05-04T09:22:05.417;538008730145562150;111514;116035;344803;-450300;
2024-05-04T09:22:05.435;538008730163737992;111541;115909;344802;-450418;
2024-05-04T09:22:05.453;538008730181913834;111530;115694;344656;-450450;
2024-05-04T09:22:05.471;538008730200089676;111538;115681;344655;-450445;
2024-05-04T09:22:05.490;538008730218265518;111661;115645;344646;-450491;
2024-05-04T09:22:05.508;538008730236441360;111653;115619;344597;-450457;
2024-05-04T09:22:05.526;538008730254617202;111585;115537;344545;-450522;
2024-05-04T09:22:05.544;538008730272793044;111532;115526;344495;-450461;
2024-05-04T09:22:05.562;538008730290968886;111439;115615;344589;-450483;
2024-05-04T09:22:05.580;538008730309144728;111637;115666;344767;-450313;
2024-05-04T09:22:05.599;538008730327320570;112004;115852;344913;-450065;
2024-05-04T09:22:05.617;538008730345496412;112452;116178;345097;-449771;
2024-05-04T09:22:05.635;538008730363672254;113056;116519;345501;-449364;
2024-05-04T09:22:05.653;538008730381848096;113739;116938;345983;-448765;
2024-05-04T09:22:05.671;538008730400023938;114399;117414;346540;-448056;
2024-05-04T09:22:05.689;538008730418199780;115160;117860;347209;-447367;
2024-05-04T09:22:05.708;538008730436375622;115721;118148;347744;-446730;
2024-05-04T09:22:05.726;538008730454551464;116186;118192;348107;-446268;
2024-05-04T09:22:05.744;538008730472727306;116753;118340;348639;-445678;
2024-05-04T09:22:05.762;538008730490903148;117350;118434;349044;-445211;
2024-05-04T09:22:05.780;538008730509078990;117795;118613;349316;-444745;
2024-05-04T09:22:05.799;538008730527254832;118362;118908;349526;-444285;
2024-05-04T09:22:05.817;538008730545430674;118943;119041;349800;-443933;
2024-05-04T09:22:05.835;538008730563606516;119413;119379;350116;-443664;
2024-05-04T09:22:05.853;538008730581782358;119868;119664;350501;-443539;
2024-05-04T09:22:05.871;538008730599958200;119975;119733;350888;-443684;
2024-05-04T09:22:05.889;538008730618134042;119950;119553;351087;-444131;
2024-05-04T09:22:05.908;538008730636309884;119543;119010;351078;-444861;
2024-05-04T09:22:05.926;538008730654482525;119167;118401;351047;-445569;
2024-05-04T09:22:05.944;538008730672655146;118925;117946;351271;-446147;
2024-05-04T09:22:05.962;538008730690827767;119004;117744;351423;-446712;
2024-05-04T09:22:05.980;538008730709000388;119308;117745;351671;-447222;
2024-05-04T09:22:05.998;538008730727173009;119975;117973;352055;-447598;
2024-05-04T09:22:06.017;538008730745345630;120428;117707;352399;-448058;
2024-05-04T09:22:06.035;538008730763518251;120317;117017;352594;-448550;
2024-05-04T09:22:06.053;538008730781690872;119947;116002;352450;-449013;
2024-05-04T09:22:06.071;538008730799863493;119370;114684;352267;-449268;
2024-05-04T09:22:06.089;538008730818036114;118487;112824;352099;-449131;
2024-05-04T09:22:06.107;538008730836208735;115974;106835;351359;-448712;
2024-05-04T09:22:06.126;538008730854381356;124387;92590;344839;-447732;
2024-05-04T09:22:06.144;538008730872553977;132963;72434;357736;-446046;
2024-05-04T09:22:06.162;538008730890726598;122503;74515;384056;-444061;
2024-05-04T09:22:06.180;538008730908899219;108148;96028;409749;-442004;
2024-05-04T09:22:06.198;538008730927071840;106661;111660;427196;-440228;
2024-05-04T09:22:06.216;538008730945244461;95405;121644;430466;-439047;
2024-05-04T09:22:06.235;538008730963417082;75082;130918;428834;-438334;
2024-05-04T09:22:06.253;538008730981589703;59780;136151;415047;-437852;
2024-05-04T09:22:06.271;538008730999762324;50438;137745;407373;-437471;
2024-05-04T09:22:06.289;538008731017934945;47994;139113;405743;-437239;
2024-05-04T09:22:06.307;538008731036107566;48891;140029;407096;-437117;
2024-05-04T09:22:06.326;538008731054280187;51182;139631;409380;-437215;
2024-05-04T09:22:06.344;538008731072452808;53828;138037;411198;-437657;
2024-05-04T09:22:06.362;538008731090625429;56159;135945;411874;-438306;
2024-05-04T09:22:06.380;538008731108798050;58381;133360;411704;-439079;
2024-05-04T09:22:06.398;538008731126970671;60382;130215;410844;-440010;
2024-05-04T09:22:06.416;538008731145143448;61895;127117;409332;-441124;
2024-05-04T09:22:06.435;538008731163316212;62968;124099;407061;-442115;
2024-05-04T09:22:06.453;538008731181488976;63651;121236;403551;-442982;
2024-05-04T09:22:06.471;538008731199661740;64815;118443;398968;-443497;
2024-05-04T09:22:06.489;538008731217834504;67366;115685;397710;-443648;
2024-05-04T09:22:06.507;538008731236007268;71462;112151;399996;-443467;
2024-05-04T09:22:06.525;538008731254180032;80276;105813;402597;-442951;
2024-05-04T09:22:06.544;538008731272352796;91633;98495;402283;-442312;
2024-05-04T09:22:06.562;538008731290525560;102584;91968;398952;-441595;
2024-05-04T09:22:06.580;538008731308698324;111312;86725;393800;-440850;
2024-05-04T09:22:06.598;538008731326871088;117588;82664;388629;-440037;
2024-05-04T09:22:06.616;538008731345043852;122093;79644;384189;-439404;
2024-05-04T09:22:06.634;538008731363216616;124932;78677;382664;-438930;
2024-05-04T09:22:06.653;538008731381389380;127303;79748;383531;-438448;
2024-05-04T09:22:06.671;538008731399562144;128708;80613;384107;-438106;
2024-05-04T09:22:06.689;538008731417734908;129599;81083;384261;-438148;
2024-05-04T09:22:06.707;538008731435907672;130420;81680;384495;-438375;
2024-05-04T09:22:06.725;538008731454080436;131240;82459;385122;-438556;
2024-05-04T09:22:06.744;538008731472253200;132274;83398;385904;-438619;
2024-05-04T09:22:06.762;538008731490425964;133460;84640;386600;-438631;
2024-05-04T09:22:06.780;538008731508598728;134558;85963;387409;-438592;
2024-05-04T09:22:06.798;538008731526771492;135621;87065;387992;-438503;
2024-05-04T09:22:06.816;538008731544944256;136613;88088;388641;-438363;
2024-05-04T09:22:06.834;538008731563117020;137328;88780;389214;-438234;
2024-05-04T09:22:06.853;538008731581289784;138145;89595;389018;-437980;
2024-05-04T09:22:06.871;538008731599462548;141570;91037;387382;-437452;
2024-05-04T09:22:06.889;538008731617636785;152527;90581;381615;-436692;
2024-05-04T09:22:06.907;538008731635811017;166185;89107;373174;-435989;
2024-05-04T09:22:06.925;538008731653985249;179859;87553;364384;-435269;
2024-05-04T09:22:06.943;538008731672159481;191555;85951;356995;-434749;
2024-05-04T09:22:06.962;538008731690333713;197472;85799;353837;-434661;
2024-05-04T09:22:06.980;538008731708507945;199967;85769;352226;-434932;
2024-05-04T09:22:06.998;538008731726682177;201324;85265;350361;-435705;
2024-05-04T09:22:07.016;538008731744856409;202944;84234;346244;-436575;
2024-05-04T09:22:07.034;538008731763030641;205691;82862;340577;-437521;
2024-05-04T09:22:07.052;538008731781204873;209914;80837;332577;-438773;
2024-05-04T09:22:07.071;538008731799379105;216120;78530;322350;-439964;
2024-05-04T09:22:07.089;538008731817553337;221805;76300;312440;-441183;
2024-05-04T09:22:07.107;538008731835727569;226085;75256;304630;-442272;
2024-05-04T09:22:07.125;538008731853901801;228555;75717;300429;-443039;
2024-05-04T09:22:07.143;538008731872076033;229879;77225;299442;-443621;
2024-05-04T09:22:07.162;538008731890250265;231285;79002;300872;-443925;
2024-05-04T09:22:07.180;538008731908424497;232990;80649;303279;-444199;
2024-05-04T09:22:07.198;538008731926598729;235269;82333;306523;-444245;
2024-05-04T09:22:07.216;538008731944772961;237897;83052;309961;-444422;
2024-05-04T09:22:07.234;538008731962947193;240399;82554;313564;-444931;
2024-05-04T09:22:07.252;538008731981121425;242752;81013;317090;-445631;
2024-05-04T09:22:07.271;538008731999295657;244296;78617;319963;-446714;
2024-05-04T09:22:07.289;538008732017469889;244849;76102;321543;-447871;
2024-05-04T09:22:07.307;538008732035644121;245099;74193;322099;-448923;
2024-05-04T09:22:07.325;538008732053818353;245803;73829;322688;-449452;
2024-05-04T09:22:07.343;538008732071992585;247438;75965;324583;-449160;
2024-05-04T09:22:07.361;538008732090166553;249754;79176;326681;-448094;
2024-05-04T09:22:07.380;538008732108340498;251988;81799;328718;-446696;
2024-05-04T09:22:07.398;538008732126514443;254147;84190;330928;-444946;
2024-05-04T09:22:07.416;538008732144688388;256093;86412;333209;-443281;
2024-05-04T09:22:07.434;538008732162862333;257723;87992;335423;-442044;
2024-05-04T09:22:07.452;538008732181036278;258877;88863;337305;-441366;
2024-05-04T09:22:07.470;538008732199210223;259433;89187;338652;-441197;
2024-05-04T09:22:07.489;538008732217384168;259329;88841;338916;-441689;
2024-05-04T09:22:07.507;538008732235558113;258825;88172;338145;-442505;
2024-05-04T09:22:07.525;538008732253732058;258200;87294;337124;-443365;
2024-05-04T09:22:07.543;538008732271906003;257722;86500;336268;-444274;
2024-05-04T09:22:07.561;538008732290079948;257508;85949;336127;-444910;
2024-05-04T09:22:07.580;538008732308253893;257613;85592;336464;-445232;
2024-05-04T09:22:07.598;538008732326427838;257886;85657;336751;-445342;
2024-05-04T09:22:07.616;538008732344601783;258278;85992;337081;-445087;
2024-05-04T09:22:07.634;538008732362775728;258817;86603;337570;-444613;
2024-05-04T09:22:07.652;538008732380949673;259619;87330;338455;-444048;
2024-05-04T09:22:07.670;538008732399123618;260376;88049;339577;-443479;
2024-05-04T09:22:07.689;538008732417297563;261016;88515;340502;-442982;
2024-05-04T09:22:07.707;538008732435471508;261200;88674;340920;-442819;
2024-05-04T09:22:07.725;538008732453645453;261158;88617;340998;-442862;
2024-05-04T09:22:07.743;538008732471819398;260916;88291;340818;-443064;
2024-05-04T09:22:07.761;538008732489993343;260564;87902;340453;-443433;
2024-05-04T09:22:07.779;538008732508167288;260367;87530;340182;-443776;
2024-05-04T09:22:07.798;538008732526341233;260176;87216;339742;-444038;
2024-05-04T09:22:07.816;538008732544515178;259910;86985;339466;-444293;
2024-05-04T09:22:07.834;538008732562689123;259949;86868;339381;-444380;
2024-05-04T09:22:07.852;538008732580863068;260028;86968;339665;-444426;
2024-05-04T09:22:07.870;538008732599037013;260429;87184;339968;-444229;
2024-05-04T09:22:07.888;538008732617210958;260837;87395;340404;-443983;
2024-05-04T09:22:07.907;538008732635384903;261228;87733;340970;-443816;
2024-05-04T09:22:07.925;538008732653558848;261556;87982;341429;-443567;
2024-05-04T09:22:07.943;538008732671734648;261937;88208;341874;-443420;
2024-05-04T09:22:07.961;538008732689910442;262133;88252;342234;-443337;
2024-05-04T09:22:07.979;538008732708086236;262274;88224;342411;-443411;
2024-05-04T09:22:07.998;538008732726262030;262291;88219;342488;-443461;
2024-05-04T09:22:08.016;538008732744437824;262318;88063;342464;-443606;
2024-05-04T09:22:08.034;538008732762613618;262355;87897;342501;-443784;
2024-05-04T09:22:08.052;538008732780789412;262400;87834;342681;-443745;
2024-05-04T09:22:08.070;538008732798965206;262569;87852;342827;-443816;
2024-05-04T09:22:08.088;538008732817141000;262777;87831;343053;-443781;
2024-05-04T09:22:08.107;538008732835316794;262978;87993;343275;-443656;
2024-05-04T09:22:08.125;538008732853492588;263226;88084;343616;-443585;
2024-05-04T09:22:08.143;538008732871668382;263497;88191;343860;-443502;
2024-05-04T09:22:08.161;538008732889844176;263684;88231;343959;-443441;
2024-05-04T09:22:08.179;538008732908019970;263834;88389;344172;-443459;
2024-05-04T09:22:08.197;538008732926195764;263947;88266;344347;-443547;
2024-05-04T09:22:08.216;538008732944371558;264121;88366;344470;-443525;
2024-05-04T09:22:08.234;538008732962547352;264239;88328;344529;-443553;
2024-05-04T09:22:08.252;538008732980723146;264358;88391;344668;-443612;
2024-05-04T09:22:08.270;538008732998898940;264510;88391;344782;-443584;
2024-05-04T09:22:08.288;538008733017074734;264675;88471;344870;-443595;
2024-05-04T09:22:08.307;538008733035250528;264814;88499;345041;-443612;
2024-05-04T09:22:08.325;538008733053426322;264968;88613;345236;-443549;
2024-05-04T09:22:08.343;538008733071602116;265198;88673;345338;-443583;
2024-05-04T09:22:08.361;538008733089777910;265365;88774;345517;-443535;
2024-05-04T09:22:08.379;538008733107953704;265483;88855;345680;-443459;
2024-05-04T09:22:08.397;538008733126129498;265657;88882;345786;-443496;
2024-05-04T09:22:08.416;538008733144305292;265754;88913;345949;-443577;
2024-05-04T09:22:08.434;538008733162481086;265923;88947;346064;-443633;
2024-05-04T09:22:08.452;538008733180656880;265968;88946;346148;-443669;
2024-05-04T09:22:08.470;538008733198832674;265956;88874;346179;-443720;
2024-05-04T09:22:08.488;538008733217008468;265841;88746;346136;-443703;
2024-05-04T09:22:08.506;538008733235184262;265811;88603;346012;-443641;
2024-05-04T09:22:08.525;538008733253360056;265796;88455;345923;-443643;
2024-05-04T09:22:08.543;538008733271535850;265752;88415;345874;-443705;
2024-05-04T09:22:08.561;538008733289711644;265763;88267;345867;-443640;
2024-05-04T09:22:08.579;538008733307887438;265808;88240;345925;-443701;
2024-05-04T09:22:08.597;538008733326063232;265881;88185;346042;-443634;
2024-05-04T09:22:08.615;538008733344239026;265999;88069;345979;-443692;
2024-05-04T09:22:08.634;538008733362414820;266065;88066;346071;-443690;
2024-05-04T09:22:08.652;538008733380590614;266135;88033;346086;-443739;
2024-05-04T09:22:08.670;538008733398766408;266297;87984;346208;-443714;
2024-05-04T09:22:08.688;538008733416942202;266338;88051;346278;-443767;
2024-05-04T09:22:08.706;538008733435117357;266514;88181;346423;-443713;
2024-05-04T09:22:08.725;538008733453292497;266601;88094;346506;-443730;
2024-05-04T09:22:08.743;538008733471467637;266735;88073;346585;-443709;
2024-05-04T09:22:08.761;538008733489642777;266847;88051;346713;-443766;
2024-05-04T09:22:08.779;538008733507817917;266966;88052;346705;-443767;
2024-05-04T09:22:08.797;538008733525993057;267019;88091;346705;-443749;
2024-05-04T09:22:08.815;538008733544168197;267047;88137;346771;-443732;
2024-05-04T09:22:08.834;538008733562343337;267138;88087;346901;-443717;
2024-05-04T09:22:08.852;538008733580518477;267279;88151;346972;-443659;
2024-05-04T09:22:08.870;538008733598693617;267252;88080;347057;-443728;
2024-05-04T09:22:08.888;538008733616868757;267405;88139;347168;-443685;
2024-05-04T09:22:08.906;538008733635043897;267544;88181;347236;-443693;
2024-05-04T09:22:08.924;538008733653219037;267652;88234;347369;-443720;
2024-05-04T09:22:08.943;538008733671394177;267761;88183;347500;-443699;
2024-05-04T09:22:08.961;538008733689569317;267915;88214;347629;-443686;
2024-05-04T09:22:08.979;538008733707744457;268042;88240;347741;-443745;
2024-05-04T09:22:08.997;538008733725919597;268226;88323;347790;-443745;
2024-05-04T09:22:09.015;538008733744094737;268324;88429;347966;-443744;
2024-05-04T09:22:09.034;538008733762269877;268487;88457;348160;-443684;
2024-05-04T09:22:09.052;538008733780445017;268653;88478;348284;-443704;
2024-05-04T09:22:09.070;538008733798620157;268735;88569;348372;-443722;
2024-05-04T09:22:09.088;538008733816795297;268923;88556;348441;-443716;
2024-05-04T09:22:09.106;538008733834970437;268999;88676;348638;-443677;
2024-05-04T09:22:09.124;538008733853145577;269073;88699;348804;-443701;
2024-05-04T09:22:09.143;538008733871320717;269218;88695;348849;-443623;
2024-05-04T09:22:09.161;538008733889495857;269323;88744;348970;-443681;
2024-05-04T09:22:09.179;538008733907670997;269458;88740;349014;-443701;
2024-05-04T09:22:09.197;538008733925846137;269440;88694;349082;-443747;
2024-05-04T09:22:09.215;538008733944021277;269310;88554;349000;-443833;
2024-05-04T09:22:09.233;538008733962196417;269322;88418;348945;-443790;
2024-05-04T09:22:09.252;538008733980371557;269207;88253;348871;-443782;
2024-05-04T09:22:09.270;538008733998546697;269206;88067;348814;-443715;
2024-05-04T09:22:09.288;538008734016721837;269105;87885;348646;-443748;
2024-05-04T09:22:09.306;538008734034896977;269025;87740;348515;-443794;
2024-05-04T09:22:09.324;538008734053072117;268992;87592;348434;-443785;
2024-05-04T09:22:09.342;538008734071247257;269024;87560;348385;-443758;
2024-05-04T09:22:09.361;538008734089422397;269066;87500;348426;-443766;
2024-05-04T09:22:09.379;538008734107597537;269046;87375;348368;-443838;
2024-05-04T09:22:09.397;538008734125772677;269109;87345;348322;-443877;
2024-05-04T09:22:09.415;538008734143947817;269185;87316;348413;-443821;
2024-05-04T09:22:09.433;538008734162122957;269378;87327;348457;-443832;
2024-05-04T09:22:09.452;538008734180298097;269411;87257;348527;-443791;
2024-05-04T09:22:09.470;538008734198471566;269541;87301;348586;-443806;
2024-05-04T09:22:09.488;538008734216645035;269516;87236;348632;-443820;
2024-05-04T09:22:09.506;538008734234818504;269598;87173;348612;-443820;
2024-05-04T09:22:09.524;538008734252991973;269584;87113;348635;-443845;
2024-05-04T09:22:09.542;538008734271165442;269613;87044;348603;-443851;
2024-05-04T09:22:09.561;538008734289338911;269677;86976;348628;-443892;
2024-05-04T09:22:09.579;538008734307512380;269729;86953;348669;-443827;
2024-05-04T09:22:09.597;538008734325685849;269767;86945;348741;-443852;
2024-05-04T09:22:09.615;538008734343859318;269866;86930;348753;-443823;
2024-05-04T09:22:09.633;538008734362032787;269963;86960;348856;-443842;
2024-05-04T09:22:09.651;538008734380206256;270051;86936;348924;-443839;
2024-05-04T09:22:09.670;538008734398379725;270172;86973;349003;-443859;
2024-05-04T09:22:09.688;538008734416553194;270275;86930;349058;-443857;
2024-05-04T09:22:09.706;538008734434726663;270358;86933;349104;-443892;
2024-05-04T09:22:09.724;538008734452900132;270484;86948;349210;-443863;
2024-05-04T09:22:09.742;538008734471073601;270514;86930;349263;-443877;
2024-05-04T09:22:09.760;538008734489247070;270557;86996;349420;-443918;
2024-05-04T09:22:09.779;538008734507420539;270703;86922;349517;-443939;
2024-05-04T09:22:09.797;538008734525594008;270798;86976;349612;-443912;
2024-05-04T09:22:09.815;538008734543767477;270801;86910;349692;-443943;
2024-05-04T09:22:09.833;538008734561940946;270808;86868;349726;-444037;
2024-05-04T09:22:09.851;538008734580114415;270819;86797;349798;-444038;
2024-05-04T09:22:09.870;538008734598287884;270943;86787;349832;-444072;
2024-05-04T09:22:09.888;538008734616461353;271003;86782;349830;-444165;
2024-05-04T09:22:09.906;538008734634634822;271003;86820;349826;-444163;
2024-05-04T09:22:09.924;538008734652808291;270990;86739;349764;-444179;
2024-05-04T09:22:09.942;538008734670981760;270989;86794;349611;-444146;
2024-05-04T09:22:09.960;538008734689155229;271004;86832;349544;-444109;
2024-05-04T09:22:09.979;538008734707328698;270935;86687;349333;-444040;
2024-05-04T09:22:09.997;538008734725502167;270744;86663;349075;-443953;
2024-05-04T09:22:10.015;538008734743675636;270621;86425;348792;-443930;
2024-05-04T09:22:10.033;538008734761849105;270343;86256;348438;-443954;
2024-05-04T09:22:10.051;538008734780022574;270181;86090;348123;-443884;
2024-05-04T09:22:10.069;538008734798196043;270017;85869;347896;-443866;
2024-05-04T09:22:10.088;538008734816369512;269972;85824;347757;-443832;
2024-05-04T09:22:10.106;538008734834542981;269815;85577;347559;-443836;
2024-05-04T09:22:10.124;538008734852716450;269730;85493;347381;-443819;
2024-05-04T09:22:10.142;538008734870889919;269711;85327;347219;-443829;
2024-05-04T09:22:10.160;538008734889063388;269583;85268;347104;-443824;
2024-05-04T09:22:10.178;538008734907236857;269650;85238;347054;-443720;
2024-05-04T09:22:10.197;538008734925410326;269627;85259;346892;-443666;
2024-05-04T09:22:10.215;538008734943583795;269687;85217;346942;-443576;
2024-05-04T09:22:10.233;538008734961757264;269856;85336;347025;-443343;
2024-05-04T09:22:10.251;538008734979930733;269885;85541;347137;-443085;
2024-05-04T09:22:10.269;538008734998104202;270060;85747;347368;-442821;
2024-05-04T09:22:10.288;538008735016277671;270219;86019;347708;-442512;
2024-05-04T09:22:10.306;538008735034451140;270313;86000;348126;-442311;
2024-05-04T09:22:10.324;538008735052624609;270417;85915;348454;-442257;
2024-05-04T09:22:10.342;538008735070798078;270335;85596;348897;-442406;
2024-05-04T09:22:10.360;538008735088971547;270137;85125;349079;-442727;
2024-05-04T09:22:10.378;538008735107145016;269855;84455;349326;-443297;
2024-05-04T09:22:10.397;538008735125318485;269371;83614;349495;-443938;
2024-05-04T09:22:10.415;538008735143491954;268755;82844;349457;-444660;
2024-05-04T09:22:10.433;538008735161665423;268110;82095;349388;-445372;
2024-05-04T09:22:10.451;538008735179838892;267490;81411;349274;-445997;
2024-05-04T09:22:10.469;538008735198012361;266764;80754;349265;-446541;
2024-05-04T09:22:10.487;538008735216185830;266278;80200;349198;-446917;
2024-05-04T09:22:10.506;538008735234359299;265904;79796;349293;-447241;
2024-05-04T09:22:10.524;538008735252532768;265652;79448;349371;-447353;
2024-05-04T09:22:10.542;538008735270706237;265514;79335;349585;-447281;
2024-05-04T09:22:10.560;538008735288879706;265400;79331;349818;-447220;
2024-05-04T09:22:10.578;538008735307053175;265357;79246;350020;-447042;
2024-05-04T09:22:10.596;538008735325226644;265477;79141;349433;-446775;
2024-05-04T09:22:10.615;538008735343400113;265564;79144;347475;-446283;
2024-05-04T09:22:10.633;538008735361573582;265826;80021;345237;-445387;
2024-05-04T09:22:10.651;538008735379747051;266373;81693;343767;-444319;
2024-05-04T09:22:10.669;538008735397920520;267143;83699;343081;-442972;
2024-05-04T09:22:10.687;538008735416093989;268164;86092;343123;-441540;
2024-05-04T09:22:10.706;538008735434267458;269429;88764;343801;-439960;
2024-05-04T09:22:10.724;538008735452440927;270924;90910;344861;-438413;
2024-05-04T09:22:10.742;538008735470614396;272274;92226;345989;-437257;
2024-05-04T09:22:10.760;538008735488787865;273234;93110;347002;-436624;
2024-05-04T09:22:10.778;538008735506962810;273632;93309;348062;-436695;
2024-05-04T09:22:10.796;538008735525137750;273463;92941;348634;-437340;
2024-05-04T09:22:10.815;538008735543312690;272778;91772;348642;-438522;
2024-05-04T09:22:10.833;538008735561487630;271692;89638;348386;-440251;
2024-05-04T09:22:10.851;538008735579662570;270537;86683;347719;-442367;
2024-05-04T09:22:10.869;538008735597837510;269433;83612;347139;-444407;
2024-05-04T09:22:10.887;538008735616012450;268568;80931;347280;-446170;
2024-05-04T09:22:10.905;538008735634187390;267734;78984;347646;-447478;
2024-05-04T09:22:10.924;538008735652362330;267176;77740;348257;-448211;
2024-05-04T09:22:10.942;538008735670537270;266864;76870;348928;-448394;
2024-05-04T09:22:10.960;538008735688712210;266721;76386;349833;-448122;
2024-05-04T09:22:10.978;538008735706887150;266677;76168;350820;-447744;
2024-05-04T09:22:10.996;538008735725062090;266388;75856;351563;-447382;
2024-05-04T09:22:11.014;538008735743237030;266102;75614;351950;-447215;
2024-05-04T09:22:11.033;538008735761411970;265588;75092;351839;-447240;
2024-05-04T09:22:11.051;538008735779586910;264948;74145;351363;-447603;
2024-05-04T09:22:11.069;538008735797761850;264157;73050;350651;-448160;
2024-05-04T09:22:11.087;538008735815936790;263351;72131;349758;-448801;
2024-05-04T09:22:11.105;538008735834111730;262720;71328;348833;-449248;
2024-05-04T09:22:11.124;538008735852286670;262443;70685;347701;-449388;
2024-05-04T09:22:11.142;538008735870461610;262448;70389;346574;-449350;
2024-05-04T09:22:11.160;538008735888636550;262596;70635;346204;-449003;
2024-05-04T09:22:11.178;538008735906811490;262759;70923;346382;-448536;
2024-05-04T09:22:11.196;538008735924986430;262731;71097;346397;-448244;
2024-05-04T09:22:11.214;538008735943161370;262708;70972;345820;-447975;
2024-05-04T09:22:11.233;538008735961336310;262690;70832;344942;-447735;
2024-05-04T09:22:11.251;538008735979511250;262698;70918;344403;-447577;
2024-05-04T09:22:11.269;538008735997686190;262675;70754;343805;-447482;
2024-05-04T09:22:11.287;538008736015863266;262736;70912;343463;-447438;
2024-05-04T09:22:11.305;538008736034040328;262715;71434;343337;-447206;
2024-05-04T09:22:11.323;538008736052217390;262533;71767;342425;-447082;
2024-05-04T09:22:11.342;538008736070394452;262698;71826;340895;-447028;
2024-05-04T09:22:11.360;538008736088571514;262946;71696;339350;-447114;
2024-05-04T09:22:11.378;538008736106748576;263086;71816;338875;-447121;
2024-05-04T09:22:11.396;538008736124925638;263071;71902;338460;-447133;
2024-05-04T09:22:11.414;538008736143102700;262867;71859;337982;-447411;
2024-05-04T09:22:11.433;538008736161279762;262176;71338;337107;-448060;
2024-05-04T09:22:11.451;538008736179456824;260684;70099;335465;-449562;
2024-05-04T09:22:11.469;538008736197633886;259112;68531;333875;-451254;
2024-05-04T09:22:11.487;538008736215810948;258270;67295;333157;-452385;
2024-05-04T09:22:11.505;538008736233988010;257742;66461;332318;-453077;
2024-05-04T09:22:11.523;538008736252165072;257547;66089;331720;-453404;
2024-05-04T09:22:11.542;538008736270342134;257416;65892;331249;-453624;
2024-05-04T09:22:11.560;538008736288519196;257410;65892;330924;-453675;
2024-05-04T09:22:11.578;538008736306696258;257452;65870;330412;-453769;
2024-05-04T09:22:11.596;538008736324873320;257245;65673;329733;-454003;
2024-05-04T09:22:11.614;538008736343050382;257092;65498;329001;-454317;
2024-05-04T09:22:11.632;538008736361227444;256939;65033;327934;-454756;
2024-05-04T09:22:11.651;538008736379404506;256500;64473;326654;-455442;
2024-05-04T09:22:11.669;538008736397581568;255498;63906;324546;-456561;
2024-05-04T09:22:11.687;538008736415758630;254130;63626;321996;-457914;
2024-05-04T09:22:11.705;538008736433935692;253262;63117;320287;-459118;
2024-05-04T09:22:11.723;538008736452112754;252815;62501;319523;-460039;
2024-05-04T09:22:11.742;538008736470289816;252419;61646;319151;-460827;
2024-05-04T09:22:11.760;538008736488466878;251820;60638;318546;-461557;
2024-05-04T09:22:11.778;538008736506643940;251211;59441;317854;-462264;
2024-05-04T09:22:11.796;538008736524821002;250641;57935;317209;-462878;
2024-05-04T09:22:11.814;538008736542998064;250291;56142;316704;-463357;
2024-05-04T09:22:11.832;538008736561175126;250234;54342;316147;-463654;
2024-05-04T09:22:11.851;538008736579348595;250106;52922;315565;-463812;
2024-05-04T09:22:11.869;538008736597522064;249700;52091;314575;-464021;
2024-05-04T09:22:11.887;538008736615695533;249155;51756;313160;-464267;
2024-05-04T09:22:11.905;538008736633869002;248105;52368;310903;-464671;
2024-05-04T09:22:11.923;538008736652042471;239764;87139;294741;-464978;
2024-05-04T09:22:11.941;538008736670215940;221046;140590;248694;-464925;
2024-05-04T09:22:11.960;538008736688389409;212172;177592;234731;-464799;
2024-05-04T09:22:11.978;538008736706562878;216358;192377;242540;-464656;
2024-05-04T09:22:11.996;538008736724736347;233580;175543;270785;-464531;
2024-05-04T09:22:12.014;538008736742909816;251499;182036;294811;-464277;
2024-05-04T09:22:12.032;538008736761083285;234206;190296;320924;-463891;
2024-05-04T09:22:12.051;538008736779256754;181623;127992;305258;-463601;
2024-05-04T09:22:12.069;538008736797430223;169536;104372;247523;-463038;
2024-05-04T09:22:12.087;538008736815603692;186733;121624;253368;-462349;
2024-05-04T09:22:12.105;538008736833777161;179316;118218;284195;-461630;
2024-05-04T09:22:12.123;538008736851950630;198057;96740;297450;-461383;
2024-05-04T09:22:12.141;538008736870124099;187258;96017;309688;-461083;
2024-05-04T09:22:12.160;538008736888297568;176096;96432;314800;-460653;
2024-05-04T09:22:12.178;538008736906471037;172008;95040;318654;-460151;
2024-05-04T09:22:12.196;538008736924644506;172608;95754;320843;-460003;
2024-05-04T09:22:12.214;538008736942817539;176672;98140;321424;-460003;
2024-05-04T09:22:12.232;538008736960990572;182898;100666;320491;-460032;
2024-05-04T09:22:12.250;538008736979163605;189676;101758;318168;-460240;
2024-05-04T09:22:12.269;538008736997336638;195061;100704;314526;-460447;
2024-05-04T09:22:12.287;538008737015509671;197759;98288;310384;-460692;
2024-05-04T09:22:12.305;538008737033682704;197266;94507;305428;-460789;
2024-05-04T09:22:12.323;538008737051855737;195784;90053;300903;-460915;
2024-05-04T09:22:12.341;538008737070028770;195598;86507;296959;-460782;
2024-05-04T09:22:12.359;538008737088201803;197158;84336;294915;-460240;
2024-05-04T09:22:12.378;538008737106374836;199558;84410;295501;-459058;
2024-05-04T09:22:12.396;538008737124547869;202705;86281;297591;-457301;
2024-05-04T09:22:12.414;538008737142720902;205945;88625;299949;-455352;
2024-05-04T09:22:12.432;538008737160893935;208875;90938;302293;-453637;
2024-05-04T09:22:12.450;538008737179066968;211479;93157;304643;-452009;
2024-05-04T09:22:12.468;538008737197240001;213990;95302;306981;-450437;
2024-05-04T09:22:12.487;538008737215413034;216087;97098;309064;-449167;
2024-05-04T09:22:12.505;538008737233586067;217948;98708;310607;-448245;
2024-05-04T09:22:12.523;538008737251759100;219489;100102;311868;-447407;
2024-05-04T09:22:12.541;538008737269932133;220999;101306;313001;-446628;
2024-05-04T09:22:12.559;538008737288105166;222338;102517;314275;-446005;
2024-05-04T09:22:12.578;538008737306278199;223666;103649;315557;-445393;
2024-05-04T09:22:12.596;538008737324451232;224871;104768;316687;-444865;
2024-05-04T09:22:12.614;538008737342624265;225661;105669;317450;-444581;
2024-05-04T09:22:12.632;538008737360797298;226419;106338;317910;-444424;
2024-05-04T09:22:12.650;538008737378970331;227097;106934;318414;-444408;
2024-05-04T09:22:12.668;538008737397143364;227734;107330;318801;-444397;
2024-05-04T09:22:12.687;538008737415316397;228084;107757;319172;-444392;
2024-05-04T09:22:12.705;538008737433489430;228382;108016;319435;-444387;
2024-05-04T09:22:12.723;538008737451663213;228575;108285;319653;-444509;
2024-05-04T09:22:12.741;538008737469836995;228737;108532;319982;-444496;
2024-05-04T09:22:12.759;538008737488010777;228927;108820;320246;-444525;
2024-05-04T09:22:12.777;538008737506184559;229125;109152;320553;-444481;
2024-05-04T09:22:12.796;538008737524358341;229410;109596;320965;-444389;
2024-05-04T09:22:12.814;538008737542532123;229732;109940;321447;-444345;
2024-05-04T09:22:12.832;538008737560705905;229995;110365;321796;-444286;
2024-05-04T09:22:12.850;538008737578879687;230345;110832;322311;-444210;
2024-05-04T09:22:12.868;538008737597053469;230704;111258;322690;-444209;
2024-05-04T09:22:12.886;538008737615227251;230971;111626;323203;-444214;
2024-05-04T09:22:12.905;538008737633401033;231353;111918;323584;-444242;
2024-05-04T09:22:12.923;538008737651574815;231691;112289;324079;-444206;
2024-05-04T09:22:12.941;538008737669748597;232037;112657;324480;-444239;
2024-05-04T09:22:12.959;538008737687922379;232297;112999;324842;-444215;
2024-05-04T09:22:12.977;538008737706096161;232544;113327;325152;-444198;
2024-05-04T09:22:12.996;538008737724269943;232823;113646;325508;-444160;
2024-05-04T09:22:13.014;538008737742443725;233027;113941;325788;-444156;
2024-05-04T09:22:13.032;538008737760617507;233145;114223;326095;-444137;
2024-05-04T09:22:13.050;538008737778791289;233435;114509;326243;-444171;
2024-05-04T09:22:13.068;538008737796965071;233694;114758;326491;-444167;
2024-05-04T09:22:13.086;538008737815138853;233886;115088;326836;-444140;
2024-05-04T09:22:13.105;538008737833312635;234204;115424;327130;-444151;
2024-05-04T09:22:13.123;538008737851486417;234447;115815;327415;-444132;
2024-05-04T09:22:13.141;538008737869660199;234636;116100;327704;-444120;
2024-05-04T09:22:13.159;538008737887833981;234876;116351;327920;-444141;
2024-05-04T09:22:13.177;538008737906007763;235115;116750;328158;-444095;
2024-05-04T09:22:13.195;538008737924181545;235412;117100;328535;-444089;
2024-05-04T09:22:13.214;538008737942355327;235581;117343;328749;-444128;
2024-05-04T09:22:13.232;538008737960529109;235808;117686;329028;-444116;
2024-05-04T09:22:13.250;538008737978702891;236052;117932;329308;-444132;
2024-05-04T09:22:13.268;538008737996876673;236328;118248;329494;-444100;
2024-05-04T09:22:13.286;538008738015050455;236533;118454;329770;-444102;
2024-05-04T09:22:13.304;538008738033224237;236752;118799;329991;-444062;
2024-05-04T09:22:13.323;538008738051398019;236939;119042;330334;-444142;
2024-05-04T09:22:13.341;538008738069571801;237189;119401;330537;-444073;
2024-05-04T09:22:13.359;538008738087745583;237363;119643;330758;-444082;
2024-05-04T09:22:13.377;538008738105919365;237609;119962;331058;-444098;
2024-05-04T09:22:13.395;538008738124093147;237860;120313;331328;-444049;
2024-05-04T09:22:13.414;538008738142266929;237963;120495;331652;-444066;
2024-05-04T09:22:13.432;538008738160441468;238180;120789;331777;-444071;
2024-05-04T09:22:13.450;538008738178615990;238294;121018;331987;-444091;
2024-05-04T09:22:13.468;538008738196790512;238576;121317;332301;-444048;
2024-05-04T09:22:13.486;538008738214965034;238779;121584;332433;-444061;
2024-05-04T09:22:13.504;538008738233139556;238971;121917;332623;-443992;
2024-05-04T09:22:13.523;538008738251314078;239138;122107;332902;-444055;
2024-05-04T09:22:13.541;538008738269488600;239343;122346;333111;-444043;
2024-05-04T09:22:13.559;538008738287663122;239591;122564;333386;-444051;
2024-05-04T09:22:13.577;538008738305837644;239712;122850;333663;-443996;
2024-05-04T09:22:13.595;538008738324012166;239972;123120;333836;-444051;
2024-05-04T09:22:13.613;538008738342186688;239917;123240;333942;-444009;
2024-05-04T09:22:13.632;538008738360361210;239989;123298;333850;-444003;
2024-05-04T09:22:13.650;538008738378535732;239952;123336;333938;-444001;
2024-05-04T09:22:13.668;538008738396710254;239894;123409;334011;-443966;
2024-05-04T09:22:13.686;538008738414884776;239905;123481;333995;-444059;
2024-05-04T09:22:13.704;538008738433059298;239898;123663;334083;-444025;
2024-05-04T09:22:13.722;538008738451233820;239930;123839;334159;-444059;
2024-05-04T09:22:13.741;538008738469408342;240106;124000;334313;-444044;
2024-05-04T09:22:13.759;538008738487582864;240208;124116;334438;-444052;
2024-05-04T09:22:13.777;538008738505757386;240313;124284;334632;-444033;
2024-05-04T09:22:13.795;538008738523931908;240393;124473;334770;-444097;
2024-05-04T09:22:13.813;538008738542106430;240594;124728;335053;-444099;
2024-05-04T09:22:13.832;538008738560280952;240650;124874;335200;-444147;
2024-05-04T09:22:13.850;538008738578455474;240865;125122;335435;-444079;
2024-05-04T09:22:13.868;538008738596629996;240908;125383;335596;-444118;
2024-05-04T09:22:13.886;538008738614804518;241079;125575;335744;-444047;
2024-05-04T09:22:13.904;538008738632979040;241231;125755;335886;-444054;
2024-05-04T09:22:13.922;538008738651153562;241352;125953;336036;-444069;
2024-05-04T09:22:13.941;538008738669328084;241449;126105;336103;-444045;
2024-05-04T09:22:13.959;538008738687502606;241595;126319;336332;-444047;
2024-05-04T09:22:13.977;538008738705677128;241640;126460;336415;-444048;
2024-05-04T09:22:13.995;538008738723851650;241719;126645;336619;-444064;
2024-05-04T09:22:14.013;538008738742026172;241831;126789;336768;-444061;
2024-05-04T09:22:14.031;538008738760200694;241891;127016;336957;-444072;
2024-05-04T09:22:14.050;538008738778375216;242214;127238;337143;-444081;
2024-05-04T09:22:14.068;538008738796549738;242221;127388;337389;-444168;
2024-05-04T09:22:14.086;538008738814724260;242328;127521;337523;-444166;
2024-05-04T09:22:14.104;538008738832898782;242481;127764;337680;-444110;
2024-05-04T09:22:14.122;538008738851073304;242602;127958;337909;-444139;
2024-05-04T09:22:14.140;538008738869247826;242755;128164;338001;-444214;
2024-05-04T09:22:14.159;538008738887422348;242927;128420;338183;-444165;
2024-05-04T09:22:14.177;538008738905596870;243098;128608;338346;-444099;
2024-05-04T09:22:14.195;538008738923768111;243181;128732;338544;-444162;
2024-05-04T09:22:14.213;538008738941939327;243391;128911;338678;-444169;
2024-05-04T09:22:14.231;538008738960110543;243419;129104;338789;-444169;
2024-05-04T09:22:14.250;538008738978281759;243572;129259;339005;-444119;
2024-05-04T09:22:14.268;538008738996452975;243763;129451;339226;-444097;
2024-05-04T09:22:14.286;538008739014624191;243827;129654;339470;-444097;
2024-05-04T09:22:14.304;538008739032795407;243954;129786;339509;-444139;
2024-05-04T09:22:14.322;538008739050966623;244123;130043;339712;-444078;
2024-05-04T09:22:14.340;538008739069137839;244194;130205;339909;-444106;
2024-05-04T09:22:14.359;538008739087309055;244376;130429;340107;-444123;
2024-05-04T09:22:14.377;538008739105480271;244553;130568;340256;-444096;
2024-05-04T09:22:14.395;538008739123651487;244677;130740;340434;-444133;
2024-05-04T09:22:14.413;538008739141822703;244749;130929;340538;-444202;
2024-05-04T09:22:14.431;538008739159993919;244930;131134;340680;-444151;
2024-05-04T09:22:14.449;538008739178165135;245104;131227;340769;-444152;
2024-05-04T09:22:14.468;538008739196336351;245107;131357;340943;-444152;
2024-05-04T09:22:14.486;538008739214507567;245294;131611;341185;-444215;
2024-05-04T09:22:14.504;538008739232678783;245395;131732;341291;-444216;
2024-05-04T09:22:14.522;538008739250849999;245480;131922;341426;-444217;
2024-05-04T09:22:14.540;538008739269021215;245542;132066;341534;-444233;
2024-05-04T09:22:14.558;538008739287192431;245704;132263;341799;-444204;
2024-05-04T09:22:14.577;538008739305363647;245820;132394;341878;-444188;
2024-05-04T09:22:14.595;538008739323534863;245688;132278;341818;-444282;
2024-05-04T09:22:14.613;538008739341706079;245623;132219;341836;-444315;
2024-05-04T09:22:14.631;538008739359877295;245469;132169;341715;-444302;
2024-05-04T09:22:14.649;538008739378048511;245476;132223;341737;-444257;
2024-05-04T09:22:14.667;538008739396219727;245293;132214;341699;-444364;
2024-05-04T09:22:14.686;538008739414390943;245284;132280;341732;-444344;
2024-05-04T09:22:14.704;538008739432562159;245353;132279;341694;-444341;
2024-05-04T09:22:14.722;538008739450733375;245435;132419;341783;-444454;
2024-05-04T09:22:14.740;538008739468904591;245472;132555;341857;-444459;
2024-05-04T09:22:14.758;538008739487075807;245577;132720;342034;-444439;
2024-05-04T09:22:14.776;538008739505247023;245597;132784;342117;-444483;
2024-05-04T09:22:14.795;538008739523418239;245732;132885;342300;-444459;
2024-05-04T09:22:14.813;538008739541589455;245912;133100;342476;-444438;
2024-05-04T09:22:14.831;538008739559760671;245980;133299;342547;-444457;
2024-05-04T09:22:14.849;538008739577931887;246120;133465;342681;-444450;
2024-05-04T09:22:14.867;538008739596103103;246148;133470;342781;-444448;
2024-05-04T09:22:14.886;538008739614274319;246194;133534;342854;-444481;
2024-05-04T09:22:14.904;538008739632445535;246349;133761;342973;-444440;
2024-05-04T09:22:14.922;538008739650616751;246457;133848;343059;-444490;
2024-05-04T09:22:14.940;538008739668787967;246446;133885;343152;-444507;
2024-05-04T09:22:14.958;538008739686957842;246481;133982;343295;-444535;
2024-05-04T09:22:14.976;538008739705127677;246540;134090;343402;-444569;
2024-05-04T09:22:14.995;538008739723297512;246561;134242;343465;-444556;
2024-05-04T09:22:15.013;538008739741467347;246669;134287;343617;-444567;
2024-05-04T09:22:15.031;538008739759637182;246757;134500;343687;-444542;
2024-05-04T09:22:15.049;538008739777807017;246779;134572;343764;-444603;
2024-05-04T09:22:15.067;538008739795976852;246772;134721;343964;-444623;
2024-05-04T09:22:15.085;538008739814146687;246836;134736;344112;-444624;
2024-05-04T09:22:15.104;538008739832316522;246900;134786;344169;-444597;
2024-05-04T09:22:15.122;538008739850486357;246891;134947;344296;-444678;
2024-05-04T09:22:15.140;538008739868656192;246918;134985;344350;-444779;
2024-05-04T09:22:15.158;538008739886826027;246855;134990;344461;-444938;
2024-05-04T09:22:15.176;538008739904995862;246711;134899;344504;-445086;
2024-05-04T09:22:15.194;538008739923165697;246479;134764;344513;-445291;
