Phone timestamp;sensor timestamp [ns];channel 0;channel 1;channel 2;ambient
2024-05-06T14:35:30.169;538200336658917213;-343754;-402529;-323857;-651409;
2024-05-06T14:35:30.187;538200336677082645;-343646;-402395;-323712;-651387;
2024-05-06T14:35:30.205;538200336695248077;-343553;-402349;-323604;-651452;
2024-05-06T14:35:30.223;538200336713413509;-343412;-402220;-323454;-651383;
2024-05-06T14:35:30.241;538200336731578941;-343281;-402065;-323366;-651438;
2024-05-06T14:35:30.259;538200336749744373;-343223;-402056;-323275;-651428;
2024-05-06T14:35:30.277;538200336767909805;-343228;-402119;-323188;-651444;
2024-05-06T14:35:30.296;538200336786075237;-343233;-402132;-323346;-651435;
2024-05-06T14:35:30.314;538200336804240669;-343411;-402272;-323460;-651462;
2024-05-06T14:35:30.332;538200336822406101;-343584;-402360;-323670;-651463;
2024-05-06T14:35:30.350;538200336840571533;-343631;-402431;-323796;-651480;
2024-05-06T14:35:30.368;538200336858736965;-343683;-402496;-323889;-651469;
2024-05-06T14:35:30.386;538200336876902397;-343802;-402514;-323932;-651462;
2024-05-06T14:35:30.405;538200336895067829;-343866;-402530;-323931;-651426;
2024-05-06T14:35:30.423;538200336913233261;-343867;-402527;-323953;-651488;
2024-05-06T14:35:30.441;538200336931398693;-343867;-402445;-323906;-651409;
2024-05-06T14:35:30.459;538200336949564125;-343790;-402471;-323856;-651466;
2024-05-06T14:35:30.477;538200336967729557;-343798;-402427;-323752;-651413;
2024-05-06T14:35:30.495;538200336985894989;-343746;-402355;-323696;-651433;
2024-05-06T14:35:30.514;538200337004060421;-343679;-402323;-323661;-651385;
2024-05-06T14:35:30.532;538200337022225853;-343637;-402252;-323596;-651451;
2024-05-06T14:35:30.550;538200337040391285;-343646;-402290;-323545;-651489;
2024-05-06T14:35:30.568;538200337058556717;-343643;-402271;-323529;-651463;
2024-05-06T14:35:30.586;538200337076722149;-343584;-402263;-323475;-651460;
2024-05-06T14:35:30.604;538200337094887581;-343636;-402210;-323469;-651457;
2024-05-06T14:35:30.623;538200337113053013;-343586;-402210;-323449;-651443;
2024-05-06T14:35:30.641;538200337131218445;-343546;-402226;-323382;-651433;
2024-05-06T14:35:30.659;538200337149383877;-343544;-402154;-323355;-651511;
2024-05-06T14:35:30.677;538200337167549309;-343474;-402093;-323299;-651462;
2024-05-06T14:35:30.695;538200337185714741;-343431;-402016;-323185;-651462;
2024-05-06T14:35:30.713;538200337203880173;-343355;-401955;-323151;-651438;
2024-05-06T14:35:30.732;538200337222045605;-343252;-401924;-323079;-651461;
2024-05-06T14:35:30.750;538200337240211037;-343210;-401837;-323054;-651409;
2024-05-06T14:35:30.768;538200337258376469;-343250;-401800;-322970;-651462;
2024-05-06T14:35:30.786;538200337276541901;-343089;-401740;-322839;-651433;
2024-05-06T14:35:30.804;538200337294707333;-343018;-401611;-322783;-651424;
2024-05-06T14:35:30.822;538200337312872765;-343006;-401656;-322769;-651466;
2024-05-06T14:35:30.841;538200337331038197;-342917;-401545;-322663;-651464;
2024-05-06T14:35:30.859;538200337349203629;-342911;-401522;-322562;-651483;
2024-05-06T14:35:30.877;538200337367369061;-342798;-401445;-322421;-651395;
2024-05-06T14:35:30.895;538200337385534493;-342706;-401405;-322382;-651443;
2024-05-06T14:35:30.913;538200337403699925;-342673;-401361;-322303;-651480;
2024-05-06T14:35:30.931;538200337421865357;-342544;-401324;-322217;-651443;
2024-05-06T14:35:30.950;538200337440030814;-342483;-401211;-322205;-651471;
2024-05-06T14:35:30.968;538200337458196246;-342379;-401143;-322049;-651444;
2024-05-06T14:35:30.986;538200337476361678;-342311;-401059;-321951;-651453;
2024-05-06T14:35:31.004;538200337494527110;-342192;-400998;-321841;-651443;
2024-05-06T14:35:31.022;538200337512692542;-342150;-400949;-321808;-651484;
2024-05-06T14:35:31.040;538200337530857974;-342052;-400903;-321742;-651453;
2024-05-06T14:35:31.059;538200337549023406;-341959;-400796;-321617;-651382;
2024-05-06T14:35:31.077;538200337567188838;-341929;-400760;-321545;-651491;
2024-05-06T14:35:31.095;538200337585354270;-341861;-400733;-321509;-651470;
2024-05-06T14:35:31.113;538200337603519702;-341879;-400743;-321571;-651475;
2024-05-06T14:35:31.131;538200337621685134;-341997;-400887;-321730;-651474;
2024-05-06T14:35:31.149;538200337639850566;-342081;-400968;-321802;-651436;
2024-05-06T14:35:31.168;538200337658015998;-342228;-401077;-321986;-651466;
2024-05-06T14:35:31.186;538200337676181430;-342373;-401231;-322138;-651428;
2024-05-06T14:35:31.204;538200337694346862;-342530;-401273;-322332;-651531;
2024-05-06T14:35:31.222;538200337712512294;-342588;-401334;-322351;-651485;
2024-05-06T14:35:31.240;538200337730677726;-342678;-401349;-322307;-651479;
2024-05-06T14:35:31.258;538200337748843158;-342708;-401321;-322372;-651506;
2024-05-06T14:35:31.277;538200337767008590;-342725;-401315;-322372;-651489;
2024-05-06T14:35:31.295;538200337785174022;-342738;-401320;-322375;-651477;
2024-05-06T14:35:31.313;538200337803339454;-342803;-401307;-322357;-651469;
2024-05-06T14:35:31.331;538200337821504886;-342742;-401291;-322250;-651474;
2024-05-06T14:35:31.349;538200337839670318;-342757;-401355;-322199;-651427;
2024-05-06T14:35:31.367;538200337857835750;-342762;-401357;-322180;-651480;
2024-05-06T14:35:31.386;538200337876001182;-342654;-401338;-322160;-651472;
2024-05-06T14:35:31.404;538200337894166614;-342756;-401273;-322199;-651437;
2024-05-06T14:35:31.422;538200337912332046;-342750;-401310;-322232;-651446;
2024-05-06T14:35:31.440;538200337930497478;-342727;-401287;-322197;-651481;
2024-05-06T14:35:31.458;538200337948662910;-342785;-401323;-322205;-651483;
2024-05-06T14:35:31.476;538200337966828342;-342754;-401337;-322178;-651532;
2024-05-06T14:35:31.495;538200337984993774;-342749;-401319;-322194;-651527;
2024-05-06T14:35:31.513;538200338003159206;-342714;-401324;-322187;-651526;
2024-05-06T14:35:31.531;538200338021324638;-342691;-401236;-322140;-651492;
2024-05-06T14:35:31.549;538200338039490070;-342581;-401174;-322027;-651483;
2024-05-06T14:35:31.567;538200338057655502;-342560;-401120;-322010;-651510;
2024-05-06T14:35:31.585;538200338075820934;-342515;-401051;-321926;-651520;
2024-05-06T14:35:31.604;538200338093986366;-342473;-401015;-321873;-651565;
2024-05-06T14:35:31.622;538200338112151798;-342404;-400931;-321803;-651498;
2024-05-06T14:35:31.640;538200338130317230;-342333;-400876;-321780;-651514;
2024-05-06T14:35:31.658;538200338148482662;-342268;-400772;-321614;-651470;
2024-05-06T14:35:31.676;538200338166648094;-342153;-400732;-321519;-651517;
2024-05-06T14:35:31.694;538200338184813526;-342123;-400708;-321449;-651475;
2024-05-06T14:35:31.713;538200338202978958;-342014;-400651;-321312;-651453;
2024-05-06T14:35:31.731;538200338221144390;-341981;-400600;-321239;-651473;
2024-05-06T14:35:31.749;538200338239309822;-341858;-400516;-321178;-651435;
2024-05-06T14:35:31.767;538200338257477580;-341791;-400453;-321109;-651453;
2024-05-06T14:35:31.785;538200338275645308;-341671;-400402;-320978;-651401;
2024-05-06T14:35:31.803;538200338293813036;-341630;-400355;-320936;-651442;
2024-05-06T14:35:31.822;538200338311980764;-341541;-400277;-320815;-651412;
2024-05-06T14:35:31.840;538200338330148492;-341479;-400192;-320738;-651426;
2024-05-06T14:35:31.858;538200338348316220;-341398;-400183;-320656;-651444;
2024-05-06T14:35:31.876;538200338366483948;-341349;-400067;-320596;-651466;
2024-05-06T14:35:31.894;538200338384651676;-341312;-399994;-320459;-651420;
2024-05-06T14:35:31.912;538200338402819404;-341288;-399985;-320423;-651413;
2024-05-06T14:35:31.931;538200338420987132;-341162;-399850;-320274;-651385;
2024-05-06T14:35:31.949;538200338439154860;-341005;-399751;-320121;-651455;
2024-05-06T14:35:31.967;538200338457322588;-340942;-399727;-320067;-651404;
2024-05-06T14:35:31.985;538200338475490316;-341015;-399784;-320161;-651385;
2024-05-06T14:35:32.003;538200338493658044;-341131;-399911;-320325;-651388;
2024-05-06T14:35:32.021;538200338511825772;-341229;-400069;-320545;-651375;
2024-05-06T14:35:32.040;538200338529993500;-341438;-400206;-320695;-651354;
2024-05-06T14:35:32.058;538200338548161228;-341648;-400389;-320919;-651419;
2024-05-06T14:35:32.076;538200338566328956;-341817;-400469;-321066;-651412;
2024-05-06T14:35:32.094;538200338584496684;-341977;-400515;-321192;-651332;
2024-05-06T14:35:32.112;538200338602664412;-342031;-400596;-321299;-651342;
2024-05-06T14:35:32.130;538200338620832140;-342097;-400608;-321283;-651319;
2024-05-06T14:35:32.149;538200338638999868;-342218;-400668;-321330;-651419;
2024-05-06T14:35:32.167;538200338657167596;-342199;-400683;-321355;-651364;
2024-05-06T14:35:32.185;538200338675335324;-342239;-400730;-321355;-651354;
2024-05-06T14:35:32.203;538200338693503052;-342280;-400642;-321300;-651350;
2024-05-06T14:35:32.221;538200338711670780;-342293;-400630;-321250;-651381;
2024-05-06T14:35:32.239;538200338729838508;-342278;-400703;-321181;-651388;
2024-05-06T14:35:32.258;538200338748006236;-342251;-400607;-321202;-651377;
2024-05-06T14:35:32.276;538200338766173964;-342375;-400736;-321217;-651421;
2024-05-06T14:35:32.294;538200338784341692;-342420;-400730;-321325;-651415;
2024-05-06T14:35:32.312;538200338802509420;-342469;-400865;-321407;-651425;
2024-05-06T14:35:32.330;538200338820677148;-342467;-400845;-321390;-651405;
2024-05-06T14:35:32.348;538200338838844876;-342506;-400875;-321431;-651416;
2024-05-06T14:35:32.367;538200338857012604;-342498;-400880;-321424;-651416;
2024-05-06T14:35:32.385;538200338875180332;-342521;-400857;-321398;-651422;
2024-05-06T14:35:32.403;538200338893348060;-342516;-400808;-321331;-651412;
2024-05-06T14:35:32.421;538200338911515788;-342494;-400821;-321334;-651337;
2024-05-06T14:35:32.439;538200338929683516;-342475;-400831;-321291;-651359;
2024-05-06T14:35:32.457;538200338947851244;-342368;-400789;-321235;-651400;
2024-05-06T14:35:32.476;538200338966018972;-342405;-400811;-321256;-651416;
2024-05-06T14:35:32.494;538200338984186700;-342413;-400768;-321198;-651497;
2024-05-06T14:35:32.512;538200339002354428;-342299;-400702;-321160;-651390;
2024-05-06T14:35:32.530;538200339020523541;-342278;-400671;-321113;-651408;
2024-05-06T14:35:32.548;538200339038692640;-342151;-400590;-320992;-651384;
2024-05-06T14:35:32.566;538200339056861739;-342131;-400551;-320979;-651398;
2024-05-06T14:35:32.585;538200339075030838;-342066;-400461;-320884;-651387;
2024-05-06T14:35:32.603;538200339093199937;-342046;-400491;-320831;-651402;
2024-05-06T14:35:32.621;538200339111369036;-341971;-400454;-320809;-651427;
2024-05-06T14:35:32.639;538200339129538135;-341933;-400426;-320734;-651396;
2024-05-06T14:35:32.657;538200339147707234;-341823;-400299;-320604;-651402;
2024-05-06T14:35:32.675;538200339165876333;-341714;-400264;-320557;-651381;
2024-05-06T14:35:32.694;538200339184045432;-341733;-400247;-320548;-651365;
2024-05-06T14:35:32.712;538200339202214531;-341598;-400156;-320449;-651348;
2024-05-06T14:35:32.730;538200339220383630;-341602;-400228;-320399;-651401;
2024-05-06T14:35:32.748;538200339238552729;-341532;-400112;-320371;-651356;
2024-05-06T14:35:32.766;538200339256721828;-341474;-400058;-320332;-651427;
2024-05-06T14:35:32.784;538200339274890927;-341348;-400073;-320222;-651357;
2024-05-06T14:35:32.803;538200339293060026;-341289;-399968;-320101;-651385;
2024-05-06T14:35:32.821;538200339311229125;-341158;-399858;-320054;-651352;
2024-05-06T14:35:32.839;538200339329398224;-341091;-399811;-319979;-651366;
2024-05-06T14:35:32.857;538200339347567323;-340969;-399756;-319825;-651325;
2024-05-06T14:35:32.875;538200339365736422;-340986;-399796;-319896;-651314;
2024-05-06T14:35:32.893;538200339383905521;-341104;-399931;-320052;-651335;
2024-05-06T14:35:32.912;538200339402074620;-341331;-400048;-320344;-651300;
2024-05-06T14:35:32.930;538200339420243719;-341444;-400241;-320556;-651284;
2024-05-06T14:35:32.948;538200339438412818;-341684;-400398;-320857;-651295;
2024-05-06T14:35:32.966;538200339456581917;-341892;-400598;-321095;-651317;
2024-05-06T14:35:32.984;538200339474751016;-342009;-400698;-321277;-651285;
2024-05-06T14:35:33.003;538200339492920115;-342172;-400825;-321346;-651237;
2024-05-06T14:35:33.021;538200339511089214;-342245;-400913;-321444;-651303;
2024-05-06T14:35:33.039;538200339529258313;-342370;-400915;-321513;-651321;
2024-05-06T14:35:33.057;538200339547427412;-342431;-400976;-321560;-651315;
2024-05-06T14:35:33.075;538200339565596511;-342476;-401049;-321579;-651338;
2024-05-06T14:35:33.093;538200339583765610;-342483;-401060;-321616;-651330;
2024-05-06T14:35:33.112;538200339601934709;-342456;-401018;-321568;-651374;
2024-05-06T14:35:33.130;538200339620103808;-342370;-401030;-321551;-651303;
2024-05-06T14:35:33.148;538200339638272907;-342488;-401092;-321605;-651353;
2024-05-06T14:35:33.166;538200339656442006;-342433;-401077;-321657;-651344;
2024-05-06T14:35:33.184;538200339674611105;-342457;-401131;-321759;-651317;
2024-05-06T14:35:33.202;538200339692780204;-342526;-401187;-321755;-651331;
2024-05-06T14:35:33.221;538200339710949303;-342465;-401247;-321835;-651325;
2024-05-06T14:35:33.239;538200339729118402;-342573;-401232;-321832;-651338;
2024-05-06T14:35:33.257;538200339747287501;-342561;-401235;-321806;-651290;
2024-05-06T14:35:33.275;538200339765456600;-342627;-401282;-321890;-651324;
2024-05-06T14:35:33.293;538200339783625699;-342570;-401272;-321830;-651309;
2024-05-06T14:35:33.311;538200339801794798;-342588;-401259;-321821;-651292;
2024-05-06T14:35:33.330;538200339819962336;-342590;-401212;-321825;-651300;
2024-05-06T14:35:33.348;538200339838129846;-342541;-401219;-321788;-651318;
2024-05-06T14:35:33.366;538200339856297356;-342458;-401093;-321733;-651296;
2024-05-06T14:35:33.384;538200339874464866;-342430;-401081;-321696;-651255;
2024-05-06T14:35:33.402;538200339892632376;-342368;-401063;-321659;-651291;
2024-05-06T14:35:33.420;538200339910799886;-342311;-401052;-321583;-651283;
2024-05-06T14:35:33.439;538200339928967396;-342264;-401001;-321581;-651346;
2024-05-06T14:35:33.457;538200339947134906;-342250;-400991;-321456;-651288;
2024-05-06T14:35:33.475;538200339965302416;-342176;-400915;-321358;-651214;
2024-05-06T14:35:33.493;538200339983469926;-342098;-400897;-321310;-651313;
2024-05-06T14:35:33.511;538200340001637436;-341976;-400808;-321240;-651249;
2024-05-06T14:35:33.529;538200340019804946;-341940;-400801;-321119;-651233;
2024-05-06T14:35:33.548;538200340037972456;-341865;-400724;-321058;-651274;
2024-05-06T14:35:33.566;538200340056139966;-341844;-400713;-320980;-651259;
2024-05-06T14:35:33.584;538200340074307476;-341676;-400614;-320856;-651218;
2024-05-06T14:35:33.602;538200340092474986;-341666;-400555;-320865;-651269;
2024-05-06T14:35:33.620;538200340110642496;-341568;-400460;-320715;-651248;
2024-05-06T14:35:33.638;538200340128810006;-341548;-400385;-320621;-651197;
2024-05-06T14:35:33.657;538200340146977516;-341457;-400312;-320547;-651181;
2024-05-06T14:35:33.675;538200340165145026;-341381;-400263;-320549;-651245;
2024-05-06T14:35:33.693;538200340183312536;-341258;-400232;-320479;-651186;
2024-05-06T14:35:33.711;538200340201480046;-341201;-400251;-320372;-651239;
2024-05-06T14:35:33.729;538200340219647556;-341116;-400114;-320251;-651221;
2024-05-06T14:35:33.747;538200340237815066;-341056;-400115;-320226;-651219;
2024-05-06T14:35:33.766;538200340255982576;-341004;-400133;-320197;-651144;
2024-05-06T14:35:33.784;538200340274150086;-341034;-400158;-320308;-651154;
2024-05-06T14:35:33.802;538200340292317596;-341236;-400377;-320597;-651130;
2024-05-06T14:35:33.820;538200340310485106;-341378;-400615;-320890;-651134;
2024-05-06T14:35:33.838;538200340328652616;-341648;-400895;-321173;-651121;
2024-05-06T14:35:33.856;538200340346820126;-341888;-401064;-321498;-651032;
2024-05-06T14:35:33.875;538200340364987636;-342075;-401275;-321742;-651001;
2024-05-06T14:35:33.893;538200340383155146;-342233;-401439;-321982;-650947;
2024-05-06T14:35:33.911;538200340401322656;-342406;-401545;-322102;-650990;
2024-05-06T14:35:33.929;538200340419490166;-342458;-401592;-322190;-650978;
2024-05-06T14:35:33.947;538200340437657676;-342533;-401715;-322276;-650971;
2024-05-06T14:35:33.965;538200340455825186;-342564;-401770;-322302;-650952;
2024-05-06T14:35:33.984;538200340473992696;-342554;-401730;-322373;-650968;
2024-05-06T14:35:34.002;538200340492160206;-342562;-401732;-322408;-650930;
2024-05-06T14:35:34.020;538200340510327716;-342541;-401742;-322405;-650921;
2024-05-06T14:35:34.038;538200340528495226;-342584;-401791;-322412;-650958;
2024-05-06T14:35:34.056;538200340546662736;-342631;-401829;-322469;-650922;
2024-05-06T14:35:34.074;538200340564830246;-342650;-401869;-322478;-650892;
2024-05-06T14:35:34.093;538200340582998186;-342673;-401850;-322513;-650904;
2024-05-06T14:35:34.111;538200340601166106;-342767;-401912;-322637;-650870;
2024-05-06T14:35:34.129;538200340619334026;-342806;-401978;-322744;-650881;
2024-05-06T14:35:34.147;538200340637501946;-342910;-402056;-322810;-650886;
2024-05-06T14:35:34.165;538200340655669866;-342922;-402092;-322834;-650897;
2024-05-06T14:35:34.183;538200340673837786;-342999;-402100;-322819;-650894;
2024-05-06T14:35:34.202;538200340692005706;-343080;-402100;-322830;-650916;
2024-05-06T14:35:34.220;538200340710173626;-343074;-402095;-322856;-650907;
2024-05-06T14:35:34.238;538200340728341546;-343188;-402210;-322924;-650939;
2024-05-06T14:35:34.256;538200340746509466;-343179;-402228;-322844;-650961;
2024-05-06T14:35:34.274;538200340764677386;-343235;-402184;-322876;-650900;
2024-05-06T14:35:34.292;538200340782845306;-343205;-402247;-322804;-650933;
2024-05-06T14:35:34.311;538200340801013226;-343177;-402174;-322783;-650899;
2024-05-06T14:35:34.329;538200340819181146;-343196;-402238;-322770;-650918;
2024-05-06T14:35:34.347;538200340837349066;-343198;-402227;-322725;-650916;
2024-05-06T14:35:34.365;538200340855516986;-343198;-402181;-322640;-650893;
2024-05-06T14:35:34.383;538200340873684906;-343151;-402150;-322617;-650875;
2024-05-06T14:35:34.401;538200340891852826;-343070;-402055;-322497;-650832;
2024-05-06T14:35:34.420;538200340910020746;-342955;-402057;-322452;-650764;
2024-05-06T14:35:34.438;538200340928188666;-342915;-402019;-322343;-650695;
2024-05-06T14:35:34.456;538200340946356586;-342795;-401886;-322264;-650627;
2024-05-06T14:35:34.474;538200340964524506;-342672;-401782;-322158;-650600;
2024-05-06T14:35:34.492;538200340982692426;-342583;-401639;-322086;-650459;
2024-05-06T14:35:34.510;538200341000860346;-342451;-401574;-321970;-650354;
2024-05-06T14:35:34.529;538200341019028266;-342336;-401413;-321808;-650256;
2024-05-06T14:35:34.547;538200341037196186;-342117;-401352;-321616;-650088;
2024-05-06T14:35:34.565;538200341055364106;-341976;-401174;-321479;-649962;
2024-05-06T14:35:34.583;538200341073532026;-341791;-401027;-321307;-649777;
2024-05-06T14:35:34.601;538200341091699946;-341552;-400856;-321062;-649665;
2024-05-06T14:35:34.619;538200341109867866;-341283;-400700;-320769;-649436;
2024-05-06T14:35:34.638;538200341128035786;-341179;-400666;-320658;-649387;
2024-05-06T14:35:34.656;538200341146203706;-341104;-400707;-320673;-649124;
2024-05-06T14:35:34.674;538200341164371626;-341091;-400786;-320747;-648925;
2024-05-06T14:35:34.692;538200341182539546;-341163;-400993;-320899;-648705;
2024-05-06T14:35:34.710;538200341200707466;-341126;-401099;-320962;-648446;
2024-05-06T14:35:34.728;538200341218875386;-341100;-401229;-320966;-648185;
2024-05-06T14:35:34.747;538200341237043306;-340933;-401282;-320915;-647901;
2024-05-06T14:35:34.765;538200341255211226;-340782;-401324;-320829;-647702;
2024-05-06T14:35:34.783;538200341273379146;-340591;-401376;-320702;-647507;
2024-05-06T14:35:34.801;538200341291547066;-340385;-401406;-320587;-647292;
2024-05-06T14:35:34.819;538200341309714986;-340202;-401399;-320453;-647033;
2024-05-06T14:35:34.837;538200341327882906;-339983;-401427;-320427;-646735;
2024-05-06T14:35:34.856;538200341346050826;-339763;-401421;-320309;-646545;
2024-05-06T14:35:34.874;538200341364218746;-339526;-401373;-320127;-646377;
2024-05-06T14:35:34.892;538200341382387601;-339299;-401410;-319993;-646154;
2024-05-06T14:35:34.910;538200341400556453;-339109;-401376;-319888;-645871;
2024-05-06T14:35:34.928;538200341418725305;-338874;-401331;-319802;-645652;
2024-05-06T14:35:34.946;538200341436894157;-338676;-401358;-319749;-645479;
2024-05-06T14:35:34.965;538200341455063009;-338535;-401325;-319730;-645275;
2024-05-06T14:35:34.983;538200341473231861;-338406;-401416;-319663;-645094;
2024-05-06T14:35:35.001;538200341491400713;-338350;-401470;-319622;-644933;
2024-05-06T14:35:35.019;538200341509569565;-338241;-401479;-319467;-644754;
2024-05-06T14:35:35.037;538200341527738417;-338157;-401552;-319489;-644686;
2024-05-06T14:35:35.055;538200341545907269;-338081;-401623;-319453;-644648;
2024-05-06T14:35:35.074;538200341564076121;-338038;-401672;-319549;-644605;
2024-05-06T14:35:35.092;538200341582244973;-337914;-401671;-319577;-644541;
2024-05-06T14:35:35.110;538200341600413825;-337722;-401703;-319510;-644483;
2024-05-06T14:35:35.128;538200341618582677;-337618;-401581;-319515;-644446;
2024-05-06T14:35:35.146;538200341636751529;-337398;-401509;-319410;-644351;
2024-05-06T14:35:35.165;538200341654920381;-337220;-401388;-319291;-644253;
2024-05-06T14:35:35.183;538200341673089233;-336967;-401263;-319162;-644147;
2024-05-06T14:35:35.201;538200341691258085;-336703;-401167;-319088;-644143;
2024-05-06T14:35:35.219;538200341709426937;-336446;-400972;-318906;-644018;
2024-05-06T14:35:35.237;538200341727595789;-336183;-400846;-318832;-643987;
2024-05-06T14:35:35.255;538200341745764641;-336012;-400780;-318782;-643992;
2024-05-06T14:35:35.274;538200341763933493;-335841;-400693;-318730;-643945;
2024-05-06T14:35:35.292;538200341782102345;-335653;-400577;-318657;-643909;
2024-05-06T14:35:35.310;538200341800271197;-335556;-400518;-318660;-643912;
2024-05-06T14:35:35.328;538200341818440049;-335513;-400484;-318731;-643927;
2024-05-06T14:35:35.346;538200341836608901;-335349;-400412;-318732;-643950;
2024-05-06T14:35:35.364;538200341854777753;-335217;-400382;-318704;-643936;
2024-05-06T14:35:35.383;538200341872946605;-335175;-400334;-318724;-643946;
2024-05-06T14:35:35.401;538200341891115457;-335009;-400258;-318608;-643914;
2024-05-06T14:35:35.419;538200341909284309;-334910;-400122;-318530;-643832;
2024-05-06T14:35:35.437;538200341927453161;-334750;-400029;-318459;-643748;
2024-05-06T14:35:35.455;538200341945622013;-334620;-400038;-318472;-643829;
2024-05-06T14:35:35.473;538200341963790865;-334474;-399933;-318421;-643814;
2024-05-06T14:35:35.492;538200341981959717;-334548;-400064;-318625;-643726;
2024-05-06T14:35:35.510;538200342000128569;-334846;-400449;-319092;-643756;
2024-05-06T14:35:35.528;538200342018297421;-335231;-400822;-319712;-643750;
2024-05-06T14:35:35.546;538200342036466273;-335695;-401276;-320330;-643790;
2024-05-06T14:35:35.564;538200342054635125;-336060;-401749;-320915;-643779;
2024-05-06T14:35:35.582;538200342072803977;-336501;-402098;-321478;-643766;
2024-05-06T14:35:35.601;538200342090972930;-336796;-402393;-322002;-643827;
2024-05-06T14:35:35.619;538200342109141858;-337140;-402733;-322373;-643841;
2024-05-06T14:35:35.637;538200342127310786;-337337;-403024;-322821;-643801;
2024-05-06T14:35:35.655;538200342145479714;-337560;-403237;-323192;-643846;
2024-05-06T14:35:35.673;538200342163648642;-337875;-403431;-323479;-643792;
2024-05-06T14:35:35.691;538200342181817570;-338024;-403557;-323755;-643767;
2024-05-06T14:35:35.710;538200342199986498;-338128;-403617;-323920;-643751;
2024-05-06T14:35:35.728;538200342218155426;-338168;-403728;-324074;-643699;
2024-05-06T14:35:35.746;538200342236324354;-338269;-403908;-324228;-643680;
2024-05-06T14:35:35.764;538200342254493282;-338443;-404084;-324475;-643702;
2024-05-06T14:35:35.782;538200342272662210;-338671;-404271;-324673;-643760;
2024-05-06T14:35:35.800;538200342290831138;-338845;-404423;-324946;-643756;
2024-05-06T14:35:35.819;538200342309000066;-339078;-404621;-325248;-643797;
2024-05-06T14:35:35.837;538200342327168994;-339241;-404801;-325515;-643850;
2024-05-06T14:35:35.855;538200342345337922;-339386;-405003;-325775;-643829;
2024-05-06T14:35:35.873;538200342363506850;-339522;-405097;-325999;-643866;
2024-05-06T14:35:35.891;538200342381675778;-339662;-405200;-326186;-643812;
2024-05-06T14:35:35.909;538200342399844706;-339690;-405325;-326276;-643764;
2024-05-06T14:35:35.928;538200342418013634;-339855;-405451;-326480;-643789;
2024-05-06T14:35:35.946;538200342436182562;-340038;-405548;-326624;-643799;
2024-05-06T14:35:35.964;538200342454351490;-340054;-405636;-326708;-643853;
2024-05-06T14:35:35.982;538200342472520418;-340143;-405717;-326875;-643886;
2024-05-06T14:35:36.000;538200342490689346;-340135;-405673;-326966;-643950;
2024-05-06T14:35:36.018;538200342508858274;-340165;-405629;-327001;-643951;
2024-05-06T14:35:36.037;538200342527027202;-340252;-405653;-327173;-644079;
2024-05-06T14:35:36.055;538200342545196130;-340314;-405566;-327278;-644144;
2024-05-06T14:35:36.073;538200342563365058;-340455;-405516;-327476;-644328;
2024-05-06T14:35:36.091;538200342581533986;-340627;-405617;-327786;-644522;
2024-05-06T14:35:36.109;538200342599702914;-340891;-405758;-328050;-644758;
2024-05-06T14:35:36.127;538200342617871842;-341219;-405891;-328478;-645011;
2024-05-06T14:35:36.146;538200342636040770;-341590;-406023;-328836;-645221;
2024-05-06T14:35:36.164;538200342654209698;-342055;-406252;-329227;-645593;
2024-05-06T14:35:36.182;538200342672378626;-342317;-406375;-329576;-645809;
2024-05-06T14:35:36.200;538200342690547554;-342596;-406515;-329863;-645963;
2024-05-06T14:35:36.218;538200342708716482;-342860;-406610;-330105;-646149;
2024-05-06T14:35:36.236;538200342726885410;-343036;-406616;-330269;-646274;
2024-05-06T14:35:36.255;538200342745054338;-343134;-406643;-330430;-646351;
2024-05-06T14:35:36.273;538200342763223266;-343095;-406529;-330443;-646383;
2024-05-06T14:35:36.291;538200342781392194;-343220;-406555;-330571;-646591;
2024-05-06T14:35:36.309;538200342799561122;-343377;-406683;-330725;-646781;
2024-05-06T14:35:36.327;538200342817730050;-343603;-406847;-330938;-646963;
2024-05-06T14:35:36.345;538200342835897423;-343910;-407127;-331307;-647171;
2024-05-06T14:35:36.364;538200342854064788;-344456;-407637;-331800;-647496;
2024-05-06T14:35:36.382;538200342872232153;-345130;-408211;-332636;-647795;
2024-05-06T14:35:36.400;538200342890399518;-345774;-408931;-333455;-648017;
2024-05-06T14:35:36.418;538200342908566883;-346535;-409588;-334243;-648313;
2024-05-06T14:35:36.436;538200342926734248;-347235;-410170;-335009;-648557;
2024-05-06T14:35:36.454;538200342944901613;-347921;-410827;-335663;-648797;
2024-05-06T14:35:36.473;538200342963068978;-348550;-411355;-336272;-649022;
2024-05-06T14:35:36.491;538200342981236343;-349204;-411902;-336839;-649259;
2024-05-06T14:35:36.509;538200342999403708;-349730;-412378;-337285;-649408;
2024-05-06T14:35:36.527;538200343017571073;-350154;-412732;-337553;-649541;
2024-05-06T14:35:36.545;538200343035738438;-350484;-412928;-337796;-649619;
2024-05-06T14:35:36.563;538200343053905803;-350642;-413131;-337918;-649689;
2024-05-06T14:35:36.582;538200343072073168;-350672;-413194;-337997;-649683;
2024-05-06T14:35:36.600;538200343090240533;-350688;-413176;-337995;-649668;
2024-05-06T14:35:36.618;538200343108407898;-350695;-413189;-338050;-649654;
2024-05-06T14:35:36.636;538200343126575263;-350745;-413199;-338071;-649593;
2024-05-06T14:35:36.654;538200343144742628;-350912;-413372;-338150;-649609;
2024-05-06T14:35:36.672;538200343162909993;-351081;-413466;-338252;-649637;
2024-05-06T14:35:36.691;538200343181077358;-351215;-413544;-338428;-649694;
2024-05-06T14:35:36.709;538200343199244723;-351296;-413624;-338561;-649718;
2024-05-06T14:35:36.727;538200343217412088;-351390;-413747;-338610;-649725;
2024-05-06T14:35:36.745;538200343235579453;-351482;-413768;-338688;-649769;
2024-05-06T14:35:36.763;538200343253746818;-351528;-413737;-338677;-649760;
2024-05-06T14:35:36.781;538200343271914183;-351517;-413751;-338653;-649783;
2024-05-06T14:35:36.800;538200343290081548;-351516;-413764;-338629;-649789;
2024-05-06T14:35:36.818;538200343308248913;-351465;-413641;-338531;-649725;
2024-05-06T14:35:36.836;538200343326416278;-351392;-413561;-338421;-649635;
2024-05-06T14:35:36.854;538200343344583643;-351347;-413503;-338444;-649634;
2024-05-06T14:35:36.872;538200343362751008;-351286;-413400;-338288;-649590;
2024-05-06T14:35:36.891;538200343380918373;-351217;-413356;-338213;-649581;
2024-05-06T14:35:36.909;538200343399085738;-351266;-413309;-338063;-649595;
2024-05-06T14:35:36.927;538200343417253103;-351244;-413285;-338015;-649570;
2024-05-06T14:35:36.945;538200343435420468;-351155;-413217;-337908;-649573;
2024-05-06T14:35:36.963;538200343453587833;-351117;-413120;-337740;-649550;
2024-05-06T14:35:36.981;538200343471755198;-351031;-413049;-337572;-649514;
2024-05-06T14:35:37.000;538200343489922563;-350853;-412886;-337350;-649444;
2024-05-06T14:35:37.018;538200343508089952;-350709;-412745;-337186;-649419;
2024-05-06T14:35:37.036;538200343526257317;-350553;-412606;-337025;-649309;
2024-05-06T14:35:37.054;538200343544424682;-350413;-412444;-336763;-649278;
2024-05-06T14:35:37.072;538200343562592047;-350299;-412277;-336599;-649277;
2024-05-06T14:35:37.090;538200343580759412;-350110;-412141;-336449;-649238;
2024-05-06T14:35:37.109;538200343598926777;-349940;-412053;-336246;-649179;
2024-05-06T14:35:37.127;538200343617094142;-349904;-411942;-336046;-649201;
2024-05-06T14:35:37.145;538200343635261507;-349666;-411782;-335884;-649171;
2024-05-06T14:35:37.163;538200343653428872;-349581;-411712;-335662;-649142;
2024-05-06T14:35:37.181;538200343671596237;-349673;-411807;-335806;-649174;
2024-05-06T14:35:37.199;538200343689763602;-349942;-412019;-336190;-649163;
2024-05-06T14:35:37.218;538200343707930967;-350183;-412290;-336451;-649183;
2024-05-06T14:35:37.236;538200343726098332;-350588;-412642;-336857;-649226;
2024-05-06T14:35:37.254;538200343744265697;-350929;-412915;-337218;-649250;
2024-05-06T14:35:37.272;538200343762433062;-351307;-413247;-337638;-649311;
2024-05-06T14:35:37.290;538200343780600427;-351527;-413519;-337917;-649314;
2024-05-06T14:35:37.308;538200343798767792;-351773;-413711;-338193;-649419;
2024-05-06T14:35:37.327;538200343816935157;-351957;-413824;-338401;-649492;
2024-05-06T14:35:37.345;538200343835102522;-352061;-413998;-338464;-649452;
2024-05-06T14:35:37.363;538200343853269887;-352175;-414055;-338544;-649536;
2024-05-06T14:35:37.381;538200343871437252;-352254;-414141;-338604;-649595;
2024-05-06T14:35:37.399;538200343889604617;-352286;-414134;-338636;-649609;
2024-05-06T14:35:37.417;538200343907771982;-352304;-414100;-338597;-649665;
2024-05-06T14:35:37.436;538200343925939347;-352241;-414111;-338614;-649612;
2024-05-06T14:35:37.454;538200343944106712;-352250;-414103;-338596;-649646;
2024-05-06T14:35:37.472;538200343962274077;-352322;-414119;-338669;-649631;
2024-05-06T14:35:37.490;538200343980441442;-352358;-414204;-338708;-649599;
2024-05-06T14:35:37.508;538200343998608807;-352455;-414180;-338706;-649597;
2024-05-06T14:35:37.526;538200344016776172;-352469;-414259;-338715;-649600;
2024-05-06T14:35:37.545;538200344034943537;-352498;-414283;-338731;-649580;
2024-05-06T14:35:37.563;538200344053110902;-352532;-414217;-338732;-649562;
2024-05-06T14:35:37.581;538200344071278267;-352554;-414286;-338686;-649584;
2024-05-06T14:35:37.599;538200344089445632;-352526;-414212;-338672;-649586;
2024-05-06T14:35:37.617;538200344107612997;-352452;-414159;-338554;-649570;
2024-05-06T14:35:37.635;538200344125780362;-352446;-414104;-338474;-649566;
2024-05-06T14:35:37.654;538200344143947727;-352435;-413967;-338373;-649540;
2024-05-06T14:35:37.672;538200344162115092;-352327;-413916;-338354;-649570;
2024-05-06T14:35:37.690;538200344180282457;-352309;-413820;-338258;-649540;
2024-05-06T14:35:37.708;538200344198449822;-352220;-413829;-338234;-649568;
2024-05-06T14:35:37.726;538200344216617187;-352190;-413694;-338029;-649644;
2024-05-06T14:35:37.744;538200344234784552;-352136;-413602;-337893;-649551;
2024-05-06T14:35:37.763;538200344252951917;-351961;-413459;-337796;-649575;
2024-05-06T14:35:37.781;538200344271119282;-351827;-413338;-337647;-649591;
2024-05-06T14:35:37.799;538200344289286722;-351722;-413236;-337431;-649529;
2024-05-06T14:35:37.817;538200344307454160;-351592;-413072;-337232;-649562;
2024-05-06T14:35:37.835;538200344325621598;-351562;-412871;-337079;-649547;
2024-05-06T14:35:37.853;538200344343789036;-351401;-412765;-336926;-649595;
2024-05-06T14:35:37.872;538200344361956474;-351223;-412647;-336721;-649572;
2024-05-06T14:35:37.890;538200344380123912;-351068;-412479;-336534;-649530;
2024-05-06T14:35:37.908;538200344398291350;-350932;-412358;-336358;-649565;
2024-05-06T14:35:37.926;538200344416458788;-350846;-412230;-336185;-649577;
2024-05-06T14:35:37.944;538200344434626226;-350709;-412111;-336006;-649589;
2024-05-06T14:35:37.962;538200344452793664;-350774;-412122;-336059;-649621;
2024-05-06T14:35:37.981;538200344470961102;-350866;-412248;-336244;-649607;
2024-05-06T14:35:37.999;538200344489128540;-351053;-412414;-336449;-649629;
2024-05-06T14:35:38.017;538200344507295978;-351286;-412594;-336740;-649663;
2024-05-06T14:35:38.035;538200344525463416;-351544;-412808;-337002;-649679;
2024-05-06T14:35:38.053;538200344543630854;-351750;-412953;-337176;-649641;
2024-05-06T14:35:38.071;538200344561798292;-351954;-413059;-337331;-649633;
2024-05-06T14:35:38.090;538200344579965730;-352122;-413118;-337461;-649650;
2024-05-06T14:35:38.108;538200344598133168;-352195;-413099;-337487;-649608;
2024-05-06T14:35:38.126;538200344616300606;-352163;-413093;-337478;-649565;
2024-05-06T14:35:38.144;538200344634468044;-352187;-413100;-337458;-649613;
2024-05-06T14:35:38.162;538200344652635482;-352168;-413080;-337407;-649589;
2024-05-06T14:35:38.180;538200344670802920;-352089;-412959;-337334;-649572;
2024-05-06T14:35:38.199;538200344688970358;-352027;-412937;-337275;-649594;
2024-05-06T14:35:38.217;538200344707137796;-352042;-412883;-337118;-649621;
2024-05-06T14:35:38.235;538200344725305234;-351981;-412861;-337051;-649660;
2024-05-06T14:35:38.253;538200344743472672;-351949;-412817;-337027;-649577;
2024-05-06T14:35:38.271;538200344761640110;-351956;-412754;-336962;-649566;
2024-05-06T14:35:38.289;538200344779807548;-351986;-412763;-336990;-649585;
2024-05-06T14:35:38.308;538200344797974986;-351978;-412716;-336943;-649607;
2024-05-06T14:35:38.326;538200344816142424;-351963;-412661;-336934;-649574;
2024-05-06T14:35:38.344;538200344834309862;-351953;-412728;-336905;-649590;
2024-05-06T14:35:38.362;538200344852477300;-351922;-412654;-336839;-649574;
2024-05-06T14:35:38.380;538200344870644738;-351909;-412660;-336784;-649670;
2024-05-06T14:35:38.398;538200344888812176;-351848;-412532;-336668;-649627;
2024-05-06T14:35:38.417;538200344906979614;-351734;-412482;-336538;-649647;
2024-05-06T14:35:38.435;538200344925147052;-351721;-412341;-336455;-649617;
2024-05-06T14:35:38.453;538200344943314490;-351604;-412254;-336305;-649635;
2024-05-06T14:35:38.471;538200344961481928;-351487;-412157;-336172;-649615;
2024-05-06T14:35:38.489;538200344979649366;-351411;-412088;-335988;-649585;
2024-05-06T14:35:38.507;538200344997816804;-351260;-411945;-335849;-649567;
2024-05-06T14:35:38.526;538200345015984242;-351172;-411899;-335705;-649616;
2024-05-06T14:35:38.544;538200345034151680;-351019;-411767;-335455;-649603;
2024-05-06T14:35:38.562;538200345052319002;-350935;-411649;-335370;-649640;
2024-05-06T14:35:38.580;538200345070486294;-350730;-411499;-335140;-649616;
2024-05-06T14:35:38.598;538200345088653586;-350608;-411316;-334957;-649589;
2024-05-06T14:35:38.616;538200345106820878;-350445;-411202;-334774;-649587;
2024-05-06T14:35:38.635;538200345124988170;-350283;-411080;-334568;-649522;
2024-05-06T14:35:38.653;538200345143155462;-350138;-410897;-334404;-649497;
2024-05-06T14:35:38.671;538200345161322754;-350031;-410746;-334218;-649533;
2024-05-06T14:35:38.689;538200345179490046;-349937;-410636;-334112;-649546;
2024-05-06T14:35:38.707;538200345197657338;-349976;-410739;-334183;-649492;
2024-05-06T14:35:38.725;538200345215824630;-350128;-410767;-334327;-649485;
2024-05-06T14:35:38.744;538200345233991922;-350212;-410838;-334405;-649488;
2024-05-06T14:35:38.762;538200345252159214;-350500;-411027;-334640;-649406;
2024-05-06T14:35:38.780;538200345270326506;-350655;-411189;-334816;-649420;
2024-05-06T14:35:38.798;538200345288493798;-350791;-411214;-334882;-649397;
2024-05-06T14:35:38.816;538200345306661090;-350820;-411230;-334947;-649363;
2024-05-06T14:35:38.834;538200345324828382;-350839;-411227;-334916;-649353;
2024-05-06T14:35:38.853;538200345342995674;-350861;-411194;-334940;-649336;
2024-05-06T14:35:38.871;538200345361162966;-350856;-411206;-334900;-649275;
2024-05-06T14:35:38.889;538200345379330258;-350842;-411118;-334831;-649327;
2024-05-06T14:35:38.907;538200345397497550;-350815;-411044;-334783;-649293;
2024-05-06T14:35:38.925;538200345415664842;-350694;-410915;-334662;-649209;
2024-05-06T14:35:38.943;538200345433832134;-350663;-410858;-334498;-649234;
2024-05-06T14:35:38.962;538200345451999426;-350626;-410735;-334447;-649198;
2024-05-06T14:35:38.980;538200345470166718;-350624;-410714;-334437;-649206;
2024-05-06T14:35:38.998;538200345488334010;-350567;-410639;-334366;-649194;
2024-05-06T14:35:39.016;538200345506501302;-350505;-410589;-334268;-649088;
2024-05-06T14:35:39.034;538200345524668594;-350476;-410507;-334172;-649149;
2024-05-06T14:35:39.052;538200345542835886;-350511;-410481;-334162;-649156;
2024-05-06T14:35:39.071;538200345561003178;-350444;-410382;-334092;-649139;
2024-05-06T14:35:39.089;538200345579170470;-350376;-410396;-333989;-649082;
2024-05-06T14:35:39.107;538200345597337762;-350285;-410324;-333920;-649039;
2024-05-06T14:35:39.125;538200345615505054;-350230;-410206;-333841;-649074;
2024-05-06T14:35:39.143;538200345633672346;-350133;-410161;-333701;-649009;
2024-05-06T14:35:39.161;538200345651839638;-350082;-410034;-333606;-649001;
2024-05-06T14:35:39.180;538200345670006930;-350002;-409856;-333482;-649018;
2024-05-06T14:35:39.198;538200345688174222;-349935;-409769;-333282;-649071;
2024-05-06T14:35:39.216;538200345706341514;-349777;-409630;-333093;-649023;
2024-05-06T14:35:39.234;538200345724508806;-349666;-409468;-332944;-649041;
2024-05-06T14:35:39.252;538200345742676098;-349535;-409425;-332880;-649024;
2024-05-06T14:35:39.270;538200345760843390;-349451;-409333;-332664;-649017;
2024-05-06T14:35:39.289;538200345779010682;-349316;-409296;-332537;-649024;
2024-05-06T14:35:39.307;538200345797177974;-349196;-409165;-332329;-649086;
2024-05-06T14:35:39.325;538200345815345487;-349035;-409016;-332182;-649052;
2024-05-06T14:35:39.343;538200345833512969;-348914;-408908;-332043;-649016;
2024-05-06T14:35:39.361;538200345851680451;-348825;-408765;-331879;-649084;
2024-05-06T14:35:39.379;538200345869847933;-348676;-408606;-331709;-649045;
2024-05-06T14:35:39.398;538200345888015415;-348564;-408439;-331565;-648994;
2024-05-06T14:35:39.416;538200345906182897;-348439;-408362;-331466;-648972;
2024-05-06T14:35:39.434;538200345924350379;-348488;-408354;-331489;-649024;
2024-05-06T14:35:39.452;538200345942517861;-348583;-408497;-331622;-649044;
2024-05-06T14:35:39.470;538200345960685343;-348781;-408643;-331803;-649044;
2024-05-06T14:35:39.488;538200345978852825;-349020;-408829;-332087;-649049;
2024-05-06T14:35:39.507;538200345997020307;-349184;-408936;-332293;-649033;
2024-05-06T14:35:39.525;538200346015187789;-349343;-409111;-332369;-648939;
2024-05-06T14:35:39.543;538200346033355271;-349454;-409111;-332497;-649021;
2024-05-06T14:35:39.561;538200346051522753;-349555;-409066;-332493;-648928;
2024-05-06T14:35:39.579;538200346069690235;-349588;-409042;-332454;-649005;
2024-05-06T14:35:39.597;538200346087857717;-349691;-409108;-332501;-648985;
2024-05-06T14:35:39.616;538200346106025199;-349695;-409098;-332524;-649024;
2024-05-06T14:35:39.634;538200346124192681;-349658;-409071;-332490;-648997;
2024-05-06T14:35:39.652;538200346142360163;-349641;-409046;-332389;-649035;
2024-05-06T14:35:39.670;538200346160527645;-349551;-408966;-332250;-648930;
2024-05-06T14:35:39.688;538200346178695127;-349439;-408920;-332153;-648896;
2024-05-06T14:35:39.706;538200346196862609;-349384;-408866;-332092;-648798;
2024-05-06T14:35:39.725;538200346215030091;-349329;-408847;-332088;-648770;
2024-05-06T14:35:39.743;538200346233197573;-349313;-408880;-332183;-648641;
2024-05-06T14:35:39.761;538200346251365055;-349268;-408856;-332166;-648549;
2024-05-06T14:35:39.779;538200346269532537;-349188;-408854;-332149;-648437;
2024-05-06T14:35:39.797;538200346287700019;-348986;-408674;-332026;-648202;
2024-05-06T14:35:39.815;538200346305867501;-348754;-408437;-331747;-647968;
2024-05-06T14:35:39.834;538200346324034983;-348385;-408285;-331401;-647632;
2024-05-06T14:35:39.852;538200346342202465;-347862;-407872;-330971;-647301;
2024-05-06T14:35:39.870;538200346360369947;-347361;-407418;-330501;-647022;
2024-05-06T14:35:39.888;538200346378537429;-346923;-407162;-330084;-646750;
2024-05-06T14:35:39.906;538200346396704911;-346494;-406835;-329676;-646524;
2024-05-06T14:35:39.924;538200346414872393;-345996;-406476;-329261;-646249;
2024-05-06T14:35:39.943;538200346433039875;-345584;-406251;-328929;-646142;
2024-05-06T14:35:39.961;538200346451207357;-345291;-406066;-328658;-646065;
2024-05-06T14:35:39.979;538200346469374839;-344897;-405865;-328323;-645938;
2024-05-06T14:35:39.997;538200346487542321;-344568;-405607;-328083;-645900;
2024-05-06T14:35:40.015;538200346505709803;-344318;-405520;-327893;-645832;
2024-05-06T14:35:40.033;538200346523877937;-344061;-405432;-327743;-645833;
2024-05-06T14:35:40.052;538200346542046065;-343724;-405241;-327493;-645733;
2024-05-06T14:35:40.070;538200346560214193;-343451;-405109;-327369;-645728;
2024-05-06T14:35:40.088;538200346578382321;-343096;-404926;-327076;-645605;
2024-05-06T14:35:40.106;538200346596550449;-342733;-404721;-326724;-645498;
2024-05-06T14:35:40.124;538200346614718577;-342380;-404507;-326415;-645347;
2024-05-06T14:35:40.142;538200346632886705;-341955;-404179;-326073;-645241;
2024-05-06T14:35:40.161;538200346651054833;-341704;-403984;-325851;-645293;
2024-05-06T14:35:40.179;538200346669222961;-341489;-403880;-325578;-645354;
2024-05-06T14:35:40.197;538200346687391089;-341382;-403794;-325455;-645502;
2024-05-06T14:35:40.215;538200346705559217;-341504;-404050;-325751;-645743;
2024-05-06T14:35:40.233;538200346723727345;-341904;-404533;-326263;-646079;
2024-05-06T14:35:40.251;538200346741895473;-342365;-405056;-326860;-646583;
2024-05-06T14:35:40.270;538200346760063601;-342810;-405548;-327364;-646967;
2024-05-06T14:35:40.288;538200346778231729;-343087;-405924;-327684;-647313;
2024-05-06T14:35:40.306;538200346796399857;-343423;-406390;-328073;-647691;
2024-05-06T14:35:40.324;538200346814567985;-343639;-406673;-328391;-648056;
2024-05-06T14:35:40.342;538200346832736113;-343776;-406798;-328547;-648385;
2024-05-06T14:35:40.360;538200346850904241;-343644;-406801;-328560;-648638;
2024-05-06T14:35:40.379;538200346869072369;-343575;-406873;-328571;-648788;
2024-05-06T14:35:40.397;538200346887240497;-343575;-407140;-328685;-648941;
2024-05-06T14:35:40.415;538200346905408625;-343598;-407363;-328832;-649128;
2024-05-06T14:35:40.433;538200346923576753;-343658;-407655;-329141;-649374;
2024-05-06T14:35:40.451;538200346941744881;-343522;-407893;-329435;-649539;
2024-05-06T14:35:40.469;538200346959913009;-343143;-407948;-329696;-649648;
2024-05-06T14:35:40.488;538200346978081137;-342795;-408055;-329853;-649691;
2024-05-06T14:35:40.506;538200346996249265;-342496;-408117;-330087;-649882;
2024-05-06T14:35:40.524;538200347014417393;-342360;-408319;-330554;-650317;
2024-05-06T14:35:40.542;538200347032585521;-342189;-408549;-330977;-650607;
2024-05-06T14:35:40.560;538200347050753649;-341980;-408978;-331523;-650729;
2024-05-06T14:35:40.579;538200347068921777;-341954;-409409;-331926;-650780;
2024-05-06T14:35:40.597;538200347087089905;-341863;-410036;-332677;-650725;
2024-05-06T14:35:40.615;538200347105258033;-341871;-410880;-333174;-650653;
2024-05-06T14:35:40.633;538200347123426161;-342678;-412312;-332581;-650495;
2024-05-06T14:35:40.651;538200347141593542;-345135;-415455;-328883;-650197;
2024-05-06T14:35:40.669;538200347159760907;-344618;-409954;-311562;-649805;
2024-05-06T14:35:40.688;538200347177928272;-341652;-412298;-314339;-649962;
2024-05-06T14:35:40.706;538200347196095637;-363224;-429060;-339624;-650216;
2024-05-06T14:35:40.724;538200347214263002;-343932;-426708;-356254;-650574;
2024-05-06T14:35:40.742;538200347232430367;-358283;-433834;-375930;-651025;
2024-05-06T14:35:40.760;538200347250597732;-384664;-445586;-403019;-651333;
2024-05-06T14:35:40.778;538200347268765097;-390866;-450672;-415657;-651487;
2024-05-06T14:35:40.797;538200347286932462;-394561;-460452;-419770;-651534;
2024-05-06T14:35:40.815;538200347305099827;-396051;-467186;-423392;-651508;
2024-05-06T14:35:40.833;538200347323267192;-399054;-469963;-423835;-651337;
2024-05-06T14:35:40.851;538200347341434557;-398931;-472000;-423060;-651288;
2024-05-06T14:35:40.869;538200347359601922;-396374;-477106;-423581;-651265;
2024-05-06T14:35:40.887;538200347377769287;-391491;-483183;-416739;-651218;
2024-05-06T14:35:40.906;538200347395936652;-384549;-482263;-415140;-651123;
2024-05-06T14:35:40.924;538200347414104017;-376202;-473736;-404197;-650826;
2024-05-06T14:35:40.942;538200347432271382;-339397;-454816;-381865;-650427;
2024-05-06T14:35:40.960;538200347450438747;-305192;-439300;-353871;-650230;
2024-05-06T14:35:40.978;538200347468606112;-291079;-437917;-346409;-650146;
2024-05-06T14:35:40.996;538200347486773477;-314386;-445493;-338059;-650191;
2024-05-06T14:35:41.015;538200347504940842;-318955;-451653;-333170;-650088;
2024-05-06T14:35:41.033;538200347523108207;-321440;-455291;-331400;-650087;
2024-05-06T14:35:41.051;538200347541275572;-333172;-461518;-339473;-650188;
2024-05-06T14:35:41.069;538200347559442945;-341962;-463958;-348214;-650336;
2024-05-06T14:35:41.087;538200347577610310;-348013;-463295;-356361;-650533;
2024-05-06T14:35:41.105;538200347595777675;-351327;-462726;-361290;-650563;
2024-05-06T14:35:41.124;538200347613945040;-353173;-462902;-363918;-650639;
2024-05-06T14:35:41.142;538200347632112405;-354742;-463866;-364701;-650648;
2024-05-06T14:35:41.160;538200347650279770;-355113;-466454;-362455;-650557;
2024-05-06T14:35:41.178;538200347668447135;-320508;-454551;-330681;-650348;
2024-05-06T14:35:41.196;538200347686614500;-239726;-408076;-266531;-649991;
2024-05-06T14:35:41.214;538200347704781865;-114164;-293504;-125446;-649432;
2024-05-06T14:35:41.233;538200347722949230;-31692;-228578;-12722;-649062;
2024-05-06T14:35:41.251;538200347741116595;-18366;-201772;12652;-648819;
2024-05-06T14:35:41.269;538200347759283960;-31475;-232638;-2588;-648755;
2024-05-06T14:35:41.287;538200347777451325;-93155;-282910;-64161;-648805;
2024-05-06T14:35:41.305;538200347795618690;-147363;-331800;-134393;-649155;
2024-05-06T14:35:41.323;538200347813786055;-102361;-286807;-95533;-649108;
2024-05-06T14:35:41.342;538200347831953420;-74634;-265586;-86682;-649258;
2024-05-06T14:35:41.360;538200347850120785;-151725;-335460;-162182;-649906;
2024-05-06T14:35:41.378;538200347868288150;-224043;-394441;-231953;-650272;
2024-05-06T14:35:41.396;538200347886455515;-261924;-427370;-272623;-650525;
2024-05-06T14:35:41.414;538200347904622880;-278380;-440057;-290639;-650609;
2024-05-06T14:35:41.432;538200347922790609;-287211;-439994;-298050;-650600;
2024-05-06T14:35:41.451;538200347940958326;-286646;-436586;-303366;-650744;
2024-05-06T14:35:41.469;538200347959126043;-286633;-434105;-303126;-650747;
2024-05-06T14:35:41.487;538200347977293760;-289719;-431492;-303733;-650704;
2024-05-06T14:35:41.505;538200347995461477;-293468;-426747;-308079;-650696;
2024-05-06T14:35:41.523;538200348013629194;-295796;-420549;-315690;-650743;
2024-05-06T14:35:41.541;538200348031796911;-292926;-416785;-325166;-650770;
2024-05-06T14:35:41.560;538200348049964628;-285297;-416848;-336658;-650789;
2024-05-06T14:35:41.578;538200348068132345;-278761;-418333;-349691;-650778;
2024-05-06T14:35:41.596;538200348086300062;-278873;-423190;-355468;-650749;
2024-05-06T14:35:41.614;538200348104467779;-282675;-420083;-347061;-650930;
2024-05-06T14:35:41.632;538200348122635496;-270912;-423707;-351345;-650814;
2024-05-06T14:35:41.650;538200348140803213;-266345;-425466;-350407;-650687;
2024-05-06T14:35:41.669;538200348158970930;-271058;-421175;-345385;-650453;
2024-05-06T14:35:41.687;538200348177138647;-279134;-417818;-341357;-650369;
2024-05-06T14:35:41.705;538200348195306364;-283844;-416676;-339772;-650277;
2024-05-06T14:35:41.723;538200348213474081;-285996;-416299;-338992;-650176;
2024-05-06T14:35:41.741;538200348231641798;-286802;-415646;-338285;-650087;
2024-05-06T14:35:41.759;538200348249809515;-288523;-414676;-337878;-650025;
2024-05-06T14:35:41.778;538200348267977232;-292725;-413095;-337334;-649962;
2024-05-06T14:35:41.796;538200348286144949;-297908;-410804;-337358;-649723;
2024-05-06T14:35:41.814;538200348304312666;-304223;-407116;-337675;-649224;
2024-05-06T14:35:41.832;538200348322480383;-305947;-404837;-337042;-648509;
2024-05-06T14:35:41.850;538200348340648100;-305453;-402871;-335759;-647301;
2024-05-06T14:35:41.868;538200348358815817;-304135;-400959;-334126;-645824;
2024-05-06T14:35:41.887;538200348376983534;-302855;-399573;-332730;-644729;
2024-05-06T14:35:41.905;538200348395150687;-301758;-398524;-331549;-644021;
2024-05-06T14:35:41.923;538200348413317804;-300846;-397755;-330597;-643515;
2024-05-06T14:35:41.941;538200348431484921;-299990;-397050;-329758;-643035;
2024-05-06T14:35:41.959;538200348449652038;-299362;-396480;-329119;-642654;
2024-05-06T14:35:41.977;538200348467819155;-298908;-396215;-328700;-642417;
2024-05-06T14:35:41.996;538200348485986272;-298871;-396198;-328554;-642417;
2024-05-06T14:35:42.014;538200348504153389;-298746;-396282;-328537;-642465;
2024-05-06T14:35:42.032;538200348522320506;-298828;-396481;-328671;-642757;
2024-05-06T14:35:42.050;538200348540487623;-298972;-396819;-328839;-643109;
2024-05-06T14:35:42.068;538200348558654740;-299185;-397129;-329081;-643672;
2024-05-06T14:35:42.086;538200348576821857;-299251;-397431;-329319;-644052;
2024-05-06T14:35:42.105;538200348594988974;-299314;-397647;-329399;-644513;
2024-05-06T14:35:42.123;538200348613156091;-299284;-397751;-329394;-644787;
2024-05-06T14:35:42.141;538200348631323208;-298999;-397719;-329179;-644937;
2024-05-06T14:35:42.159;538200348649490325;-298672;-397601;-328902;-645023;
2024-05-06T14:35:42.177;538200348667657442;-298335;-397445;-328570;-645045;
2024-05-06T14:35:42.195;538200348685824559;-298023;-397334;-328300;-645091;
2024-05-06T14:35:42.214;538200348703991676;-297840;-397332;-328180;-645117;
2024-05-06T14:35:42.232;538200348722158793;-297803;-397360;-328110;-645258;
2024-05-06T14:35:42.250;538200348740325910;-297796;-397328;-328032;-645398;
2024-05-06T14:35:42.268;538200348758493027;-297650;-397349;-327886;-645579;
2024-05-06T14:35:42.286;538200348776660144;-297385;-397198;-327688;-645687;
2024-05-06T14:35:42.304;538200348794827261;-297120;-397117;-327503;-645779;
2024-05-06T14:35:42.323;538200348812994378;-296882;-396991;-327222;-645949;
2024-05-06T14:35:42.341;538200348831161495;-296623;-396842;-326969;-645962;
2024-05-06T14:35:42.359;538200348849328612;-296470;-396725;-326624;-646026;
2024-05-06T14:35:42.377;538200348867495729;-296452;-396665;-326437;-646025;
2024-05-06T14:35:42.395;538200348885662846;-296522;-396665;-326336;-646127;
2024-05-06T14:35:42.413;538200348903829963;-296558;-396600;-326255;-646230;
2024-05-06T14:35:42.432;538200348921997080;-296477;-396680;-326127;-646303;
2024-05-06T14:35:42.450;538200348940164197;-296380;-396657;-325993;-646313;
2024-05-06T14:35:42.468;538200348958331314;-296290;-396675;-325959;-646423;
2024-05-06T14:35:42.486;538200348976498431;-296270;-396618;-325894;-646458;
2024-05-06T14:35:42.504;538200348994665548;-296283;-396556;-325807;-646499;
2024-05-06T14:35:42.522;538200349012832665;-296409;-396615;-325800;-646638;
2024-05-06T14:35:42.541;538200349030999782;-296642;-396623;-325683;-646677;
2024-05-06T14:35:42.559;538200349049166899;-297228;-396774;-325493;-646873;
2024-05-06T14:35:42.577;538200349067332963;-298096;-396852;-325240;-646863;
2024-05-06T14:35:42.595;538200349085499005;-298961;-397033;-325139;-647072;
2024-05-06T14:35:42.613;538200349103665047;-299455;-397070;-324968;-647187;
2024-05-06T14:35:42.631;538200349121831089;-299498;-397034;-324743;-647245;
2024-05-06T14:35:42.650;538200349139997131;-299106;-396814;-324452;-647104;
2024-05-06T14:35:42.668;538200349158163173;-298420;-396435;-324009;-646897;
2024-05-06T14:35:42.686;538200349176329215;-297671;-395970;-323570;-646606;
2024-05-06T14:35:42.704;538200349194495257;-296942;-395469;-323000;-646279;
2024-05-06T14:35:42.722;538200349212661299;-296049;-394784;-322468;-646025;
2024-05-06T14:35:42.740;538200349230827341;-295156;-394023;-321859;-645716;
2024-05-06T14:35:42.759;538200349248993383;-294416;-393325;-321350;-645562;
2024-05-06T14:35:42.777;538200349267159425;-293921;-393057;-320936;-645463;
2024-05-06T14:35:42.795;538200349285325467;-293901;-393187;-320677;-645456;
2024-05-06T14:35:42.813;538200349303491509;-294559;-393484;-320907;-645671;
2024-05-06T14:35:42.831;538200349321657551;-295699;-393936;-321801;-646007;
2024-05-06T14:35:42.849;538200349339823593;-296845;-394545;-322783;-646536;
2024-05-06T14:35:42.868;538200349357989635;-298226;-395397;-323560;-647038;
2024-05-06T14:35:42.886;538200349376155677;-300363;-396087;-323787;-647485;
2024-05-06T14:35:42.904;538200349394321719;-302388;-396237;-323588;-647770;
2024-05-06T14:35:42.922;538200349412487761;-303583;-395948;-323334;-647908;
2024-05-06T14:35:42.940;538200349430653803;-303764;-395513;-322981;-647780;
2024-05-06T14:35:42.958;538200349448819845;-303421;-395091;-322515;-647611;
2024-05-06T14:35:42.977;538200349466985887;-302630;-394647;-321854;-647412;
2024-05-06T14:35:42.995;538200349485151929;-301572;-394115;-321140;-647069;
2024-05-06T14:35:43.013;538200349503317971;-300398;-393396;-320342;-646581;
2024-05-06T14:35:43.031;538200349521484013;-299318;-392562;-319539;-646100;
2024-05-06T14:35:43.049;538200349539650055;-298347;-391823;-318749;-645643;
2024-05-06T14:35:43.067;538200349557816097;-297493;-391134;-318224;-645452;
2024-05-06T14:35:43.086;538200349575982139;-296772;-390624;-317819;-645230;
2024-05-06T14:35:43.104;538200349594148181;-296127;-390176;-317465;-645162;
2024-05-06T14:35:43.122;538200349612314593;-295427;-389711;-317081;-645016;
2024-05-06T14:35:43.140;538200349630480983;-295093;-389541;-316851;-645071;
2024-05-06T14:35:43.158;538200349648647373;-295112;-389586;-316590;-645072;
2024-05-06T14:35:43.176;538200349666813763;-295825;-390131;-316638;-645225;
2024-05-06T14:35:43.195;538200349684980153;-296925;-390803;-317109;-645693;
2024-05-06T14:35:43.213;538200349703146543;-297982;-391641;-317888;-646302;
2024-05-06T14:35:43.231;538200349721312933;-298485;-392201;-318454;-646864;
2024-05-06T14:35:43.249;538200349739479323;-298778;-392553;-318876;-647206;
2024-05-06T14:35:43.267;538200349757645713;-299173;-392807;-319133;-647417;
2024-05-06T14:35:43.285;538200349775812103;-300037;-393048;-319661;-647640;
2024-05-06T14:35:43.304;538200349793978493;-301442;-393243;-320317;-647800;
2024-05-06T14:35:43.322;538200349812144883;-302868;-393197;-320763;-647922;
2024-05-06T14:35:43.340;538200349830311273;-303482;-392865;-320799;-648021;
2024-05-06T14:35:43.358;538200349848477663;-302970;-392088;-320304;-648065;
2024-05-06T14:35:43.376;538200349866644053;-301638;-391026;-319328;-647988;
2024-05-06T14:35:43.394;538200349884810443;-300209;-389826;-318282;-647890;
2024-05-06T14:35:43.413;538200349902976833;-299026;-389028;-317389;-647692;
2024-05-06T14:35:43.431;538200349921143223;-298433;-388645;-316798;-647497;
2024-05-06T14:35:43.449;538200349939309613;-298151;-388605;-316575;-647416;
2024-05-06T14:35:43.467;538200349957476003;-297882;-388456;-316445;-647396;
2024-05-06T14:35:43.485;538200349975642393;-297180;-388055;-316096;-647398;
2024-05-06T14:35:43.503;538200349993808783;-296436;-387676;-315666;-647210;
2024-05-06T14:35:43.522;538200350011975173;-296003;-387413;-315242;-647024;
2024-05-06T14:35:43.540;538200350030141563;-295773;-387348;-314999;-646837;
2024-05-06T14:35:43.558;538200350048307953;-295534;-387137;-314741;-646684;
2024-05-06T14:35:43.576;538200350066474343;-295375;-387034;-314518;-646563;
2024-05-06T14:35:43.594;538200350084640733;-295304;-386937;-314441;-646471;
2024-05-06T14:35:43.612;538200350102807123;-295360;-387027;-314557;-646511;
2024-05-06T14:35:43.631;538200350120973513;-295565;-387187;-314743;-646667;
2024-05-06T14:35:43.649;538200350139139903;-295628;-387311;-314889;-646774;
2024-05-06T14:35:43.667;538200350157306293;-295860;-387566;-315164;-646903;
2024-05-06T14:35:43.685;538200350175472683;-295925;-387783;-315430;-646980;
2024-05-06T14:35:43.703;538200350193639073;-296076;-387870;-315718;-647038;
2024-05-06T14:35:43.721;538200350211805463;-296103;-387982;-315886;-647093;
2024-05-06T14:35:43.740;538200350229971853;-296141;-388033;-315964;-647133;
2024-05-06T14:35:43.758;538200350248138243;-296141;-388094;-316052;-647083;
2024-05-06T14:35:43.776;538200350266305682;-296166;-388130;-316096;-647075;
2024-05-06T14:35:43.794;538200350284473082;-296125;-388135;-316119;-647003;
2024-05-06T14:35:43.812;538200350302640482;-296152;-388057;-316168;-646916;
2024-05-06T14:35:43.830;538200350320807882;-296141;-388032;-316178;-646882;
2024-05-06T14:35:43.849;538200350338975282;-296228;-387987;-316228;-646891;
2024-05-06T14:35:43.867;538200350357142682;-296234;-388004;-316287;-646885;
2024-05-06T14:35:43.885;538200350375310082;-296295;-388044;-316264;-646896;
2024-05-06T14:35:43.903;538200350393477482;-296313;-388012;-316253;-646915;
2024-05-06T14:35:43.921;538200350411644882;-296304;-388033;-316341;-646922;
2024-05-06T14:35:43.939;538200350429812282;-296293;-388018;-316314;-646935;
2024-05-06T14:35:43.958;538200350447979682;-296385;-388011;-316431;-646948;
2024-05-06T14:35:43.976;538200350466147082;-296397;-388052;-316464;-646889;
2024-05-06T14:35:43.994;538200350484314482;-296389;-388013;-316441;-646888;
2024-05-06T14:35:44.012;538200350502481882;-296404;-387963;-316365;-646797;
2024-05-06T14:35:44.030;538200350520649282;-296464;-387906;-316416;-646733;
2024-05-06T14:35:44.048;538200350538816682;-296500;-387912;-316410;-646659;
2024-05-06T14:35:44.067;538200350556984082;-296405;-387826;-316413;-646640;
2024-05-06T14:35:44.085;538200350575151482;-296395;-387726;-316394;-646589;
2024-05-06T14:35:44.103;538200350593318882;-296398;-387641;-316320;-646521;
2024-05-06T14:35:44.121;538200350611486282;-296444;-387623;-316266;-646440;
2024-05-06T14:35:44.139;538200350629653682;-296359;-387465;-316194;-646348;
2024-05-06T14:35:44.157;538200350647821082;-296321;-387427;-316209;-646320;
2024-05-06T14:35:44.176;538200350665988482;-296290;-387333;-316219;-646297;
2024-05-06T14:35:44.194;538200350684155882;-296323;-387360;-316213;-646311;
2024-05-06T14:35:44.212;538200350702323282;-296268;-387310;-316251;-646299;
2024-05-06T14:35:44.230;538200350720490682;-296142;-387180;-316066;-646147;
2024-05-06T14:35:44.248;538200350738658082;-296091;-387034;-315959;-646027;
2024-05-06T14:35:44.266;538200350756825482;-296030;-386932;-315774;-645907;
2024-05-06T14:35:44.285;538200350774992882;-296000;-386769;-315766;-645811;
2024-05-06T14:35:44.303;538200350793160282;-295931;-386645;-315663;-645731;
2024-05-06T14:35:44.321;538200350811327682;-295872;-386549;-315606;-645719;
2024-05-06T14:35:44.339;538200350829495082;-295918;-386528;-315632;-645700;
2024-05-06T14:35:44.357;538200350847662482;-295871;-386519;-315686;-645753;
2024-05-06T14:35:44.375;538200350865829882;-295948;-386525;-315723;-645753;
2024-05-06T14:35:44.394;538200350883997282;-295999;-386558;-315747;-645787;
2024-05-06T14:35:44.412;538200350902164682;-295982;-386510;-315754;-645752;
2024-05-06T14:35:44.430;538200350920332082;-295999;-386465;-315733;-645780;
2024-05-06T14:35:44.448;538200350938499482;-296038;-386442;-315704;-645718;
2024-05-06T14:35:44.466;538200350956666882;-296076;-386394;-315701;-645731;
2024-05-06T14:35:44.484;538200350974834282;-296010;-386236;-315623;-645677;
2024-05-06T14:35:44.503;538200350993001682;-295993;-386198;-315554;-645609;
2024-05-06T14:35:44.521;538200351011169082;-295993;-386100;-315545;-645604;
2024-05-06T14:35:44.539;538200351029336482;-295995;-386138;-315570;-645543;
2024-05-06T14:35:44.557;538200351047502840;-296068;-386162;-315651;-645590;
2024-05-06T14:35:44.575;538200351065669188;-296227;-386327;-315963;-645663;
2024-05-06T14:35:44.593;538200351083835536;-296319;-386417;-316066;-645686;
2024-05-06T14:35:44.612;538200351102001884;-296430;-386520;-316189;-645702;
2024-05-06T14:35:44.630;538200351120168232;-296563;-386597;-316274;-645704;
2024-05-06T14:35:44.648;538200351138334580;-296570;-386678;-316390;-645708;
2024-05-06T14:35:44.666;538200351156500928;-296593;-386640;-316393;-645670;
2024-05-06T14:35:44.684;538200351174667276;-296606;-386616;-316411;-645635;
2024-05-06T14:35:44.702;538200351192833624;-296606;-386624;-316476;-645592;
2024-05-06T14:35:44.721;538200351210999972;-296679;-386589;-316484;-645523;
2024-05-06T14:35:44.739;538200351229166320;-296637;-386573;-316465;-645507;
2024-05-06T14:35:44.757;538200351247332668;-296672;-386527;-316526;-645514;
2024-05-06T14:35:44.775;538200351265499016;-296658;-386529;-316512;-645553;
2024-05-06T14:35:44.793;538200351283665364;-296677;-386576;-316526;-645579;
2024-05-06T14:35:44.811;538200351301831712;-296681;-386581;-316580;-645570;
2024-05-06T14:35:44.830;538200351319998060;-296716;-386574;-316608;-645579;
2024-05-06T14:35:44.848;538200351338164408;-296745;-386609;-316621;-645596;
2024-05-06T14:35:44.866;538200351356330756;-296824;-386643;-316705;-645607;
2024-05-06T14:35:44.884;538200351374497104;-296853;-386687;-316755;-645597;
2024-05-06T14:35:44.902;538200351392663452;-296825;-386615;-316785;-645624;
2024-05-06T14:35:44.920;538200351410829800;-296883;-386615;-316808;-645652;
2024-05-06T14:35:44.939;538200351428996148;-296823;-386632;-316776;-645574;
2024-05-06T14:35:44.957;538200351447162496;-296832;-386613;-316872;-645620;
2024-05-06T14:35:44.975;538200351465328844;-296832;-386641;-316759;-645622;
2024-05-06T14:35:44.993;538200351483495192;-296828;-386631;-316761;-645638;
2024-05-06T14:35:45.011;538200351501661540;-296885;-386623;-316817;-645656;
2024-05-06T14:35:45.029;538200351519827888;-296870;-386619;-316827;-645611;
2024-05-06T14:35:45.048;538200351537994236;-296871;-386551;-316845;-645607;
2024-05-06T14:35:45.066;538200351556160584;-296878;-386565;-316854;-645606;
2024-05-06T14:35:45.084;538200351574326932;-296867;-386536;-316833;-645616;
2024-05-06T14:35:45.102;538200351592493280;-296847;-386531;-316799;-645729;
2024-05-06T14:35:45.120;538200351610659628;-296848;-386487;-316806;-645651;
2024-05-06T14:35:45.138;538200351628825976;-296827;-386431;-316702;-645625;
2024-05-06T14:35:45.157;538200351646992324;-296840;-386442;-316737;-645668;
2024-05-06T14:35:45.175;538200351665158672;-296796;-386327;-316720;-645670;
2024-05-06T14:35:45.193;538200351683325020;-296730;-386333;-316730;-645628;
2024-05-06T14:35:45.211;538200351701491368;-296759;-386366;-316715;-645626;
2024-05-06T14:35:45.229;538200351719657716;-296768;-386388;-316735;-645686;
2024-05-06T14:35:45.247;538200351737824064;-296748;-386370;-316704;-645704;
2024-05-06T14:35:45.266;538200351755990412;-296738;-386319;-316715;-645711;
2024-05-06T14:35:45.284;538200351774156760;-296738;-386247;-316723;-645706;
2024-05-06T14:35:45.302;538200351792323108;-296692;-386172;-316689;-645630;
2024-05-06T14:35:45.320;538200351810489456;-296666;-386232;-316635;-645690;
2024-05-06T14:35:45.338;538200351828655804;-296671;-386225;-316677;-645723;
2024-05-06T14:35:45.356;538200351846822152;-296611;-386220;-316619;-645726;
2024-05-06T14:35:45.375;538200351864988500;-296694;-386201;-316656;-645757;
2024-05-06T14:35:45.393;538200351883154848;-296603;-386196;-316696;-645699;
2024-05-06T14:35:45.411;538200351901321196;-296700;-386285;-316806;-645728;
2024-05-06T14:35:45.429;538200351919487925;-296761;-386349;-316890;-645718;
2024-05-06T14:35:45.447;538200351937654636;-296950;-386481;-317148;-645754;
2024-05-06T14:35:45.465;538200351955821347;-296987;-386549;-317211;-645719;
2024-05-06T14:35:45.484;538200351973988058;-297116;-386648;-317419;-645734;
2024-05-06T14:35:45.502;538200351992154769;-297259;-386735;-317579;-645704;
2024-05-06T14:35:45.520;538200352010321480;-297378;-386858;-317695;-645767;
2024-05-06T14:35:45.538;538200352028488191;-297478;-386970;-317802;-645792;
2024-05-06T14:35:45.556;538200352046654902;-297530;-386963;-317833;-645770;
2024-05-06T14:35:45.574;538200352064821613;-297574;-386998;-317886;-645761;
2024-05-06T14:35:45.593;538200352082988324;-297594;-386948;-317897;-645705;
2024-05-06T14:35:45.611;538200352101155035;-297595;-386990;-317923;-645693;
2024-05-06T14:35:45.629;538200352119321746;-297622;-386992;-317946;-645745;
2024-05-06T14:35:45.647;538200352137488457;-297660;-387001;-317948;-645786;
2024-05-06T14:35:45.665;538200352155655168;-297672;-387001;-317985;-645771;
2024-05-06T14:35:45.683;538200352173821879;-297777;-387061;-318009;-645773;
2024-05-06T14:35:45.702;538200352191988590;-297672;-387002;-318056;-645736;
2024-05-06T14:35:45.720;538200352210155301;-297841;-387054;-318136;-645821;
2024-05-06T14:35:45.738;538200352228322012;-297903;-387103;-318219;-645768;
2024-05-06T14:35:45.756;538200352246488723;-297920;-387140;-318329;-645765;
2024-05-06T14:35:45.774;538200352264655434;-297929;-387142;-318349;-645778;
2024-05-06T14:35:45.792;538200352282822145;-297968;-387251;-318402;-645784;
2024-05-06T14:35:45.811;538200352300988856;-297985;-387242;-318425;-645761;
2024-05-06T14:35:45.829;538200352319155567;-298023;-387236;-318488;-645803;
2024-05-06T14:35:45.847;538200352337322278;-298027;-387179;-318423;-645784;
2024-05-06T14:35:45.865;538200352355488989;-298038;-387179;-318493;-645773;
2024-05-06T14:35:45.883;538200352373655700;-297883;-387142;-318443;-645724;
2024-05-06T14:35:45.901;538200352391822411;-297888;-387066;-318466;-645677;
2024-05-06T14:35:45.920;538200352409989122;-297775;-387011;-318357;-645639;
2024-05-06T14:35:45.938;538200352428155833;-297736;-386920;-318325;-645668;
2024-05-06T14:35:45.956;538200352446322544;-297665;-386926;-318257;-645624;
2024-05-06T14:35:45.974;538200352464489255;-297562;-386852;-318228;-645581;
2024-05-06T14:35:45.992;538200352482655966;-297431;-386766;-318105;-645536;
2024-05-06T14:35:46.010;538200352500822677;-297338;-386705;-318096;-645504;
2024-05-06T14:35:46.029;538200352518989388;-297218;-386582;-317959;-645439;
2024-05-06T14:35:46.047;538200352537156099;-297090;-386451;-317912;-645399;
2024-05-06T14:35:46.065;538200352555322810;-296894;-386400;-317710;-645278;
2024-05-06T14:35:46.083;538200352573489521;-296717;-386274;-317553;-645119;
2024-05-06T14:35:46.101;538200352591656232;-296448;-386029;-317323;-644885;
2024-05-06T14:35:46.119;538200352609822943;-296286;-385827;-317100;-644705;
2024-05-06T14:35:46.138;538200352627989654;-296157;-385565;-316908;-644391;
2024-05-06T14:35:46.156;538200352646156365;-295898;-385116;-316638;-643964;
2024-05-06T14:35:46.174;538200352664323076;-295624;-384809;-316345;-643639;
2024-05-06T14:35:46.192;538200352682490433;-295386;-384439;-315992;-643341;
2024-05-06T14:35:46.210;538200352700657756;-295271;-384217;-315732;-642991;
2024-05-06T14:35:46.228;538200352718825079;-295245;-384076;-315646;-642791;
2024-05-06T14:35:46.247;538200352736992402;-295341;-384184;-315823;-642734;
2024-05-06T14:35:46.265;538200352755159725;-295527;-384348;-316085;-642748;
2024-05-06T14:35:46.283;538200352773327048;-295748;-384548;-316397;-642740;
2024-05-06T14:35:46.301;538200352791494371;-296072;-384737;-316649;-642756;
2024-05-06T14:35:46.319;538200352809661694;-296310;-384890;-316958;-642847;
2024-05-06T14:35:46.337;538200352827829017;-296509;-385073;-317211;-642816;
2024-05-06T14:35:46.356;538200352845996340;-296572;-385180;-317343;-642785;
2024-05-06T14:35:46.374;538200352864163663;-296822;-385301;-317545;-642821;
2024-05-06T14:35:46.392;538200352882330986;-297184;-385621;-317894;-643064;
2024-05-06T14:35:46.410;538200352900498309;-297630;-386027;-318289;-643455;
2024-05-06T14:35:46.428;538200352918665632;-297857;-386055;-318313;-643532;
2024-05-06T14:35:46.446;538200352936832955;-298285;-386353;-318737;-643853;
2024-05-06T14:35:46.465;538200352955000278;-298740;-386806;-319122;-644151;
2024-05-06T14:35:46.483;538200352973167601;-299174;-387122;-319555;-644509;
2024-05-06T14:35:46.501;538200352991334924;-299583;-387500;-319962;-644899;
2024-05-06T14:35:46.519;538200353009502247;-300153;-388043;-320524;-645417;
2024-05-06T14:35:46.537;538200353027669570;-300715;-388708;-321328;-645976;
2024-05-06T14:35:46.555;538200353045836893;-301037;-389153;-321765;-646410;
2024-05-06T14:35:46.574;538200353064004216;-301365;-389372;-321965;-646437;
2024-05-06T14:35:46.592;538200353082171539;-301830;-389736;-322443;-646622;
2024-05-06T14:35:46.610;538200353100338862;-302384;-390077;-322886;-646848;
2024-05-06T14:35:46.628;538200353118506185;-302830;-390553;-323141;-647087;
2024-05-06T14:35:46.646;538200353136673508;-303149;-390798;-323423;-647277;
2024-05-06T14:35:46.664;538200353154840831;-303386;-391046;-323652;-647457;
2024-05-06T14:35:46.683;538200353173008154;-303443;-391069;-323801;-647454;
2024-05-06T14:35:46.701;538200353191175477;-303488;-391100;-323987;-647485;
2024-05-06T14:35:46.719;538200353209342800;-303428;-391208;-324076;-647521;
2024-05-06T14:35:46.737;538200353227510123;-303124;-391105;-323930;-647433;
2024-05-06T14:35:46.755;538200353245677446;-302981;-391150;-323778;-647429;
2024-05-06T14:35:46.773;538200353263844769;-302930;-391090;-323659;-647451;
2024-05-06T14:35:46.792;538200353282012092;-302932;-391238;-323684;-647548;
2024-05-06T14:35:46.810;538200353300179415;-303153;-391523;-323932;-647744;
2024-05-06T14:35:46.828;538200353318346738;-303463;-391935;-324279;-648024;
2024-05-06T14:35:46.846;538200353336514061;-303648;-392207;-324709;-648253;
2024-05-06T14:35:46.864;538200353354682058;-303763;-392494;-324939;-648491;
2024-05-06T14:35:46.882;538200353372850045;-303728;-392744;-325227;-648702;
2024-05-06T14:35:46.901;538200353391018032;-303677;-392975;-325387;-648885;
2024-05-06T14:35:46.919;538200353409186019;-303751;-393111;-325563;-649004;
2024-05-06T14:35:46.937;538200353427354006;-303971;-393295;-325791;-649217;
2024-05-06T14:35:46.955;538200353445521993;-304194;-393484;-325977;-649404;
2024-05-06T14:35:46.973;538200353463689980;-304457;-393706;-326331;-649621;
2024-05-06T14:35:46.991;538200353481857967;-304589;-393844;-326635;-649791;
2024-05-06T14:35:47.010;538200353500025954;-304665;-394050;-327166;-650000;
2024-05-06T14:35:47.028;538200353518193941;-304815;-394345;-327911;-650301;
2024-05-06T14:35:47.046;538200353536361928;-304979;-394669;-328706;-650490;
2024-05-06T14:35:47.064;538200353554529915;-305211;-394997;-329510;-650642;
2024-05-06T14:35:47.082;538200353572697902;-305671;-395386;-330285;-650678;
2024-05-06T14:35:47.100;538200353590865889;-306424;-395733;-331013;-650751;
2024-05-06T14:35:47.119;538200353609033876;-308293;-396319;-332183;-650757;
2024-05-06T14:35:47.137;538200353627201863;-310857;-397096;-333906;-650710;
2024-05-06T14:35:47.155;538200353645369850;-306452;-397414;-338579;-650654;
2024-05-06T14:35:47.173;538200353663537837;-294187;-398751;-333363;-650679;
2024-05-06T14:35:47.191;538200353681705824;-284359;-397854;-328959;-650681;
2024-05-06T14:35:47.209;538200353699873811;-285602;-396002;-332702;-650661;
2024-05-06T14:35:47.228;538200353718041798;-285999;-399782;-347816;-650762;
2024-05-06T14:35:47.246;538200353736209785;-297767;-397921;-339003;-650769;
2024-05-06T14:35:47.264;538200353754377772;-305940;-406473;-355087;-650875;
2024-05-06T14:35:47.282;538200353772545759;-347366;-427320;-365330;-651029;
2024-05-06T14:35:47.300;538200353790713746;-369060;-438129;-378742;-651096;
2024-05-06T14:35:47.318;538200353808881733;-379444;-445379;-383469;-651160;
2024-05-06T14:35:47.337;538200353827049720;-393526;-453085;-385830;-651330;
2024-05-06T14:35:47.355;538200353845218742;-388756;-447671;-399357;-651491;
2024-05-06T14:35:47.373;538200353863387750;-398832;-449089;-406165;-651555;
2024-05-06T14:35:47.391;538200353881556758;-406590;-451738;-408797;-651654;
2024-05-06T14:35:47.409;538200353899725766;-414504;-457458;-418578;-651693;
2024-05-06T14:35:47.427;538200353917894774;-424136;-464239;-418765;-651763;
2024-05-06T14:35:47.446;538200353936063782;-426670;-464612;-427072;-651800;
2024-05-06T14:35:47.464;538200353954232790;-435343;-461880;-425481;-651933;
2024-05-06T14:35:47.482;538200353972401798;-439376;-461055;-425903;-651906;
2024-05-06T14:35:47.500;538200353990570806;-438233;-461122;-427166;-651972;
2024-05-06T14:35:47.518;538200354008739814;-435770;-461762;-428998;-651992;
2024-05-06T14:35:47.536;538200354026908822;-433987;-461585;-429425;-651993;
2024-05-06T14:35:47.555;538200354045077830;-432296;-460800;-429061;-652061;
2024-05-06T14:35:47.573;538200354063246838;-430424;-459532;-427886;-652053;
2024-05-06T14:35:47.591;538200354081415846;-428656;-458192;-426619;-652074;
2024-05-06T14:35:47.609;538200354099584854;-427816;-457662;-425782;-652058;
2024-05-06T14:35:47.627;538200354117753862;-428576;-459116;-427136;-652095;
2024-05-06T14:35:47.646;538200354135922870;-430143;-460682;-426664;-652110;
2024-05-06T14:35:47.664;538200354154091878;-431559;-461549;-425107;-652012;
2024-05-06T14:35:47.682;538200354172260886;-431373;-461822;-424453;-651842;
2024-05-06T14:35:47.700;538200354190429894;-429451;-461386;-423414;-651509;
2024-05-06T14:35:47.718;538200354208598902;-427101;-460173;-421759;-651011;
2024-05-06T14:35:47.736;538200354226767910;-424508;-459006;-420188;-650243;
2024-05-06T14:35:47.755;538200354244936918;-422792;-457718;-418490;-649551;
2024-05-06T14:35:47.773;538200354263105926;-421644;-456755;-417289;-649130;
2024-05-06T14:35:47.791;538200354281274934;-420815;-456197;-416476;-649000;
2024-05-06T14:35:47.809;538200354299443942;-420139;-455757;-415682;-648921;
2024-05-06T14:35:47.827;538200354317610290;-419660;-455241;-415096;-648937;
2024-05-06T14:35:47.845;538200354335776638;-419267;-454624;-414656;-649107;
2024-05-06T14:35:47.864;538200354353942986;-418840;-453905;-414323;-649181;
2024-05-06T14:35:47.882;538200354372109334;-418429;-453157;-414007;-649285;
2024-05-06T14:35:47.900;538200354390275682;-418080;-452579;-413832;-649342;
2024-05-06T14:35:47.918;538200354408442030;-417727;-452033;-413663;-649439;
2024-05-06T14:35:47.936;538200354426608378;-417304;-451541;-413663;-649492;
2024-05-06T14:35:47.954;538200354444774726;-417257;-450906;-413513;-649578;
2024-05-06T14:35:47.973;538200354462941074;-22683;-54775;-18722;-255617;
2024-05-06T14:35:47.991;538200354481107422;133145;101018;136948;-99780;
2024-05-06T14:35:48.009;538200354499273770;195026;162694;198680;-37879;
2024-05-06T14:35:48.027;538200354517440118;219400;187058;223131;-13359;
2024-05-06T14:35:48.045;538200354535606466;228874;197126;233013;-3633;
2024-05-06T14:35:48.063;538200354553772814;232528;201283;236994;287;
2024-05-06T14:35:48.082;538200354571939162;233953;203152;238634;1792;
2024-05-06T14:35:48.100;538200354590105510;234560;204007;239327;2447;
2024-05-06T14:35:48.118;538200354608271858;234855;204449;239638;2689;
2024-05-06T14:35:48.136;538200354626438206;235087;204785;239920;2752;
2024-05-06T14:35:48.154;538200354644604554;235238;204990;240062;2845;
2024-05-06T14:35:48.172;538200354662770902;235346;205148;240089;2898;
2024-05-06T14:35:48.191;538200354680937250;235511;205369;240162;2937;
2024-05-06T14:35:48.209;538200354699103598;235564;205488;240229;2955;
2024-05-06T14:35:48.227;538200354717269946;235607;205570;240294;2943;
2024-05-06T14:35:48.245;538200354735436294;235667;205627;240301;2958;
2024-05-06T14:35:48.263;538200354753604642;235714;205720;240320;2949;
2024-05-06T14:35:48.281;538200354771772978;235776;205805;240313;2946;
2024-05-06T14:35:48.300;538200354789941314;235895;205896;240456;2971;
2024-05-06T14:35:48.318;538200354808109650;235897;205997;240480;2986;
2024-05-06T14:35:48.336;538200354826277986;379457;331783;386749;6213;
2024-05-06T14:35:48.354;538200354844446322;436477;381460;444769;7441;
2024-05-06T14:35:48.372;538200354862614658;459326;401234;468067;7913;
2024-05-06T14:35:48.390;538200354880782994;468662;409169;477676;8019;
2024-05-06T14:35:48.409;538200354898951330;472513;412344;481927;7941;
2024-05-06T14:35:48.427;538200354917119666;473945;413816;484378;7777;
2024-05-06T14:35:48.445;538200354935288002;474530;414408;485826;7554;
2024-05-06T14:35:48.463;538200354953456338;475037;414595;486960;7326;
2024-05-06T14:35:48.481;538200354971624674;475569;414846;487923;7070;
2024-05-06T14:35:48.499;538200354989793010;476256;415349;488763;6987;
2024-05-06T14:35:48.518;538200355007961346;477201;416217;489623;6939;
2024-05-06T14:35:48.536;538200355026129682;478020;417068;490316;7092;
2024-05-06T14:35:48.554;538200355044298018;478883;417956;490995;7338;
2024-05-06T14:35:48.572;538200355062466354;479769;418867;491636;7502;
2024-05-06T14:35:48.590;538200355080634690;480537;419612;492049;7561;
2024-05-06T14:35:48.608;538200355098803026;481036;420177;492314;7624;
2024-05-06T14:35:48.627;538200355116971362;481471;420757;492691;7769;
2024-05-06T14:35:48.645;538200355135139698;482029;421228;493102;7851;
2024-05-06T14:35:48.663;538200355153306635;482581;421793;493444;7924;
2024-05-06T14:35:48.681;538200355171473557;483206;422242;493850;8071;
2024-05-06T14:35:48.699;538200355189640479;483651;422737;494178;8134;
2024-05-06T14:35:48.717;538200355207807401;484106;423136;494514;8292;
2024-05-06T14:35:48.736;538200355225974323;484353;423337;494820;8363;
2024-05-06T14:35:48.754;538200355244141245;484686;423597;495130;8394;
2024-05-06T14:35:48.772;538200355262308167;484956;423760;495424;8353;
2024-05-06T14:35:48.790;538200355280475089;485129;423901;495680;8353;
2024-05-06T14:35:48.808;538200355298642011;485319;423971;495929;8367;
2024-05-06T14:35:48.826;538200355316808933;485612;424153;496245;8297;
2024-05-06T14:35:48.845;538200355334975855;486128;424566;496626;8351;
2024-05-06T14:35:48.863;538200355353142777;486590;424999;496916;8510;
2024-05-06T14:35:48.881;538200355371309699;486795;425466;497073;8738;
2024-05-06T14:35:48.899;538200355389476621;486902;425706;497308;8914;
2024-05-06T14:35:48.917;538200355407643543;487245;425900;497765;9002;
2024-05-06T14:35:48.935;538200355425810465;487575;425783;498317;8945;
2024-05-06T14:35:48.954;538200355443977387;487604;425341;498711;8681;
2024-05-06T14:35:48.972;538200355462144309;486807;424567;499364;8230;
2024-05-06T14:35:48.990;538200355480311231;486258;423350;500244;7781;
2024-05-06T14:35:49.008;538200355498478153;485692;422232;500924;7258;
2024-05-06T14:35:49.026;538200355516645075;485411;421314;501379;6793;
2024-05-06T14:35:49.044;538200355534811997;485187;420687;501632;6468;
2024-05-06T14:35:49.063;538200355552978919;485349;420449;502059;6308;
2024-05-06T14:35:49.081;538200355571145841;485874;420795;502645;6392;
2024-05-06T14:35:49.099;538200355589312763;486731;421631;503567;6575;
2024-05-06T14:35:49.117;538200355607479685;488026;423300;504828;6990;
2024-05-06T14:35:49.135;538200355625646607;489723;425941;506386;7627;
2024-05-06T14:35:49.153;538200355643813529;491392;428690;507551;8379;
2024-05-06T14:35:49.172;538200355661980451;492706;430962;508352;9048;
2024-05-06T14:35:49.190;538200355680147373;493661;432381;508835;9516;
2024-05-06T14:35:49.208;538200355698314295;494056;433121;508902;9761;
2024-05-06T14:35:49.226;538200355716483192;494172;433468;508868;9759;
2024-05-06T14:35:49.244;538200355734652083;494006;433418;508767;9668;
2024-05-06T14:35:49.262;538200355752820974;493731;433251;508677;9378;
2024-05-06T14:35:49.281;538200355770989865;493222;432605;508586;8958;
2024-05-06T14:35:49.299;538200355789158756;492267;432013;508865;8571;
2024-05-06T14:35:49.317;538200355807327647;491434;431317;509187;7914;
2024-05-06T14:35:49.335;538200355825496538;490867;430471;509657;7408;
2024-05-06T14:35:49.353;538200355843665429;490446;429696;510169;6915;
2024-05-06T14:35:49.371;538200355861834320;490218;428946;510771;6578;
2024-05-06T14:35:49.390;538200355880003211;490147;428219;511338;6290;
2024-05-06T14:35:49.408;538200355898172102;489945;427759;511889;6146;
2024-05-06T14:35:49.426;538200355916340993;490027;427451;512404;6063;
2024-05-06T14:35:49.444;538200355934509884;490680;427639;513052;5989;
2024-05-06T14:35:49.462;538200355952678775;491449;428079;513622;5982;
2024-05-06T14:35:49.480;538200355970847666;492180;428620;514274;6065;
2024-05-06T14:35:49.499;538200355989016557;492857;429349;514952;6049;
2024-05-06T14:35:49.517;538200356007185448;493741;430500;515824;6225;
2024-05-06T14:35:49.535;538200356025354339;494807;432290;516834;6496;
2024-05-06T14:35:49.553;538200356043523230;496014;434365;517803;6774;
2024-05-06T14:35:49.571;538200356061692121;497182;436009;518168;7003;
2024-05-06T14:35:49.589;538200356079861012;498090;437143;518208;7243;
2024-05-06T14:35:49.608;538200356098029903;498992;438065;518296;7483;
2024-05-06T14:35:49.626;538200356116198794;499728;439079;518379;7723;
2024-05-06T14:35:49.644;538200356134367685;500277;439917;518541;7888;
2024-05-06T14:35:49.662;538200356152536576;500884;440768;518963;8038;
2024-05-06T14:35:49.680;538200356170705467;501340;441480;519273;8130;
2024-05-06T14:35:49.698;538200356188874358;501802;442092;519532;8161;
2024-05-06T14:35:49.717;538200356207043249;501981;442425;519767;8150;
2024-05-06T14:35:49.735;538200356225211282;502024;442539;520001;8053;
2024-05-06T14:35:49.753;538200356243379301;502101;442548;520121;7922;
2024-05-06T14:35:49.771;538200356261547320;502122;442575;520124;7727;
2024-05-06T14:35:49.789;538200356279715339;502091;442674;520102;7679;
2024-05-06T14:35:49.807;538200356297883358;502217;442792;520130;7628;
2024-05-06T14:35:49.826;538200356316051377;502277;442883;520180;7610;
2024-05-06T14:35:49.844;538200356334219396;502397;443088;520145;7547;
2024-05-06T14:35:49.862;538200356352387415;502544;443297;520130;7564;
2024-05-06T14:35:49.880;538200356370555434;502507;443566;520086;7450;
2024-05-06T14:35:49.898;538200356388723453;502634;443918;520146;7505;
2024-05-06T14:35:49.916;538200356406891472;502756;444217;520127;7493;
2024-05-06T14:35:49.935;538200356425059491;502998;444636;520294;7408;
2024-05-06T14:35:49.953;538200356443227510;503437;445324;520380;7389;
2024-05-06T14:35:49.971;538200356461395529;503927;446237;520457;7324;
2024-05-06T14:35:49.989;538200356479563548;504609;447404;520679;7373;
2024-05-06T14:35:50.007;538200356497731567;505409;448766;521100;7460;
2024-05-06T14:35:50.025;538200356515899586;506130;450149;521456;7629;
2024-05-06T14:35:50.044;538200356534067605;506956;451627;522095;7798;
2024-05-06T14:35:50.062;538200356552235624;507981;453163;523184;7958;
2024-05-06T14:35:50.080;538200356570403643;509248;454831;524771;8118;
2024-05-06T14:35:50.098;538200356588571662;510583;456441;526693;8250;
2024-05-06T14:35:50.116;538200356606739681;512001;458042;528553;8331;
2024-05-06T14:35:50.134;538200356624907700;513476;459430;530338;8368;
2024-05-06T14:35:50.153;538200356643075719;514784;460520;531948;8489;
2024-05-06T14:35:50.171;538200356661243738;515773;461314;533382;8470;
2024-05-06T14:35:50.189;538200356679411757;516520;461707;534367;8375;
2024-05-06T14:35:50.207;538200356697579776;516851;461877;534912;8243;
2024-05-06T14:35:50.225;538200356715747795;517714;462620;535921;8429;
2024-05-06T14:35:50.243;538200356733915814;518554;463322;536720;8572;
2024-05-06T14:35:50.262;538200356752083833;519082;463857;537273;8760;
2024-05-06T14:35:50.280;538200356770251852;519544;464355;537768;8914;
2024-05-06T14:35:50.298;538200356788419871;519870;464793;538148;9102;
2024-05-06T14:35:50.316;538200356806587890;520230;465137;538490;9254;
2024-05-06T14:35:50.334;538200356824755909;520509;465386;538830;9369;
2024-05-06T14:35:50.353;538200356842923928;520713;465510;539123;9464;
2024-05-06T14:35:50.371;538200356861093143;520820;465542;539269;9409;
2024-05-06T14:35:50.389;538200356879262339;520920;465542;539440;9372;
2024-05-06T14:35:50.407;538200356897431535;520965;465579;539791;9329;
2024-05-06T14:35:50.425;538200356915600731;521227;465559;540277;9345;
2024-05-06T14:35:50.443;538200356933769927;521560;465556;540752;9432;
2024-05-06T14:35:50.462;538200356951939123;522089;465588;541474;9580;
2024-05-06T14:35:50.480;538200356970108319;522863;465727;542315;9831;
2024-05-06T14:35:50.498;538200356988277515;523762;465915;543208;10120;
2024-05-06T14:35:50.516;538200357006446711;524787;466350;544112;10378;
2024-05-06T14:35:50.534;538200357024615907;525849;466901;545099;10647;
2024-05-06T14:35:50.552;538200357042785103;526802;467734;546056;10983;
2024-05-06T14:35:50.571;538200357060954299;527775;468426;547102;11171;
2024-05-06T14:35:50.589;538200357079123495;528521;469053;548037;11300;
2024-05-06T14:35:50.607;538200357097292691;529245;469675;549083;11304;
2024-05-06T14:35:50.625;538200357115461887;530002;470205;550014;11322;
2024-05-06T14:35:50.643;538200357133631083;530749;470735;551013;11274;
2024-05-06T14:35:50.661;538200357151800279;531502;471352;552086;11326;
2024-05-06T14:35:50.680;538200357169969475;532305;471940;553046;11408;
2024-05-06T14:35:50.698;538200357188138671;533131;472567;553992;11478;
2024-05-06T14:35:50.716;538200357206307867;533898;473225;554829;11489;
2024-05-06T14:35:50.734;538200357224477063;534653;473746;555625;11497;
2024-05-06T14:35:50.752;538200357242646259;535467;474431;556443;11590;
2024-05-06T14:35:50.770;538200357260815455;536322;474974;557242;11620;
2024-05-06T14:35:50.789;538200357278984651;537185;475549;558030;11544;
2024-05-06T14:35:50.807;538200357297153847;537888;475968;558716;11511;
2024-05-06T14:35:50.825;538200357315323043;538682;476524;559377;11555;
2024-05-06T14:35:50.843;538200357333492239;539374;477023;560029;11555;
2024-05-06T14:35:50.861;538200357351661435;540069;477583;560631;11561;
2024-05-06T14:35:50.879;538200357369830631;540796;478034;561289;11532;
2024-05-06T14:35:50.898;538200357387999827;541480;478564;561906;11575;
2024-05-06T14:35:50.916;538200357406169023;542112;479083;562505;11583;
2024-05-06T14:35:50.934;538200357424338219;542835;479598;563202;11619;
2024-05-06T14:35:50.952;538200357442507415;543581;480088;563831;11633;
2024-05-06T14:35:50.970;538200357460676611;544260;480622;564536;11693;
2024-05-06T14:35:50.988;538200357478845807;544913;481148;565259;11716;
2024-05-06T14:35:51.007;538200357497015780;545500;481666;565813;11709;
2024-05-06T14:35:51.025;538200357515185727;546116;482039;566381;11740;
2024-05-06T14:35:51.043;538200357533355674;546769;482552;566930;11741;
2024-05-06T14:35:51.061;538200357551525621;547324;482909;567454;11808;
2024-05-06T14:35:51.079;538200357569695568;547899;483265;567961;11787;
2024-05-06T14:35:51.097;538200357587865515;548247;483616;568371;11810;
2024-05-06T14:35:51.116;538200357606035462;548564;483888;568718;11808;
2024-05-06T14:35:51.134;538200357624205409;548839;484166;568927;11807;
2024-05-06T14:35:51.152;538200357642375356;548998;484255;569099;11808;
2024-05-06T14:35:51.170;538200357660545303;549198;484410;569307;11757;
2024-05-06T14:35:51.188;538200357678715250;549448;484570;569503;11821;
2024-05-06T14:35:51.206;538200357696885197;549698;484732;569642;11767;
2024-05-06T14:35:51.225;538200357715055144;549966;484955;569841;11699;
2024-05-06T14:35:51.243;538200357733225091;550351;485148;570132;11760;
2024-05-06T14:35:51.261;538200357751395038;550646;485414;570383;11726;
2024-05-06T14:35:51.279;538200357769564985;550909;485647;570694;11723;
2024-05-06T14:35:51.297;538200357787734932;551297;485908;570991;11731;
2024-05-06T14:35:51.315;538200357805904879;551666;486189;571340;11778;
2024-05-06T14:35:51.334;538200357824074826;552064;486592;571693;11770;
2024-05-06T14:35:51.352;538200357842244773;552394;486903;571929;11793;
2024-05-06T14:35:51.370;538200357860414720;552679;487127;572236;11694;
2024-05-06T14:35:51.388;538200357878584667;552963;487375;572522;11644;
2024-05-06T14:35:51.406;538200357896754614;553289;487605;572730;11700;
2024-05-06T14:35:51.425;538200357914924561;553618;487878;573005;11630;
2024-05-06T14:35:51.443;538200357933094508;553913;488196;573280;11640;
2024-05-06T14:35:51.461;538200357951264455;554175;488451;573489;11613;
2024-05-06T14:35:51.479;538200357969434402;554474;488704;573823;11641;
2024-05-06T14:35:51.497;538200357987604349;554859;488998;574148;11656;
2024-05-06T14:35:51.515;538200358005774296;555302;489354;574532;11801;
2024-05-06T14:35:51.534;538200358023944243;555686;489720;574947;11729;
2024-05-06T14:35:51.552;538200358042114190;556127;490087;575351;11801;
2024-05-06T14:35:51.570;538200358060284137;556564;490428;575657;11782;
2024-05-06T14:35:51.588;538200358078454084;556839;490644;576054;11818;
2024-05-06T14:35:51.606;538200358096624031;557245;491011;576392;11859;
2024-05-06T14:35:51.624;538200358114793978;557587;491350;576715;11822;
2024-05-06T14:35:51.643;538200358132963925;557905;491553;577009;11824;
2024-05-06T14:35:51.661;538200358151133872;558282;491824;577461;11784;
2024-05-06T14:35:51.679;538200358169303819;558627;492109;577867;11873;
2024-05-06T14:35:51.697;538200358187473766;559038;492455;578245;11867;
2024-05-06T14:35:51.715;538200358205643119;559433;492770;578601;11948;
2024-05-06T14:35:51.733;538200358223812468;559826;493048;578927;11946;
2024-05-06T14:35:51.752;538200358241981817;560139;493386;579252;11944;
2024-05-06T14:35:51.770;538200358260151166;560469;493597;579547;11917;
2024-05-06T14:35:51.788;538200358278320515;560774;493880;579909;11897;
2024-05-06T14:35:51.806;538200358296489864;561123;494164;580252;11917;
2024-05-06T14:35:51.824;538200358314659213;561399;494429;580576;11869;
2024-05-06T14:35:51.842;538200358332828562;561790;494736;580998;11958;
2024-05-06T14:35:51.861;538200358350997911;562083;495051;581288;11954;
2024-05-06T14:35:51.879;538200358369167260;562417;495339;581615;11938;
2024-05-06T14:35:51.897;538200358387336609;562776;495686;581995;11947;
2024-05-06T14:35:51.915;538200358405505958;563219;495986;582368;11931;
2024-05-06T14:35:51.933;538200358423675307;563391;496241;582654;11924;
2024-05-06T14:35:51.951;538200358441844656;563683;496422;582892;11938;
2024-05-06T14:35:51.970;538200358460014005;563705;496492;582984;11843;
2024-05-06T14:35:51.988;538200358478183354;563664;496489;582979;11790;
2024-05-06T14:35:52.006;538200358496352703;563650;496588;583034;11805;
2024-05-06T14:35:52.024;538200358514522052;563639;496596;583082;11813;
2024-05-06T14:35:52.042;538200358532691401;563721;496674;583235;11843;
2024-05-06T14:35:52.060;538200358550860750;563806;496704;583240;11764;
2024-05-06T14:35:52.079;538200358569030099;563972;496939;583323;11801;
2024-05-06T14:35:52.097;538200358587199448;564191;497007;583490;11815;
2024-05-06T14:35:52.115;538200358605368797;564304;497173;583651;11795;
2024-05-06T14:35:52.133;538200358623538146;564600;497316;583819;11881;
2024-05-06T14:35:52.151;538200358641707495;564760;497515;584007;11916;
2024-05-06T14:35:52.169;538200358659876844;565064;497725;584373;11932;
2024-05-06T14:35:52.188;538200358678046193;565409;497943;584697;11974;
2024-05-06T14:35:52.206;538200358696215542;565739;498271;585059;12036;
2024-05-06T14:35:52.224;538200358714384891;566031;498550;585318;12101;
2024-05-06T14:35:52.242;538200358732554240;566219;498678;585520;12056;
2024-05-06T14:35:52.260;538200358750723589;566416;498809;585801;12119;
2024-05-06T14:35:52.278;538200358768892938;566771;498935;586007;12160;
2024-05-06T14:35:52.297;538200358787062287;566918;499087;586223;12112;
2024-05-06T14:35:52.315;538200358805231636;567069;499133;586350;12056;
2024-05-06T14:35:52.333;538200358823400985;567354;499340;586599;12120;
2024-05-06T14:35:52.351;538200358841570334;567595;499474;586899;12176;
2024-05-06T14:35:52.369;538200358859739683;567895;499626;587217;12125;
2024-05-06T14:35:52.387;538200358877909032;568188;499839;587519;12099;
2024-05-06T14:35:52.406;538200358896078381;568173;499784;587552;11914;
2024-05-06T14:35:52.424;538200358914247730;568061;499689;587484;11616;
2024-05-06T14:35:52.442;538200358932417312;567869;499293;587394;11082;
2024-05-06T14:35:52.460;538200358950586870;567486;498664;586875;10238;
2024-05-06T14:35:52.478;538200358968756428;566681;497745;586111;8991;
2024-05-06T14:35:52.497;538200358986925986;565942;496818;585260;7901;
2024-05-06T14:35:52.515;538200359005095544;565516;496101;584604;6791;
2024-05-06T14:35:52.533;538200359023265102;565323;495619;584073;5906;
2024-05-06T14:35:52.551;538200359041434660;565156;495587;583712;5351;
2024-05-06T14:35:52.569;538200359059604218;564642;495400;583563;5121;
2024-05-06T14:35:52.587;538200359077773776;564206;494852;583746;4969;
2024-05-06T14:35:52.606;538200359095943334;564048;494206;584138;4972;
2024-05-06T14:35:52.624;538200359114112892;564301;493866;584428;4923;
2024-05-06T14:35:52.642;538200359132282450;564724;493852;584709;4815;
2024-05-06T14:35:52.660;538200359150452008;565254;493978;584775;4717;
2024-05-06T14:35:52.678;538200359168621566;565815;494052;584908;4543;
2024-05-06T14:35:52.696;538200359186791124;566027;493945;584879;4362;
2024-05-06T14:35:52.715;538200359204960682;565991;493502;584728;4058;
2024-05-06T14:35:52.733;538200359223130240;565940;492972;584584;3708;
2024-05-06T14:35:52.751;538200359241299798;565919;492461;584297;3399;
2024-05-06T14:35:52.769;538200359259469356;565492;491827;583994;2972;
2024-05-06T14:35:52.787;538200359277638914;565104;491539;583631;2705;
2024-05-06T14:35:52.805;538200359295808472;564812;491405;583283;2445;
2024-05-06T14:35:52.824;538200359313978030;564554;491325;582657;2139;
2024-05-06T14:35:52.842;538200359332147588;564315;491660;582006;1960;
2024-05-06T14:35:52.860;538200359350317146;563922;490985;581193;1861;
2024-05-06T14:35:52.878;538200359368486704;564553;486884;580330;1811;
2024-05-06T14:35:52.896;538200359386656262;574419;472236;578978;1857;
2024-05-06T14:35:52.914;538200359404825820;583528;460828;583327;1957;
2024-05-06T14:35:52.933;538200359422995378;593792;457293;588374;1993;
2024-05-06T14:35:52.951;538200359441164936;610368;460743;592983;2237;
2024-05-06T14:35:52.969;538200359459334494;627128;460489;589652;2388;
2024-05-06T14:35:52.987;538200359477504052;610158;456043;601921;2632;
2024-05-06T14:35:53.005;538200359495673610;579684;458927;585733;2751;
2024-05-06T14:35:53.023;538200359513841133;562179;446019;585383;2965;
2024-05-06T14:35:53.042;538200359532008643;555026;450357;569026;3135;
2024-05-06T14:35:53.060;538200359550176153;545070;458456;576308;3221;
2024-05-06T14:35:53.078;538200359568343663;531349;448610;564791;3316;
2024-05-06T14:35:53.096;538200359586511173;526947;427507;557905;3453;
2024-05-06T14:35:53.114;538200359604678683;476522;417601;550459;3680;
2024-05-06T14:35:53.132;538200359622846193;471864;400332;540375;4102;
2024-05-06T14:35:53.151;538200359641013703;457915;389138;523455;4649;
2024-05-06T14:35:53.169;538200359659181213;445972;388945;536518;4944;
2024-05-06T14:35:53.187;538200359677348723;438528;396718;554215;4881;
2024-05-06T14:35:53.205;538200359695516233;448036;407813;564571;4751;
2024-05-06T14:35:53.223;538200359713683743;452519;415379;559364;4510;
2024-05-06T14:35:53.241;538200359731851253;456314;419523;555764;4253;
2024-05-06T14:35:53.260;538200359750018763;459655;421787;554546;3907;
2024-05-06T14:35:53.278;538200359768186273;462567;423283;553808;3574;
2024-05-06T14:35:53.296;538200359786353783;465435;425019;553931;3199;
2024-05-06T14:35:53.314;538200359804521293;468898;427631;554984;3044;
2024-05-06T14:35:53.332;538200359822688803;472767;430526;556290;2904;
2024-05-06T14:35:53.350;538200359840856313;475999;432860;556964;2905;
2024-05-06T14:35:53.369;538200359859023823;484052;435580;547405;2946;
2024-05-06T14:35:53.387;538200359877191333;498041;438046;542628;3134;
2024-05-06T14:35:53.405;538200359895356143;510163;439129;556329;3334;
2024-05-06T14:35:53.423;538200359913520947;511785;442106;567353;3573;
2024-05-06T14:35:53.441;538200359931685751;506092;446281;570455;3969;
2024-05-06T14:35:53.459;538200359949850555;504074;449568;573332;4698;
2024-05-06T14:35:53.478;538200359968015359;504858;452316;575983;5588;
2024-05-06T14:35:53.496;538200359986180163;506855;455024;578635;6814;
2024-05-06T14:35:53.514;538200360004344967;509687;458207;581745;8535;
2024-05-06T14:35:53.532;538200360022509771;512762;461436;584781;10416;
2024-05-06T14:35:53.550;538200360040674575;515408;464221;587198;11800;
2024-05-06T14:35:53.568;538200360058839379;517309;466089;588978;12589;
2024-05-06T14:35:53.587;538200360077004183;518536;467331;590001;12749;
2024-05-06T14:35:53.605;538200360095168987;519295;468113;590688;12604;
2024-05-06T14:35:53.623;538200360113333791;519920;468560;591300;12398;
2024-05-06T14:35:53.641;538200360131498595;520568;469110;591900;12206;
2024-05-06T14:35:53.659;538200360149663399;521404;469871;592574;12165;
2024-05-06T14:35:53.677;538200360167828203;522139;470525;593031;12182;
2024-05-06T14:35:53.696;538200360185993007;522573;470879;593334;12176;
2024-05-06T14:35:53.714;538200360204157811;522797;471024;593497;12223;
2024-05-06T14:35:53.732;538200360222322615;522816;471079;593580;12104;
2024-05-06T14:35:53.750;538200360240487419;522808;471186;593709;11885;
2024-05-06T14:35:53.768;538200360258652223;522892;471263;593684;11684;
2024-05-06T14:35:53.786;538200360276817027;523009;471313;593726;11460;
2024-05-06T14:35:53.805;538200360294981831;523043;471409;593930;11240;
2024-05-06T14:35:53.823;538200360313146635;523139;471420;594011;11031;
2024-05-06T14:35:53.841;538200360331311439;523312;471763;593975;10813;
2024-05-06T14:35:53.859;538200360349476243;523589;472149;594155;10895;
2024-05-06T14:35:53.877;538200360367641047;524098;472772;594500;11120;
2024-05-06T14:35:53.895;538200360385805851;524573;473276;594888;11337;
2024-05-06T14:35:53.914;538200360403972486;525078;473717;595228;11598;
2024-05-06T14:35:53.932;538200360422139110;525574;474278;595892;11825;
2024-05-06T14:35:53.950;538200360440305734;525870;474595;596269;11774;
2024-05-06T14:35:53.968;538200360458472358;525973;474775;596483;11753;
2024-05-06T14:35:53.986;538200360476638982;526130;474908;596520;11620;
2024-05-06T14:35:54.004;538200360494805606;526262;475002;596627;11508;
2024-05-06T14:35:54.023;538200360512972230;526412;475103;596843;11440;
2024-05-06T14:35:54.041;538200360531138854;526673;475230;596939;11393;
2024-05-06T14:35:54.059;538200360549305478;527104;475677;597136;11449;
2024-05-06T14:35:54.077;538200360567472102;527579;476155;597521;11553;
2024-05-06T14:35:54.095;538200360585638726;527868;476538;597967;11697;
2024-05-06T14:35:54.113;538200360603805350;528245;476893;598287;11767;
2024-05-06T14:35:54.132;538200360621971974;528686;477251;598537;11877;
2024-05-06T14:35:54.150;538200360640138598;529177;477477;598550;11951;
2024-05-06T14:35:54.168;538200360658305222;529599;477563;598494;12111;
2024-05-06T14:35:54.186;538200360676471846;530169;477809;598614;12271;
2024-05-06T14:35:54.204;538200360694638470;530763;478145;598886;12435;
2024-05-06T14:35:54.222;538200360712805094;531265;478539;599412;12507;
2024-05-06T14:35:54.241;538200360730971718;531723;478955;599798;12624;
2024-05-06T14:35:54.259;538200360749138342;532145;479297;600239;12635;
2024-05-06T14:35:54.277;538200360767304966;532560;479607;600578;12622;
2024-05-06T14:35:54.295;538200360785471590;532844;479842;601100;12466;
2024-05-06T14:35:54.313;538200360803638214;533184;479925;601531;12305;
2024-05-06T14:35:54.331;538200360821804838;533500;479949;602060;12017;
2024-05-06T14:35:54.350;538200360839971462;533826;479716;602550;11700;
2024-05-06T14:35:54.368;538200360858138086;534019;479263;602914;11235;
2024-05-06T14:35:54.386;538200360876304710;534224;478778;603301;10897;
2024-05-06T14:35:54.404;538200360894471334;534410;478403;603493;10524;
2024-05-06T14:35:54.422;538200360912637958;534841;478221;603372;10309;
2024-05-06T14:35:54.440;538200360930804582;535584;478244;603087;10430;
2024-05-06T14:35:54.459;538200360948971206;536475;478504;602935;10837;
2024-05-06T14:35:54.477;538200360967137830;537609;479010;602848;11588;
2024-05-06T14:35:54.495;538200360985304454;538778;479475;602705;12396;
2024-05-06T14:35:54.513;538200361003471078;539816;479961;602975;13097;
2024-05-06T14:35:54.531;538200361021637702;540660;480384;603493;13755;
2024-05-06T14:35:54.549;538200361039802775;541397;480731;603787;14122;
2024-05-06T14:35:54.568;538200361057967829;541734;481047;603978;14154;
2024-05-06T14:35:54.586;538200361076132883;541736;481216;603523;13998;
2024-05-06T14:35:54.604;538200361094297937;541979;480957;602241;13695;
2024-05-06T14:35:54.622;538200361112462991;542509;480505;600458;13494;
2024-05-06T14:35:54.640;538200361130628045;542871;480217;599271;13288;
2024-05-06T14:35:54.658;538200361148793099;542951;480094;598761;13151;
2024-05-06T14:35:54.677;538200361166958153;542980;479732;598461;13009;
2024-05-06T14:35:54.695;538200361185123207;543230;479036;597473;12827;
2024-05-06T14:35:54.713;538200361203288261;543152;478116;596682;12599;
2024-05-06T14:35:54.731;538200361221453315;542981;477460;596295;12341;
2024-05-06T14:35:54.749;538200361239618369;542963;477415;596014;12117;
2024-05-06T14:35:54.767;538200361257783423;543250;477832;596209;11953;
2024-05-06T14:35:54.786;538200361275948477;543577;478173;596721;11804;
2024-05-06T14:35:54.804;538200361294113531;543950;478408;597696;11636;
2024-05-06T14:35:54.822;538200361312278585;543979;478210;598798;11190;
2024-05-06T14:35:54.840;538200361330443639;544004;477988;599727;10718;
2024-05-06T14:35:54.858;538200361348608693;544485;478547;600762;10148;
2024-05-06T14:35:54.876;538200361366773747;545024;479093;601355;9668;
2024-05-06T14:35:54.895;538200361384938801;545274;479326;601617;9472;
2024-05-06T14:35:54.913;538200361403103855;545678;479615;601995;9561;
2024-05-06T14:35:54.931;538200361421268909;546264;480259;602746;9796;
2024-05-06T14:35:54.949;538200361439433963;546849;480958;603573;10184;
2024-05-06T14:35:54.967;538200361457599017;547441;481524;604433;10529;
2024-05-06T14:35:54.985;538200361475764071;547849;481887;605108;10778;
2024-05-06T14:35:55.004;538200361493929125;548222;482242;605691;10886;
2024-05-06T14:35:55.022;538200361512094179;548566;482568;606190;10912;
2024-05-06T14:35:55.040;538200361530259233;548924;482920;606506;10932;
2024-05-06T14:35:55.058;538200361548424287;549184;483047;606791;10866;
2024-05-06T14:35:55.076;538200361566589341;549497;483310;607135;10773;
2024-05-06T14:35:55.094;538200361584754395;549951;483570;607524;10858;
2024-05-06T14:35:55.113;538200361602919449;550358;483937;608150;11007;
2024-05-06T14:35:55.131;538200361621084503;550773;484413;608743;11009;
2024-05-06T14:35:55.149;538200361639249557;551344;484869;609340;11108;
2024-05-06T14:35:55.167;538200361657414611;551845;485345;609854;11273;
2024-05-06T14:35:55.185;538200361675581062;552378;485783;610391;11361;
2024-05-06T14:35:55.203;538200361693747478;552859;486158;610864;11310;
2024-05-06T14:35:55.221;538200361711913894;553294;486525;611400;11373;
2024-05-06T14:35:55.240;538200361730080310;553653;486821;611827;11372;
2024-05-06T14:35:55.258;538200361748246726;553923;487016;612122;11269;
2024-05-06T14:35:55.276;538200361766413142;554252;487312;612483;11246;
2024-05-06T14:35:55.294;538200361784579558;554596;487643;612801;11225;
2024-05-06T14:35:55.312;538200361802745974;555078;487982;613224;11200;
2024-05-06T14:35:55.330;538200361820912390;555492;488339;613691;11211;
2024-05-06T14:35:55.349;538200361839078806;556004;488732;614181;11233;
2024-05-06T14:35:55.367;538200361857245222;556420;489024;614621;11245;
2024-05-06T14:35:55.385;538200361875411638;556937;489478;615042;11337;
2024-05-06T14:35:55.403;538200361893578054;557400;489947;615404;11402;
2024-05-06T14:35:55.421;538200361911744470;557719;490281;615824;11422;
2024-05-06T14:35:55.439;538200361929910886;558205;490624;616197;11515;
2024-05-06T14:35:55.458;538200361948077302;558585;490905;616533;11473;
2024-05-06T14:35:55.476;538200361966243718;558801;491046;616666;11461;
2024-05-06T14:35:55.494;538200361984410134;558839;490976;616377;11488;
2024-05-06T14:35:55.512;538200362002576550;558745;490892;616046;11406;
2024-05-06T14:35:55.530;538200362020742966;558630;490770;615795;11392;
2024-05-06T14:35:55.548;538200362038909382;558416;490625;615373;11412;
2024-05-06T14:35:55.567;538200362057075798;558306;490501;615130;11377;
2024-05-06T14:35:55.585;538200362075242214;558222;490434;615052;11468;
2024-05-06T14:35:55.603;538200362093408630;558234;490464;614969;11471;
2024-05-06T14:35:55.621;538200362111575046;558224;490498;614870;11383;
2024-05-06T14:35:55.639;538200362129741462;558292;490555;614927;11382;
2024-05-06T14:35:55.657;538200362147907878;558506;490678;614928;11443;
2024-05-06T14:35:55.676;538200362166074294;558566;490833;615008;11460;
2024-05-06T14:35:55.694;538200362184240710;558773;491008;615150;11470;
2024-05-06T14:35:55.712;538200362202407126;558973;491267;615283;11470;
2024-05-06T14:35:55.730;538200362220573542;559151;491388;615402;11450;
2024-05-06T14:35:55.748;538200362238739958;559316;491486;615364;11422;
2024-05-06T14:35:55.766;538200362256906374;559465;491559;615470;11387;
2024-05-06T14:35:55.785;538200362275072790;559548;491729;615512;11437;
2024-05-06T14:35:55.803;538200362293239206;559573;491678;615442;11364;
2024-05-06T14:35:55.821;538200362311405622;559615;491766;615329;11355;
2024-05-06T14:35:55.839;538200362329572038;559679;491837;615390;11354;
2024-05-06T14:35:55.857;538200362347740289;559771;491911;615381;11338;
2024-05-06T14:35:55.875;538200362365908526;559852;491890;615436;11305;
2024-05-06T14:35:55.894;538200362384076763;559985;492044;615504;11248;
2024-05-06T14:35:55.912;538200362402245000;560279;492219;615609;11327;
2024-05-06T14:35:55.930;538200362420413237;560454;492393;615736;11329;
2024-05-06T14:35:55.948;538200362438581474;560755;492662;616001;11451;
2024-05-06T14:35:55.966;538200362456749711;561026;492896;616203;11610;
2024-05-06T14:35:55.985;538200362474917948;561333;493218;616411;11646;
2024-05-06T14:35:56.003;538200362493086185;561623;493330;616714;11687;
2024-05-06T14:35:56.021;538200362511254422;561825;493564;616896;11726;
2024-05-06T14:35:56.039;538200362529422659;562067;493742;617107;11848;
2024-05-06T14:35:56.057;538200362547590896;562341;493883;617345;11849;
2024-05-06T14:35:56.075;538200362565759133;562764;494311;617743;11850;
2024-05-06T14:35:56.094;538200362583927370;563068;494635;618191;11913;
2024-05-06T14:35:56.112;538200362602095607;563423;495009;618795;11902;
2024-05-06T14:35:56.130;538200362620263844;563707;495328;619149;11800;
2024-05-06T14:35:56.148;538200362638432081;564105;495693;619524;11769;
2024-05-06T14:35:56.166;538200362656600318;564657;495754;619395;11651;
2024-05-06T14:35:56.184;538200362674768555;565155;495758;619307;11446;
2024-05-06T14:35:56.203;538200362692936792;565236;495645;619288;11150;
2024-05-06T14:35:56.221;538200362711105029;565303;495570;618971;11207;
2024-05-06T14:35:56.239;538200362729273266;565488;495883;619365;11225;
2024-05-06T14:35:56.257;538200362747441503;565889;496359;620083;11313;
2024-05-06T14:35:56.275;538200362765609740;566510;496958;620657;11357;
2024-05-06T14:35:56.293;538200362783777977;567000;497560;621223;11477;
2024-05-06T14:35:56.312;538200362801946214;567372;498059;621741;11420;
2024-05-06T14:35:56.330;538200362820114451;567533;498405;622016;11316;
2024-05-06T14:35:56.348;538200362838282688;567396;498356;621678;11151;
2024-05-06T14:35:56.366;538200362856450925;567038;497993;620944;10989;
2024-05-06T14:35:56.384;538200362874619162;566697;497734;620319;10943;
2024-05-06T14:35:56.402;538200362892787399;566378;497492;619667;10907;
2024-05-06T14:35:56.421;538200362910955636;566143;497176;619123;10960;
2024-05-06T14:35:56.439;538200362929123873;565870;496993;618758;10960;
2024-05-06T14:35:56.457;538200362947292110;565718;496851;618517;11037;
2024-05-06T14:35:56.475;538200362965460347;565551;496801;618272;11081;
2024-05-06T14:35:56.493;538200362983627728;565332;496546;617947;11075;
2024-05-06T14:35:56.511;538200363001795093;565189;496379;617591;11066;
2024-05-06T14:35:56.530;538200363019962458;564930;496070;617174;10956;
2024-05-06T14:35:56.548;538200363038129823;564651;495682;616796;10749;
2024-05-06T14:35:56.566;538200363056297188;564463;495264;616523;10605;
2024-05-06T14:35:56.584;538200363074464553;564309;494656;616300;10401;
2024-05-06T14:35:56.602;538200363092631918;564230;494090;616276;10305;
2024-05-06T14:35:56.620;538200363110799283;564032;493760;616115;10174;
2024-05-06T14:35:56.639;538200363128966648;563828;493515;615888;10125;
2024-05-06T14:35:56.657;538200363147134013;563784;493499;615807;10003;
2024-05-06T14:35:56.675;538200363165301378;563676;493315;615534;9870;
2024-05-06T14:35:56.693;538200363183468743;563637;493243;615395;9808;
2024-05-06T14:35:56.711;538200363201636108;563614;493263;615309;9727;
2024-05-06T14:35:56.729;538200363219803473;563499;493201;615176;9638;
2024-05-06T14:35:56.748;538200363237970838;563438;493132;615051;9508;
2024-05-06T14:35:56.766;538200363256138203;563472;493145;615101;9452;
2024-05-06T14:35:56.784;538200363274305568;563491;493195;615078;9378;
2024-05-06T14:35:56.802;538200363292472933;563487;493225;615098;9324;
2024-05-06T14:35:56.820;538200363310640298;563482;493231;615116;9155;
2024-05-06T14:35:56.838;538200363328807663;563494;493160;615080;8909;
2024-05-06T14:35:56.857;538200363346975028;563452;493032;615005;8659;
2024-05-06T14:35:56.875;538200363365142393;563326;492946;614925;8401;
2024-05-06T14:35:56.893;538200363383309758;563246;492774;614763;8113;
2024-05-06T14:35:56.911;538200363401477123;563143;492588;614650;7805;
2024-05-06T14:35:56.929;538200363419644488;562954;492440;614358;7492;
2024-05-06T14:35:56.947;538200363437811853;562826;492147;614140;7167;
2024-05-06T14:35:56.966;538200363455979218;562638;492067;613929;6830;
2024-05-06T14:35:56.984;538200363474146583;562638;491917;613758;6547;
2024-05-06T14:35:57.002;538200363492313948;562584;491845;613648;6334;
2024-05-06T14:35:57.020;538200363510481313;562511;491703;613520;6144;
2024-05-06T14:35:57.038;538200363528648678;562661;491764;613531;6058;
2024-05-06T14:35:57.056;538200363546816043;562694;491763;613448;6013;
2024-05-06T14:35:57.075;538200363564983408;562765;491807;613514;5975;
2024-05-06T14:35:57.093;538200363583150773;562789;491751;613501;5979;
2024-05-06T14:35:57.111;538200363601318138;562818;491698;613517;5939;
2024-05-06T14:35:57.129;538200363619485503;562845;491613;613521;6026;
2024-05-06T14:35:57.147;538200363637652868;562879;491575;613471;6051;
2024-05-06T14:35:57.165;538200363655820233;562900;491538;613620;6101;
2024-05-06T14:35:57.184;538200363673987598;563050;491540;613391;6162;
2024-05-06T14:35:57.202;538200363692154971;562935;491437;613094;6266;
2024-05-06T14:35:57.220;538200363710322336;562610;491152;612604;6356;
2024-05-06T14:35:57.238;538200363728489701;562085;490753;611941;6366;
2024-05-06T14:35:57.256;538200363746657066;561558;490304;611148;6218;
2024-05-06T14:35:57.274;538200363764824431;560919;489739;610323;5981;
2024-05-06T14:35:57.293;538200363782991796;560326;489142;609465;5730;
2024-05-06T14:35:57.311;538200363801159161;559841;488657;608681;5414;
2024-05-06T14:35:57.329;538200363819326526;559367;488029;607722;5116;
2024-05-06T14:35:57.347;538200363837493891;558956;487497;606772;4965;
2024-05-06T14:35:57.365;538200363855661256;558499;486980;606143;4784;
2024-05-06T14:35:57.383;538200363873828621;558063;486518;605843;4673;
2024-05-06T14:35:57.402;538200363891995986;557722;486104;605725;4523;
2024-05-06T14:35:57.420;538200363910163351;557417;485865;605591;4482;
2024-05-06T14:35:57.438;538200363928330716;557024;485378;605711;4450;
2024-05-06T14:35:57.456;538200363946498081;556414;484561;606625;4454;
2024-05-06T14:35:57.474;538200363964665446;555249;483710;609029;4471;
2024-05-06T14:35:57.492;538200363982832811;554484;483648;611229;4470;
2024-05-06T14:35:57.511;538200364001000176;554548;484353;612641;4386;
2024-05-06T14:35:57.529;538200364019167541;554860;485236;613381;4266;
2024-05-06T14:35:57.547;538200364037334906;555285;485913;613492;4294;
2024-05-06T14:35:57.565;538200364055502271;555858;486686;613304;4226;
2024-05-06T14:35:57.583;538200364073669636;556627;487353;612960;4275;
2024-05-06T14:35:57.601;538200364091837001;557364;487606;612022;4246;
2024-05-06T14:35:57.620;538200364110004366;558248;487171;610019;4357;
2024-05-06T14:35:57.638;538200364128171731;561236;485030;605976;4463;
2024-05-06T14:35:57.656;538200364146339096;570611;479433;599580;4699;
2024-05-06T14:35:57.674;538200364164506461;586802;471820;590442;5157;
2024-05-06T14:35:57.692;538200364182672678;604763;466980;579713;5562;
2024-05-06T14:35:57.710;538200364200838880;616922;451567;591406;6233;
2024-05-06T14:35:57.729;538200364219005082;638591;421463;625014;7036;
2024-05-06T14:35:57.747;538200364237171284;640271;411547;680856;7908;
2024-05-06T14:35:57.765;538200364255337486;641304;401466;680558;8864;
2024-05-06T14:35:57.783;538200364273503688;618587;379784;692440;9747;
2024-05-06T14:35:57.801;538200364291669890;613075;368861;659265;10539;
2024-05-06T14:35:57.819;538200364309836092;610130;366331;625471;11359;
2024-05-06T14:35:57.838;538200364328002294;590915;354441;637098;12327;
2024-05-06T14:35:57.856;538200364346168496;586725;347029;651939;13337;
2024-05-06T14:35:57.874;538200364364334698;592700;347333;663131;14564;
2024-05-06T14:35:57.892;538200364382500900;601623;350711;674022;15816;
2024-05-06T14:35:57.910;538200364400667102;607335;355044;677974;16727;
2024-05-06T14:35:57.928;538200364418833304;612541;358620;679720;17377;
2024-05-06T14:35:57.947;538200364436999506;617823;360861;681006;17664;
2024-05-06T14:35:57.965;538200364455165708;621369;362068;681821;17529;
2024-05-06T14:35:57.983;538200364473331910;623398;363077;682181;17022;
2024-05-06T14:35:58.001;538200364491498112;624053;363868;681909;16499;
2024-05-06T14:35:58.019;538200364509664314;624188;364713;681394;16032;
2024-05-06T14:35:58.037;538200364527830516;625682;365519;680483;15609;
2024-05-06T14:35:58.056;538200364545996718;629190;368188;677426;15141;
2024-05-06T14:35:58.074;538200364564165753;631954;369959;674217;14643;
2024-05-06T14:35:58.092;538200364582334783;633243;374391;668844;14136;
2024-05-06T14:35:58.110;538200364600503813;632645;378148;665063;13791;
2024-05-06T14:35:58.128;538200364618672843;632389;379154;663615;13372;
2024-05-06T14:35:58.146;538200364636841873;632937;379715;663840;13459;
2024-05-06T14:35:58.165;538200364655010903;634161;380488;664936;14076;
2024-05-06T14:35:58.183;538200364673179933;635701;381418;666367;15039;
2024-05-06T14:35:58.201;538200364691348963;637356;382426;667816;15939;
2024-05-06T14:35:58.219;538200364709517993;638755;383247;669008;16671;
2024-05-06T14:35:58.237;538200364727687023;639958;383803;670078;17292;
2024-05-06T14:35:58.255;538200364745856053;641066;384261;671019;17766;
2024-05-06T14:35:58.274;538200364764025083;641880;384508;671728;17946;
2024-05-06T14:35:58.292;538200364782194113;642533;384663;672219;18205;
2024-05-06T14:35:58.310;538200364800363143;643103;384853;672502;18304;
2024-05-06T14:35:58.328;538200364818532173;643389;384811;672614;18230;
2024-05-06T14:35:58.346;538200364836701203;643804;384881;672650;18247;
2024-05-06T14:35:58.364;538200364854870233;644166;384960;672804;18179;
2024-05-06T14:35:58.383;538200364873039263;644486;385006;672906;18094;
2024-05-06T14:35:58.401;538200364891208293;645139;385300;673331;18301;
2024-05-06T14:35:58.419;538200364909377323;645784;385857;673836;18662;
2024-05-06T14:35:58.437;538200364927546353;646639;386405;674580;19013;
2024-05-06T14:35:58.455;538200364945715383;647355;386862;675033;19236;
2024-05-06T14:35:58.473;538200364963884413;648025;387162;675455;19421;
2024-05-06T14:35:58.492;538200364982053443;648656;387502;675903;19551;
2024-05-06T14:35:58.510;538200365000222473;649273;387833;676232;19590;
2024-05-06T14:35:58.528;538200365018391503;649839;388122;676641;19722;
2024-05-06T14:35:58.546;538200365036560533;650401;388387;676889;19701;
2024-05-06T14:35:58.564;538200365054729563;650887;388686;677233;19769;
2024-05-06T14:35:58.582;538200365072898593;651447;388879;677522;19824;
2024-05-06T14:35:58.601;538200365091067623;652034;389161;677824;19878;
2024-05-06T14:35:58.619;538200365109236653;652372;389317;678112;19792;
2024-05-06T14:35:58.637;538200365127405683;652926;389507;678442;19862;
2024-05-06T14:35:58.655;538200365145574713;653427;389771;678656;19736;
2024-05-06T14:35:58.673;538200365163741016;653900;389931;678902;19716;
2024-05-06T14:35:58.691;538200365181907285;654447;390232;679351;19746;
2024-05-06T14:35:58.710;538200365200073554;654865;390516;679621;19725;
2024-05-06T14:35:58.728;538200365218239823;655429;390797;679886;19766;
2024-05-06T14:35:58.746;538200365236406092;655921;390974;680270;19767;
2024-05-06T14:35:58.764;538200365254572361;656419;391299;680688;19783;
2024-05-06T14:35:58.782;538200365272738630;656930;391589;680974;19789;
2024-05-06T14:35:58.800;538200365290904899;657448;391863;681335;19776;
2024-05-06T14:35:58.819;538200365309071168;657982;392115;681700;19737;
2024-05-06T14:35:58.837;538200365327237437;658438;392285;681961;19722;
2024-05-06T14:35:58.855;538200365345403706;658663;392425;682053;19707;
2024-05-06T14:35:58.873;538200365363569975;658649;392423;681922;19721;
2024-05-06T14:35:58.891;538200365381736244;658563;392315;681563;19635;
2024-05-06T14:35:58.909;538200365399902513;658527;392307;681279;19684;
2024-05-06T14:35:58.928;538200365418068782;658512;392217;681084;19651;
2024-05-06T14:35:58.946;538200365436235051;658514;392167;680870;19675;
2024-05-06T14:35:58.964;538200365454401320;658623;392208;680819;19653;
2024-05-06T14:35:58.982;538200365472567589;658785;392295;680770;19601;
2024-05-06T14:35:59.000;538200365490733858;659036;392339;680846;19610;
2024-05-06T14:35:59.018;538200365508900127;659316;392473;680950;19625;
2024-05-06T14:35:59.037;538200365527066396;659577;392740;681098;19690;
2024-05-06T14:35:59.055;538200365545232665;659889;392893;681273;19727;
2024-05-06T14:35:59.073;538200365563398934;660277;393162;681546;19729;
2024-05-06T14:35:59.091;538200365581565203;660602;393375;681741;19744;
2024-05-06T14:35:59.109;538200365599731472;661012;393503;681962;19807;
2024-05-06T14:35:59.127;538200365617897741;661344;393761;682209;19775;
2024-05-06T14:35:59.146;538200365636064010;661630;393900;682305;19813;
2024-05-06T14:35:59.164;538200365654230279;661935;394088;682426;19880;
2024-05-06T14:35:59.182;538200365672396548;662190;394119;682477;19789;
2024-05-06T14:35:59.200;538200365690562817;662461;394273;682569;19765;
2024-05-06T14:35:59.218;538200365708729086;662735;394401;682694;19747;
2024-05-06T14:35:59.236;538200365726895355;663017;394546;682839;19767;
