Phone timestamp;sensor timestamp [ns];channel 0;channel 1;channel 2;ambient
2024-05-08T19:13:56.153;538389843538310901;554360;575306;599774;4050;
2024-05-08T19:13:56.171;538389843556470782;554337;575212;599755;4110;
2024-05-08T19:13:56.189;538389843574630663;554401;575142;599741;4103;
2024-05-08T19:13:56.207;538389843592790544;554451;575214;599819;4120;
2024-05-08T19:13:56.225;538389843610950425;554531;575226;599873;4081;
2024-05-08T19:13:56.243;538389843629110306;554557;575262;599891;4084;
2024-05-08T19:13:56.261;538389843647270187;554557;575238;599864;4082;
2024-05-08T19:13:56.280;538389843665430068;554650;575218;599888;4045;
2024-05-08T19:13:56.298;538389843683589949;554596;575020;599789;4062;
2024-05-08T19:13:56.316;538389843701749830;554600;575008;599733;4121;
2024-05-08T19:13:56.334;538389843719909711;554569;574940;599767;4129;
2024-05-08T19:13:56.352;538389843738069592;554559;574893;599713;4091;
2024-05-08T19:13:56.370;538389843756229473;554609;574895;599688;4091;
2024-05-08T19:13:56.389;538389843774389354;554629;574935;599761;4089;
2024-05-08T19:13:56.407;538389843792549235;554724;574822;599904;4086;
2024-05-08T19:13:56.425;538389843810709116;554799;574858;599939;4101;
2024-05-08T19:13:56.443;538389843828868997;554940;574978;600069;4021;
2024-05-08T19:13:56.461;538389843847028878;555108;575059;600199;4065;
2024-05-08T19:13:56.479;538389843865188759;555317;575188;600307;4101;
2024-05-08T19:13:56.498;538389843883348640;555410;575231;600448;4132;
2024-05-08T19:13:56.516;538389843901508521;555567;575376;600649;4113;
2024-05-08T19:13:56.534;538389843919668402;555781;575446;600758;4077;
2024-05-08T19:13:56.552;538389843937828283;555889;575512;600888;4101;
2024-05-08T19:13:56.570;538389843955988164;556085;575559;600996;4085;
2024-05-08T19:13:56.588;538389843974148045;556234;575736;601238;4101;
2024-05-08T19:13:56.606;538389843992307926;556395;575796;601340;4121;
2024-05-08T19:13:56.625;538389844010467807;556527;575863;601450;4100;
2024-05-08T19:13:56.643;538389844028627688;556810;576111;601712;4184;
2024-05-08T19:13:56.661;538389844046787569;556900;576200;601851;4113;
2024-05-08T19:13:56.679;538389844064947450;557163;576389;602074;4142;
2024-05-08T19:13:56.697;538389844083107331;557342;576493;602192;4090;
2024-05-08T19:13:56.715;538389844101267212;557529;576631;602429;4105;
2024-05-08T19:13:56.734;538389844119427093;557696;576805;602634;4124;
2024-05-08T19:13:56.752;538389844137586974;557920;576955;602841;4135;
2024-05-08T19:13:56.770;538389844155746855;558006;576955;602848;4087;
2024-05-08T19:13:56.788;538389844173906736;557905;576850;602796;4095;
2024-05-08T19:13:56.806;538389844192066617;557733;576554;602576;4109;
2024-05-08T19:13:56.824;538389844210226498;557364;576143;602224;4101;
2024-05-08T19:13:56.843;538389844228386379;557013;575834;601872;4070;
2024-05-08T19:13:56.861;538389844246546260;556666;575455;601579;4040;
2024-05-08T19:13:56.879;538389844264706141;556541;575189;601310;4103;
2024-05-08T19:13:56.897;538389844282866022;556302;574966;601073;4069;
2024-05-08T19:13:56.915;538389844301025911;556255;574883;600990;4036;
2024-05-08T19:13:56.933;538389844319185792;556303;574792;600965;4116;
2024-05-08T19:13:56.952;538389844337345673;556229;574683;600887;4100;
2024-05-08T19:13:56.970;538389844355505554;556262;574708;600860;4097;
2024-05-08T19:13:56.988;538389844373665435;556252;574619;600798;4110;
2024-05-08T19:13:57.006;538389844391825316;556222;574542;600764;4114;
2024-05-08T19:13:57.024;538389844409985197;556167;574508;600722;4135;
2024-05-08T19:13:57.042;538389844428145078;556224;574357;600698;4082;
2024-05-08T19:13:57.060;538389844446304959;556173;574304;600655;4066;
2024-05-08T19:13:57.079;538389844464464840;556159;574222;600639;4066;
2024-05-08T19:13:57.097;538389844482624721;556120;574174;600587;4021;
2024-05-08T19:13:57.115;538389844500784602;556148;574093;600567;4072;
2024-05-08T19:13:57.133;538389844518944483;556181;573988;600491;4041;
2024-05-08T19:13:57.151;538389844537104364;556157;573982;600514;4048;
2024-05-08T19:13:57.169;538389844555264245;556176;573953;600608;4081;
2024-05-08T19:13:57.188;538389844573424126;556252;573891;600582;4087;
2024-05-08T19:13:57.206;538389844591584007;556339;573962;600654;4052;
2024-05-08T19:13:57.224;538389844609743888;556468;573948;600738;4041;
2024-05-08T19:13:57.242;538389844627903769;556488;573962;600739;4047;
2024-05-08T19:13:57.260;538389844646063650;556691;574080;600864;4021;
2024-05-08T19:13:57.278;538389844664223531;556793;574201;601071;4073;
2024-05-08T19:13:57.297;538389844682383412;556999;574314;601214;4058;
2024-05-08T19:13:57.315;538389844700543293;557121;574441;601404;4073;
2024-05-08T19:13:57.333;538389844718703174;557273;574466;601496;4031;
2024-05-08T19:13:57.351;538389844736863055;557438;574618;601625;4086;
2024-05-08T19:13:57.369;538389844755022936;557563;574748;601748;4065;
2024-05-08T19:13:57.387;538389844773182817;557736;574900;601926;4019;
2024-05-08T19:13:57.406;538389844791342698;557855;574996;602027;4038;
2024-05-08T19:13:57.424;538389844809502579;558009;575055;602252;4017;
2024-05-08T19:13:57.442;538389844827662460;558218;575138;602369;4064;
2024-05-08T19:13:57.460;538389844845822341;558392;575308;602551;4044;
2024-05-08T19:13:57.478;538389844863982222;558537;575411;602672;4082;
2024-05-08T19:13:57.496;538389844882142103;558706;575562;602854;4062;
2024-05-08T19:13:57.514;538389844900301984;558948;575717;603046;4061;
2024-05-08T19:13:57.533;538389844918461865;559097;575902;603206;4038;
2024-05-08T19:13:57.551;538389844936621746;559373;576040;603379;4011;
2024-05-08T19:13:57.569;538389844954781627;559551;576161;603545;4049;
2024-05-08T19:13:57.587;538389844972941508;559684;576340;603709;4013;
2024-05-08T19:13:57.605;538389844991101389;559624;576323;603729;4000;
2024-05-08T19:13:57.623;538389845009261270;559445;576083;603519;4047;
2024-05-08T19:13:57.642;538389845027421151;559284;575836;603336;4043;
2024-05-08T19:13:57.660;538389845045581032;558947;575436;602955;4070;
2024-05-08T19:13:57.678;538389845063742325;558613;575098;602615;4081;
2024-05-08T19:13:57.696;538389845081903586;558314;574827;602317;4034;
2024-05-08T19:13:57.714;538389845100064847;558183;574491;602022;4023;
2024-05-08T19:13:57.732;538389845118226108;557994;574387;601916;3970;
2024-05-08T19:13:57.751;538389845136387369;557998;574217;601839;4030;
2024-05-08T19:13:57.769;538389845154548630;558017;574204;601896;4018;
2024-05-08T19:13:57.787;538389845172709891;558035;574150;601822;4015;
2024-05-08T19:13:57.805;538389845190871152;558023;574102;601732;4089;
2024-05-08T19:13:57.823;538389845209032413;557998;573982;601712;4068;
2024-05-08T19:13:57.841;538389845227193674;557901;573851;601646;4048;
2024-05-08T19:13:57.860;538389845245354935;557935;573832;601641;4100;
2024-05-08T19:13:57.878;538389845263516196;557905;573722;601636;4023;
2024-05-08T19:13:57.896;538389845281677457;557909;573695;601633;4018;
2024-05-08T19:13:57.914;538389845299838718;557928;573676;601548;4006;
2024-05-08T19:13:57.932;538389845317999979;557890;573550;601506;3988;
2024-05-08T19:13:57.950;538389845336161240;557949;573500;601454;4046;
2024-05-08T19:13:57.969;538389845354322501;557912;573417;601510;4056;
2024-05-08T19:13:57.987;538389845372483762;557930;573412;601423;4024;
2024-05-08T19:13:58.005;538389845390645023;557986;573464;601431;4049;
2024-05-08T19:13:58.023;538389845408806284;558139;573491;601569;4052;
2024-05-08T19:13:58.041;538389845426967545;558154;573498;601556;4052;
2024-05-08T19:13:58.059;538389845445128806;558218;573565;601667;4046;
2024-05-08T19:13:58.077;538389845463290067;558360;573765;601797;4095;
2024-05-08T19:13:58.096;538389845481451328;558494;573762;601906;4070;
2024-05-08T19:13:58.114;538389845499612589;558589;573878;602004;4058;
2024-05-08T19:13:58.132;538389845517773850;558750;574024;602246;4117;
2024-05-08T19:13:58.150;538389845535935111;558867;574120;602354;4083;
2024-05-08T19:13:58.168;538389845554096372;559043;574194;602455;4053;
2024-05-08T19:13:58.186;538389845572257633;559106;574290;602519;3989;
2024-05-08T19:13:58.205;538389845590418894;559337;574444;602723;4013;
2024-05-08T19:13:58.223;538389845608580155;559465;574608;602923;4073;
2024-05-08T19:13:58.241;538389845626741416;559651;574722;602979;4029;
2024-05-08T19:13:58.259;538389845644902677;559823;574842;603223;4099;
2024-05-08T19:13:58.277;538389845663063938;560031;574982;603415;4129;
2024-05-08T19:13:58.295;538389845681225199;560169;575153;603492;4071;
2024-05-08T19:13:58.314;538389845699386460;560318;575299;603712;4040;
2024-05-08T19:13:58.332;538389845717547721;560470;575391;603885;4084;
2024-05-08T19:13:58.350;538389845735708982;560757;575549;604118;4107;
2024-05-08T19:13:58.368;538389845753870243;560891;575713;604198;4088;
2024-05-08T19:13:58.386;538389845772031504;561079;575907;604464;4086;
2024-05-08T19:13:58.404;538389845790192765;561285;576066;604652;4088;
2024-05-08T19:13:58.423;538389845808354026;561460;576264;604774;4064;
2024-05-08T19:13:58.441;538389845826517119;561704;576525;604987;4147;
2024-05-08T19:13:58.459;538389845844680190;561865;576628;605173;4064;
2024-05-08T19:13:58.477;538389845862843261;562001;576661;605204;4102;
2024-05-08T19:13:58.495;538389845881006332;561830;576525;605114;4068;
2024-05-08T19:13:58.513;538389845899169403;561553;576235;604880;4004;
2024-05-08T19:13:58.532;538389845917332474;561205;575957;604627;4082;
2024-05-08T19:13:58.550;538389845935495545;560957;575622;604231;4021;
2024-05-08T19:13:58.568;538389845953658616;560678;575303;603913;4088;
2024-05-08T19:13:58.586;538389845971821687;560498;575117;603743;4060;
2024-05-08T19:13:58.604;538389845989984758;560448;575077;603626;4045;
2024-05-08T19:13:58.622;538389846008147829;560415;574935;603591;4071;
2024-05-08T19:13:58.640;538389846026310900;560445;574916;603565;4126;
2024-05-08T19:13:58.659;538389846044473971;560451;574932;603515;4086;
2024-05-08T19:13:58.677;538389846062637042;560518;574918;603534;4125;
2024-05-08T19:13:58.695;538389846080800113;560547;574876;603481;4103;
2024-05-08T19:13:58.713;538389846098963184;560538;574821;603398;4080;
2024-05-08T19:13:58.731;538389846117126255;560597;574806;603467;4079;
2024-05-08T19:13:58.749;538389846135289326;560514;574825;603443;4091;
2024-05-08T19:13:58.768;538389846153452397;560528;574771;603432;4091;
2024-05-08T19:13:58.786;538389846171615468;560547;574762;603403;4089;
2024-05-08T19:13:58.804;538389846189778539;560494;574775;603371;4088;
2024-05-08T19:13:58.822;538389846207941610;560517;574757;603379;4065;
2024-05-08T19:13:58.840;538389846226104681;560500;574768;603420;4047;
2024-05-08T19:13:58.858;538389846244267752;560591;574690;603384;4100;
2024-05-08T19:13:58.877;538389846262430823;560662;574727;603415;4078;
2024-05-08T19:13:58.895;538389846280593894;560755;574845;603496;4140;
2024-05-08T19:13:58.913;538389846298756965;560805;574882;603479;4082;
2024-05-08T19:13:58.931;538389846316920036;560891;574908;603580;4122;
2024-05-08T19:13:58.949;538389846335083107;560922;575001;603611;4063;
2024-05-08T19:13:58.967;538389846353246178;561079;575121;603761;4077;
2024-05-08T19:13:58.986;538389846371409249;561222;575198;603939;4075;
2024-05-08T19:13:59.004;538389846389572320;561412;575404;604098;4132;
2024-05-08T19:13:59.022;538389846407735391;561520;575441;604219;4060;
2024-05-08T19:13:59.040;538389846425898462;561620;575553;604306;4084;
2024-05-08T19:13:59.058;538389846444061533;561742;575696;604480;4127;
2024-05-08T19:13:59.076;538389846462224604;561813;575675;604549;4064;
2024-05-08T19:13:59.095;538389846480387675;562026;575862;604761;4090;
2024-05-08T19:13:59.113;538389846498550746;562160;576047;604894;4032;
2024-05-08T19:13:59.131;538389846516713817;562362;576202;605045;4120;
2024-05-08T19:13:59.149;538389846534876888;562453;576389;605115;4122;
2024-05-08T19:13:59.167;538389846553039959;562697;576477;605328;4153;
2024-05-08T19:13:59.185;538389846571203030;562838;576624;605462;4087;
2024-05-08T19:13:59.204;538389846589366101;562891;576731;605656;4067;
2024-05-08T19:13:59.222;538389846607527721;563091;576835;605795;4083;
2024-05-08T19:13:59.240;538389846625689309;563250;576949;605950;4071;
2024-05-08T19:13:59.258;538389846643850897;563495;577093;606105;4132;
2024-05-08T19:13:59.276;538389846662012485;563694;577322;606298;4150;
2024-05-08T19:13:59.294;538389846680174073;563832;577426;606422;4105;
2024-05-08T19:13:59.313;538389846698335661;564026;577548;606600;4126;
2024-05-08T19:13:59.331;538389846716497249;564205;577739;606773;4078;
2024-05-08T19:13:59.349;538389846734658837;564349;577958;606981;4052;
2024-05-08T19:13:59.367;538389846752820425;564370;577947;607009;4116;
2024-05-08T19:13:59.385;538389846770982013;564220;577770;606799;4054;
2024-05-08T19:13:59.403;538389846789143601;563926;577447;606469;4070;
2024-05-08T19:13:59.421;538389846807305189;563719;577204;606191;4127;
2024-05-08T19:13:59.440;538389846825466777;563447;576857;605915;4091;
2024-05-08T19:13:59.458;538389846843628365;563142;576613;605650;4070;
2024-05-08T19:13:59.476;538389846861789953;563008;576502;605443;4097;
2024-05-08T19:13:59.494;538389846879951541;562984;576380;605381;4079;
2024-05-08T19:13:59.512;538389846898113129;563053;576408;605331;4125;
2024-05-08T19:13:59.530;538389846916274717;563138;576419;605295;4130;
2024-05-08T19:13:59.549;538389846934436305;563130;576377;605285;4070;
2024-05-08T19:13:59.567;538389846952597893;563141;576414;605345;4146;
2024-05-08T19:13:59.585;538389846970759481;563171;576427;605327;4092;
2024-05-08T19:13:59.603;538389846988921069;563211;576368;605356;4048;
2024-05-08T19:13:59.621;538389847007082657;563233;576411;605352;4043;
2024-05-08T19:13:59.639;538389847025244245;563324;576409;605397;4070;
2024-05-08T19:13:59.658;538389847043405833;563294;576405;605371;4069;
2024-05-08T19:13:59.676;538389847061567421;563382;576371;605343;4122;
2024-05-08T19:13:59.694;538389847079729009;563354;576376;605311;4081;
2024-05-08T19:13:59.712;538389847097890597;563323;576374;605293;4066;
2024-05-08T19:13:59.730;538389847116052185;563327;576287;605195;4047;
2024-05-08T19:13:59.748;538389847134213773;563394;576356;605264;4095;
2024-05-08T19:13:59.767;538389847152375361;563441;576460;605369;4134;
2024-05-08T19:13:59.785;538389847170536949;563483;576488;605371;4079;
2024-05-08T19:13:59.803;538389847188698537;563625;576505;605435;4104;
2024-05-08T19:13:59.821;538389847206860125;563730;576686;605528;4100;
2024-05-08T19:13:59.839;538389847225021713;563823;576731;605618;4095;
2024-05-08T19:13:59.857;538389847243183301;563932;576836;605736;4127;
2024-05-08T19:13:59.876;538389847261344889;564038;576932;605889;4041;
2024-05-08T19:13:59.894;538389847279506477;564123;577065;605996;4026;
2024-05-08T19:13:59.912;538389847297668065;564286;577208;606113;4021;
2024-05-08T19:13:59.930;538389847315829653;564512;577321;606266;4035;
2024-05-08T19:13:59.948;538389847333991241;564658;577431;606418;4052;
2024-05-08T19:13:59.966;538389847352152829;564726;577641;606563;4107;
2024-05-08T19:13:59.985;538389847370314347;564877;577738;606732;4060;
2024-05-08T19:14:00.003;538389847388475863;565059;577906;606945;4110;
2024-05-08T19:14:00.021;538389847406637379;565205;578048;607090;4106;
2024-05-08T19:14:00.039;538389847424798895;565424;578271;607198;4137;
2024-05-08T19:14:00.057;538389847442960411;565516;578392;607336;4089;
2024-05-08T19:14:00.075;538389847461121927;565662;578482;607453;4060;
2024-05-08T19:14:00.093;538389847479283443;565793;578631;607648;4106;
2024-05-08T19:14:00.112;538389847497444959;566009;578784;607806;4130;
2024-05-08T19:14:00.130;538389847515606475;566185;578959;607956;4140;
2024-05-08T19:14:00.148;538389847533767991;566399;579074;608025;4109;
2024-05-08T19:14:00.166;538389847551929507;566514;579240;608233;4081;
2024-05-08T19:14:00.184;538389847570091023;566687;579420;608341;4036;
2024-05-08T19:14:00.202;538389847588252539;566827;579546;608566;4073;
2024-05-08T19:14:00.221;538389847606414055;567056;579758;608774;4099;
2024-05-08T19:14:00.239;538389847624575571;567159;579853;608903;4080;
2024-05-08T19:14:00.257;538389847642737087;567350;580036;609068;4127;
2024-05-08T19:14:00.275;538389847660898603;567365;580026;609025;4057;
2024-05-08T19:14:00.293;538389847679060119;567127;579842;608811;4100;
2024-05-08T19:14:00.311;538389847697221635;566910;579603;608547;4096;
2024-05-08T19:14:00.330;538389847715383151;566565;579221;608188;4055;
2024-05-08T19:14:00.348;538389847733544667;566333;579071;607910;4100;
2024-05-08T19:14:00.366;538389847751706183;566127;578799;607586;4063;
2024-05-08T19:14:00.384;538389847769867699;566051;578681;607469;4097;
2024-05-08T19:14:00.402;538389847788029215;565905;578589;607280;4062;
2024-05-08T19:14:00.420;538389847806190731;565880;578619;607303;4126;
2024-05-08T19:14:00.439;538389847824352247;565913;578634;607316;4012;
2024-05-08T19:14:00.457;538389847842513763;566039;578657;607298;4077;
2024-05-08T19:14:00.475;538389847860675279;566033;578700;607289;4077;
2024-05-08T19:14:00.493;538389847878836795;565941;578643;607167;4056;
2024-05-08T19:14:00.511;538389847896998311;565964;578641;607231;4069;
2024-05-08T19:14:00.529;538389847915159827;565976;578643;607164;4069;
2024-05-08T19:14:00.548;538389847933321343;565920;578596;607115;4101;
2024-05-08T19:14:00.566;538389847951482859;565969;578628;607089;4029;
2024-05-08T19:14:00.584;538389847969644375;565921;578543;606961;4011;
2024-05-08T19:14:00.602;538389847987805891;565878;578509;606967;4053;
2024-05-08T19:14:00.620;538389848005967407;565870;578529;606936;4099;
2024-05-08T19:14:00.638;538389848024128923;565916;578532;606941;4085;
2024-05-08T19:14:00.656;538389848042290439;565983;578540;606994;4039;
2024-05-08T19:14:00.675;538389848060451955;566001;578545;606910;4031;
2024-05-08T19:14:00.693;538389848078613471;566069;578714;606962;4023;
2024-05-08T19:14:00.711;538389848096774987;566061;578740;607033;4024;
2024-05-08T19:14:00.729;538389848114936503;566134;578877;607173;4050;
2024-05-08T19:14:00.747;538389848133097696;566236;578966;607163;4095;
2024-05-08T19:14:00.765;538389848151258885;566389;579040;607334;4045;
2024-05-08T19:14:00.784;538389848169420074;566464;579177;607395;4062;
2024-05-08T19:14:00.802;538389848187581263;566573;579272;607535;4062;
2024-05-08T19:14:00.820;538389848205742452;566801;579406;607700;4095;
2024-05-08T19:14:00.838;538389848223903641;566862;579573;607743;4075;
2024-05-08T19:14:00.856;538389848242064830;567056;579674;607958;4117;
2024-05-08T19:14:00.874;538389848260226019;567144;579807;608040;4103;
2024-05-08T19:14:00.893;538389848278387208;567272;580000;608180;4058;
2024-05-08T19:14:00.911;538389848296548397;567363;580146;608299;4026;
2024-05-08T19:14:00.929;538389848314709586;567502;580259;608374;4062;
2024-05-08T19:14:00.947;538389848332870775;567587;580423;608575;4082;
2024-05-08T19:14:00.965;538389848351031964;567799;580611;608750;4031;
2024-05-08T19:14:00.983;538389848369193153;567915;580779;608929;4104;
2024-05-08T19:14:01.002;538389848387354342;568076;580890;609082;4155;
2024-05-08T19:14:01.020;538389848405515531;568246;581007;609150;4113;
2024-05-08T19:14:01.038;538389848423676720;568383;581205;609287;4085;
2024-05-08T19:14:01.056;538389848441837909;568533;581477;609531;4043;
2024-05-08T19:14:01.074;538389848459999098;568765;581605;609724;4104;
2024-05-08T19:14:01.092;538389848478160287;568837;581815;609842;4091;
2024-05-08T19:14:01.111;538389848496321476;569047;582051;610056;4100;
2024-05-08T19:14:01.129;538389848514482665;569303;582300;610303;4165;
2024-05-08T19:14:01.147;538389848532643854;569446;582446;610436;4120;
2024-05-08T19:14:01.165;538389848550805043;569601;582561;610617;4091;
2024-05-08T19:14:01.183;538389848568966232;569752;582795;610845;4160;
2024-05-08T19:14:01.201;538389848587127421;569794;582860;610821;4160;
2024-05-08T19:14:01.219;538389848605288610;569578;582729;610695;4152;
2024-05-08T19:14:01.238;538389848623449799;569277;582462;610353;4155;
2024-05-08T19:14:01.256;538389848641610988;569021;582208;610053;4126;
2024-05-08T19:14:01.274;538389848659772177;568755;581991;609759;4148;
2024-05-08T19:14:01.292;538389848677933366;568518;581811;609565;4103;
2024-05-08T19:14:01.310;538389848696094555;568387;581732;609381;4098;
2024-05-08T19:14:01.328;538389848714255744;568397;581769;609345;4152;
2024-05-08T19:14:01.347;538389848732416933;568461;581815;609365;4188;
2024-05-08T19:14:01.365;538389848750578122;568500;581867;609372;4171;
2024-05-08T19:14:01.383;538389848768739311;568508;581922;609358;4197;
2024-05-08T19:14:01.401;538389848786900500;568534;582011;609469;4229;
2024-05-08T19:14:01.419;538389848805061689;568481;582042;609377;4124;
2024-05-08T19:14:01.437;538389848823222878;568490;582006;609314;4146;
2024-05-08T19:14:01.456;538389848841384067;568501;582044;609303;4152;
2024-05-08T19:14:01.474;538389848859545256;568478;582016;609281;4132;
2024-05-08T19:14:01.492;538389848877706445;568417;582075;609239;4091;
2024-05-08T19:14:01.510;538389848895866820;568414;582121;609316;4116;
2024-05-08T19:14:01.528;538389848914027173;568412;582081;609184;4065;
2024-05-08T19:14:01.546;538389848932187526;568427;582100;609150;4092;
2024-05-08T19:14:01.565;538389848950347879;568390;582178;609191;4155;
2024-05-08T19:14:01.583;538389848968508232;568434;582190;609091;4114;
2024-05-08T19:14:01.601;538389848986668585;568467;582250;609197;4117;
2024-05-08T19:14:01.619;538389849004828938;568460;582298;609258;4121;
2024-05-08T19:14:01.637;538389849022989291;568428;582382;609250;4050;
2024-05-08T19:14:01.655;538389849041149644;568620;582486;609372;4045;
2024-05-08T19:14:01.673;538389849059309997;568703;582705;609495;4073;
2024-05-08T19:14:01.692;538389849077470350;568799;582772;609546;4061;
2024-05-08T19:14:01.710;538389849095630703;568944;582897;609593;4044;
2024-05-08T19:14:01.728;538389849113791056;568988;583018;609716;4071;
2024-05-08T19:14:01.746;538389849131951409;569105;583135;609859;4055;
2024-05-08T19:14:01.764;538389849150111762;569220;583262;609895;4046;
2024-05-08T19:14:01.782;538389849168272115;569320;583443;610032;4052;
2024-05-08T19:14:01.801;538389849186432468;569412;583577;610131;4060;
2024-05-08T19:14:01.819;538389849204592821;569577;583662;610221;4106;
2024-05-08T19:14:01.837;538389849222753174;569609;583813;610391;4032;
2024-05-08T19:14:01.855;538389849240913527;569709;583984;610540;4047;
2024-05-08T19:14:01.873;538389849259073880;569846;584087;610616;4075;
2024-05-08T19:14:01.891;538389849277234233;570016;584220;610737;4028;
2024-05-08T19:14:01.910;538389849295394586;570171;584370;610793;4082;
2024-05-08T19:14:01.928;538389849313554939;570196;584445;610912;4023;
2024-05-08T19:14:01.946;538389849331715292;570333;584608;611122;3990;
2024-05-08T19:14:01.964;538389849349875645;570430;584754;611258;4072;
2024-05-08T19:14:01.982;538389849368035998;570588;584921;611411;4020;
2024-05-08T19:14:02.000;538389849386196351;570698;585041;611552;4020;
2024-05-08T19:14:02.019;538389849404356704;570747;585243;611708;3964;
2024-05-08T19:14:02.037;538389849422517057;570974;585393;611871;3992;
2024-05-08T19:14:02.055;538389849440677410;571049;585568;612006;4006;
2024-05-08T19:14:02.073;538389849458837763;571221;585784;612112;4012;
2024-05-08T19:14:02.091;538389849476998116;571295;585859;612215;3963;
2024-05-08T19:14:02.109;538389849495158469;571216;585706;612197;3996;
2024-05-08T19:14:02.128;538389849513318822;570997;585591;611998;4005;
2024-05-08T19:14:02.146;538389849531479175;570751;585427;611761;3986;
2024-05-08T19:14:02.164;538389849549639528;570413;585090;611378;3956;
2024-05-08T19:14:02.182;538389849567799881;570182;584919;611037;4005;
2024-05-08T19:14:02.200;538389849585960234;569974;584715;610869;3958;
2024-05-08T19:14:02.218;538389849604120587;569882;584656;610686;3979;
2024-05-08T19:14:02.236;538389849622280940;569803;584620;610652;3956;
2024-05-08T19:14:02.255;538389849640441293;569726;584636;610578;3992;
2024-05-08T19:14:02.273;538389849658604001;569720;584676;610571;3960;
2024-05-08T19:14:02.291;538389849676766679;569666;584663;610535;3913;
2024-05-08T19:14:02.309;538389849694929357;569845;584701;610590;3964;
2024-05-08T19:14:02.327;538389849713092035;569765;584688;610607;3919;
2024-05-08T19:14:02.345;538389849731254713;569783;584725;610526;3899;
2024-05-08T19:14:02.364;538389849749417391;569721;584649;610511;3973;
2024-05-08T19:14:02.382;538389849767580069;569719;584694;610448;3953;
2024-05-08T19:14:02.400;538389849785742747;569542;584567;610310;3927;
2024-05-08T19:14:02.418;538389849803905425;569474;584534;610236;3901;
2024-05-08T19:14:02.436;538389849822068103;569435;584473;610122;3894;
2024-05-08T19:14:02.454;538389849840230781;569376;584447;610045;3909;
2024-05-08T19:14:02.473;538389849858393459;569333;584472;610070;3971;
2024-05-08T19:14:02.491;538389849876556137;569314;584472;610049;3945;
2024-05-08T19:14:02.509;538389849894718815;569314;584482;610069;3905;
2024-05-08T19:14:02.527;538389849912881493;569305;584478;610033;3888;
2024-05-08T19:14:02.545;538389849931044171;569379;584502;610141;3907;
2024-05-08T19:14:02.563;538389849949206849;569427;584588;610117;3934;
2024-05-08T19:14:02.582;538389849967369527;569529;584605;610218;3919;
2024-05-08T19:14:02.600;538389849985532205;569523;584697;610283;3897;
2024-05-08T19:14:02.618;538389850003694883;569591;584802;610342;3875;
2024-05-08T19:14:02.636;538389850021857561;569707;584872;610498;3926;
2024-05-08T19:14:02.654;538389850040020239;569752;584965;610483;3892;
2024-05-08T19:14:02.672;538389850058182917;569783;585096;610576;3924;
2024-05-08T19:14:02.691;538389850076345595;569796;585052;610598;3862;
2024-05-08T19:14:02.709;538389850094508273;569914;585110;610725;3893;
2024-05-08T19:14:02.727;538389850112670951;570011;585282;610837;3935;
2024-05-08T19:14:02.745;538389850130833629;570106;585418;610948;3933;
2024-05-08T19:14:02.763;538389850148996307;570136;585508;611074;3907;
2024-05-08T19:14:02.781;538389850167158985;570190;585514;611154;3917;
2024-05-08T19:14:02.800;538389850185321663;570319;585655;611222;3924;
2024-05-08T19:14:02.818;538389850203484341;570411;585692;611315;3932;
2024-05-08T19:14:02.836;538389850221647019;570436;585835;611455;3873;
2024-05-08T19:14:02.854;538389850239809697;570633;585931;611594;3909;
2024-05-08T19:14:02.872;538389850257972375;570706;585994;611673;3934;
2024-05-08T19:14:02.890;538389850276135053;570746;586178;611869;3924;
2024-05-08T19:14:02.908;538389850294297731;570877;586323;611940;3924;
2024-05-08T19:14:02.927;538389850312460409;570972;586388;612053;3927;
2024-05-08T19:14:02.945;538389850330623087;571053;586495;612204;3876;
2024-05-08T19:14:02.963;538389850348785765;571226;586629;612348;3892;
2024-05-08T19:14:02.981;538389850366948443;571233;586564;612359;3877;
2024-05-08T19:14:02.999;538389850385111121;571092;586436;612231;3890;
2024-05-08T19:14:03.017;538389850403273799;570821;586276;611937;3886;
2024-05-08T19:14:03.036;538389850421434354;570467;585938;611577;3876;
2024-05-08T19:14:03.054;538389850439594889;570054;585651;611202;3881;
2024-05-08T19:14:03.072;538389850457755424;569845;585392;610923;3862;
2024-05-08T19:14:03.090;538389850475915959;569684;585187;610659;3897;
2024-05-08T19:14:03.108;538389850494076494;569429;585056;610477;3863;
2024-05-08T19:14:03.126;538389850512237029;569395;585002;610386;3854;
2024-05-08T19:14:03.145;538389850530397564;569308;584948;610339;3882;
2024-05-08T19:14:03.163;538389850548558099;569278;584999;610345;3972;
2024-05-08T19:14:03.181;538389850566718634;569081;584893;610226;3958;
2024-05-08T19:14:03.199;538389850584879169;568966;584844;610122;3931;
2024-05-08T19:14:03.217;538389850603039704;568933;584769;609990;3917;
2024-05-08T19:14:03.235;538389850621200239;568812;584644;609955;3921;
2024-05-08T19:14:03.254;538389850639360774;568659;584624;609856;3915;
2024-05-08T19:14:03.272;538389850657521309;568544;584518;609702;3904;
2024-05-08T19:14:03.290;538389850675681844;568499;584507;609666;4006;
2024-05-08T19:14:03.308;538389850693842379;568351;584407;609507;3909;
2024-05-08T19:14:03.326;538389850712002914;568294;584358;609389;3950;
2024-05-08T19:14:03.344;538389850730163449;568220;584330;609291;3952;
2024-05-08T19:14:03.363;538389850748323984;568124;584234;609183;3904;
2024-05-08T19:14:03.381;538389850766484519;568109;584177;609092;3884;
2024-05-08T19:14:03.399;538389850784645054;568067;584238;609122;3950;
2024-05-08T19:14:03.417;538389850802805589;568029;584147;609037;3911;
2024-05-08T19:14:03.435;538389850820966124;568069;584136;609052;3895;
2024-05-08T19:14:03.453;538389850839126659;568045;584166;609109;3905;
2024-05-08T19:14:03.471;538389850857287194;568091;584189;609156;3956;
2024-05-08T19:14:03.490;538389850875447729;568122;584272;609242;3936;
2024-05-08T19:14:03.508;538389850893608264;568164;584303;609321;3942;
2024-05-08T19:14:03.526;538389850911768799;568187;584333;609301;3888;
2024-05-08T19:14:03.544;538389850929929334;568235;584412;609430;3919;
2024-05-08T19:14:03.562;538389850948089869;568246;584534;609472;3913;
2024-05-08T19:14:03.580;538389850966250404;568261;584518;609475;3951;
2024-05-08T19:14:03.599;538389850984410939;568380;584587;609533;3973;
2024-05-08T19:14:03.617;538389851002571474;568379;584621;609621;3920;
2024-05-08T19:14:03.635;538389851020732009;568471;584717;609655;3935;
2024-05-08T19:14:03.653;538389851038892544;568556;584795;609712;3953;
2024-05-08T19:14:03.671;538389851057053079;568631;584933;609833;3893;
2024-05-08T19:14:03.689;538389851075213614;568690;584976;609920;3973;
2024-05-08T19:14:03.708;538389851093374149;568699;584990;610033;3953;
2024-05-08T19:14:03.726;538389851111534684;568838;585068;610134;3952;
2024-05-08T19:14:03.744;538389851129695219;568932;585211;610295;3876;
2024-05-08T19:14:03.762;538389851147855754;569070;585355;610366;3907;
2024-05-08T19:14:03.780;538389851166016289;569125;585418;610450;3864;
2024-05-08T19:14:03.798;538389851184176989;569188;585556;610638;3915;
2024-05-08T19:14:03.817;538389851202337669;569385;585672;610755;3966;
2024-05-08T19:14:03.835;538389851220498349;569448;585797;610881;3898;
2024-05-08T19:14:03.853;538389851238659029;569521;585903;611036;3907;
2024-05-08T19:14:03.871;538389851256819709;569660;586029;611214;3902;
2024-05-08T19:14:03.889;538389851274980389;569737;586152;611320;3879;
2024-05-08T19:14:03.907;538389851293141069;569642;586127;611292;3917;
2024-05-08T19:14:03.925;538389851311301749;569388;585943;611057;3945;
2024-05-08T19:14:03.944;538389851329462429;569001;585555;610672;3939;
2024-05-08T19:14:03.962;538389851347623109;568615;585275;610272;3955;
2024-05-08T19:14:03.980;538389851365783789;568257;584970;609930;3921;
2024-05-08T19:14:03.998;538389851383944469;567840;584698;609536;3856;
2024-05-08T19:14:04.016;538389851402105149;567564;584541;609241;3935;
2024-05-08T19:14:04.034;538389851420265829;567408;584384;609040;3930;
2024-05-08T19:14:04.053;538389851438426509;567303;584240;608865;3948;
2024-05-08T19:14:04.071;538389851456587189;567233;584190;608804;3922;
2024-05-08T19:14:04.089;538389851474747869;567145;584173;608682;3898;
2024-05-08T19:14:04.107;538389851492908549;567005;584114;608579;3901;
2024-05-08T19:14:04.125;538389851511069229;566820;583922;608417;3891;
2024-05-08T19:14:04.143;538389851529229909;566748;583849;608238;3908;
2024-05-08T19:14:04.162;538389851547390589;566591;583785;608112;3867;
2024-05-08T19:14:04.180;538389851565551269;566462;583767;608018;3915;
2024-05-08T19:14:04.198;538389851583711949;566412;583643;607911;3929;
2024-05-08T19:14:04.216;538389851601872629;566328;583580;607798;3937;
2024-05-08T19:14:04.234;538389851620033309;566190;583490;607609;3850;
2024-05-08T19:14:04.252;538389851638193989;566051;583433;607551;3871;
2024-05-08T19:14:04.271;538389851656354669;565938;583321;607428;3873;
2024-05-08T19:14:04.289;538389851674515349;565835;583238;607278;3890;
2024-05-08T19:14:04.307;538389851692676029;565801;583154;607249;3931;
2024-05-08T19:14:04.325;538389851710836709;565735;583134;607203;3927;
2024-05-08T19:14:04.343;538389851728997389;565793;583197;607231;3910;
2024-05-08T19:14:04.361;538389851747158069;565711;583220;607171;3878;
2024-05-08T19:14:04.380;538389851765318749;565703;583197;607203;3914;
2024-05-08T19:14:04.398;538389851783479429;565763;583247;607227;3932;
2024-05-08T19:14:04.416;538389851801640109;565813;583275;607315;3942;
2024-05-08T19:14:04.434;538389851819800789;565827;583404;607388;3979;
2024-05-08T19:14:04.452;538389851837961469;565882;583436;607388;3969;
2024-05-08T19:14:04.470;538389851856122149;566006;583543;607490;3968;
2024-05-08T19:14:04.488;538389851874282829;565982;583647;607542;3975;
2024-05-08T19:14:04.507;538389851892443509;565988;583631;607533;3911;
2024-05-08T19:14:04.525;538389851910604189;566134;583749;607685;3975;
2024-05-08T19:14:04.543;538389851928764869;566195;583827;607749;3982;
2024-05-08T19:14:04.561;538389851946927475;566288;583841;607913;3950;
2024-05-08T19:14:04.579;538389851965090081;566375;583889;607933;3986;
2024-05-08T19:14:04.597;538389851983252687;566413;584013;608031;3995;
2024-05-08T19:14:04.616;538389852001415293;566461;584071;608180;3968;
2024-05-08T19:14:04.634;538389852019577899;566494;584172;608207;3985;
2024-05-08T19:14:04.652;538389852037740505;566620;584291;608293;3987;
2024-05-08T19:14:04.670;538389852055903111;566731;584399;608350;3928;
2024-05-08T19:14:04.688;538389852074065717;566805;584455;608456;3973;
2024-05-08T19:14:04.706;538389852092228323;566875;584600;608521;3956;
2024-05-08T19:14:04.725;538389852110390929;567059;584760;608684;4009;
2024-05-08T19:14:04.743;538389852128553535;567169;584839;608832;3977;
2024-05-08T19:14:04.761;538389852146716141;567274;584993;608977;3996;
2024-05-08T19:14:04.779;538389852164878747;567432;585179;609138;3976;
2024-05-08T19:14:04.797;538389852183041353;567568;585233;609237;4014;
2024-05-08T19:14:04.815;538389852201203959;567606;585266;609293;4014;
2024-05-08T19:14:04.834;538389852219366565;567409;585170;609125;3937;
2024-05-08T19:14:04.852;538389852237529171;567067;584929;608814;3939;
2024-05-08T19:14:04.870;538389852255691777;566665;584525;608401;3941;
2024-05-08T19:14:04.888;538389852273854383;566299;584136;607947;3930;
2024-05-08T19:14:04.906;538389852292016989;565972;583862;607655;4010;
2024-05-08T19:14:04.924;538389852310179595;565694;583584;607328;4017;
2024-05-08T19:14:04.943;538389852328342201;565409;583373;607077;3993;
2024-05-08T19:14:04.961;538389852346504807;565305;583310;606964;3934;
2024-05-08T19:14:04.979;538389852364667413;565197;583224;606848;3970;
2024-05-08T19:14:04.997;538389852382830019;565129;583207;606772;3958;
2024-05-08T19:14:05.015;538389852400992625;565077;583021;606651;3953;
2024-05-08T19:14:05.033;538389852419155231;564976;583003;606625;3955;
2024-05-08T19:14:05.052;538389852437317837;564932;582954;606528;3962;
2024-05-08T19:14:05.070;538389852455480443;564968;582833;606436;3964;
2024-05-08T19:14:05.088;538389852473643049;564837;582712;606300;3962;
2024-05-08T19:14:05.106;538389852491805655;564738;582651;606239;4010;
2024-05-08T19:14:05.124;538389852509968261;564551;582539;606086;3956;
2024-05-08T19:14:05.142;538389852528130867;564430;582457;605950;3922;
2024-05-08T19:14:05.160;538389852546293473;564260;582313;605744;3924;
2024-05-08T19:14:05.179;538389852564456079;564118;582244;605626;3929;
2024-05-08T19:14:05.197;538389852582618685;564019;582149;605500;3908;
2024-05-08T19:14:05.215;538389852600781291;563934;582064;605456;3949;
2024-05-08T19:14:05.233;538389852618943897;563883;582043;605332;3876;
2024-05-08T19:14:05.251;538389852637106503;563860;582011;605268;3862;
2024-05-08T19:14:05.269;538389852655269109;563926;582023;605277;3925;
2024-05-08T19:14:05.288;538389852673431715;563928;582043;605320;3905;
2024-05-08T19:14:05.306;538389852691594321;563963;582090;605297;3905;
2024-05-08T19:14:05.324;538389852709756593;563972;582012;605336;3866;
2024-05-08T19:14:05.342;538389852727918835;563925;582036;605441;3934;
2024-05-08T19:14:05.360;538389852746081077;563956;582024;605475;3826;
2024-05-08T19:14:05.378;538389852764243319;564031;582072;605421;3822;
2024-05-08T19:14:05.397;538389852782405561;564108;582119;605480;3864;
2024-05-08T19:14:05.415;538389852800567803;564126;582107;605515;3829;
2024-05-08T19:14:05.433;538389852818730045;564201;582190;605607;3779;
2024-05-08T19:14:05.451;538389852836892287;564210;582303;605742;3805;
2024-05-08T19:14:05.469;538389852855054529;564237;582362;605679;3785;
2024-05-08T19:14:05.487;538389852873216771;564351;582437;605834;3830;
2024-05-08T19:14:05.506;538389852891379013;564416;582425;605862;3807;
2024-05-08T19:14:05.524;538389852909541255;564569;582494;606002;3861;
2024-05-08T19:14:05.542;538389852927703497;564608;582600;606081;3829;
2024-05-08T19:14:05.560;538389852945865739;564680;582643;606185;3876;
2024-05-08T19:14:05.578;538389852964027981;564814;582810;606334;3873;
2024-05-08T19:14:05.596;538389852982190223;564903;582855;606394;3826;
2024-05-08T19:14:05.615;538389853000352465;565013;582995;606569;3876;
2024-05-08T19:14:05.633;538389853018514707;565090;582999;606684;3811;
2024-05-08T19:14:05.651;538389853036676949;565172;583140;606831;3828;
2024-05-08T19:14:05.669;538389853054839191;565215;583248;606958;3843;
2024-05-08T19:14:05.687;538389853073001433;565093;583309;606957;3773;
2024-05-08T19:14:05.705;538389853091163675;564718;583213;606734;3753;
2024-05-08T19:14:05.724;538389853109325917;564465;583150;606488;3770;
2024-05-08T19:14:05.742;538389853127488159;564241;583011;606253;3814;
2024-05-08T19:14:05.760;538389853145650401;563936;582713;605867;3822;
2024-05-08T19:14:05.778;538389853163812643;563570;582220;605497;3831;
2024-05-08T19:14:05.796;538389853181974885;563259;581715;605087;3865;
2024-05-08T19:14:05.814;538389853200137127;563013;581331;604754;3901;
2024-05-08T19:14:05.832;538389853218299369;562770;580872;604308;3899;
2024-05-08T19:14:05.851;538389853236461611;562621;580602;604064;3856;
2024-05-08T19:14:05.869;538389853254623853;562432;580340;603829;3843;
2024-05-08T19:14:05.887;538389853272786095;562272;580171;603528;3763;
2024-05-08T19:14:05.905;538389853290948337;562095;580127;603360;3731;
2024-05-08T19:14:05.923;538389853309110579;561968;580046;603283;3671;
2024-05-08T19:14:05.941;538389853327272821;561772;580040;603194;3723;
2024-05-08T19:14:05.960;538389853345435063;561619;579954;603040;3626;
2024-05-08T19:14:05.978;538389853363597305;561442;579877;602967;3642;
2024-05-08T19:14:05.996;538389853381759547;561310;579656;602753;3651;
2024-05-08T19:14:06.014;538389853399921789;561112;579510;602701;3656;
2024-05-08T19:14:06.032;538389853418084031;560989;579251;602526;3626;
2024-05-08T19:14:06.050;538389853436246273;560856;578898;602279;3605;
2024-05-08T19:14:06.069;538389853454408515;560593;578464;602040;3573;
2024-05-08T19:14:06.087;538389853472570428;560414;578088;601699;3518;
2024-05-08T19:14:06.105;538389853490732329;560313;577795;601473;3498;
2024-05-08T19:14:06.123;538389853508894230;560247;577464;601277;3459;
2024-05-08T19:14:06.141;538389853527056131;560159;577280;601015;3449;
2024-05-08T19:14:06.159;538389853545218032;560135;577055;600836;3393;
2024-05-08T19:14:06.178;538389853563379933;560110;576820;600511;3349;
2024-05-08T19:14:06.196;538389853581541834;559988;576587;600175;3324;
2024-05-08T19:14:06.214;538389853599703735;559985;576399;599690;3436;
2024-05-08T19:14:06.232;538389853617865636;559890;576137;599297;3439;
2024-05-08T19:14:06.250;538389853636027537;559820;576003;598776;3387;
2024-05-08T19:14:06.268;538389853654189438;559685;575761;598349;3356;
2024-05-08T19:14:06.287;538389853672351339;559453;575578;597986;3311;
2024-05-08T19:14:06.305;538389853690513240;559257;575428;597632;3351;
2024-05-08T19:14:06.323;538389853708675141;559230;575449;597280;3170;
2024-05-08T19:14:06.341;538389853726837042;559127;575484;597055;3049;
2024-05-08T19:14:06.359;538389853744998943;558943;575595;596618;2758;
2024-05-08T19:14:06.377;538389853763160844;558817;575702;595997;2445;
2024-05-08T19:14:06.396;538389853781322745;558819;576004;595420;2180;
2024-05-08T19:14:06.414;538389853799484646;558612;576140;594783;2108;
2024-05-08T19:14:06.432;538389853817646547;557646;575678;594227;2109;
2024-05-08T19:14:06.450;538389853835808448;556415;575134;594002;2103;
2024-05-08T19:14:06.468;538389853853970349;555569;574822;594007;2094;
2024-05-08T19:14:06.486;538389853872132250;555047;574674;593991;2072;
2024-05-08T19:14:06.504;538389853890294151;554690;574669;594075;2081;
2024-05-08T19:14:06.523;538389853908456052;554235;574543;594129;2004;
2024-05-08T19:14:06.541;538389853926617953;553752;574491;593976;1879;
2024-05-08T19:14:06.559;538389853944779854;552317;574463;593369;1805;
2024-05-08T19:14:06.577;538389853962941755;548992;574859;591944;1876;
2024-05-08T19:14:06.595;538389853981103656;542187;576449;589488;1982;
2024-05-08T19:14:06.613;538389853999265557;530394;581159;588312;2086;
2024-05-08T19:14:06.632;538389854017427458;516655;592680;588922;2173;
2024-05-08T19:14:06.650;538389854035589665;501801;613718;594596;2204;
2024-05-08T19:14:06.668;538389854053751866;488759;631694;609158;2213;
2024-05-08T19:14:06.686;538389854071914067;480861;640775;624403;2154;
2024-05-08T19:14:06.704;538389854090076268;478409;640684;623930;2033;
2024-05-08T19:14:06.722;538389854108238469;474911;637489;608159;1947;
2024-05-08T19:14:06.741;538389854126400670;465402;641983;585093;1878;
2024-05-08T19:14:06.759;538389854144562871;453703;642981;564498;1812;
2024-05-08T19:14:06.777;538389854162725072;442242;636751;556129;1870;
2024-05-08T19:14:06.795;538389854180887273;432814;629896;554811;1949;
2024-05-08T19:14:06.813;538389854199049474;423869;634214;549574;2098;
2024-05-08T19:14:06.831;538389854217211675;415503;630453;537255;2223;
2024-05-08T19:14:06.850;538389854235373876;410032;625963;530287;2395;
2024-05-08T19:14:06.868;538389854253536077;405274;615707;534205;2520;
2024-05-08T19:14:06.886;538389854271698278;399963;603330;541451;2646;
2024-05-08T19:14:06.904;538389854289860479;394641;591775;556394;2858;
2024-05-08T19:14:06.922;538389854308022680;388895;575496;568685;3066;
2024-05-08T19:14:06.940;538389854326184881;385290;557133;571307;3368;
2024-05-08T19:14:06.959;538389854344347082;381981;536520;571416;3627;
2024-05-08T19:14:06.977;538389854362509283;377070;512065;563574;3791;
2024-05-08T19:14:06.995;538389854380671484;368477;492724;554661;3704;
2024-05-08T19:14:07.013;538389854398833685;361808;481238;546622;3357;
2024-05-08T19:14:07.031;538389854416995886;360684;473122;541870;2884;
2024-05-08T19:14:07.049;538389854435158087;363125;467594;540871;2389;
2024-05-08T19:14:07.068;538389854453320288;367413;464023;542636;2020;
2024-05-08T19:14:07.086;538389854471482489;372424;461235;546099;1691;
2024-05-08T19:14:07.104;538389854489644690;377565;461494;550751;1540;
2024-05-08T19:14:07.122;538389854507805969;382509;463737;555892;1409;
2024-05-08T19:14:07.140;538389854525967230;386765;466702;560863;1414;
2024-05-08T19:14:07.158;538389854544128491;390174;469734;565253;1456;
2024-05-08T19:14:07.176;538389854562289752;393184;472372;569035;1496;
2024-05-08T19:14:07.195;538389854580451013;395995;474109;572033;1598;
2024-05-08T19:14:07.213;538389854598612274;398611;475777;573927;1762;
2024-05-08T19:14:07.231;538389854616773535;400501;477184;575324;1970;
2024-05-08T19:14:07.249;538389854634934796;401832;478519;576458;2132;
2024-05-08T19:14:07.267;538389854653096057;402938;479820;577437;2419;
2024-05-08T19:14:07.285;538389854671257318;403767;480907;578165;2582;
2024-05-08T19:14:07.304;538389854689418579;404587;481977;578835;2661;
2024-05-08T19:14:07.322;538389854707579840;405287;482903;579479;2732;
2024-05-08T19:14:07.340;538389854725741101;405990;483494;580066;2730;
2024-05-08T19:14:07.358;538389854743902362;406577;484114;580697;2736;
2024-05-08T19:14:07.376;538389854762063623;407060;484630;581196;2731;
2024-05-08T19:14:07.394;538389854780224884;407490;485146;581804;2675;
2024-05-08T19:14:07.413;538389854798386145;407873;485634;582275;2649;
2024-05-08T19:14:07.431;538389854816547406;408286;485950;582729;2544;
2024-05-08T19:14:07.449;538389854834708667;408533;486282;583135;2506;
2024-05-08T19:14:07.467;538389854852869928;408886;486393;583340;2440;
2024-05-08T19:14:07.485;538389854871031189;409240;486518;583584;2349;
2024-05-08T19:14:07.503;538389854889192450;409341;486652;583745;2341;
2024-05-08T19:14:07.522;538389854907353711;409420;486690;583862;2216;
2024-05-08T19:14:07.540;538389854925514972;409655;486810;584056;2143;
2024-05-08T19:14:07.558;538389854943676233;409788;486989;584278;2190;
2024-05-08T19:14:07.576;538389854961837494;409965;487155;584602;2139;
2024-05-08T19:14:07.594;538389854979998755;410120;487305;584735;2085;
2024-05-08T19:14:07.612;538389854998160016;410354;487609;584929;2017;
2024-05-08T19:14:07.631;538389855016321277;410679;487706;585167;1999;
2024-05-08T19:14:07.649;538389855034482538;411012;487982;585410;1966;
2024-05-08T19:14:07.667;538389855052643799;411220;488207;585627;1968;
2024-05-08T19:14:07.685;538389855070805060;411475;488478;585846;1901;
2024-05-08T19:14:07.703;538389855088967123;411742;488750;586038;1768;
2024-05-08T19:14:07.721;538389855107129184;412021;488950;586356;1765;
2024-05-08T19:14:07.739;538389855125291245;412260;489193;586755;1746;
2024-05-08T19:14:07.758;538389855143453306;412531;489493;586965;1776;
2024-05-08T19:14:07.776;538389855161615367;412800;489681;587182;1769;
2024-05-08T19:14:07.794;538389855179777428;412977;489867;587338;1744;
2024-05-08T19:14:07.812;538389855197939489;413232;490094;587489;1746;
2024-05-08T19:14:07.830;538389855216101550;413425;490331;587589;1718;
2024-05-08T19:14:07.848;538389855234263611;413689;490615;587788;1765;
2024-05-08T19:14:07.867;538389855252425672;413919;490761;587947;1724;
2024-05-08T19:14:07.885;538389855270587733;414109;490985;588168;1728;
2024-05-08T19:14:07.903;538389855288749794;414308;491255;588435;1686;
2024-05-08T19:14:07.921;538389855306911855;414543;491557;588741;1729;
2024-05-08T19:14:07.939;538389855325073916;414827;491922;589055;1752;
2024-05-08T19:14:07.957;538389855343235977;415033;492186;589234;1758;
2024-05-08T19:14:07.976;538389855361398038;415282;492500;589581;1764;
2024-05-08T19:14:07.994;538389855379560099;415473;492777;589839;1723;
2024-05-08T19:14:08.012;538389855397722160;415703;493159;590110;1718;
2024-05-08T19:14:08.030;538389855415884221;416027;493461;590357;1694;
2024-05-08T19:14:08.048;538389855434046282;416340;493737;590563;1685;
2024-05-08T19:14:08.066;538389855452208343;416592;494101;590825;1676;
2024-05-08T19:14:08.085;538389855470370404;416814;494454;591057;1660;
2024-05-08T19:14:08.103;538389855488532465;417041;494783;591344;1666;
2024-05-08T19:14:08.121;538389855506694526;417271;495027;591546;1663;
2024-05-08T19:14:08.139;538389855524856587;417499;495446;591837;1704;
2024-05-08T19:14:08.157;538389855543018648;417771;495724;592093;1687;
2024-05-08T19:14:08.175;538389855561180709;418031;495942;592297;1624;
2024-05-08T19:14:08.194;538389855579342770;418327;496252;592570;1631;
2024-05-08T19:14:08.212;538389855597504831;418598;496590;592866;1666;
2024-05-08T19:14:08.230;538389855615666892;418776;496963;593134;1658;
2024-05-08T19:14:08.248;538389855633828953;418981;497189;593406;1694;
2024-05-08T19:14:08.266;538389855651991014;419128;497351;593559;1712;
2024-05-08T19:14:08.284;538389855670153075;419186;497411;593461;1670;
2024-05-08T19:14:08.303;538389855688315136;419249;497396;593507;1680;
2024-05-08T19:14:08.321;538389855706477197;419233;497335;593417;1696;
2024-05-08T19:14:08.339;538389855724639258;419346;497425;593339;1735;
2024-05-08T19:14:08.357;538389855742801319;419428;497487;593324;1675;
2024-05-08T19:14:08.375;538389855760963380;419583;497610;593351;1686;
2024-05-08T19:14:08.393;538389855779125441;419725;497698;593458;1704;
2024-05-08T19:14:08.411;538389855797287502;419956;497895;593534;1747;
2024-05-08T19:14:08.430;538389855815449563;420018;498091;593631;1740;
2024-05-08T19:14:08.448;538389855833611624;420150;498213;593668;1686;
2024-05-08T19:14:08.466;538389855851774412;420249;498335;593780;1716;
2024-05-08T19:14:08.484;538389855869937200;420408;498503;593930;1708;
2024-05-08T19:14:08.502;538389855888099988;420663;498666;594010;1750;
2024-05-08T19:14:08.520;538389855906262776;420748;498793;594045;1698;
2024-05-08T19:14:08.539;538389855924425564;420891;498893;594110;1699;
2024-05-08T19:14:08.557;538389855942588352;421066;498998;594216;1703;
2024-05-08T19:14:08.575;538389855960751140;421190;499189;594313;1670;
2024-05-08T19:14:08.593;538389855978913928;421244;499274;594334;1679;
2024-05-08T19:14:08.611;538389855997076716;421375;499466;594418;1721;
2024-05-08T19:14:08.629;538389856015239504;421504;499642;594545;1656;
2024-05-08T19:14:08.648;538389856033402292;421688;499785;594615;1648;
2024-05-08T19:14:08.666;538389856051565080;421977;499944;594741;1720;
2024-05-08T19:14:08.684;538389856069727868;422012;500127;594832;1701;
2024-05-08T19:14:08.702;538389856087890656;422289;500317;594902;1725;
2024-05-08T19:14:08.720;538389856106053444;422406;500507;595054;1746;
2024-05-08T19:14:08.738;538389856124216232;422636;500583;595233;1719;
2024-05-08T19:14:08.757;538389856142379020;422806;500856;595307;1737;
2024-05-08T19:14:08.775;538389856160541808;423019;501075;595520;1700;
2024-05-08T19:14:08.793;538389856178704596;423155;501283;595656;1691;
2024-05-08T19:14:08.811;538389856196867384;423279;501460;595790;1668;
2024-05-08T19:14:08.829;538389856215030172;423537;501718;596005;1736;
2024-05-08T19:14:08.847;538389856233192960;423701;501878;596138;1709;
2024-05-08T19:14:08.866;538389856251355748;423897;502139;596261;1742;
2024-05-08T19:14:08.884;538389856269518536;424061;502264;596446;1708;
2024-05-08T19:14:08.902;538389856287681324;424259;502516;596583;1728;
2024-05-08T19:14:08.920;538389856305844112;424481;502759;596760;1776;
2024-05-08T19:14:08.938;538389856324006900;424660;502989;596960;1782;
2024-05-08T19:14:08.956;538389856342169688;424927;503243;597188;1749;
2024-05-08T19:14:08.975;538389856360332476;425142;503480;597295;1778;
2024-05-08T19:14:08.993;538389856378495264;425283;503791;597489;1789;
2024-05-08T19:14:09.011;538389856396658052;425398;504133;597656;1782;
2024-05-08T19:14:09.029;538389856414820840;425663;504273;597758;1730;
2024-05-08T19:14:09.047;538389856432983628;425833;504469;597811;1692;
2024-05-08T19:14:09.065;538389856451146416;425907;504557;597739;1690;
2024-05-08T19:14:09.083;538389856469309204;425871;504580;597604;1678;
2024-05-08T19:14:09.102;538389856487471992;425823;504592;597511;1613;
2024-05-08T19:14:09.120;538389856505634780;425895;504725;597361;1564;
2024-05-08T19:14:09.138;538389856523797568;426051;504876;597205;1573;
2024-05-08T19:14:09.156;538389856541960356;426258;505020;597073;1540;
2024-05-08T19:14:09.174;538389856560123144;426515;505298;596973;1459;
2024-05-08T19:14:09.192;538389856578285932;426808;505579;596791;1389;
2024-05-08T19:14:09.211;538389856596448720;427108;505744;596739;1400;
2024-05-08T19:14:09.229;538389856614609498;427365;505887;596646;1305;
2024-05-08T19:14:09.247;538389856632770250;427562;506063;596548;1273;
2024-05-08T19:14:09.265;538389856650931002;427829;506305;596514;1323;
2024-05-08T19:14:09.283;538389856669091754;428079;506578;596537;1262;
2024-05-08T19:14:09.301;538389856687252506;428160;506936;596584;1204;
2024-05-08T19:14:09.320;538389856705413258;428215;507271;596729;1132;
2024-05-08T19:14:09.338;538389856723574010;428240;507545;596824;1100;
2024-05-08T19:14:09.356;538389856741734762;428374;507682;596991;1067;
2024-05-08T19:14:09.374;538389856759895514;428429;507721;597168;1000;
2024-05-08T19:14:09.392;538389856778056266;428344;507458;597242;849;
2024-05-08T19:14:09.410;538389856796217018;428106;507346;597405;874;
2024-05-08T19:14:09.429;538389856814377770;427835;507292;597426;767;
2024-05-08T19:14:09.447;538389856832538522;427627;507438;597481;738;
2024-05-08T19:14:09.465;538389856850699274;427341;507682;597472;700;
2024-05-08T19:14:09.483;538389856868860026;426906;507840;597552;657;
2024-05-08T19:14:09.501;538389856887020778;426403;507947;597735;538;
2024-05-08T19:14:09.519;538389856905181530;425980;507418;598008;515;
2024-05-08T19:14:09.538;538389856923342282;426371;506120;598065;509;
2024-05-08T19:14:09.556;538389856941503034;430943;500911;598068;567;
2024-05-08T19:14:09.574;538389856959663786;438412;494206;598569;677;
2024-05-08T19:14:09.592;538389856977824538;443410;490243;600304;926;
2024-05-08T19:14:09.610;538389856995985290;447217;486959;603080;1476;
2024-05-08T19:14:09.628;538389857014146042;450069;484428;606147;1926;
2024-05-08T19:14:09.646;538389857032306794;451906;483551;608213;2081;
2024-05-08T19:14:09.665;538389857050467546;453181;483798;609511;2060;
2024-05-08T19:14:09.683;538389857068628298;453613;484567;609993;1800;
2024-05-08T19:14:09.701;538389857086789050;453358;485241;609587;1425;
2024-05-08T19:14:09.719;538389857104949802;453209;486993;609214;1135;
2024-05-08T19:14:09.737;538389857123110554;453614;489616;609058;908;
2024-05-08T19:14:09.755;538389857141271306;454101;492992;609268;839;
2024-05-08T19:14:09.774;538389857159432785;454510;496502;610265;829;
2024-05-08T19:14:09.792;538389857177594245;455152;500696;612790;842;
2024-05-08T19:14:09.810;538389857195755705;456117;505744;615859;842;
2024-05-08T19:14:09.828;538389857213917165;456909;511371;618066;834;
2024-05-08T19:14:09.846;538389857232078625;457803;517209;619387;878;
2024-05-08T19:14:09.864;538389857250240085;461085;523888;619989;1013;
2024-05-08T19:14:09.883;538389857268401545;465618;530495;623107;1064;
2024-05-08T19:14:09.901;538389857286563005;467619;537816;626361;1157;
2024-05-08T19:14:09.919;538389857304724465;472879;543402;631542;1417;
2024-05-08T19:14:09.937;538389857322885925;466518;538550;627922;1557;
2024-05-08T19:14:09.955;538389857341047385;454194;521669;631536;1651;
2024-05-08T19:14:09.973;538389857359208845;448912;487464;639306;1730;
2024-05-08T19:14:09.992;538389857377370305;436784;449372;634460;1803;
2024-05-08T19:14:10.010;538389857395531765;423657;426815;616815;1764;
2024-05-08T19:14:10.028;538389857413693225;414126;406221;595361;1781;
2024-05-08T19:14:10.046;538389857431854685;405341;388924;566393;1761;
2024-05-08T19:14:10.064;538389857450016145;399550;378348;550577;1812;
2024-05-08T19:14:10.082;538389857468177605;394559;358486;571773;1890;
2024-05-08T19:14:10.101;538389857486339065;402497;370467;562367;2006;
2024-05-08T19:14:10.119;538389857504500525;417107;376931;567450;2098;
2024-05-08T19:14:10.137;538389857522661985;429629;369718;578828;2171;
2024-05-08T19:14:10.155;538389857540823445;441011;366564;594383;2327;
2024-05-08T19:14:10.173;538389857558984905;447621;365357;604156;2407;
2024-05-08T19:14:10.191;538389857577146587;450424;364278;608280;2471;
2024-05-08T19:14:10.209;538389857595308259;452501;364711;610724;2560;
2024-05-08T19:14:10.228;538389857613469931;453927;365900;612578;2580;
2024-05-08T19:14:10.246;538389857631631603;455056;367608;614338;2719;
2024-05-08T19:14:10.264;538389857649793275;455784;369561;614815;2832;
2024-05-08T19:14:10.282;538389857667954947;455524;371268;614284;2960;
2024-05-08T19:14:10.300;538389857686116619;455309;372650;613624;3040;
2024-05-08T19:14:10.318;538389857704278291;455379;373719;612003;3037;
2024-05-08T19:14:10.337;538389857722439963;455654;375063;610087;2965;
2024-05-08T19:14:10.355;538389857740601635;455846;376560;608163;2885;
2024-05-08T19:14:10.373;538389857758763307;456101;378193;606606;2798;
2024-05-08T19:14:10.391;538389857776924979;456816;379727;605212;2759;
2024-05-08T19:14:10.409;538389857795086651;457925;381105;604010;2636;
2024-05-08T19:14:10.427;538389857813248323;459507;382419;603081;2503;
2024-05-08T19:14:10.446;538389857831409995;461786;383735;602421;2460;
2024-05-08T19:14:10.464;538389857849571667;464396;385066;602125;2368;
2024-05-08T19:14:10.482;538389857867733339;466392;386336;602413;2334;
2024-05-08T19:14:10.500;538389857885895011;467945;387532;602804;2267;
2024-05-08T19:14:10.518;538389857904056683;469045;388725;603402;2205;
2024-05-08T19:14:10.536;538389857922218355;469966;389888;604264;2133;
2024-05-08T19:14:10.555;538389857940380027;470597;391104;604987;2158;
2024-05-08T19:14:10.573;538389857958541699;471109;392329;605692;2144;
2024-05-08T19:14:10.591;538389857976703371;471659;393715;606372;2137;
2024-05-08T19:14:10.609;538389857994865043;472259;395231;607138;2143;
2024-05-08T19:14:10.627;538389858013026715;472872;396960;608120;2130;
2024-05-08T19:14:10.645;538389858031188387;473391;398411;609066;2273;
2024-05-08T19:14:10.664;538389858049349680;473918;399505;610122;2227;
2024-05-08T19:14:10.682;538389858067510941;474600;400361;611063;2244;
2024-05-08T19:14:10.700;538389858085672202;475198;400979;611963;2111;
2024-05-08T19:14:10.718;538389858103833463;475807;401322;612697;2058;
2024-05-08T19:14:10.736;538389858121994724;476248;401671;613277;1951;
2024-05-08T19:14:10.754;538389858140155985;476719;401978;613767;1851;
2024-05-08T19:14:10.773;538389858158317246;477106;402263;614177;1733;
2024-05-08T19:14:10.791;538389858176478507;477540;402548;614733;1547;
2024-05-08T19:14:10.809;538389858194639768;478007;402977;615371;1463;
2024-05-08T19:14:10.827;538389858212801029;478517;403304;615969;1355;
2024-05-08T19:14:10.845;538389858230962290;479077;403758;616621;1313;
2024-05-08T19:14:10.863;538389858249123551;479658;404250;617277;1266;
2024-05-08T19:14:10.881;538389858267284812;480202;404668;617852;1267;
2024-05-08T19:14:10.900;538389858285446073;480657;405112;618420;1216;
2024-05-08T19:14:10.918;538389858303607334;481260;405564;619027;1184;
2024-05-08T19:14:10.936;538389858321768595;481764;406057;619622;1152;
2024-05-08T19:14:10.954;538389858339929856;482226;406515;620276;1119;
2024-05-08T19:14:10.972;538389858358091117;482826;406946;620883;1144;
2024-05-08T19:14:10.990;538389858376252378;483360;407378;621470;1191;
2024-05-08T19:14:11.009;538389858394413639;483680;407996;621848;1135;
2024-05-08T19:14:11.027;538389858412574900;483984;408720;622398;1191;
2024-05-08T19:14:11.045;538389858430736161;484231;409290;622937;1212;
2024-05-08T19:14:11.063;538389858448897422;484601;409865;623458;1216;
2024-05-08T19:14:11.081;538389858467058683;485020;410372;624133;1250;
2024-05-08T19:14:11.099;538389858485219944;485572;410848;624735;1231;
2024-05-08T19:14:11.118;538389858503381205;486106;411263;625255;1232;
2024-05-08T19:14:11.136;538389858521542466;486579;411769;625822;1169;
2024-05-08T19:14:11.154;538389858539703727;487111;412062;626308;1179;
2024-05-08T19:14:11.172;538389858557864988;487602;412440;626688;1101;
2024-05-08T19:14:11.190;538389858576026249;488046;412799;627206;1043;
2024-05-08T19:14:11.208;538389858594187510;488544;413207;627656;1062;
2024-05-08T19:14:11.227;538389858612348771;489020;413631;628104;1013;
2024-05-08T19:14:11.245;538389858630510032;489504;414025;628507;981;
2024-05-08T19:14:11.263;538389858648671293;489970;414345;629055;1015;
2024-05-08T19:14:11.281;538389858666832554;490463;414601;629443;1016;
2024-05-08T19:14:11.299;538389858684992144;490926;414960;629728;891;
2024-05-08T19:14:11.317;538389858703151710;491307;415289;630203;910;
2024-05-08T19:14:11.336;538389858721311276;491782;415642;630604;921;
2024-05-08T19:14:11.354;538389858739470842;492222;416044;631066;891;
2024-05-08T19:14:11.372;538389858757630408;492645;416418;631520;844;
2024-05-08T19:14:11.390;538389858775789974;493040;416781;632092;849;
2024-05-08T19:14:11.408;538389858793949540;493545;417227;632570;855;
2024-05-08T19:14:11.426;538389858812109106;493959;417534;633145;870;
2024-05-08T19:14:11.444;538389858830268672;494432;417987;633688;864;
2024-05-08T19:14:11.463;538389858848428238;494909;418249;634154;838;
2024-05-08T19:14:11.481;538389858866587804;495153;418403;634466;788;
2024-05-08T19:14:11.499;538389858884747370;495487;418612;634736;816;
2024-05-08T19:14:11.517;538389858902906936;495649;418728;634840;814;
2024-05-08T19:14:11.535;538389858921066502;495867;418807;635102;804;
2024-05-08T19:14:11.553;538389858939226068;496068;418964;635229;820;
2024-05-08T19:14:11.572;538389858957385634;496307;419116;635509;841;
2024-05-08T19:14:11.590;538389858975545200;496527;419296;635749;836;
2024-05-08T19:14:11.608;538389858993704766;496873;419598;636060;867;
2024-05-08T19:14:11.626;538389859011864332;497110;419843;636398;830;
2024-05-08T19:14:11.644;538389859030023898;497396;420091;636693;795;
2024-05-08T19:14:11.662;538389859048183464;497694;420342;636954;811;
2024-05-08T19:14:11.681;538389859066343030;497973;420511;637326;781;
2024-05-08T19:14:11.699;538389859084502596;498185;420710;637513;753;
2024-05-08T19:14:11.717;538389859102662162;498486;420945;637729;763;
2024-05-08T19:14:11.735;538389859120821728;498670;421131;637953;729;
2024-05-08T19:14:11.753;538389859138981294;498887;421264;638074;751;
2024-05-08T19:14:11.771;538389859157140860;499007;421393;638198;724;
2024-05-08T19:14:11.789;538389859175300426;499302;421546;638294;761;
2024-05-08T19:14:11.808;538389859193459992;499403;421709;638317;704;
2024-05-08T19:14:11.826;538389859211619558;499578;421696;638263;604;
2024-05-08T19:14:11.844;538389859229779124;499712;421800;638232;626;
2024-05-08T19:14:11.862;538389859247938690;499888;421884;638200;578;
2024-05-08T19:14:11.880;538389859266098256;500129;421948;638185;567;
2024-05-08T19:14:11.898;538389859284257822;500282;422101;638309;505;
2024-05-08T19:14:11.917;538389859302417388;500588;422255;638474;538;
2024-05-08T19:14:11.935;538389859320576954;500756;422406;638564;491;
2024-05-08T19:14:11.953;538389859338736567;501075;422485;638690;487;
2024-05-08T19:14:11.971;538389859356896179;501323;422565;638848;496;
2024-05-08T19:14:11.989;538389859375055791;501608;422727;638973;483;
2024-05-08T19:14:12.007;538389859393215403;501857;422936;639236;487;
2024-05-08T19:14:12.026;538389859411375015;502085;423044;639417;480;
2024-05-08T19:14:12.044;538389859429534627;502417;423214;639517;443;
2024-05-08T19:14:12.062;538389859447694239;502616;423377;639748;423;
2024-05-08T19:14:12.080;538389859465853851;502906;423632;639998;420;
2024-05-08T19:14:12.098;538389859484013463;503266;423889;640315;420;
2024-05-08T19:14:12.116;538389859502173075;503661;424118;640618;428;
2024-05-08T19:14:12.135;538389859520332687;503996;424415;640975;353;
2024-05-08T19:14:12.153;538389859538492299;504452;424630;641420;350;
2024-05-08T19:14:12.171;538389859556651911;504896;425051;641942;420;
2024-05-08T19:14:12.189;538389859574811523;505365;425380;642399;419;
2024-05-08T19:14:12.207;538389859592971135;505738;425671;642830;367;
2024-05-08T19:14:12.225;538389859611130747;506198;425970;643243;356;
2024-05-08T19:14:12.243;538389859629290359;506531;426290;643636;419;
2024-05-08T19:14:12.262;538389859647449971;506929;426650;644135;390;
2024-05-08T19:14:12.280;538389859665609583;507296;426887;644462;376;
2024-05-08T19:14:12.298;538389859683769195;507541;427033;644708;400;
2024-05-08T19:14:12.316;538389859701928807;507692;427190;644933;435;
2024-05-08T19:14:12.334;538389859720088419;507856;427189;645088;422;
2024-05-08T19:14:12.352;538389859738248031;507957;427263;645211;436;
2024-05-08T19:14:12.371;538389859756407643;508161;427487;645463;379;
2024-05-08T19:14:12.389;538389859774567255;508412;427692;645748;405;
2024-05-08T19:14:12.407;538389859792726867;508669;427971;646064;461;
2024-05-08T19:14:12.425;538389859810886479;508960;428126;646370;450;
2024-05-08T19:14:12.443;538389859829046091;509296;428360;646670;435;
2024-05-08T19:14:12.461;538389859847205703;509501;428583;646899;421;
2024-05-08T19:14:12.480;538389859865365315;509774;428825;647176;437;
2024-05-08T19:14:12.498;538389859883524927;510020;429038;647432;508;
2024-05-08T19:14:12.516;538389859901684539;510220;429244;647663;448;
2024-05-08T19:14:12.534;538389859919844151;510537;429510;647960;496;
2024-05-08T19:14:12.552;538389859938003763;510720;429787;648219;474;
2024-05-08T19:14:12.570;538389859956163375;511030;430032;648568;484;
2024-05-08T19:14:12.589;538389859974322987;511257;430308;648819;511;
2024-05-08T19:14:12.607;538389859992482599;511480;430559;649069;462;
2024-05-08T19:14:12.625;538389860010643467;511799;430774;649375;509;
2024-05-08T19:14:12.643;538389860028804329;511944;431049;649642;488;
2024-05-08T19:14:12.661;538389860046965191;512186;431274;649889;521;
2024-05-08T19:14:12.679;538389860065126053;512472;431540;650068;514;
2024-05-08T19:14:12.697;538389860083286915;512659;431764;650345;546;
2024-05-08T19:14:12.716;538389860101447777;512901;431960;650571;516;
2024-05-08T19:14:12.734;538389860119608639;513108;432213;650843;489;
2024-05-08T19:14:12.752;538389860137769501;513343;432388;651202;518;
2024-05-08T19:14:12.770;538389860155930363;513499;432572;651475;486;
2024-05-08T19:14:12.788;538389860174091225;513730;432726;651711;503;
2024-05-08T19:14:12.806;538389860192252087;514053;433006;652026;564;
2024-05-08T19:14:12.825;538389860210412949;514299;433179;652258;505;
2024-05-08T19:14:12.843;538389860228573811;514561;433431;652635;497;
2024-05-08T19:14:12.861;538389860246734673;514745;433594;652942;464;
2024-05-08T19:14:12.879;538389860264895535;515099;433901;653283;549;
2024-05-08T19:14:12.897;538389860283056397;515376;434113;653656;590;
2024-05-08T19:14:12.915;538389860301217259;515656;434346;654018;608;
2024-05-08T19:14:12.934;538389860319378121;515935;434655;654441;534;
2024-05-08T19:14:12.952;538389860337538983;516220;435027;654810;587;
2024-05-08T19:14:12.970;538389860355699845;516623;435254;655197;661;
2024-05-08T19:14:12.988;538389860373860707;516953;435521;655505;662;
2024-05-08T19:14:13.006;538389860392021569;517187;435673;655753;656;
2024-05-08T19:14:13.024;538389860410182431;517365;435814;655994;677;
2024-05-08T19:14:13.043;538389860428343293;517392;435794;656047;650;
2024-05-08T19:14:13.061;538389860446504155;517515;435794;656138;661;
2024-05-08T19:14:13.079;538389860464665017;517462;435736;656066;657;
2024-05-08T19:14:13.097;538389860482825879;517405;435712;656041;636;
2024-05-08T19:14:13.115;538389860500986741;517373;435795;656051;625;
2024-05-08T19:14:13.133;538389860519147603;517383;435762;656076;716;
2024-05-08T19:14:13.151;538389860537308465;517455;435879;656118;663;
2024-05-08T19:14:13.170;538389860555469327;517626;435967;656202;675;
2024-05-08T19:14:13.188;538389860573630189;517714;436024;656349;672;
2024-05-08T19:14:13.206;538389860591791051;517796;436152;656459;669;
2024-05-08T19:14:13.224;538389860609951913;517911;436266;656651;740;
2024-05-08T19:14:13.242;538389860628112775;518006;436320;656728;671;
2024-05-08T19:14:13.260;538389860646273637;518113;436510;656976;740;
2024-05-08T19:14:13.279;538389860664434499;518175;436640;657050;764;
2024-05-08T19:14:13.297;538389860682595361;518266;436783;657142;709;
2024-05-08T19:14:13.315;538389860700756223;518390;436947;657340;777;
2024-05-08T19:14:13.333;538389860718917085;518476;437095;657487;697;
2024-05-08T19:14:13.351;538389860737077947;518519;437224;657648;758;
2024-05-08T19:14:13.369;538389860755238809;518604;437407;657907;724;
2024-05-08T19:14:13.388;538389860773399667;518700;437570;658310;748;
2024-05-08T19:14:13.406;538389860791560499;518865;437696;658565;785;
2024-05-08T19:14:13.424;538389860809721331;519036;437811;658709;758;
2024-05-08T19:14:13.442;538389860827882163;519121;437858;658703;752;
2024-05-08T19:14:13.460;538389860846042995;519269;437913;658642;784;
2024-05-08T19:14:13.478;538389860864203827;519479;437893;658593;738;
2024-05-08T19:14:13.497;538389860882364659;519646;437955;658603;772;
2024-05-08T19:14:13.515;538389860900525491;519784;437920;658459;736;
2024-05-08T19:14:13.533;538389860918686323;519837;437923;658232;679;
2024-05-08T19:14:13.551;538389860936847155;519898;438030;658078;654;
2024-05-08T19:14:13.569;538389860955007987;519858;438005;658042;679;
2024-05-08T19:14:13.587;538389860973168819;519798;438011;657970;662;
2024-05-08T19:14:13.606;538389860991329651;519631;438092;657988;643;
2024-05-08T19:14:13.624;538389861009490483;519414;438030;658008;669;
2024-05-08T19:14:13.642;538389861027651315;519168;438051;657934;658;
2024-05-08T19:14:13.660;538389861045812147;519094;438059;658060;677;
2024-05-08T19:14:13.678;538389861063972979;519075;438033;658143;697;
2024-05-08T19:14:13.696;538389861082133811;519099;437915;658410;739;
2024-05-08T19:14:13.714;538389861100294643;518900;437767;658379;670;
2024-05-08T19:14:13.733;538389861118455475;518546;437641;658368;640;
2024-05-08T19:14:13.751;538389861136616307;517639;437638;658432;617;
2024-05-08T19:14:13.769;538389861154777139;516326;437889;658595;608;
2024-05-08T19:14:13.787;538389861172937971;513899;438919;659529;644;
2024-05-08T19:14:13.805;538389861191098803;509762;441524;661763;669;
2024-05-08T19:14:13.823;538389861209259635;505224;445059;664504;686;
2024-05-08T19:14:13.842;538389861227420467;500368;450157;668494;651;
2024-05-08T19:14:13.860;538389861245581299;495041;457229;673779;711;
2024-05-08T19:14:13.878;538389861263742131;488725;465928;680678;754;
2024-05-08T19:14:13.896;538389861281902963;481956;475191;689266;773;
2024-05-08T19:14:13.914;538389861300063795;475918;483677;698794;859;
2024-05-08T19:14:13.932;538389861318224627;471314;492254;707201;831;
2024-05-08T19:14:13.951;538389861336385459;469608;503909;713054;863;
2024-05-08T19:14:13.969;538389861354546736;472171;514615;712683;927;
2024-05-08T19:14:13.987;538389861372707997;477286;518040;706300;948;
2024-05-08T19:14:14.005;538389861390869258;484175;518131;697114;1052;
2024-05-08T19:14:14.023;538389861409030519;492446;521289;690677;1011;
2024-05-08T19:14:14.041;538389861427191780;500626;524216;694582;1064;
2024-05-08T19:14:14.060;538389861445353041;507210;526201;704963;1146;
2024-05-08T19:14:14.078;538389861463514302;511615;526931;714554;1161;
2024-05-08T19:14:14.096;538389861481675563;512784;524707;710525;1209;
2024-05-08T19:14:14.114;538389861499836824;523882;508266;716905;1310;
2024-05-08T19:14:14.132;538389861517998085;543876;491678;718163;1344;
2024-05-08T19:14:14.150;538389861536159346;548215;501351;719731;1448;
2024-05-08T19:14:14.169;538389861554320607;541816;511965;718716;1440;
2024-05-08T19:14:14.187;538389861572481868;544529;502189;727947;1496;
2024-05-08T19:14:14.205;538389861590643129;546284;480229;721961;1407;
2024-05-08T19:14:14.223;538389861608804390;539629;460086;697589;1366;
2024-05-08T19:14:14.241;538389861626965651;527615;459319;672093;1361;
2024-05-08T19:14:14.259;538389861645126912;520730;455335;667881;1420;
2024-05-08T19:14:14.277;538389861663288173;529679;453761;678294;1424;
2024-05-08T19:14:14.296;538389861681449434;543204;454489;681656;1459;
2024-05-08T19:14:14.314;538389861699610695;551645;453536;688257;1519;
2024-05-08T19:14:14.332;538389861717771956;555410;454375;692959;1535;
2024-05-08T19:14:14.350;538389861735933217;557681;457420;694231;1520;
2024-05-08T19:14:14.368;538389861754094478;558552;460929;693536;1442;
2024-05-08T19:14:14.386;538389861772255739;558842;464876;692076;1428;
2024-05-08T19:14:14.405;538389861790417000;560319;470778;690523;1301;
2024-05-08T19:14:14.423;538389861808578261;561991;477000;687690;1187;
2024-05-08T19:14:14.441;538389861826740395;563066;481933;684287;1145;
2024-05-08T19:14:14.459;538389861844902521;563469;485081;681057;1114;
2024-05-08T19:14:14.477;538389861863064647;563379;487104;677966;1038;
2024-05-08T19:14:14.495;538389861881226773;563028;488087;675507;979;
2024-05-08T19:14:14.514;538389861899388899;562628;488453;673971;1029;
2024-05-08T19:14:14.532;538389861917551025;562143;488479;673162;991;
2024-05-08T19:14:14.550;538389861935713151;561615;488164;673065;932;
2024-05-08T19:14:14.568;538389861953875277;560665;487685;673415;926;
2024-05-08T19:14:14.586;538389861972037403;559634;486756;673714;959;
2024-05-08T19:14:14.604;538389861990199529;558638;485606;674111;996;
2024-05-08T19:14:14.623;538389862008361655;557708;484314;674174;974;
2024-05-08T19:14:14.641;538389862026523781;556934;483186;673866;1012;
2024-05-08T19:14:14.659;538389862044685907;556191;482205;673362;1006;
2024-05-08T19:14:14.677;538389862062848033;555498;481370;672779;1076;
2024-05-08T19:14:14.695;538389862081010159;554966;480549;672050;1183;
2024-05-08T19:14:14.713;538389862099172285;554733;480145;671552;1255;
2024-05-08T19:14:14.732;538389862117334411;554762;479970;671172;1338;
2024-05-08T19:14:14.750;538389862135496537;554633;479690;670662;1350;
2024-05-08T19:14:14.768;538389862153658663;554607;479355;670431;1419;
2024-05-08T19:14:14.786;538389862171820789;554421;479106;670293;1506;
2024-05-08T19:14:14.804;538389862189982915;554198;478825;670129;1450;
2024-05-08T19:14:14.822;538389862208145041;553964;478411;670044;1447;
2024-05-08T19:14:14.840;538389862226307167;553845;478430;670042;1469;
2024-05-08T19:14:14.859;538389862244469293;553802;478472;669993;1527;
2024-05-08T19:14:14.877;538389862262631419;553797;478485;669930;1577;
2024-05-08T19:14:14.895;538389862280793545;553662;478488;669895;1550;
2024-05-08T19:14:14.913;538389862298955671;553524;478556;669825;1584;
2024-05-08T19:14:14.931;538389862317117797;553488;478622;669784;1642;
2024-05-08T19:14:14.949;538389862335279923;553503;478659;669740;1656;
2024-05-08T19:14:14.968;538389862353442049;553531;478638;669746;1753;
2024-05-08T19:14:14.986;538389862371603401;553522;478747;669748;1777;
2024-05-08T19:14:15.004;538389862389764735;553504;478873;669722;1795;
2024-05-08T19:14:15.022;538389862407926069;553621;479047;669687;1812;
2024-05-08T19:14:15.040;538389862426087403;553646;479179;669693;1844;
2024-05-08T19:14:15.058;538389862444248737;553730;479457;669693;1801;
2024-05-08T19:14:15.077;538389862462410071;553827;479644;669612;1814;
2024-05-08T19:14:15.095;538389862480571405;554014;479851;669626;1868;
2024-05-08T19:14:15.113;538389862498732739;554074;479918;669554;1794;
2024-05-08T19:14:15.131;538389862516894073;554111;480038;669506;1742;
2024-05-08T19:14:15.149;538389862535055407;554186;480142;669510;1839;
2024-05-08T19:14:15.167;538389862553216741;554194;480118;669487;1802;
2024-05-08T19:14:15.186;538389862571378075;554228;480155;669567;1787;
2024-05-08T19:14:15.204;538389862589539409;554335;480247;669605;1859;
2024-05-08T19:14:15.222;538389862607700743;554499;480316;669723;1888;
2024-05-08T19:14:15.240;538389862625862077;554681;480490;669946;1953;
2024-05-08T19:14:15.258;538389862644023411;554976;480706;670022;1917;
2024-05-08T19:14:15.276;538389862662184745;555118;480903;670223;1996;
2024-05-08T19:14:15.295;538389862680346079;555100;480881;670203;2023;
2024-05-08T19:14:15.313;538389862698507413;554840;480667;669969;2060;
2024-05-08T19:14:15.331;538389862716668747;554383;480319;669639;2039;
2024-05-08T19:14:15.349;538389862734830081;554059;480009;669338;2088;
2024-05-08T19:14:15.367;538389862752991415;553554;479766;669012;2154;
2024-05-08T19:14:15.385;538389862771152749;553215;479542;668707;2195;
2024-05-08T19:14:15.404;538389862789314083;552983;479368;668492;2230;
2024-05-08T19:14:15.422;538389862807475417;552754;479234;668252;2269;
2024-05-08T19:14:15.440;538389862825636751;552623;479240;668118;2282;
2024-05-08T19:14:15.458;538389862843798085;552562;479309;668184;2293;
2024-05-08T19:14:15.476;538389862861959419;552543;479334;668134;2385;
2024-05-08T19:14:15.494;538389862880120753;552455;479316;668161;2331;
2024-05-08T19:14:15.512;538389862898282087;552444;479327;668102;2330;
2024-05-08T19:14:15.531;538389862916443421;552429;479323;668134;2356;
2024-05-08T19:14:15.549;538389862934604755;552297;479296;668061;2310;
2024-05-08T19:14:15.567;538389862952766089;552240;479306;668072;2345;
2024-05-08T19:14:15.585;538389862970927423;552276;479277;668010;2334;
2024-05-08T19:14:15.603;538389862989088757;552117;479273;667950;2316;
2024-05-08T19:14:15.621;538389863007250091;552085;479230;667818;2326;
2024-05-08T19:14:15.640;538389863025411425;552063;479211;667718;2321;
2024-05-08T19:14:15.658;538389863043572759;552133;479268;667590;2283;
2024-05-08T19:14:15.676;538389863061734093;552170;479294;667502;2307;
2024-05-08T19:14:15.694;538389863079895427;552193;479375;667409;2328;
2024-05-08T19:14:15.712;538389863098056761;552289;479403;667424;2310;
2024-05-08T19:14:15.730;538389863116218095;552367;479453;667400;2331;
2024-05-08T19:14:15.749;538389863134377214;552489;479556;667411;2278;
2024-05-08T19:14:15.767;538389863152536324;552564;479699;667433;2266;
2024-05-08T19:14:15.785;538389863170695434;552850;479896;667507;2282;
2024-05-08T19:14:15.803;538389863188854544;553058;480014;667592;2294;
2024-05-08T19:14:15.821;538389863207013654;553227;480183;667638;2257;
2024-05-08T19:14:15.839;538389863225172764;553406;480300;667647;2265;
2024-05-08T19:14:15.858;538389863243331874;553579;480473;667656;2273;
2024-05-08T19:14:15.876;538389863261490984;553765;480607;667670;2244;
2024-05-08T19:14:15.894;538389863279650094;553842;480719;667824;2332;
2024-05-08T19:14:15.912;538389863297809204;553835;480823;667894;2304;
2024-05-08T19:14:15.930;538389863315968314;553939;480966;668127;2283;
2024-05-08T19:14:15.948;538389863334127424;553964;481062;668193;2210;
2024-05-08T19:14:15.966;538389863352286534;553941;481129;668256;2184;
2024-05-08T19:14:15.985;538389863370445644;553682;480857;668041;2105;
2024-05-08T19:14:16.003;538389863388604754;553230;480500;667706;2066;
2024-05-08T19:14:16.021;538389863406763864;552765;479985;667308;2052;
2024-05-08T19:14:16.039;538389863424922974;552236;479601;666926;2076;
2024-05-08T19:14:16.057;538389863443082084;551718;479176;666524;2043;
2024-05-08T19:14:16.075;538389863461241194;551374;478880;666188;2049;
2024-05-08T19:14:16.094;538389863479400304;551191;478802;665960;2087;
2024-05-08T19:14:16.112;538389863497559414;551005;478651;665752;2132;
2024-05-08T19:14:16.130;538389863515718524;550990;478787;665639;2152;
2024-05-08T19:14:16.148;538389863533877634;550956;478767;665566;2139;
2024-05-08T19:14:16.166;538389863552036744;550903;478770;665530;2187;
2024-05-08T19:14:16.184;538389863570195854;550865;478808;665426;2167;
2024-05-08T19:14:16.203;538389863588354964;550871;478851;665360;2233;
2024-05-08T19:14:16.221;538389863606514074;550888;478833;665292;2249;
2024-05-08T19:14:16.239;538389863624673184;550764;478822;665205;2142;
2024-05-08T19:14:16.257;538389863642832294;550731;478794;664989;2127;
2024-05-08T19:14:16.275;538389863660991404;550580;478685;664867;2140;
2024-05-08T19:14:16.293;538389863679150514;550527;478607;664722;2113;
2024-05-08T19:14:16.311;538389863697309624;550422;478485;664612;2084;
2024-05-08T19:14:16.330;538389863715468734;550302;478369;664493;2106;
2024-05-08T19:14:16.348;538389863733627844;550265;478168;664322;2091;
2024-05-08T19:14:16.366;538389863751786954;550254;478093;664194;2123;
2024-05-08T19:14:16.384;538389863769946064;550282;477993;664209;2090;
2024-05-08T19:14:16.402;538389863788105174;550338;477931;664006;2071;
2024-05-08T19:14:16.420;538389863806264284;550458;477992;663868;2047;
2024-05-08T19:14:16.439;538389863824423394;550667;478121;663893;2042;
2024-05-08T19:14:16.457;538389863842583863;550875;478240;663879;2084;
2024-05-08T19:14:16.475;538389863860744302;551004;478314;663812;2085;
2024-05-08T19:14:16.493;538389863878904741;551070;478355;663771;1977;
2024-05-08T19:14:16.511;538389863897065180;551247;478297;663731;1996;
2024-05-08T19:14:16.529;538389863915225619;551355;478344;663787;1932;
2024-05-08T19:14:16.548;538389863933386058;551586;478484;663984;1952;
2024-05-08T19:14:16.566;538389863951546497;551765;478664;664083;1962;
2024-05-08T19:14:16.584;538389863969706936;551893;478822;664165;2013;
2024-05-08T19:14:16.602;538389863987867375;552001;478986;664247;1985;
2024-05-08T19:14:16.620;538389864006027814;552099;479143;664317;1958;
2024-05-08T19:14:16.638;538389864024188253;551826;478945;664089;1968;
2024-05-08T19:14:16.657;538389864042348692;551324;478617;663704;1901;
2024-05-08T19:14:16.675;538389864060509131;550806;478088;663138;1887;
2024-05-08T19:14:16.693;538389864078669570;550203;477666;662643;1943;
2024-05-08T19:14:16.711;538389864096830009;549676;477167;662097;1936;
2024-05-08T19:14:16.729;538389864114990448;549285;476863;661618;1962;
2024-05-08T19:14:16.747;538389864133150887;548968;476587;661234;1979;
2024-05-08T19:14:16.766;538389864151311326;548789;476442;660996;1947;
2024-05-08T19:14:16.784;538389864169471765;548587;476406;660729;1979;
2024-05-08T19:14:16.802;538389864187632204;548445;476268;660545;1983;
2024-05-08T19:14:16.820;538389864205792643;548396;476195;660365;1949;
2024-05-08T19:14:16.838;538389864223953082;548381;476065;660199;2004;
2024-05-08T19:14:16.856;538389864242113521;548202;475946;660026;1947;
2024-05-08T19:14:16.874;538389864260273960;548096;475937;659887;1938;
2024-05-08T19:14:16.893;538389864278434399;547972;475815;659752;1895;
2024-05-08T19:14:16.911;538389864296594838;547843;475691;659545;1902;
2024-05-08T19:14:16.929;538389864314755277;547835;475687;659437;1897;
2024-05-08T19:14:16.947;538389864332915716;547741;475575;659315;1879;
2024-05-08T19:14:16.965;538389864351076155;547644;475451;659133;1885;
2024-05-08T19:14:16.983;538389864369236594;547587;475426;658946;1839;
2024-05-08T19:14:17.002;538389864387397033;547457;475299;658852;1901;
2024-05-08T19:14:17.020;538389864405557472;547527;475216;658697;1836;
2024-05-08T19:14:17.038;538389864423717911;547537;475209;658562;1818;
2024-05-08T19:14:17.056;538389864441878350;547572;475214;658586;1833;
2024-05-08T19:14:17.074;538389864460038789;547600;475144;658557;1813;
2024-05-08T19:14:17.092;538389864478199228;547676;475131;658553;1810;
2024-05-08T19:14:17.111;538389864496359667;547757;475207;658631;1818;
2024-05-08T19:14:17.129;538389864514520106;547921;475342;658651;1863;
2024-05-08T19:14:17.147;538389864532680545;548015;475327;658754;1778;
2024-05-08T19:14:17.165;538389864550841134;548198;475439;658864;1833;
2024-05-08T19:14:17.183;538389864569001694;548429;475541;658921;1836;
2024-05-08T19:14:17.201;538389864587162254;548506;475719;659047;1821;
2024-05-08T19:14:17.220;538389864605322814;548667;475858;659082;1829;
2024-05-08T19:14:17.238;538389864623483374;548857;476035;659248;1847;
2024-05-08T19:14:17.256;538389864641643934;549028;476221;659271;1853;
2024-05-08T19:14:17.274;538389864659804494;549165;476347;659427;1851;
2024-05-08T19:14:17.292;538389864677965054;549321;476476;659540;1902;
2024-05-08T19:14:17.310;538389864696125614;549370;476653;659602;1844;
2024-05-08T19:14:17.328;538389864714286174;549166;476459;659476;1864;
2024-05-08T19:14:17.347;538389864732446734;548599;476069;659113;1836;
2024-05-08T19:14:17.365;538389864750607294;548013;475572;658547;1894;
2024-05-08T19:14:17.383;538389864768767854;547354;474970;657945;1874;
2024-05-08T19:14:17.401;538389864786928414;546782;474528;657339;1922;
2024-05-08T19:14:17.419;538389864805088974;546256;474132;656862;1907;
2024-05-08T19:14:17.437;538389864823249534;545851;473760;656425;1885;
2024-05-08T19:14:17.456;538389864841410094;545586;473607;656122;1926;
2024-05-08T19:14:17.474;538389864859570654;545331;473464;655880;1846;
2024-05-08T19:14:17.492;538389864877731214;545146;473366;655618;1844;
2024-05-08T19:14:17.510;538389864895891774;545031;473284;655315;1922;
2024-05-08T19:14:17.528;538389864914052334;544727;473031;655137;1830;
2024-05-08T19:14:17.546;538389864932212894;544506;472839;654775;1865;
2024-05-08T19:14:17.565;538389864950373454;544323;472734;654579;1801;
2024-05-08T19:14:17.583;538389864968534014;544193;472540;654344;1832;
2024-05-08T19:14:17.601;538389864986694574;544022;472338;654142;1874;
2024-05-08T19:14:17.619;538389865004855134;543852;472193;653949;1857;
2024-05-08T19:14:17.637;538389865023015694;543748;472046;653713;1873;
2024-05-08T19:14:17.655;538389865041176254;543667;471975;653598;1835;
2024-05-08T19:14:17.674;538389865059336814;543518;471840;653371;1822;
2024-05-08T19:14:17.692;538389865077497374;543413;471719;653298;1850;
2024-05-08T19:14:17.710;538389865095657934;543357;471687;653205;1864;
2024-05-08T19:14:17.728;538389865113818494;543260;471599;653010;1798;
2024-05-08T19:14:17.746;538389865131979054;543253;471600;652942;1795;
2024-05-08T19:14:17.764;538389865150139614;543317;471690;652955;1835;
2024-05-08T19:14:17.782;538389865168300174;543356;471770;652973;1774;
2024-05-08T19:14:17.801;538389865186460734;543414;471831;652992;1804;
2024-05-08T19:14:17.819;538389865204621294;543595;471923;653079;1800;
2024-05-08T19:14:17.837;538389865222779499;543706;471984;653090;1844;
2024-05-08T19:14:17.855;538389865240937669;543830;472181;653218;1825;
2024-05-08T19:14:17.873;538389865259095839;543948;472274;653298;1800;
2024-05-08T19:14:17.891;538389865277254009;544092;472423;653412;1789;
2024-05-08T19:14:17.910;538389865295412179;544198;472558;653606;1814;
2024-05-08T19:14:17.928;538389865313570349;544271;472781;653746;1861;
2024-05-08T19:14:17.946;538389865331728519;544330;472898;653939;1906;
2024-05-08T19:14:17.964;538389865349886689;544478;473097;654082;1900;
2024-05-08T19:14:17.982;538389865368044859;544554;473168;654221;1924;
2024-05-08T19:14:18.000;538389865386203029;544727;473328;654348;1899;
2024-05-08T19:14:18.019;538389865404361199;544856;473475;654481;1897;
2024-05-08T19:14:18.037;538389865422519369;545031;473631;654674;1954;
2024-05-08T19:14:18.055;538389865440677539;545221;473792;654834;1982;
2024-05-08T19:14:18.073;538389865458835709;545290;473884;654905;1924;
2024-05-08T19:14:18.091;538389865476993879;545166;473813;654809;1923;
2024-05-08T19:14:18.109;538389865495152049;544666;473418;654338;1937;
2024-05-08T19:14:18.127;538389865513310219;544082;472914;653728;1906;
2024-05-08T19:14:18.146;538389865531468389;543406;472328;653022;1887;
2024-05-08T19:14:18.164;538389865549626559;542801;471731;652399;1918;
2024-05-08T19:14:18.182;538389865567784729;542291;471288;651787;1903;
2024-05-08T19:14:18.200;538389865585942899;541890;470962;651374;1933;
2024-05-08T19:14:18.218;538389865604101069;541715;470724;650978;1857;
2024-05-08T19:14:18.236;538389865622259239;541503;470615;650661;1911;
2024-05-08T19:14:18.255;538389865640417409;541381;470563;650394;1903;
2024-05-08T19:14:18.273;538389865658575579;541201;470356;650071;1933;
2024-05-08T19:14:18.291;538389865676733749;540930;470136;649801;1884;
2024-05-08T19:14:18.309;538389865694891919;540747;469995;649527;1839;
2024-05-08T19:14:18.327;538389865713050089;540623;469922;649202;1848;
2024-05-08T19:14:18.345;538389865731208259;540397;469821;648976;1849;
2024-05-08T19:14:18.364;538389865749366429;540292;469822;648785;1928;
2024-05-08T19:14:18.382;538389865767524599;540201;469674;648640;1881;
2024-05-08T19:14:18.400;538389865785682769;540092;469600;648483;1931;
2024-05-08T19:14:18.418;538389865803840939;539945;469517;648206;1873;
2024-05-08T19:14:18.436;538389865821999109;539718;469455;648110;1860;
2024-05-08T19:14:18.454;538389865840157279;539543;469267;648014;1872;
2024-05-08T19:14:18.473;538389865858315449;539512;469274;647966;1871;
2024-05-08T19:14:18.491;538389865876473619;539471;469193;647817;1970;
2024-05-08T19:14:18.509;538389865894631789;539434;469205;647768;1924;
2024-05-08T19:14:18.527;538389865912789959;539426;469232;647733;1915;
2024-05-08T19:14:18.545;538389865930950984;539531;469338;647748;1943;
2024-05-08T19:14:18.563;538389865949111971;539586;469401;647766;1918;
2024-05-08T19:14:18.581;538389865967272958;539657;469520;647878;1981;
2024-05-08T19:14:18.600;538389865985433945;539714;469585;647982;1947;
2024-05-08T19:14:18.618;538389866003594932;539809;469696;647968;1919;
2024-05-08T19:14:18.636;538389866021755919;539933;469824;648073;1948;
2024-05-08T19:14:18.654;538389866039916906;540013;469958;648209;1953;
2024-05-08T19:14:18.672;538389866058077893;540028;470147;648363;1971;
2024-05-08T19:14:18.690;538389866076238880;540086;470161;648417;1984;
2024-05-08T19:14:18.709;538389866094399867;540182;470286;648565;1905;
2024-05-08T19:14:18.727;538389866112560854;540328;470422;648659;1976;
2024-05-08T19:14:18.745;538389866130721841;540443;470515;648757;1986;
2024-05-08T19:14:18.763;538389866148882828;540491;470592;648871;1983;
2024-05-08T19:14:18.781;538389866167043815;540659;470799;648934;1972;
2024-05-08T19:14:18.799;538389866185204802;540825;470968;649117;1986;
2024-05-08T19:14:18.818;538389866203365789;540921;471101;649251;1965;
2024-05-08T19:14:18.836;538389866221526776;541183;471314;649402;1985;
2024-05-08T19:14:18.854;538389866239687763;541264;471396;649620;1969;
2024-05-08T19:14:18.872;538389866257848750;541430;471523;649762;1999;
2024-05-08T19:14:18.890;538389866276009737;541476;471571;649908;1943;
2024-05-08T19:14:18.908;538389866294170724;541248;471312;649654;2023;
2024-05-08T19:14:18.927;538389866312331711;540813;470899;649234;2038;
2024-05-08T19:14:18.945;538389866330492698;540134;470453;648643;2009;
2024-05-08T19:14:18.963;538389866348653685;539659;470007;648035;2021;
2024-05-08T19:14:18.981;538389866366814672;539099;469588;647466;2007;
2024-05-08T19:14:18.999;538389866384975659;538684;469255;647079;2167;
2024-05-08T19:14:19.017;538389866403136646;538298;469016;646828;2173;
2024-05-08T19:14:19.035;538389866421297633;537879;468794;646797;2198;
2024-05-08T19:14:19.054;538389866439458620;537806;468746;646742;2296;
2024-05-08T19:14:19.072;538389866457619607;537755;468987;646779;2349;
2024-05-08T19:14:19.090;538389866475780594;537777;469045;646689;2468;
2024-05-08T19:14:19.108;538389866493941581;537669;469074;646637;2537;
2024-05-08T19:14:19.126;538389866512102568;537685;469120;646559;2572;
2024-05-08T19:14:19.144;538389866530263555;537711;469097;646436;2670;
2024-05-08T19:14:19.163;538389866548424542;537695;469110;646340;2800;
2024-05-08T19:14:19.181;538389866566585529;537803;469226;646219;2874;
2024-05-08T19:14:19.199;538389866584746516;537884;469209;646260;3050;
2024-05-08T19:14:19.217;538389866602907503;538154;469436;646150;3304;
2024-05-08T19:14:19.235;538389866621068490;538267;469684;646211;3568;
2024-05-08T19:14:19.253;538389866639228981;538555;469894;646345;3857;
2024-05-08T19:14:19.272;538389866657389460;538745;470083;646567;4079;
2024-05-08T19:14:19.290;538389866675549939;538854;470141;646601;4171;
2024-05-08T19:14:19.308;538389866693710418;538959;470340;646627;4267;
2024-05-08T19:14:19.326;538389866711870897;539066;470410;646562;4278;
2024-05-08T19:14:19.344;538389866730031376;539166;470527;646496;4248;
2024-05-08T19:14:19.362;538389866748191855;539274;470550;646476;4203;
2024-05-08T19:14:19.381;538389866766352334;539402;470680;646562;4257;
2024-05-08T19:14:19.399;538389866784512813;539478;470710;646559;4257;
2024-05-08T19:14:19.417;538389866802673292;539699;470850;646660;4173;
2024-05-08T19:14:19.435;538389866820833771;539853;470993;646788;4275;
2024-05-08T19:14:19.453;538389866838994250;540018;471107;646972;4184;
2024-05-08T19:14:19.471;538389866857154729;540122;471289;647073;4237;
2024-05-08T19:14:19.490;538389866875315208;540225;471379;647126;4167;
2024-05-08T19:14:19.508;538389866893475687;540372;471579;647227;4182;
2024-05-08T19:14:19.526;538389866911636166;540498;471661;647310;4176;
2024-05-08T19:14:19.544;538389866929796645;540772;471933;647550;4190;
2024-05-08T19:14:19.562;538389866947957124;540933;472082;647588;4209;
2024-05-08T19:14:19.580;538389866966117603;541081;472164;647714;4226;
2024-05-08T19:14:19.598;538389866984278082;541296;472293;647905;4210;
2024-05-08T19:14:19.617;538389867002438561;541467;472488;648094;4211;
2024-05-08T19:14:19.635;538389867020599040;541642;472672;648228;4223;
2024-05-08T19:14:19.653;538389867038759519;541891;472893;648446;4246;
2024-05-08T19:14:19.671;538389867056919998;542039;472997;648688;4257;
2024-05-08T19:14:19.689;538389867075080477;542284;473250;648832;4221;
2024-05-08T19:14:19.707;538389867093240956;542462;473470;649093;4238;
2024-05-08T19:14:19.726;538389867111401435;542554;473416;649085;4198;
2024-05-08T19:14:19.744;538389867129561914;542389;473156;648927;4235;
2024-05-08T19:14:19.762;538389867147722393;541862;472746;648405;4185;
2024-05-08T19:14:19.780;538389867165882872;541333;472308;647881;4208;
2024-05-08T19:14:19.798;538389867184043351;540798;471809;647178;4197;
2024-05-08T19:14:19.816;538389867202203830;540316;471329;646586;4210;
2024-05-08T19:14:19.835;538389867220364309;539978;471120;646069;4253;
2024-05-08T19:14:19.853;538389867238524788;539829;470879;645726;4250;
2024-05-08T19:14:19.871;538389867256685267;539747;470806;645461;4182;
2024-05-08T19:14:19.889;538389867274845746;539654;470714;645248;4147;
2024-05-08T19:14:19.907;538389867293006225;539579;470671;645180;4275;
2024-05-08T19:14:19.925;538389867311166704;539546;470609;644973;4169;
2024-05-08T19:14:19.944;538389867329327183;539453;470522;644716;4241;
2024-05-08T19:14:19.962;538389867347488210;539343;470336;644594;4222;
2024-05-08T19:14:19.980;538389867365649217;539270;470417;644431;4202;
2024-05-08T19:14:19.998;538389867383810224;539235;470353;644284;4218;
2024-05-08T19:14:20.016;538389867401971231;539155;470283;644134;4219;
2024-05-08T19:14:20.034;538389867420132238;539160;470293;643997;4217;
2024-05-08T19:14:20.052;538389867438293245;539170;470260;643890;4231;
2024-05-08T19:14:20.071;538389867456454252;539060;470175;643787;4186;
2024-05-08T19:14:20.089;538389867474615259;539078;470240;643680;4237;
2024-05-08T19:14:20.107;538389867492776266;539082;470259;643608;4201;
2024-05-08T19:14:20.125;538389867510937273;539060;470299;643571;4168;
2024-05-08T19:14:20.143;538389867529098280;539103;470253;643553;4165;
2024-05-08T19:14:20.161;538389867547259287;539147;470371;643571;4207;
2024-05-08T19:14:20.180;538389867565420294;539366;470469;643646;4194;
2024-05-08T19:14:20.198;538389867583581301;539453;470617;643697;4178;
2024-05-08T19:14:20.216;538389867601742308;539619;470790;643908;4136;
2024-05-08T19:14:20.234;538389867619903315;539749;471014;643989;4137;
2024-05-08T19:14:20.252;538389867638064322;539900;471135;644160;4099;
2024-05-08T19:14:20.270;538389867656225329;540153;471317;644341;4171;
2024-05-08T19:14:20.289;538389867674386336;540257;471442;644430;4158;
2024-05-08T19:14:20.307;538389867692547343;540467;471649;644646;4186;
2024-05-08T19:14:20.325;538389867710708350;540674;471858;644788;4164;
2024-05-08T19:14:20.343;538389867728869357;540862;472008;644963;4184;
2024-05-08T19:14:20.361;538389867747030364;541005;472278;645181;4173;
2024-05-08T19:14:20.379;538389867765191371;541186;472395;645279;4166;
2024-05-08T19:14:20.398;538389867783352378;541383;472481;645569;4197;
2024-05-08T19:14:20.416;538389867801513385;541557;472778;645741;4225;
2024-05-08T19:14:20.434;538389867819674392;541744;473031;645953;4218;
2024-05-08T19:14:20.452;538389867837835399;541968;473218;646098;4210;
2024-05-08T19:14:20.470;538389867855996406;542217;473399;646346;4218;
2024-05-08T19:14:20.488;538389867874157413;542427;473642;646600;4201;
2024-05-08T19:14:20.507;538389867892318420;542624;473797;646805;4130;
2024-05-08T19:14:20.525;538389867910479427;542820;473985;647100;4134;
2024-05-08T19:14:20.543;538389867928640434;543091;474252;647386;4159;
2024-05-08T19:14:20.561;538389867946801441;543300;474525;647582;4141;
2024-05-08T19:14:20.579;538389867964962448;543557;474667;647875;4155;
2024-05-08T19:14:20.597;538389867983123455;543844;475012;648210;4156;
2024-05-08T19:14:20.615;538389868001284462;544039;475092;648410;4133;
2024-05-08T19:14:20.634;538389868019445469;543870;475010;648297;4107;
2024-05-08T19:14:20.652;538389868037606476;543600;474690;648055;4134;
2024-05-08T19:14:20.670;538389868055767483;543106;474344;647620;4174;
2024-05-08T19:14:20.688;538389868073928490;542675;473982;647130;4152;
2024-05-08T19:14:20.706;538389868092089497;542242;473604;646621;4123;
2024-05-08T19:14:20.724;538389868110251015;542045;473365;646299;4152;
2024-05-08T19:14:20.743;538389868128412531;541949;473254;645978;4189;
2024-05-08T19:14:20.761;538389868146574047;541923;473263;645796;4172;
2024-05-08T19:14:20.779;538389868164735563;541995;473350;645783;4229;
2024-05-08T19:14:20.797;538389868182897079;542069;473389;645761;4228;
2024-05-08T19:14:20.815;538389868201058595;542079;473371;645721;4217;
2024-05-08T19:14:20.833;538389868219220111;542084;473353;645662;4205;
2024-05-08T19:14:20.852;538389868237381627;542079;473427;645600;4191;
2024-05-08T19:14:20.870;538389868255543143;542035;473419;645630;4193;
2024-05-08T19:14:20.888;538389868273704659;542107;473536;645554;4235;
2024-05-08T19:14:20.906;538389868291866175;542107;473528;645487;4151;
2024-05-08T19:14:20.924;538389868310027691;542183;473543;645512;4156;
2024-05-08T19:14:20.942;538389868328189207;542135;473524;645514;4167;
2024-05-08T19:14:20.961;538389868346350723;542113;473599;645449;4108;
2024-05-08T19:14:20.979;538389868364512239;542139;473607;645432;4161;
2024-05-08T19:14:20.997;538389868382673755;542184;473670;645445;4120;
2024-05-08T19:14:21.015;538389868400835271;542268;473808;645514;4134;
2024-05-08T19:14:21.033;538389868418996787;542337;473937;645583;4125;
2024-05-08T19:14:21.051;538389868437158303;542511;474044;645748;4191;
2024-05-08T19:14:21.070;538389868455319819;542652;474124;645845;4163;
2024-05-08T19:14:21.088;538389868473481335;542833;474300;646044;4142;
2024-05-08T19:14:21.106;538389868491642851;543023;474479;646178;4126;
2024-05-08T19:14:21.124;538389868509804367;543174;474607;646290;4123;
2024-05-08T19:14:21.142;538389868527965883;543381;474860;646602;4144;
2024-05-08T19:14:21.160;538389868546127399;543566;475068;646781;4104;
2024-05-08T19:14:21.178;538389868564288915;543741;475269;646952;4114;
2024-05-08T19:14:21.197;538389868582450431;543960;475466;647176;4115;
2024-05-08T19:14:21.215;538389868600611947;544172;475591;647413;4115;
2024-05-08T19:14:21.233;538389868618773463;544348;475828;647615;4130;
2024-05-08T19:14:21.251;538389868636934979;544621;476038;647864;4161;
2024-05-08T19:14:21.269;538389868655096495;544783;476189;648121;4170;
2024-05-08T19:14:21.287;538389868673258011;544971;476417;648351;4167;
2024-05-08T19:14:21.306;538389868691419527;545164;476576;648572;4214;
2024-05-08T19:14:21.324;538389868709581043;545385;476818;648780;4169;
2024-05-08T19:14:21.342;538389868727742559;545667;477131;649150;4171;
2024-05-08T19:14:21.360;538389868745904075;545912;477209;649387;4187;
2024-05-08T19:14:21.378;538389868764065591;546138;477461;649630;4183;
2024-05-08T19:14:21.396;538389868782227107;546370;477625;649949;4155;
2024-05-08T19:14:21.415;538389868800388623;546593;477903;650179;4142;
2024-05-08T19:14:21.433;538389868818550139;546805;478063;650444;4148;
2024-05-08T19:14:21.451;538389868836711655;547075;478292;650727;4174;
2024-05-08T19:14:21.469;538389868854873171;547331;478561;650999;4163;
2024-05-08T19:14:21.487;538389868873033712;547589;478852;651313;4152;
2024-05-08T19:14:21.505;538389868891194247;547784;478949;651500;4192;
2024-05-08T19:14:21.524;538389868909354782;547607;478897;651433;4143;
2024-05-08T19:14:21.542;538389868927515317;547328;478657;651248;4118;
2024-05-08T19:14:21.560;538389868945675852;547107;478364;650934;4141;
2024-05-08T19:14:21.578;538389868963836387;546807;478053;650494;4163;
2024-05-08T19:14:21.596;538389868981996922;546536;477824;650164;4129;
2024-05-08T19:14:21.614;538389869000157457;546415;477668;649929;4188;
2024-05-08T19:14:21.633;538389869018317992;546410;477686;649774;4237;
2024-05-08T19:14:21.651;538389869036478527;546377;477600;649668;4193;
2024-05-08T19:14:21.669;538389869054639062;546506;477753;649748;4180;
2024-05-08T19:14:21.687;538389869072799597;546632;477804;649786;4167;
2024-05-08T19:14:21.705;538389869090960132;546741;477975;649888;4159;
2024-05-08T19:14:21.723;538389869109120667;546863;478016;649908;4124;
2024-05-08T19:14:21.741;538389869127281202;547013;478114;650027;4141;
2024-05-08T19:14:21.760;538389869145441737;547096;478215;650093;4187;
2024-05-08T19:14:21.778;538389869163602272;547205;478257;650137;4161;
2024-05-08T19:14:21.796;538389869181762807;547277;478309;650150;4195;
2024-05-08T19:14:21.814;538389869199923342;547311;478344;650168;4133;
2024-05-08T19:14:21.832;538389869218083877;547387;478415;650144;4170;
2024-05-08T19:14:21.850;538389869236244412;547445;478474;650188;4187;
2024-05-08T19:14:21.869;538389869254404947;547427;478485;650243;4142;
2024-05-08T19:14:21.887;538389869272565482;547626;478575;650259;4149;
2024-05-08T19:14:21.905;538389869290726017;547728;478662;650333;4113;
2024-05-08T19:14:21.923;538389869308886552;547819;478716;650395;4117;
2024-05-08T19:14:21.941;538389869327047087;548004;478876;650569;4099;
2024-05-08T19:14:21.959;538389869345207622;548213;479081;650731;4138;
2024-05-08T19:14:21.978;538389869363368157;548371;479203;650877;4116;
2024-05-08T19:14:21.996;538389869381528692;548621;479402;651108;4090;
2024-05-08T19:14:22.014;538389869399689227;548808;479533;651358;4129;
2024-05-08T19:14:22.032;538389869417849762;549014;479718;651559;4086;
2024-05-08T19:14:22.050;538389869436010297;549285;479960;651692;4100;
2024-05-08T19:14:22.068;538389869454170832;549385;480187;652015;4153;
2024-05-08T19:14:22.087;538389869472331367;549568;480360;652212;4101;
2024-05-08T19:14:22.105;538389869490491902;549858;480518;652437;4139;
2024-05-08T19:14:22.123;538389869508652437;550099;480699;652603;4071;
2024-05-08T19:14:22.141;538389869526812972;550267;480840;652820;4032;
2024-05-08T19:14:22.159;538389869544973507;550516;481104;653087;4115;
2024-05-08T19:14:22.177;538389869563134042;550772;481300;653260;4117;
2024-05-08T19:14:22.195;538389869581294577;551001;481475;653572;4051;
2024-05-08T19:14:22.214;538389869599455112;551235;481762;653889;4106;
2024-05-08T19:14:22.232;538389869617615647;551455;481918;654036;4035;
2024-05-08T19:14:22.250;538389869635774766;551718;482137;654348;4142;
2024-05-08T19:14:22.268;538389869653933847;551875;482313;654537;4137;
2024-05-08T19:14:22.286;538389869672092928;552151;482605;654854;4181;
2024-05-08T19:14:22.304;538389869690252009;552395;482851;655091;4150;
2024-05-08T19:14:22.323;538389869708411090;552640;483074;655320;4133;
2024-05-08T19:14:22.341;538389869726570171;552839;483245;655580;4132;
2024-05-08T19:14:22.359;538389869744729252;552734;483084;655531;4078;
2024-05-08T19:14:22.377;538389869762888333;552561;482899;655366;4118;
2024-05-08T19:14:22.395;538389869781047414;552201;482552;654953;4064;
2024-05-08T19:14:22.413;538389869799206495;551951;482280;654638;4067;
2024-05-08T19:14:22.432;538389869817365576;551729;481957;654326;4038;
2024-05-08T19:14:22.450;538389869835524657;551607;481823;654060;4092;
2024-05-08T19:14:22.468;538389869853683738;551537;481807;653992;4081;
2024-05-08T19:14:22.486;538389869871842819;551488;481850;653883;4046;
2024-05-08T19:14:22.504;538389869890001900;551659;481909;653943;4096;
2024-05-08T19:14:22.522;538389869908160981;551687;481966;653942;4051;
2024-05-08T19:14:22.541;538389869926320062;551833;482036;654019;4054;
2024-05-08T19:14:22.559;538389869944479143;551891;482049;654000;4108;
2024-05-08T19:14:22.577;538389869962638224;551927;482143;653983;4095;
2024-05-08T19:14:22.595;538389869980797305;551996;482201;654052;4108;
2024-05-08T19:14:22.613;538389869998956386;552193;482275;654099;4085;
2024-05-08T19:14:22.631;538389870017115467;552230;482273;654205;4080;
2024-05-08T19:14:22.649;538389870035274548;552270;482365;654169;4066;
2024-05-08T19:14:22.668;538389870053433629;552341;482349;654232;4143;
2024-05-08T19:14:22.686;538389870071592710;552378;482503;654239;4073;
2024-05-08T19:14:22.704;538389870089751791;552518;482546;654292;4064;
2024-05-08T19:14:22.722;538389870107910872;552671;482637;654444;4027;
2024-05-08T19:14:22.740;538389870126069953;552717;482704;654547;4086;
2024-05-08T19:14:22.758;538389870144229034;552770;482793;654524;4023;
2024-05-08T19:14:22.777;538389870162388115;552942;482958;654689;4060;
2024-05-08T19:14:22.795;538389870180547196;553024;482946;654805;3999;
2024-05-08T19:14:22.813;538389870198706277;553200;483151;654967;4017;
2024-05-08T19:14:22.831;538389870216865358;553459;483354;655175;4043;
2024-05-08T19:14:22.849;538389870235024439;553604;483457;655401;4015;
2024-05-08T19:14:22.867;538389870253183520;553876;483661;655631;3996;
2024-05-08T19:14:22.886;538389870271342601;554056;483898;655840;4017;
2024-05-08T19:14:22.904;538389870289501682;554228;484035;656037;4047;
2024-05-08T19:14:22.922;538389870307660763;554433;484199;656194;4064;
2024-05-08T19:14:22.940;538389870325819844;554621;484305;656339;4003;
2024-05-08T19:14:22.958;538389870343978925;554811;484549;656590;4029;
2024-05-08T19:14:22.976;538389870362138006;555005;484711;656814;4046;
2024-05-08T19:14:22.994;538389870380297087;555186;484900;657068;4030;
2024-05-08T19:14:23.013;538389870398458297;555429;485011;657304;4015;
2024-05-08T19:14:23.031;538389870416619486;555543;485193;657484;4020;
2024-05-08T19:14:23.049;538389870434780675;555767;485372;657631;4034;
2024-05-08T19:14:23.067;538389870452941864;556017;485594;657870;4024;
2024-05-08T19:14:23.085;538389870471103053;556205;485820;658196;4020;
2024-05-08T19:14:23.103;538389870489264242;556405;485974;658356;3928;
2024-05-08T19:14:23.122;538389870507425431;556618;486185;658552;3928;
2024-05-08T19:14:23.140;538389870525586620;556839;486342;658803;3937;
2024-05-08T19:14:23.158;538389870543747809;557119;486547;659052;3985;
2024-05-08T19:14:23.176;538389870561908998;557332;486807;659338;4009;
2024-05-08T19:14:23.194;538389870580070187;557488;486993;659596;3997;
2024-05-08T19:14:23.212;538389870598231376;557698;487204;659817;3979;
2024-05-08T19:14:23.231;538389870616392565;557774;487189;659877;3905;
2024-05-08T19:14:23.249;538389870634553754;557605;487047;659797;3916;
2024-05-08T19:14:23.267;538389870652714943;557384;486814;659553;3934;
2024-05-08T19:14:23.285;538389870670876132;557065;486608;659317;3979;
2024-05-08T19:14:23.303;538389870689037321;556806;486344;658963;4007;
2024-05-08T19:14:23.321;538389870707198510;556658;486151;658711;3921;
2024-05-08T19:14:23.340;538389870725359699;556585;486060;658521;3953;
2024-05-08T19:14:23.358;538389870743520888;556554;485944;658410;3944;
2024-05-08T19:14:23.376;538389870761682077;556602;486019;658391;3952;
2024-05-08T19:14:23.394;538389870779843266;556705;486000;658432;3914;
2024-05-08T19:14:23.412;538389870798004455;556805;486113;658442;3937;
2024-05-08T19:14:23.430;538389870816165644;556860;486187;658499;4013;
2024-05-08T19:14:23.449;538389870834326833;556950;486183;658502;3933;
2024-05-08T19:14:23.467;538389870852488022;557006;486206;658557;3962;
2024-05-08T19:14:23.485;538389870870649211;557011;486239;658595;3951;
2024-05-08T19:14:23.503;538389870888810400;557056;486274;658637;3912;
2024-05-08T19:14:23.521;538389870906971589;557190;486400;658687;3944;
2024-05-08T19:14:23.539;538389870925132778;557210;486434;658718;3947;
2024-05-08T19:14:23.557;538389870943293967;557239;486464;658844;3912;
2024-05-08T19:14:23.576;538389870961455156;557253;486462;658858;3941;
2024-05-08T19:14:23.594;538389870979616345;557415;486477;658962;3899;
2024-05-08T19:14:23.612;538389870997777534;557431;486572;658970;3954;
2024-05-08T19:14:23.630;538389871015938723;557552;486668;659041;3942;
2024-05-08T19:14:23.648;538389871034099912;557568;486811;659168;3966;
2024-05-08T19:14:23.666;538389871052261101;557766;486938;659325;3953;
2024-05-08T19:14:23.685;538389871070422290;557944;487074;659405;3960;
2024-05-08T19:14:23.703;538389871088583479;558133;487206;659634;3967;
2024-05-08T19:14:23.721;538389871106744668;558292;487415;659821;3919;
2024-05-08T19:14:23.739;538389871124905857;558446;487462;660006;4015;
2024-05-08T19:14:23.757;538389871143067046;558655;487670;660202;3955;
2024-05-08T19:14:23.775;538389871161226825;558859;487862;660457;3993;
2024-05-08T19:14:23.794;538389871179386597;559015;488051;660703;4007;
2024-05-08T19:14:23.812;538389871197546369;559281;488189;660917;3933;
2024-05-08T19:14:23.830;538389871215706141;559321;488354;661048;3907;
2024-05-08T19:14:23.848;538389871233865913;559527;488547;661206;3935;
2024-05-08T19:14:23.866;538389871252025685;559744;488715;661511;3987;
2024-05-08T19:14:23.884;538389871270185457;559882;488787;661690;3970;
2024-05-08T19:14:23.903;538389871288345229;560081;489028;661952;4015;
2024-05-08T19:14:23.921;538389871306505001;560301;489158;662147;4037;
2024-05-08T19:14:23.939;538389871324664773;560492;489395;662418;3990;
2024-05-08T19:14:23.957;538389871342824545;560643;489563;662639;3968;
2024-05-08T19:14:23.975;538389871360984317;560839;489671;662844;3986;
2024-05-08T19:14:23.993;538389871379144089;561010;489881;662942;4009;
2024-05-08T19:14:24.011;538389871397303861;561171;490011;663209;3960;
2024-05-08T19:14:24.030;538389871415463633;561397;490218;663413;3977;
2024-05-08T19:14:24.048;538389871433623405;561598;490349;663746;3993;
2024-05-08T19:14:24.066;538389871451783177;561857;490712;664039;4019;
2024-05-08T19:14:24.084;538389871469942949;562008;490890;664249;4052;
2024-05-08T19:14:24.102;538389871488102721;562215;491016;664422;4000;
2024-05-08T19:14:24.120;538389871506262493;562366;491225;664678;3990;
2024-05-08T19:14:24.139;538389871524422265;562314;491197;664686;4047;
2024-05-08T19:14:24.157;538389871542582037;562158;491030;664558;4036;
2024-05-08T19:14:24.175;538389871560741809;561927;490743;664290;4018;
2024-05-08T19:14:24.193;538389871578901581;561627;490474;664009;3996;
2024-05-08T19:14:24.211;538389871597061353;561385;490242;663842;4030;
2024-05-08T19:14:24.229;538389871615221125;561241;490145;663653;3999;
2024-05-08T19:14:24.248;538389871633380897;561220;490081;663503;4009;
2024-05-08T19:14:24.266;538389871651540669;561241;490022;663391;3986;
2024-05-08T19:14:24.284;538389871669700441;561315;490055;663409;3996;
2024-05-08T19:14:24.302;538389871687860213;561446;490141;663521;4007;
2024-05-08T19:14:24.320;538389871706019985;561490;490201;663562;4011;
2024-05-08T19:14:24.338;538389871724179757;561545;490232;663606;4024;
2024-05-08T19:14:24.357;538389871742339529;561572;490258;663675;4049;
2024-05-08T19:14:24.375;538389871760499301;561622;490364;663729;4028;
2024-05-08T19:14:24.393;538389871778659073;561637;490419;663794;4022;
2024-05-08T19:14:24.411;538389871796818845;561647;490407;663803;4017;
2024-05-08T19:14:24.429;538389871814978617;561751;490438;663852;4074;
2024-05-08T19:14:24.447;538389871833138389;561809;490449;663854;4043;
2024-05-08T19:14:24.465;538389871851298161;561778;490414;663821;4035;
2024-05-08T19:14:24.484;538389871869457933;561763;490473;663896;4017;
2024-05-08T19:14:24.502;538389871887617705;561783;490469;663998;4058;
2024-05-08T19:14:24.520;538389871905777477;561911;490593;664066;4034;
2024-05-08T19:14:24.538;538389871923937959;562074;490662;664114;3992;
2024-05-08T19:14:24.556;538389871942098421;562109;490759;664251;4039;
2024-05-08T19:14:24.574;538389871960258883;562199;490841;664370;3992;
2024-05-08T19:14:24.593;538389871978419345;562345;490913;664484;3953;
2024-05-08T19:14:24.611;538389871996579807;562459;491039;664626;3947;
2024-05-08T19:14:24.629;538389872014740269;562542;491099;664740;3910;
2024-05-08T19:14:24.647;538389872032900731;562766;491232;664936;3971;
2024-05-08T19:14:24.665;538389872051061193;562973;491401;665110;4000;
2024-05-08T19:14:24.683;538389872069221655;563115;491541;665308;4002;
2024-05-08T19:14:24.702;538389872087382117;563209;491649;665401;3953;
2024-05-08T19:14:24.720;538389872105542579;563406;491812;665612;3986;
2024-05-08T19:14:24.738;538389872123703041;563515;491929;665771;4020;
2024-05-08T19:14:24.756;538389872141863503;563661;492133;665992;3985;
2024-05-08T19:14:24.774;538389872160023965;563766;492336;666107;3946;
2024-05-08T19:14:24.792;538389872178184427;563950;492399;666240;3993;
2024-05-08T19:14:24.811;538389872196344889;564132;492586;666398;3964;
2024-05-08T19:14:24.829;538389872214505351;564366;492748;666618;4015;
2024-05-08T19:14:24.847;538389872232665813;564534;492871;666763;4009;
2024-05-08T19:14:24.865;538389872250826275;564701;493007;666964;4046;
2024-05-08T19:14:24.883;538389872268986737;564821;493175;667116;4021;
2024-05-08T19:14:24.901;538389872287147199;565019;493293;667338;4013;
2024-05-08T19:14:24.919;538389872305307661;565242;493486;667571;3979;
2024-05-08T19:14:24.938;538389872323468123;565403;493721;667763;4007;
2024-05-08T19:14:24.956;538389872341628585;565578;493808;667921;3973;
2024-05-08T19:14:24.974;538389872359789047;565687;493837;668065;3977;
2024-05-08T19:14:24.992;538389872377949509;565633;493788;667963;4001;
2024-05-08T19:14:25.010;538389872396109971;565440;493587;667779;4020;
2024-05-08T19:14:25.028;538389872414270433;565081;493278;667500;4049;
2024-05-08T19:14:25.047;538389872432430895;564798;492989;667222;4041;
2024-05-08T19:14:25.065;538389872450591357;564627;492799;666895;4015;
2024-05-08T19:14:25.083;538389872468751819;564489;492720;666702;4004;
2024-05-08T19:14:25.101;538389872486912281;564471;492592;666654;4031;
2024-05-08T19:14:25.119;538389872505072743;564483;492628;666638;4016;
2024-05-08T19:14:25.137;538389872523233205;564520;492591;666594;4006;
2024-05-08T19:14:25.156;538389872541393667;564579;492697;666624;3969;
2024-05-08T19:14:25.174;538389872559554129;564743;492785;666748;4000;
2024-05-08T19:14:25.192;538389872577714591;564798;492797;666771;3988;
2024-05-08T19:14:25.210;538389872595875053;564779;492827;666778;3965;
2024-05-08T19:14:25.228;538389872614035515;564810;492825;666885;4004;
2024-05-08T19:14:25.246;538389872632195977;564862;492877;666895;3946;
2024-05-08T19:14:25.265;538389872650356439;564966;492827;666914;4001;
2024-05-08T19:14:25.283;538389872668516901;565029;492930;666947;4024;
2024-05-08T19:14:25.301;538389872686675659;565008;492864;666992;4018;
2024-05-08T19:14:25.319;538389872704834414;565038;492912;666993;4051;
2024-05-08T19:14:25.337;538389872722993169;565078;492939;666963;4056;
2024-05-08T19:14:25.355;538389872741151924;565107;492976;667011;3997;
2024-05-08T19:14:25.373;538389872759310679;565217;493075;667113;4034;
2024-05-08T19:14:25.392;538389872777469434;565328;493130;667230;4039;
2024-05-08T19:14:25.410;538389872795628189;565438;493155;667333;4016;
2024-05-08T19:14:25.428;538389872813786944;565538;493339;667454;4021;
2024-05-08T19:14:25.446;538389872831945699;565692;493458;667632;4027;
2024-05-08T19:14:25.464;538389872850104454;565802;493533;667793;4022;
2024-05-08T19:14:25.482;538389872868263209;565900;493739;667919;3962;
2024-05-08T19:14:25.501;538389872886421964;566063;493863;668022;4003;
2024-05-08T19:14:25.519;538389872904580719;566244;493991;668171;4028;
2024-05-08T19:14:25.537;538389872922739474;566408;494144;668447;3999;
2024-05-08T19:14:25.555;538389872940898229;566544;494270;668568;4036;
2024-05-08T19:14:25.573;538389872959056984;566676;494303;668742;3980;
2024-05-08T19:14:25.591;538389872977215739;566860;494520;668953;4009;
2024-05-08T19:14:25.610;538389872995374494;566943;494636;669152;4032;
2024-05-08T19:14:25.628;538389873013533249;567167;494860;669332;3976;
2024-05-08T19:14:25.646;538389873031692004;567328;494974;669517;4062;
2024-05-08T19:14:25.664;538389873049850759;567451;495068;669635;4024;
2024-05-08T19:14:25.682;538389873068009514;567653;495275;669868;4014;
2024-05-08T19:14:25.700;538389873086168269;567780;495417;670076;4070;
2024-05-08T19:14:25.719;538389873104327024;567900;495526;670165;3960;
2024-05-08T19:14:25.737;538389873122485779;568103;495775;670381;4030;
2024-05-08T19:14:25.755;538389873140644534;568269;495866;670634;4077;
2024-05-08T19:14:25.773;538389873158803289;568526;496050;670868;4119;
2024-05-08T19:14:25.791;538389873176962044;568629;496146;671042;4108;
2024-05-08T19:14:25.809;538389873195120799;568825;496334;671151;3994;
2024-05-08T19:14:25.827;538389873213279554;568983;496553;671405;4000;
2024-05-08T19:14:25.846;538389873231438309;569157;496695;671574;3975;
2024-05-08T19:14:25.864;538389873249597064;569132;496547;671639;3995;
2024-05-08T19:14:25.882;538389873267755819;568901;496417;671504;4002;
2024-05-08T19:14:25.900;538389873285914574;568595;496143;671180;4017;
2024-05-08T19:14:25.918;538389873304073329;568289;495769;670826;3999;
2024-05-08T19:14:25.936;538389873322232084;567967;495437;670516;3960;
2024-05-08T19:14:25.955;538389873340390839;567722;495201;670298;3998;
2024-05-08T19:14:25.973;538389873358549594;567627;495098;670160;3995;
2024-05-08T19:14:25.991;538389873376708349;567588;494976;670028;3920;
2024-05-08T19:14:26.009;538389873394867104;567545;495017;669970;3929;
2024-05-08T19:14:26.027;538389873413025859;567549;495021;669952;3989;
2024-05-08T19:14:26.045;538389873431184614;567625;495007;669983;4003;
2024-05-08T19:14:26.064;538389873449343904;567601;494960;669955;4026;
2024-05-08T19:14:26.082;538389873467503178;567591;494983;669921;4046;
2024-05-08T19:14:26.100;538389873485662452;567575;494886;669931;4021;
2024-05-08T19:14:26.118;538389873503821726;567513;494778;669865;4061;
2024-05-08T19:14:26.136;538389873521981000;567500;494822;669904;4046;
2024-05-08T19:14:26.154;538389873540140274;567471;494787;669827;3976;
2024-05-08T19:14:26.172;538389873558299548;567489;494754;669891;4023;
2024-05-08T19:14:26.191;538389873576458822;567511;494682;669806;4067;
2024-05-08T19:14:26.209;538389873594618096;567484;494711;669835;4054;
2024-05-08T19:14:26.227;538389873612777370;567464;494757;669820;4012;
2024-05-08T19:14:26.245;538389873630936644;567431;494781;669856;4037;
2024-05-08T19:14:26.263;538389873649095918;567424;494784;669783;3984;
2024-05-08T19:14:26.281;538389873667255192;567437;494772;669918;3992;
2024-05-08T19:14:26.300;538389873685414466;567542;494807;669946;4003;
2024-05-08T19:14:26.318;538389873703573740;567596;494867;670054;4012;
2024-05-08T19:14:26.336;538389873721733014;567701;494944;670122;3955;
2024-05-08T19:14:26.354;538389873739892288;567775;495068;670339;3993;
2024-05-08T19:14:26.372;538389873758051562;567966;495250;670422;4056;
2024-05-08T19:14:26.390;538389873776210836;568034;495294;670511;4017;
2024-05-08T19:14:26.409;538389873794370110;568166;495456;670661;4070;
2024-05-08T19:14:26.427;538389873812529384;568215;495488;670802;4016;
2024-05-08T19:14:26.445;538389873830688658;568346;495659;671017;4063;
2024-05-08T19:14:26.463;538389873848847932;568479;495657;671129;4016;
2024-05-08T19:14:26.481;538389873867007206;568546;495759;671249;4040;
2024-05-08T19:14:26.499;538389873885166480;568723;495958;671490;4087;
2024-05-08T19:14:26.518;538389873903325754;568786;496019;671608;4004;
2024-05-08T19:14:26.536;538389873921485028;568924;496099;671693;4024;
2024-05-08T19:14:26.554;538389873939644302;569066;496247;671875;4041;
2024-05-08T19:14:26.572;538389873957803576;569210;496346;672070;3986;
2024-05-08T19:14:26.590;538389873975962850;569269;496478;672151;4000;
2024-05-08T19:14:26.608;538389873994122124;569417;496594;672430;4047;
2024-05-08T19:14:26.626;538389874012281398;569560;496725;672615;4032;
2024-05-08T19:14:26.645;538389874030440672;569638;496762;672634;4015;
2024-05-08T19:14:26.663;538389874048599946;569791;497039;672891;3955;
2024-05-08T19:14:26.681;538389874066759220;569992;497092;673015;3966;
2024-05-08T19:14:26.699;538389874084918494;570138;497270;673232;3993;
2024-05-08T19:14:26.717;538389874103077768;570284;497485;673477;4041;
2024-05-08T19:14:26.735;538389874121237042;570501;497603;673649;4038;
2024-05-08T19:14:26.754;538389874139396316;570490;497606;673727;4016;
2024-05-08T19:14:26.772;538389874157555590;570305;497492;673674;4004;
2024-05-08T19:14:26.790;538389874175714864;570061;497192;673395;4072;
2024-05-08T19:14:26.808;538389874193874138;569657;496844;673064;4055;
2024-05-08T19:14:26.826;538389874212033412;569319;496477;672758;4084;
2024-05-08T19:14:26.844;538389874230193183;569031;496179;672374;4021;
