Phone timestamp;sensor timestamp [ns];channel 0;channel 1;channel 2;ambient
2024-05-13T13:14:49.898;538800300746622809;616991;512285;662034;4911;
2024-05-13T13:14:49.916;538800300764793444;617106;512339;662159;4903;
2024-05-13T13:14:49.934;538800300782964079;617254;512485;662218;4922;
2024-05-13T13:14:49.952;538800300801134714;617363;512726;662386;4928;
2024-05-13T13:14:49.970;538800300819305349;617457;512752;662505;4936;
2024-05-13T13:14:49.988;538800300837475984;617479;512791;662503;4946;
2024-05-13T13:14:50.007;538800300855646619;617162;512633;662174;4928;
2024-05-13T13:14:50.025;538800300873817254;616838;512405;661848;4983;
2024-05-13T13:14:50.043;538800300891987889;616575;512253;661609;5020;
2024-05-13T13:14:50.061;538800300910158524;616126;511985;661279;4933;
2024-05-13T13:14:50.079;538800300928329159;615888;511760;660929;4986;
2024-05-13T13:14:50.097;538800300946499794;615573;511491;660627;4965;
2024-05-13T13:14:50.116;538800300964670429;615398;511376;660489;4957;
2024-05-13T13:14:50.134;538800300982841064;615270;511214;660348;4989;
2024-05-13T13:14:50.152;538800301001011699;615131;511184;660282;5010;
2024-05-13T13:14:50.170;538800301019182334;615022;511136;660179;4974;
2024-05-13T13:14:50.188;538800301037352969;615057;511078;660086;4997;
2024-05-13T13:14:50.206;538800301055523604;614985;511034;660056;4907;
2024-05-13T13:14:50.225;538800301073694239;615079;511126;660089;4973;
2024-05-13T13:14:50.243;538800301091864874;615009;511130;659972;4963;
2024-05-13T13:14:50.261;538800301110035509;614990;511068;659947;4986;
2024-05-13T13:14:50.279;538800301128206144;614945;510996;659926;4948;
2024-05-13T13:14:50.297;538800301146376779;614917;511022;659900;4969;
2024-05-13T13:14:50.315;538800301164547414;614776;510921;659804;4905;
2024-05-13T13:14:50.334;538800301182718049;614651;510819;659647;4911;
2024-05-13T13:14:50.352;538800301200888684;614530;510752;659590;4881;
2024-05-13T13:14:50.370;538800301219059319;614524;510719;659508;4923;
2024-05-13T13:14:50.388;538800301237229954;614525;510718;659499;4921;
2024-05-13T13:14:50.406;538800301255400589;614520;510794;659501;4954;
2024-05-13T13:14:50.424;538800301273571224;614525;510793;659496;4976;
2024-05-13T13:14:50.443;538800301291741859;614431;510791;659511;4954;
2024-05-13T13:14:50.461;538800301309912494;614461;510824;659473;4897;
2024-05-13T13:14:50.479;538800301328083129;614466;510784;659509;4845;
2024-05-13T13:14:50.497;538800301346253764;614505;510705;659531;4867;
2024-05-13T13:14:50.515;538800301364424399;614533;510763;659512;4931;
2024-05-13T13:14:50.533;538800301382595034;614589;510815;659609;4881;
2024-05-13T13:14:50.552;538800301400765669;614587;510894;659678;4877;
2024-05-13T13:14:50.570;538800301418936304;614663;510931;659762;4886;
2024-05-13T13:14:50.588;538800301437106939;614693;510979;659887;4900;
2024-05-13T13:14:50.606;538800301455277574;614773;511040;660019;4840;
2024-05-13T13:14:50.624;538800301473448209;614882;511121;660086;4869;
2024-05-13T13:14:50.642;538800301491618844;615018;511243;660223;4875;
2024-05-13T13:14:50.661;538800301509789487;615146;511383;660352;4944;
2024-05-13T13:14:50.679;538800301527960122;615264;511402;660457;4937;
2024-05-13T13:14:50.697;538800301546130757;615273;511439;660482;4893;
2024-05-13T13:14:50.715;538800301564301392;615417;511604;660664;4921;
2024-05-13T13:14:50.733;538800301582472027;615522;511642;660748;4896;
2024-05-13T13:14:50.752;538800301600642662;615615;511662;660801;4840;
2024-05-13T13:14:50.770;538800301618813297;615646;511727;660816;4924;
2024-05-13T13:14:50.788;538800301636983932;615349;511604;660577;4898;
2024-05-13T13:14:50.806;538800301655154567;615028;511360;660277;4889;
2024-05-13T13:14:50.824;538800301673325202;614657;511168;659862;4863;
2024-05-13T13:14:50.842;538800301691495837;614307;510896;659504;4830;
2024-05-13T13:14:50.861;538800301709666472;614002;510630;659171;4870;
2024-05-13T13:14:50.879;538800301727837107;613778;510399;658891;4882;
2024-05-13T13:14:50.897;538800301746007742;613503;510293;658618;4873;
2024-05-13T13:14:50.915;538800301764178377;613326;510166;658500;4837;
2024-05-13T13:14:50.933;538800301782349012;613207;510011;658267;4819;
2024-05-13T13:14:50.951;538800301800519647;613197;509961;658182;4831;
2024-05-13T13:14:50.970;538800301818690282;613215;509917;658064;4832;
2024-05-13T13:14:50.988;538800301836860917;613249;509933;658010;4816;
2024-05-13T13:14:51.006;538800301855031552;613175;509909;658001;4839;
2024-05-13T13:14:51.024;538800301873202187;613146;509884;657910;4890;
2024-05-13T13:14:51.042;538800301891372822;613106;509886;657876;4893;
2024-05-13T13:14:51.060;538800301909543457;613011;509751;657788;4870;
2024-05-13T13:14:51.079;538800301927714092;612919;509684;657610;4857;
2024-05-13T13:14:51.097;538800301945884727;612793;509589;657539;4876;
2024-05-13T13:14:51.115;538800301964055362;612752;509535;657394;4845;
2024-05-13T13:14:51.133;538800301982225997;612596;509490;657250;4814;
2024-05-13T13:14:51.151;538800302000396632;612503;509374;657126;4798;
2024-05-13T13:14:51.169;538800302018567267;612521;509349;657131;4842;
2024-05-13T13:14:51.188;538800302036737902;612503;509259;657042;4836;
2024-05-13T13:14:51.206;538800302054908537;612482;509289;656993;4864;
2024-05-13T13:14:51.224;538800302073079172;612473;509259;656999;4812;
2024-05-13T13:14:51.242;538800302091249807;612451;509235;656953;4836;
2024-05-13T13:14:51.260;538800302109420442;612527;509317;656921;4841;
2024-05-13T13:14:51.278;538800302127591077;612654;509285;656918;4821;
2024-05-13T13:14:51.297;538800302145761712;612638;509313;656953;4820;
2024-05-13T13:14:51.315;538800302163932347;612680;509355;656989;4784;
2024-05-13T13:14:51.333;538800302182102982;612737;509427;657052;4829;
2024-05-13T13:14:51.351;538800302200273617;612833;509466;657093;4857;
2024-05-13T13:14:51.369;538800302218444252;612888;509534;657126;4770;
2024-05-13T13:14:51.387;538800302236614887;612946;509489;657153;4774;
2024-05-13T13:14:51.406;538800302254785522;613135;509602;657240;4818;
2024-05-13T13:14:51.424;538800302272958439;613176;509652;657401;4770;
2024-05-13T13:14:51.442;538800302291131326;613296;509722;657379;4849;
2024-05-13T13:14:51.460;538800302309304213;613382;509778;657461;4804;
2024-05-13T13:14:51.478;538800302327477100;613353;509813;657483;4821;
2024-05-13T13:14:51.497;538800302345649987;613486;509863;657630;4806;
2024-05-13T13:14:51.515;538800302363822874;613626;509942;657643;4824;
2024-05-13T13:14:51.533;538800302381995761;613741;509994;657711;4814;
2024-05-13T13:14:51.551;538800302400168648;613508;509879;657518;4792;
2024-05-13T13:14:51.569;538800302418341535;613051;509591;657173;4765;
2024-05-13T13:14:51.587;538800302436514422;612689;509380;656869;4765;
2024-05-13T13:14:51.606;538800302454687309;612227;508978;656436;4817;
2024-05-13T13:14:51.624;538800302472860196;611802;508625;655992;4768;
2024-05-13T13:14:51.642;538800302491033083;611481;508374;655781;4802;
2024-05-13T13:14:51.660;538800302509205970;611199;508204;655505;4782;
2024-05-13T13:14:51.678;538800302527378857;610939;508029;655354;4787;
2024-05-13T13:14:51.696;538800302545551744;610757;507984;655219;4799;
2024-05-13T13:14:51.715;538800302563724631;610505;507839;655077;4675;
2024-05-13T13:14:51.733;538800302581897518;610182;507763;655003;4626;
2024-05-13T13:14:51.751;538800302600070405;609934;507617;654775;4490;
2024-05-13T13:14:51.769;538800302618243292;609901;507596;654768;4470;
2024-05-13T13:14:51.787;538800302636416179;609798;507480;654743;4364;
2024-05-13T13:14:51.805;538800302654589066;609749;507427;654753;4312;
2024-05-13T13:14:51.824;538800302672761953;609653;507436;654655;4245;
2024-05-13T13:14:51.842;538800302690934840;609606;507466;654675;4295;
2024-05-13T13:14:51.860;538800302709107727;609571;507438;654648;4307;
2024-05-13T13:14:51.878;538800302727280614;609450;507388;654597;4338;
2024-05-13T13:14:51.896;538800302745453501;609168;507276;654481;4308;
2024-05-13T13:14:51.915;538800302763626388;608982;507219;654369;4357;
2024-05-13T13:14:51.933;538800302781799275;608887;507070;654272;4292;
2024-05-13T13:14:51.951;538800302799972162;608755;506932;654157;4243;
2024-05-13T13:14:51.969;538800302818145049;608768;506931;654178;4309;
2024-05-13T13:14:51.987;538800302836317936;608616;506844;654125;4257;
2024-05-13T13:14:52.005;538800302854490823;608566;506953;654184;4323;
2024-05-13T13:14:52.024;538800302872663710;608572;506885;654152;4314;
2024-05-13T13:14:52.042;538800302890836597;608534;506941;654152;4327;
2024-05-13T13:14:52.060;538800302909009484;608548;506948;654164;4311;
2024-05-13T13:14:52.078;538800302927182371;608727;507008;654368;4375;
2024-05-13T13:14:52.096;538800302945355258;608762;507077;654600;4445;
2024-05-13T13:14:52.114;538800302963528145;608776;507182;654817;4476;
2024-05-13T13:14:52.133;538800302981701032;608909;507229;654944;4521;
2024-05-13T13:14:52.151;538800302999873919;608848;507290;655115;4538;
2024-05-13T13:14:52.169;538800303018046806;609013;507478;655373;4666;
2024-05-13T13:14:52.187;538800303036218969;609099;507624;655629;4710;
2024-05-13T13:14:52.205;538800303054391130;609242;507666;655854;4816;
2024-05-13T13:14:52.223;538800303072563291;609385;507816;656111;4882;
2024-05-13T13:14:52.242;538800303090735452;609504;507845;656246;4926;
2024-05-13T13:14:52.260;538800303108907613;609671;508076;656431;4956;
2024-05-13T13:14:52.278;538800303127079774;609705;508019;656586;5016;
2024-05-13T13:14:52.296;538800303145251935;609813;508081;656728;5012;
2024-05-13T13:14:52.314;538800303163424096;609853;508101;656901;5155;
2024-05-13T13:14:52.332;538800303181596257;609811;507996;656826;5213;
2024-05-13T13:14:52.351;538800303199768418;609678;507865;656648;5287;
2024-05-13T13:14:52.369;538800303217940579;609408;507661;656344;5333;
2024-05-13T13:14:52.387;538800303236112740;609138;507465;656039;5521;
2024-05-13T13:14:52.405;538800303254284901;608898;507333;655807;5618;
2024-05-13T13:14:52.423;538800303272457062;608631;507086;655577;5700;
2024-05-13T13:14:52.442;538800303290629223;608438;506853;655585;5799;
2024-05-13T13:14:52.460;538800303308801384;608291;506725;655571;5878;
2024-05-13T13:14:52.478;538800303326973545;608138;506484;655594;5947;
2024-05-13T13:14:52.496;538800303345145706;607938;506278;655425;6003;
2024-05-13T13:14:52.514;538800303363317867;607838;506062;655247;5904;
2024-05-13T13:14:52.532;538800303381490028;607692;505916;655173;5884;
2024-05-13T13:14:52.551;538800303399662189;607555;505772;654993;5771;
2024-05-13T13:14:52.569;538800303417834350;607466;505591;654811;5724;
2024-05-13T13:14:52.587;538800303436006511;607347;505519;654562;5666;
2024-05-13T13:14:52.605;538800303454178672;607181;505292;654354;5614;
2024-05-13T13:14:52.623;538800303472350833;607023;505137;654185;5604;
2024-05-13T13:14:52.641;538800303490522994;606956;505129;654193;5620;
2024-05-13T13:14:52.660;538800303508695155;606815;504987;654043;5637;
2024-05-13T13:14:52.678;538800303526867316;606747;504899;654028;5698;
2024-05-13T13:14:52.696;538800303545039477;606761;504825;653956;5706;
2024-05-13T13:14:52.714;538800303563211638;606654;504763;653905;5813;
2024-05-13T13:14:52.732;538800303581383799;606651;504767;653900;5815;
2024-05-13T13:14:52.750;538800303599555960;606617;504718;653766;5805;
2024-05-13T13:14:52.769;538800303617728121;606649;504558;653824;5798;
2024-05-13T13:14:52.787;538800303635900282;606687;504438;653681;5744;
2024-05-13T13:14:52.805;538800303654072443;606719;504446;653650;5736;
2024-05-13T13:14:52.823;538800303672244604;606772;504395;653619;5765;
2024-05-13T13:14:52.841;538800303690416765;606784;504361;653625;5750;
2024-05-13T13:14:52.859;538800303708588926;606801;504320;653676;5751;
2024-05-13T13:14:52.878;538800303726761087;606817;504252;653661;5746;
2024-05-13T13:14:52.896;538800303744933248;606840;504276;653739;5840;
2024-05-13T13:14:52.914;538800303763105409;606828;504213;653778;5853;
2024-05-13T13:14:52.932;538800303781277570;606844;504242;653887;5814;
2024-05-13T13:14:52.950;538800303799447284;606979;504231;653886;5823;
2024-05-13T13:14:52.968;538800303817616974;607001;504186;653918;5836;
2024-05-13T13:14:52.987;538800303835786664;607029;504156;653889;5794;
2024-05-13T13:14:53.005;538800303853956354;607144;504190;654005;5770;
2024-05-13T13:14:53.023;538800303872126044;607221;504204;654054;5811;
2024-05-13T13:14:53.041;538800303890295734;607442;504338;654203;5831;
2024-05-13T13:14:53.059;538800303908465424;607476;504399;654281;5874;
2024-05-13T13:14:53.078;538800303926635114;607499;504411;654348;5859;
2024-05-13T13:14:53.096;538800303944804804;607378;504248;654182;5904;
2024-05-13T13:14:53.114;538800303962974494;607097;504049;653928;5909;
2024-05-13T13:14:53.132;538800303981144184;606712;503687;653607;5933;
2024-05-13T13:14:53.150;538800303999313874;606333;503458;653169;5883;
2024-05-13T13:14:53.168;538800304017483564;605976;503015;652796;5909;
2024-05-13T13:14:53.187;538800304035653254;605715;502712;652509;5923;
2024-05-13T13:14:53.205;538800304053822944;605559;502544;652308;5906;
2024-05-13T13:14:53.223;538800304071992634;605316;502340;652130;6018;
2024-05-13T13:14:53.241;538800304090162324;605182;502160;651889;6003;
2024-05-13T13:14:53.259;538800304108332014;605015;501911;651772;5952;
2024-05-13T13:14:53.277;538800304126501704;604943;501831;651653;5990;
2024-05-13T13:14:53.296;538800304144671394;604972;501801;651631;5994;
2024-05-13T13:14:53.314;538800304162841084;604927;501750;651610;6013;
2024-05-13T13:14:53.332;538800304181010774;604824;501669;651516;6030;
2024-05-13T13:14:53.350;538800304199180464;604825;501603;651472;6009;
2024-05-13T13:14:53.368;538800304217350154;604722;501472;651363;5994;
2024-05-13T13:14:53.386;538800304235519844;604702;501405;651288;5992;
2024-05-13T13:14:53.405;538800304253689534;604613;501355;651269;6025;
2024-05-13T13:14:53.423;538800304271859224;604492;501224;651140;6106;
2024-05-13T13:14:53.441;538800304290028914;604529;501049;651072;6088;
2024-05-13T13:14:53.459;538800304308198604;604416;501051;651054;6105;
2024-05-13T13:14:53.477;538800304326368294;604373;500995;650924;6119;
2024-05-13T13:14:53.495;538800304344537984;604391;500891;650924;6084;
2024-05-13T13:14:53.514;538800304362707674;604414;500816;650875;6104;
2024-05-13T13:14:53.532;538800304380877364;604345;500756;650868;6061;
2024-05-13T13:14:53.550;538800304399047054;604339;500756;650843;6095;
2024-05-13T13:14:53.568;538800304417216744;604414;500705;650795;6085;
2024-05-13T13:14:53.586;538800304435386434;604470;500720;650852;6086;
2024-05-13T13:14:53.604;538800304453556124;604463;500763;650954;6100;
2024-05-13T13:14:53.623;538800304471725814;604566;500723;650931;5992;
2024-05-13T13:14:53.641;538800304489895504;604643;500736;651026;6023;
2024-05-13T13:14:53.659;538800304508065194;604787;500721;651068;6074;
2024-05-13T13:14:53.677;538800304526234884;604794;500769;651087;6007;
2024-05-13T13:14:53.695;538800304544404574;604885;500857;651230;6086;
2024-05-13T13:14:53.713;538800304562575315;605028;500914;651372;6109;
2024-05-13T13:14:53.732;538800304580746022;605107;500962;651424;6064;
2024-05-13T13:14:53.750;538800304598916729;605197;500955;651461;6034;
2024-05-13T13:14:53.768;538800304617087436;605281;501033;651595;6034;
2024-05-13T13:14:53.786;538800304635258143;605407;501109;651733;6071;
2024-05-13T13:14:53.804;538800304653428850;605506;501156;651768;6084;
2024-05-13T13:14:53.822;538800304671599557;605531;501126;651711;6085;
2024-05-13T13:14:53.841;538800304689770264;605238;500920;651536;6034;
2024-05-13T13:14:53.859;538800304707940971;604954;500759;651279;6054;
2024-05-13T13:14:53.877;538800304726111678;604647;500427;650909;5997;
2024-05-13T13:14:53.895;538800304744282385;604300;500160;650595;6048;
2024-05-13T13:14:53.913;538800304762453092;604156;499929;650351;6103;
2024-05-13T13:14:53.932;538800304780623799;603790;499727;650100;6077;
2024-05-13T13:14:53.950;538800304798794506;603574;499534;649837;6095;
2024-05-13T13:14:53.968;538800304816965213;603442;499356;649617;6074;
2024-05-13T13:14:53.986;538800304835135920;603381;499158;649579;6118;
2024-05-13T13:14:54.004;538800304853306627;603250;499026;649430;6128;
2024-05-13T13:14:54.022;538800304871477334;603300;499004;649388;6122;
2024-05-13T13:14:54.041;538800304889648041;603271;498936;649370;6102;
2024-05-13T13:14:54.059;538800304907818748;603290;498963;649426;6143;
2024-05-13T13:14:54.077;538800304925989455;603265;498891;649398;6134;
2024-05-13T13:14:54.095;538800304944160162;603195;498938;649347;6148;
2024-05-13T13:14:54.113;538800304962330869;603154;498778;649271;6041;
2024-05-13T13:14:54.131;538800304980501576;603106;498766;649239;6088;
2024-05-13T13:14:54.150;538800304998672283;603022;498624;649182;6096;
2024-05-13T13:14:54.168;538800305016842990;602899;498502;649078;6031;
2024-05-13T13:14:54.186;538800305035013697;602859;498436;648979;6020;
2024-05-13T13:14:54.204;538800305053184404;602789;498350;648879;5995;
2024-05-13T13:14:54.222;538800305071355111;602805;498335;648905;6052;
2024-05-13T13:14:54.240;538800305089525818;602756;498321;648927;6025;
2024-05-13T13:14:54.259;538800305107696525;602787;498308;648900;6016;
2024-05-13T13:14:54.277;538800305125867232;602908;498350;648973;6128;
2024-05-13T13:14:54.295;538800305144037939;602913;498379;649006;6013;
2024-05-13T13:14:54.313;538800305162208646;603000;498287;649018;6025;
2024-05-13T13:14:54.331;538800305180379353;603016;498344;649051;6009;
2024-05-13T13:14:54.349;538800305198550060;603117;498401;649111;6066;
2024-05-13T13:14:54.368;538800305216720767;603130;498410;649207;6066;
2024-05-13T13:14:54.386;538800305234891474;603307;498464;649286;6068;
2024-05-13T13:14:54.404;538800305253062181;603418;498628;649372;6051;
2024-05-13T13:14:54.422;538800305271232888;603542;498681;649524;6044;
2024-05-13T13:14:54.440;538800305289403595;603626;498652;649484;6008;
2024-05-13T13:14:54.458;538800305307574302;603749;498732;649682;6002;
2024-05-13T13:14:54.477;538800305325744947;603848;498907;649781;6016;
2024-05-13T13:14:54.495;538800305343915582;603998;498903;649874;6032;
2024-05-13T13:14:54.513;538800305362086217;604073;498926;650023;6028;
2024-05-13T13:14:54.531;538800305380256852;604161;498999;650055;6064;
2024-05-13T13:14:54.549;538800305398427487;603996;498950;649914;5996;
2024-05-13T13:14:54.567;538800305416598122;603737;498762;649655;6021;
2024-05-13T13:14:54.586;538800305434768757;603405;498555;649406;5999;
2024-05-13T13:14:54.604;538800305452939392;603031;498231;649027;6020;
2024-05-13T13:14:54.622;538800305471110027;602724;498041;648707;6023;
2024-05-13T13:14:54.640;538800305489280662;602472;497753;648472;6009;
2024-05-13T13:14:54.658;538800305507451297;602304;497486;648261;6001;
2024-05-13T13:14:54.676;538800305525621932;602155;497364;648148;6035;
2024-05-13T13:14:54.695;538800305543792567;602023;497193;647908;5993;
2024-05-13T13:14:54.713;538800305561963202;601887;497092;647781;6046;
2024-05-13T13:14:54.731;538800305580133837;601823;496991;647767;5943;
2024-05-13T13:14:54.749;538800305598304472;601845;496985;647743;6013;
2024-05-13T13:14:54.767;538800305616475107;601865;496934;647720;6018;
2024-05-13T13:14:54.786;538800305634645742;601891;496989;647735;6009;
2024-05-13T13:14:54.804;538800305652816377;601792;496905;647683;6050;
2024-05-13T13:14:54.822;538800305670987012;601817;496914;647695;6072;
2024-05-13T13:14:54.840;538800305689157647;601785;496844;647609;6018;
2024-05-13T13:14:54.858;538800305707328282;601657;496769;647550;5993;
2024-05-13T13:14:54.876;538800305725498917;601617;496657;647487;6017;
2024-05-13T13:14:54.895;538800305743669552;601635;496643;647506;6007;
2024-05-13T13:14:54.913;538800305761840187;601548;496590;647388;6034;
2024-05-13T13:14:54.931;538800305780010822;601540;496560;647436;6034;
2024-05-13T13:14:54.949;538800305798181457;601545;496573;647356;6068;
2024-05-13T13:14:54.967;538800305816352092;601664;496613;647458;6081;
2024-05-13T13:14:54.985;538800305834522727;601636;496663;647445;6036;
2024-05-13T13:14:55.004;538800305852693362;601654;496649;647504;6017;
2024-05-13T13:14:55.022;538800305870863997;601821;496698;647517;6047;
2024-05-13T13:14:55.040;538800305889034632;601862;496783;647588;5944;
2024-05-13T13:14:55.058;538800305907205267;601907;496855;647727;6013;
2024-05-13T13:14:55.076;538800305925375902;602073;496948;647768;5944;
2024-05-13T13:14:55.094;538800305943546537;602211;497060;647944;6042;
2024-05-13T13:14:55.113;538800305961717172;602244;497061;647960;5989;
2024-05-13T13:14:55.131;538800305979887807;602445;497113;648092;6025;
2024-05-13T13:14:55.149;538800305998058442;602582;497223;648261;6096;
2024-05-13T13:14:55.167;538800306016229077;602718;497352;648399;6040;
2024-05-13T13:14:55.185;538800306034399712;602759;497392;648455;6048;
2024-05-13T13:14:55.203;538800306052570347;602895;497478;648573;6017;
2024-05-13T13:14:55.222;538800306070740982;603081;497653;648716;6066;
2024-05-13T13:14:55.240;538800306088913681;603230;497732;648916;6067;
2024-05-13T13:14:55.258;538800306107086350;603340;497834;649035;6006;
2024-05-13T13:14:55.276;538800306125259019;603440;497903;649254;6076;
2024-05-13T13:14:55.294;538800306143431688;603361;497854;649084;6023;
2024-05-13T13:14:55.312;538800306161604357;603071;497674;648928;6063;
2024-05-13T13:14:55.331;538800306179777026;602807;497516;648721;6057;
2024-05-13T13:14:55.349;538800306197949695;602497;497333;648375;6053;
2024-05-13T13:14:55.367;538800306216122364;602210;497078;648046;6091;
2024-05-13T13:14:55.385;538800306234295033;601993;496884;647857;6059;
2024-05-13T13:14:55.403;538800306252467702;601834;496727;647664;6028;
2024-05-13T13:14:55.422;538800306270640371;601693;496619;647566;6055;
2024-05-13T13:14:55.440;538800306288813040;601522;496513;647423;5997;
2024-05-13T13:14:55.458;538800306306985709;601474;496426;647411;6065;
2024-05-13T13:14:55.476;538800306325158378;601492;496360;647364;6058;
2024-05-13T13:14:55.494;538800306343331047;601524;496358;647303;6080;
2024-05-13T13:14:55.512;538800306361503716;601522;496334;647283;6060;
2024-05-13T13:14:55.531;538800306379676385;601511;496289;647274;6059;
2024-05-13T13:14:55.549;538800306397849054;601523;496274;647358;6033;
2024-05-13T13:14:55.567;538800306416021723;601581;496335;647322;6105;
2024-05-13T13:14:55.585;538800306434194392;601563;496380;647396;6097;
2024-05-13T13:14:55.603;538800306452367061;601474;496266;647275;6077;
2024-05-13T13:14:55.621;538800306470539730;601375;496255;647255;6029;
2024-05-13T13:14:55.640;538800306488712399;601461;496257;647296;6105;
2024-05-13T13:14:55.658;538800306506885068;601465;496216;647308;6122;
2024-05-13T13:14:55.676;538800306525057737;601499;496201;647300;6067;
2024-05-13T13:14:55.694;538800306543230406;601496;496327;647338;6044;
2024-05-13T13:14:55.712;538800306561403075;601557;496372;647394;6068;
2024-05-13T13:14:55.730;538800306579575744;601626;496417;647506;6068;
2024-05-13T13:14:55.749;538800306597748413;601763;496405;647569;6091;
2024-05-13T13:14:55.767;538800306615921082;601885;496521;647619;6119;
2024-05-13T13:14:55.785;538800306634093751;602023;496636;647775;6137;
2024-05-13T13:14:55.803;538800306652266420;602135;496695;647898;6102;
2024-05-13T13:14:55.821;538800306670439089;602243;496852;648014;6050;
2024-05-13T13:14:55.839;538800306688611758;602350;496922;648192;6127;
2024-05-13T13:14:55.858;538800306706784427;602477;496970;648311;6057;
2024-05-13T13:14:55.876;538800306724957096;602691;497142;648470;6083;
2024-05-13T13:14:55.894;538800306743129765;602882;497252;648583;6066;
2024-05-13T13:14:55.912;538800306761302434;603033;497367;648798;6081;
2024-05-13T13:14:55.930;538800306779475103;603176;497492;648908;6098;
2024-05-13T13:14:55.949;538800306797647772;603419;497665;649080;6135;
2024-05-13T13:14:55.967;538800306815820441;603439;497749;649185;6085;
2024-05-13T13:14:55.985;538800306833993110;603626;497930;649342;6093;
2024-05-13T13:14:56.003;538800306852165057;603774;498083;649484;6103;
2024-05-13T13:14:56.021;538800306870337000;603972;498204;649728;6135;
2024-05-13T13:14:56.039;538800306888508943;604141;498276;649803;6113;
2024-05-13T13:14:56.058;538800306906680886;604289;498429;649974;6065;
2024-05-13T13:14:56.076;538800306924852829;604465;498477;650188;6075;
2024-05-13T13:14:56.094;538800306943024772;604555;498659;650309;6094;
2024-05-13T13:14:56.112;538800306961196715;604418;498612;650248;6100;
2024-05-13T13:14:56.130;538800306979368658;604164;498549;650111;6095;
2024-05-13T13:14:56.148;538800306997540601;603979;498316;649826;6085;
2024-05-13T13:14:56.167;538800307015712544;603786;498096;649638;6108;
2024-05-13T13:14:56.185;538800307033884487;603502;497888;649418;6067;
2024-05-13T13:14:56.203;538800307052056430;603428;497800;649276;6072;
2024-05-13T13:14:56.221;538800307070228373;603267;497703;649156;6060;
2024-05-13T13:14:56.239;538800307088400316;603225;497685;649219;5996;
2024-05-13T13:14:56.257;538800307106572259;603239;497523;649171;6136;
2024-05-13T13:14:56.276;538800307124744202;603244;497594;649159;6099;
2024-05-13T13:14:56.294;538800307142916145;603187;497498;649095;6079;
2024-05-13T13:14:56.312;538800307161088088;603263;497580;649196;6018;
2024-05-13T13:14:56.330;538800307179260031;603271;497638;649221;6112;
2024-05-13T13:14:56.348;538800307197431974;603306;497633;649230;6011;
2024-05-13T13:14:56.366;538800307215603917;603338;497718;649289;6028;
2024-05-13T13:14:56.385;538800307233775860;603388;497696;649318;6001;
2024-05-13T13:14:56.403;538800307251947803;603418;497719;649342;6015;
2024-05-13T13:14:56.421;538800307270119746;603424;497732;649324;6038;
2024-05-13T13:14:56.439;538800307288291689;603485;497699;649342;6027;
2024-05-13T13:14:56.457;538800307306463632;603470;497747;649372;6017;
2024-05-13T13:14:56.476;538800307324635575;603539;497776;649435;6032;
2024-05-13T13:14:56.494;538800307342807518;603574;497795;649506;6040;
2024-05-13T13:14:56.512;538800307360979461;603703;497839;649594;6052;
2024-05-13T13:14:56.530;538800307379151404;603705;497887;649595;6009;
2024-05-13T13:14:56.548;538800307397323347;603802;497928;649741;6007;
2024-05-13T13:14:56.566;538800307415495290;603922;498039;649751;6010;
2024-05-13T13:14:56.585;538800307433667233;604036;498139;649911;5994;
2024-05-13T13:14:56.603;538800307451839176;604176;498199;649991;5977;
2024-05-13T13:14:56.621;538800307470011119;604365;498322;650157;6000;
2024-05-13T13:14:56.639;538800307488183062;604547;498459;650326;5961;
2024-05-13T13:14:56.657;538800307506355005;604720;498566;650521;5946;
2024-05-13T13:14:56.675;538800307524526948;604904;498702;650640;5958;
2024-05-13T13:14:56.694;538800307542698891;605019;498905;650776;5998;
2024-05-13T13:14:56.712;538800307560870834;605270;499010;651017;5998;
2024-05-13T13:14:56.730;538800307579042777;605350;499089;651179;6001;
2024-05-13T13:14:56.748;538800307597214720;605600;499231;651419;5995;
2024-05-13T13:14:56.766;538800307615386669;605744;499330;651602;5967;
2024-05-13T13:14:56.784;538800307633558612;605961;499515;651829;6020;
2024-05-13T13:14:56.803;538800307651730555;606117;499684;651964;5948;
2024-05-13T13:14:56.821;538800307669902498;606273;499831;652090;5955;
2024-05-13T13:14:56.839;538800307688074441;606432;499974;652223;5957;
2024-05-13T13:14:56.857;538800307706246384;606614;500136;652497;5989;
2024-05-13T13:14:56.875;538800307724418327;606823;500317;652762;5986;
2024-05-13T13:14:56.893;538800307742590270;607117;500547;652928;6057;
2024-05-13T13:14:56.912;538800307760762213;607218;500632;653061;5959;
2024-05-13T13:14:56.930;538800307778934156;607486;500861;653358;6037;
2024-05-13T13:14:56.948;538800307797106099;607623;500947;653462;6025;
2024-05-13T13:14:56.966;538800307815278042;607483;500968;653372;5965;
2024-05-13T13:14:56.984;538800307833449985;607320;500874;653252;5934;
2024-05-13T13:14:57.002;538800307851621928;607142;500724;653143;5996;
2024-05-13T13:14:57.021;538800307869793871;606903;500635;652934;5968;
2024-05-13T13:14:57.039;538800307887965814;606763;500506;652865;5959;
2024-05-13T13:14:57.057;538800307906137757;606594;500375;652766;5963;
2024-05-13T13:14:57.075;538800307924309700;606613;500337;652721;5940;
2024-05-13T13:14:57.093;538800307942481643;606638;500394;652735;5982;
2024-05-13T13:14:57.112;538800307960653586;606712;500361;652775;5971;
2024-05-13T13:14:57.130;538800307978825529;606750;500432;652920;6000;
2024-05-13T13:14:57.148;538800307996997472;606823;500430;652971;5962;
2024-05-13T13:14:57.166;538800308015169415;606940;500604;653140;5922;
2024-05-13T13:14:57.184;538800308033341358;607098;500642;653197;5980;
2024-05-13T13:14:57.202;538800308051513301;607231;500740;653276;6036;
2024-05-13T13:14:57.221;538800308069685244;607284;500818;653361;6010;
2024-05-13T13:14:57.239;538800308087857187;607413;500895;653453;6035;
2024-05-13T13:14:57.257;538800308106029130;607453;500854;653517;6020;
2024-05-13T13:14:57.275;538800308124201073;607461;500948;653583;6002;
2024-05-13T13:14:57.293;538800308142373016;607514;500972;653598;5973;
2024-05-13T13:14:57.311;538800308160544959;607479;500993;653685;5979;
2024-05-13T13:14:57.330;538800308178716902;607565;501100;653808;6003;
2024-05-13T13:14:57.348;538800308196888845;607752;501171;653916;6026;
2024-05-13T13:14:57.366;538800308215060788;607837;501233;653911;6029;
2024-05-13T13:14:57.384;538800308233232731;607984;501299;654081;5972;
2024-05-13T13:14:57.402;538800308251404674;608086;501468;654156;5973;
2024-05-13T13:14:57.420;538800308269576617;608267;501612;654315;6011;
2024-05-13T13:14:57.439;538800308287748560;608391;501647;654479;5945;
2024-05-13T13:14:57.457;538800308305920503;608590;501777;654669;6046;
2024-05-13T13:14:57.475;538800308324092446;608728;501873;654824;6000;
2024-05-13T13:14:57.493;538800308342264389;608910;502037;654953;5984;
2024-05-13T13:14:57.511;538800308360436332;609129;502219;655218;6046;
2024-05-13T13:14:57.529;538800308378608220;609293;502423;655451;6003;
2024-05-13T13:14:57.548;538800308396780090;609486;502509;655552;5988;
2024-05-13T13:14:57.566;538800308414951960;609593;502662;655733;6000;
2024-05-13T13:14:57.584;538800308433123830;609798;502904;655967;6059;
2024-05-13T13:14:57.602;538800308451295700;610032;502989;656173;6075;
2024-05-13T13:14:57.620;538800308469467570;610303;503160;656360;6110;
2024-05-13T13:14:57.639;538800308487639440;610415;503361;656520;6068;
2024-05-13T13:14:57.657;538800308505811310;610643;503563;656747;6091;
2024-05-13T13:14:57.675;538800308523983180;610829;503679;656933;6057;
2024-05-13T13:14:57.693;538800308542155050;611073;503896;657141;6114;
2024-05-13T13:14:57.711;538800308560326920;611273;503998;657369;6127;
2024-05-13T13:14:57.729;538800308578498790;611460;504204;657511;6114;
2024-05-13T13:14:57.748;538800308596670660;611710;504293;657713;6138;
2024-05-13T13:14:57.766;538800308614842530;611926;504529;657944;6134;
2024-05-13T13:14:57.784;538800308633014400;611936;504688;658087;6169;
2024-05-13T13:14:57.802;538800308651186270;611832;504653;658001;6125;
2024-05-13T13:14:57.820;538800308669358140;611787;504557;657950;6065;
2024-05-13T13:14:57.838;538800308687530010;611712;504509;657827;6088;
2024-05-13T13:14:57.857;538800308705701880;611500;504329;657590;6151;
2024-05-13T13:14:57.875;538800308723873750;611279;504241;657568;6144;
2024-05-13T13:14:57.893;538800308742045620;611279;504253;657508;6135;
2024-05-13T13:14:57.911;538800308760217490;611256;504208;657590;6136;
2024-05-13T13:14:57.929;538800308778389360;611290;504202;657565;6131;
2024-05-13T13:14:57.947;538800308796561230;611437;504323;657629;6179;
2024-05-13T13:14:57.966;538800308814733100;611491;504282;657715;6190;
2024-05-13T13:14:57.984;538800308832904970;611592;504377;657751;6148;
2024-05-13T13:14:58.002;538800308851076840;611771;504496;657948;6167;
2024-05-13T13:14:58.020;538800308869248710;611943;504572;658050;6150;
2024-05-13T13:14:58.038;538800308887420580;612044;504716;658178;6190;
2024-05-13T13:14:58.056;538800308905592450;612100;504782;658241;6109;
2024-05-13T13:14:58.075;538800308923764320;612129;504859;658377;6166;
2024-05-13T13:14:58.093;538800308941936190;612274;504905;658418;6155;
2024-05-13T13:14:58.111;538800308960108060;612377;504908;658525;6117;
2024-05-13T13:14:58.129;538800308978279930;612335;504948;658465;6120;
2024-05-13T13:14:58.147;538800308996451800;612371;505016;658545;6150;
2024-05-13T13:14:58.166;538800309014623670;612333;505040;658671;6139;
2024-05-13T13:14:58.184;538800309032795540;612482;505195;658704;6047;
2024-05-13T13:14:58.202;538800309050967410;612608;505212;658750;6194;
2024-05-13T13:14:58.220;538800309069139280;612814;505316;658989;6221;
2024-05-13T13:14:58.238;538800309087311150;612932;505440;659141;6169;
2024-05-13T13:14:58.256;538800309105483020;613081;505550;659218;6153;
2024-05-13T13:14:58.275;538800309123654890;613244;505622;659324;6205;
2024-05-13T13:14:58.293;538800309141826185;613363;505780;659444;6211;
2024-05-13T13:14:58.311;538800309159997474;613641;505915;659569;6168;
2024-05-13T13:14:58.329;538800309178168763;613729;506125;659790;6167;
2024-05-13T13:14:58.347;538800309196340052;613944;506238;660004;6238;
2024-05-13T13:14:58.365;538800309214511341;614097;506340;660201;6206;
2024-05-13T13:14:58.384;538800309232682630;614245;506424;660255;6183;
2024-05-13T13:14:58.402;538800309250853919;614423;506623;660498;6219;
2024-05-13T13:14:58.420;538800309269025208;614660;506783;660729;6231;
2024-05-13T13:14:58.438;538800309287196497;614780;506882;660831;6218;
2024-05-13T13:14:58.456;538800309305367786;614929;507121;660998;6237;
2024-05-13T13:14:58.474;538800309323539075;615129;507223;661065;6248;
2024-05-13T13:14:58.493;538800309341710364;615334;507308;661242;6222;
2024-05-13T13:14:58.511;538800309359881653;615485;507426;661439;6225;
2024-05-13T13:14:58.529;538800309378052942;615735;507616;661633;6254;
2024-05-13T13:14:58.547;538800309396224231;615866;507751;661752;6201;
2024-05-13T13:14:58.565;538800309414395520;615856;507849;661850;6203;
2024-05-13T13:14:58.583;538800309432566809;615740;507720;661759;6159;
2024-05-13T13:14:58.602;538800309450738098;615560;507709;661604;6234;
2024-05-13T13:14:58.620;538800309468909387;615305;507525;661304;6146;
2024-05-13T13:14:58.638;538800309487080676;615128;507405;661140;6208;
2024-05-13T13:14:58.656;538800309505251965;614953;507249;660978;6149;
2024-05-13T13:14:58.674;538800309523423254;614886;507177;660916;6212;
2024-05-13T13:14:58.692;538800309541594543;614737;507106;660851;6203;
2024-05-13T13:14:58.711;538800309559765832;614716;507060;660773;6210;
2024-05-13T13:14:58.729;538800309577937121;614771;507081;660791;6235;
2024-05-13T13:14:58.747;538800309596108410;614769;507124;660788;6242;
2024-05-13T13:14:58.765;538800309614279699;614796;507038;660804;6202;
2024-05-13T13:14:58.783;538800309632450988;614910;507161;660885;6234;
2024-05-13T13:14:58.801;538800309650622277;615082;507167;660999;6221;
2024-05-13T13:14:58.820;538800309668793566;615062;507221;661128;6188;
2024-05-13T13:14:58.838;538800309686964855;615137;507341;661114;6204;
2024-05-13T13:14:58.856;538800309705136144;615176;507364;661210;6208;
2024-05-13T13:14:58.874;538800309723307433;615198;507373;661181;6225;
2024-05-13T13:14:58.892;538800309741478722;615158;507417;661209;6215;
2024-05-13T13:14:58.911;538800309759650011;615201;507397;661254;6251;
2024-05-13T13:14:58.929;538800309777821300;615193;507394;661267;6179;
2024-05-13T13:14:58.947;538800309795992589;615278;507402;661215;6167;
2024-05-13T13:14:58.965;538800309814163878;615355;507486;661310;6215;
2024-05-13T13:14:58.983;538800309832335167;615422;507580;661298;6245;
2024-05-13T13:14:59.001;538800309850506456;615420;507628;661403;6206;
2024-05-13T13:14:59.020;538800309868677745;615510;507706;661456;6199;
2024-05-13T13:14:59.038;538800309886849034;615609;507764;661569;6185;
2024-05-13T13:14:59.056;538800309905020763;615707;507826;661663;6152;
2024-05-13T13:14:59.074;538800309923192488;615820;507909;661664;6147;
2024-05-13T13:14:59.092;538800309941364213;615992;508040;661859;6191;
2024-05-13T13:14:59.110;538800309959535938;616134;508135;661988;6196;
2024-05-13T13:14:59.129;538800309977707663;616280;508229;662145;6157;
2024-05-13T13:14:59.147;538800309995879388;616400;508382;662266;6212;
2024-05-13T13:14:59.165;538800310014051113;616504;508475;662339;6236;
2024-05-13T13:14:59.183;538800310032222838;616604;508592;662502;6196;
2024-05-13T13:14:59.201;538800310050394563;616828;508708;662626;6132;
2024-05-13T13:14:59.219;538800310068566288;616947;508841;662730;6238;
2024-05-13T13:14:59.238;538800310086738013;617140;508899;662869;6140;
2024-05-13T13:14:59.256;538800310104909738;617201;509103;663061;6160;
2024-05-13T13:14:59.274;538800310123081463;617443;509151;663152;6150;
2024-05-13T13:14:59.292;538800310141253188;617493;509241;663262;6142;
2024-05-13T13:14:59.310;538800310159424913;617680;509338;663397;6103;
2024-05-13T13:14:59.328;538800310177596638;617752;509426;663480;6140;
2024-05-13T13:14:59.347;538800310195768363;617750;509483;663533;6097;
2024-05-13T13:14:59.365;538800310213940088;617467;509413;663298;6113;
2024-05-13T13:14:59.383;538800310232111813;617267;509292;663197;6174;
2024-05-13T13:14:59.401;538800310250283538;617031;509060;662898;6112;
2024-05-13T13:14:59.419;538800310268455263;616749;508869;662605;6103;
2024-05-13T13:14:59.438;538800310286626988;616532;508808;662425;6097;
2024-05-13T13:14:59.456;538800310304798713;616340;508687;662217;6011;
2024-05-13T13:14:59.474;538800310322970438;616286;508636;662246;6072;
2024-05-13T13:14:59.492;538800310341142163;616200;508570;662199;6030;
2024-05-13T13:14:59.510;538800310359313888;616170;508499;662096;6095;
2024-05-13T13:14:59.528;538800310377485613;616157;508492;662112;6042;
2024-05-13T13:14:59.547;538800310395657338;616187;508513;662163;6054;
2024-05-13T13:14:59.565;538800310413829063;616248;508525;662155;6001;
2024-05-13T13:14:59.583;538800310432000788;616309;508533;662136;5950;
2024-05-13T13:14:59.601;538800310450172513;616390;508633;662247;6012;
2024-05-13T13:14:59.619;538800310468344238;616401;508704;662283;5989;
2024-05-13T13:14:59.637;538800310486515963;616352;508660;662337;6000;
2024-05-13T13:14:59.656;538800310504687688;616320;508690;662268;6009;
2024-05-13T13:14:59.674;538800310522859413;616315;508639;662183;5967;
2024-05-13T13:14:59.692;538800310541031138;616353;508688;662239;6006;
2024-05-13T13:14:59.710;538800310559202863;616319;508678;662223;5998;
2024-05-13T13:14:59.728;538800310577374588;616314;508652;662193;5997;
2024-05-13T13:14:59.746;538800310595546313;616261;508654;662248;5986;
2024-05-13T13:14:59.765;538800310613718038;616291;508648;662198;6050;
2024-05-13T13:14:59.783;538800310631889763;616361;508689;662224;5971;
2024-05-13T13:14:59.801;538800310650061488;616371;508733;662304;5948;
2024-05-13T13:14:59.819;538800310668230925;616417;508728;662340;5948;
2024-05-13T13:14:59.837;538800310686400324;616515;508902;662366;5998;
2024-05-13T13:14:59.855;538800310704569723;616568;508987;662460;5968;
2024-05-13T13:14:59.874;538800310722739122;616684;508993;662548;5954;
2024-05-13T13:14:59.892;538800310740908521;616823;509069;662508;5939;
2024-05-13T13:14:59.910;538800310759077920;616880;509187;662613;5924;
2024-05-13T13:14:59.928;538800310777247319;617015;509292;662736;5971;
2024-05-13T13:14:59.946;538800310795416718;617126;509347;662873;5913;
2024-05-13T13:14:59.964;538800310813586117;617253;509441;663008;5920;
2024-05-13T13:14:59.983;538800310831755516;617421;509535;663092;5920;
2024-05-13T13:15:00.001;538800310849924915;617510;509671;663266;6006;
2024-05-13T13:15:00.019;538800310868094314;617603;509761;663308;5956;
2024-05-13T13:15:00.037;538800310886263713;617768;509871;663401;5962;
2024-05-13T13:15:00.055;538800310904433112;617820;509926;663516;5943;
2024-05-13T13:15:00.073;538800310922602511;617956;509954;663614;5896;
2024-05-13T13:15:00.092;538800310940771910;618068;510153;663710;5960;
2024-05-13T13:15:00.110;538800310958941309;618222;510264;663822;5927;
2024-05-13T13:15:00.128;538800310977110708;618085;510234;663736;5957;
2024-05-13T13:15:00.146;538800310995280107;617764;510096;663596;5968;
2024-05-13T13:15:00.164;538800311013449506;617521;509903;663412;5946;
2024-05-13T13:15:00.182;538800311031618905;617156;509695;663137;5905;
2024-05-13T13:15:00.201;538800311049788304;616847;509522;662839;5964;
2024-05-13T13:15:00.219;538800311067957703;616626;509277;662556;5914;
2024-05-13T13:15:00.237;538800311086127102;616436;509196;662369;5886;
2024-05-13T13:15:00.255;538800311104296501;616335;509188;662289;5944;
2024-05-13T13:15:00.273;538800311122465900;616227;509042;662214;5911;
2024-05-13T13:15:00.292;538800311140635299;616212;509006;662107;5873;
2024-05-13T13:15:00.310;538800311158804698;616149;508952;662040;5891;
2024-05-13T13:15:00.328;538800311176974097;616193;508975;662070;5900;
2024-05-13T13:15:00.346;538800311195143496;616241;508958;662067;5867;
2024-05-13T13:15:00.364;538800311213312895;616267;509088;662055;5961;
2024-05-13T13:15:00.382;538800311231482294;616225;509070;662139;5929;
2024-05-13T13:15:00.401;538800311249651693;616203;509017;662062;5891;
2024-05-13T13:15:00.419;538800311267821092;616213;509064;662107;5852;
2024-05-13T13:15:00.437;538800311285990491;616150;509060;661994;5935;
2024-05-13T13:15:00.455;538800311304159890;616105;509027;661968;5949;
2024-05-13T13:15:00.473;538800311322329289;616056;508999;661877;5913;
2024-05-13T13:15:00.491;538800311340498688;616047;508997;661905;5937;
2024-05-13T13:15:00.510;538800311358668087;615968;509079;661827;5946;
2024-05-13T13:15:00.528;538800311376837486;616097;509121;661845;5990;
2024-05-13T13:15:00.546;538800311395006885;616058;509132;661744;5972;
2024-05-13T13:15:00.564;538800311413176284;616094;509156;661805;5930;
2024-05-13T13:15:00.582;538800311431346275;616242;509183;661821;5931;
2024-05-13T13:15:00.600;538800311449516256;616264;509167;661852;5924;
2024-05-13T13:15:00.619;538800311467686237;616293;509268;661888;5939;
2024-05-13T13:15:00.637;538800311485856218;616329;509340;661980;5966;
2024-05-13T13:15:00.655;538800311504026199;616437;509386;661923;5993;
2024-05-13T13:15:00.673;538800311522196180;616496;509428;661950;6019;
2024-05-13T13:15:00.691;538800311540366161;616522;509472;661946;5946;
2024-05-13T13:15:00.709;538800311558536142;616664;509522;662065;5939;
2024-05-13T13:15:00.728;538800311576706123;616780;509611;662176;5984;
2024-05-13T13:15:00.746;538800311594876104;616885;509695;662294;6021;
2024-05-13T13:15:00.764;538800311613046085;616906;509820;662354;6049;
2024-05-13T13:15:00.782;538800311631216066;617011;509885;662396;6003;
2024-05-13T13:15:00.800;538800311649386047;617046;509882;662419;6032;
2024-05-13T13:15:00.818;538800311667556028;617184;509967;662503;6032;
2024-05-13T13:15:00.837;538800311685726009;617268;510009;662645;6058;
2024-05-13T13:15:00.855;538800311703895990;617336;510138;662719;6097;
2024-05-13T13:15:00.873;538800311722065971;617444;510219;662727;6071;
2024-05-13T13:15:00.891;538800311740235952;617430;510234;662661;6069;
2024-05-13T13:15:00.909;538800311758405933;617189;510104;662543;6062;
2024-05-13T13:15:00.927;538800311776575914;616916;509951;662311;6015;
2024-05-13T13:15:00.946;538800311794745895;616563;509734;662048;6006;
2024-05-13T13:15:00.964;538800311812915876;616161;509404;661599;6027;
2024-05-13T13:15:00.982;538800311831085857;615781;509240;661294;6030;
2024-05-13T13:15:01.000;538800311849255838;615543;509004;661011;6072;
2024-05-13T13:15:01.018;538800311867425819;615295;508837;660839;6059;
2024-05-13T13:15:01.036;538800311885595800;615172;508753;660668;6050;
2024-05-13T13:15:01.055;538800311903765781;614973;508607;660568;6078;
2024-05-13T13:15:01.073;538800311921935762;614918;508555;660452;6093;
2024-05-13T13:15:01.091;538800311940105743;614887;508595;660372;6115;
2024-05-13T13:15:01.109;538800311958275724;614893;508623;660395;6151;
2024-05-13T13:15:01.127;538800311976445705;614854;508513;660390;6070;
2024-05-13T13:15:01.145;538800311994615686;614899;508558;660306;6099;
2024-05-13T13:15:01.164;538800312012785667;614843;508469;660277;6098;
2024-05-13T13:15:01.182;538800312030955648;614789;508493;660208;6053;
2024-05-13T13:15:01.200;538800312049125629;614685;508425;660173;6036;
2024-05-13T13:15:01.218;538800312067295610;614519;508384;660024;6036;
2024-05-13T13:15:01.236;538800312085465591;614428;508294;659921;6094;
2024-05-13T13:15:01.255;538800312103635572;614322;508237;659797;6129;
2024-05-13T13:15:01.273;538800312121805553;614185;508132;659715;6126;
2024-05-13T13:15:01.291;538800312139975534;614126;508040;659632;6159;
2024-05-13T13:15:01.309;538800312158145515;614093;508062;659561;6155;
2024-05-13T13:15:01.327;538800312176315496;614020;507984;659460;6121;
2024-05-13T13:15:01.345;538800312194485487;613947;508028;659485;6070;
2024-05-13T13:15:01.364;538800312212655442;613869;507972;659446;6072;
2024-05-13T13:15:01.382;538800312230825397;613872;507986;659422;6080;
2024-05-13T13:15:01.400;538800312248995352;613929;508038;659405;6111;
2024-05-13T13:15:01.418;538800312267165307;613953;507997;659479;6135;
2024-05-13T13:15:01.436;538800312285335262;613971;508073;659545;6144;
2024-05-13T13:15:01.454;538800312303505217;614002;508035;659585;6147;
2024-05-13T13:15:01.473;538800312321675172;614069;508099;659593;6103;
2024-05-13T13:15:01.491;538800312339845127;614157;508127;659617;6134;
2024-05-13T13:15:01.509;538800312358015082;614224;508155;659663;6089;
2024-05-13T13:15:01.527;538800312376185037;614192;508201;659657;6071;
2024-05-13T13:15:01.545;538800312394354992;614321;508241;659729;6093;
2024-05-13T13:15:01.563;538800312412524947;614399;508370;659814;6116;
2024-05-13T13:15:01.582;538800312430694902;614415;508384;659774;6125;
2024-05-13T13:15:01.600;538800312448864857;614527;508447;659931;6143;
2024-05-13T13:15:01.618;538800312467034812;614525;508493;659947;6072;
2024-05-13T13:15:01.636;538800312485204767;614473;508476;659817;6088;
2024-05-13T13:15:01.654;538800312503374722;614240;508401;659710;6110;
2024-05-13T13:15:01.672;538800312521544677;613825;508153;659467;6082;
2024-05-13T13:15:01.691;538800312539714632;613401;507919;659133;6116;
2024-05-13T13:15:01.709;538800312557884587;613062;507601;658623;6145;
2024-05-13T13:15:01.727;538800312576054542;612577;507363;658309;6114;
2024-05-13T13:15:01.745;538800312594224497;612248;507124;657919;6122;
2024-05-13T13:15:01.763;538800312612394452;611942;506869;657720;6116;
2024-05-13T13:15:01.781;538800312630564407;611720;506825;657510;6134;
2024-05-13T13:15:01.800;538800312648734362;611562;506683;657339;6130;
2024-05-13T13:15:01.818;538800312666904317;611494;506616;657130;6098;
2024-05-13T13:15:01.836;538800312685074272;611388;506483;657118;6086;
2024-05-13T13:15:01.854;538800312703244227;611363;506470;657080;6155;
2024-05-13T13:15:01.872;538800312721414182;611215;506439;657010;6095;
2024-05-13T13:15:01.890;538800312739584137;611253;506472;656991;6146;
2024-05-13T13:15:01.909;538800312757754092;611227;506429;656889;6127;
2024-05-13T13:15:01.927;538800312775924047;611091;506235;656721;6049;
2024-05-13T13:15:01.945;538800312794094002;610900;506265;656672;6067;
2024-05-13T13:15:01.963;538800312812263957;610721;506162;656481;6113;
2024-05-13T13:15:01.981;538800312830433912;610535;505984;656201;6084;
2024-05-13T13:15:01.999;538800312848603867;610377;505933;656121;6111;
2024-05-13T13:15:02.018;538800312866773822;610159;505831;655937;6057;
2024-05-13T13:15:02.036;538800312884943777;610125;505785;655862;6134;
2024-05-13T13:15:02.054;538800312903113732;610033;505691;655776;6067;
2024-05-13T13:15:02.072;538800312921283687;609950;505564;655674;6069;
2024-05-13T13:15:02.090;538800312939453642;609884;505466;655627;6071;
2024-05-13T13:15:02.109;538800312957623597;609832;505544;655516;6057;
2024-05-13T13:15:02.127;538800312975793401;609791;505460;655482;6104;
2024-05-13T13:15:02.145;538800312993963175;609780;505428;655413;6016;
2024-05-13T13:15:02.163;538800313012132949;609839;505440;655425;6045;
2024-05-13T13:15:02.181;538800313030302723;609827;505438;655388;6032;
2024-05-13T13:15:02.199;538800313048472497;609749;505463;655366;6050;
2024-05-13T13:15:02.218;538800313066642271;609735;505433;655334;6029;
2024-05-13T13:15:02.236;538800313084812045;609832;505435;655286;6057;
2024-05-13T13:15:02.254;538800313102981819;609791;505472;655397;6044;
2024-05-13T13:15:02.272;538800313121151593;609828;505466;655387;6051;
2024-05-13T13:15:02.290;538800313139321367;609878;505510;655453;6020;
2024-05-13T13:15:02.308;538800313157491141;609763;505486;655306;6050;
2024-05-13T13:15:02.327;538800313175660915;609687;505464;655271;6016;
2024-05-13T13:15:02.345;538800313193830689;609355;505276;655015;6000;
2024-05-13T13:15:02.363;538800313212000463;608838;505003;654589;6012;
2024-05-13T13:15:02.381;538800313230170237;608235;504660;654082;6002;
2024-05-13T13:15:02.399;538800313248340011;607699;504340;653658;6067;
2024-05-13T13:15:02.417;538800313266509785;607181;503965;653091;5994;
2024-05-13T13:15:02.436;538800313284679559;606759;503568;652621;5951;
2024-05-13T13:15:02.454;538800313302849333;606352;503304;652169;5960;
2024-05-13T13:15:02.472;538800313321019107;606049;503073;651939;5968;
2024-05-13T13:15:02.490;538800313339188881;605788;502926;651574;5951;
2024-05-13T13:15:02.508;538800313357358655;605565;502707;651370;5971;
2024-05-13T13:15:02.526;538800313375528429;605379;502631;651021;5992;
2024-05-13T13:15:02.545;538800313393698203;605215;502638;650909;5959;
2024-05-13T13:15:02.563;538800313411867977;605112;502415;650714;6001;
2024-05-13T13:15:02.581;538800313430037751;604969;502390;650611;5945;
2024-05-13T13:15:02.599;538800313448207525;604816;502268;650403;5959;
2024-05-13T13:15:02.617;538800313466377299;604645;502062;650185;5940;
2024-05-13T13:15:02.635;538800313484547073;604370;501918;649901;5853;
2024-05-13T13:15:02.654;538800313502716847;604134;501785;649692;5914;
2024-05-13T13:15:02.672;538800313520886621;603897;501503;649452;5900;
2024-05-13T13:15:02.690;538800313539056395;603657;501400;649205;5912;
2024-05-13T13:15:02.708;538800313557226169;603362;501273;649019;5892;
2024-05-13T13:15:02.726;538800313575395943;603264;501159;648824;5910;
2024-05-13T13:15:02.744;538800313593565717;603049;501014;648635;5901;
2024-05-13T13:15:02.763;538800313611735491;602927;500886;648395;5897;
2024-05-13T13:15:02.781;538800313629905265;602774;500806;648287;5900;
2024-05-13T13:15:02.799;538800313648075039;602671;500810;648173;5897;
2024-05-13T13:15:02.817;538800313666245462;602626;500738;648044;5843;
2024-05-13T13:15:02.835;538800313684415879;602560;500676;647994;5918;
2024-05-13T13:15:02.853;538800313702586296;602452;500603;647885;5872;
2024-05-13T13:15:02.872;538800313720756713;602456;500559;647880;5889;
2024-05-13T13:15:02.890;538800313738927130;602403;500501;647794;5909;
2024-05-13T13:15:02.908;538800313757097547;602382;500464;647745;5904;
2024-05-13T13:15:02.926;538800313775267964;602381;500475;647625;5899;
2024-05-13T13:15:02.944;538800313793438381;602340;500461;647653;5865;
2024-05-13T13:15:02.962;538800313811608798;602366;500434;647644;5875;
2024-05-13T13:15:02.981;538800313829779215;602331;500446;647617;5878;
2024-05-13T13:15:02.999;538800313847949632;602116;500348;647436;5872;
2024-05-13T13:15:03.017;538800313866120049;601647;500007;647053;5820;
2024-05-13T13:15:03.035;538800313884290466;601157;499718;646512;5871;
2024-05-13T13:15:03.053;538800313902460883;600419;499287;645924;5913;
2024-05-13T13:15:03.072;538800313920631300;599750;498850;645272;5827;
2024-05-13T13:15:03.090;538800313938801717;599071;498358;644580;5903;
2024-05-13T13:15:03.108;538800313956972134;598469;498091;644068;5861;
2024-05-13T13:15:03.126;538800313975142551;597950;497697;643571;5848;
2024-05-13T13:15:03.144;538800313993312968;597582;497348;643223;5889;
2024-05-13T13:15:03.162;538800314011483385;597216;497070;642772;5823;
2024-05-13T13:15:03.181;538800314029653802;596836;496844;642417;5799;
2024-05-13T13:15:03.199;538800314047824219;596550;496645;642065;5845;
2024-05-13T13:15:03.217;538800314065994636;596356;496539;641885;5833;
2024-05-13T13:15:03.235;538800314084165053;596144;496326;641589;5810;
2024-05-13T13:15:03.253;538800314102335470;595896;496169;641403;5912;
2024-05-13T13:15:03.271;538800314120505887;595666;495946;641110;5829;
2024-05-13T13:15:03.290;538800314138676304;595385;495762;640895;5871;
2024-05-13T13:15:03.308;538800314156846721;595145;495499;640587;5848;
2024-05-13T13:15:03.326;538800314175017138;594805;495339;640302;5871;
2024-05-13T13:15:03.344;538800314193187555;594437;495078;639987;5862;
2024-05-13T13:15:03.362;538800314211357972;594191;494842;639618;5823;
2024-05-13T13:15:03.380;538800314229528389;593936;494627;639341;5845;
2024-05-13T13:15:03.399;538800314247698806;593627;494464;639064;5875;
2024-05-13T13:15:03.417;538800314265869223;593394;494268;638883;5900;
2024-05-13T13:15:03.435;538800314284039640;593175;494138;638672;5856;
2024-05-13T13:15:03.453;538800314302210057;593039;494023;638481;5904;
2024-05-13T13:15:03.471;538800314320380474;592902;493834;638271;5864;
2024-05-13T13:15:03.489;538800314338550891;592782;493862;638195;5911;
2024-05-13T13:15:03.508;538800314356719640;592696;493717;638009;5912;
2024-05-13T13:15:03.526;538800314374888356;592609;493601;637907;5951;
2024-05-13T13:15:03.544;538800314393057072;592495;493554;637749;5901;
2024-05-13T13:15:03.562;538800314411225788;592372;493425;637645;5937;
2024-05-13T13:15:03.580;538800314429394504;592210;493357;637493;5843;
2024-05-13T13:15:03.598;538800314447563220;592227;493244;637459;5899;
2024-05-13T13:15:03.617;538800314465731936;592161;493182;637354;5883;
2024-05-13T13:15:03.635;538800314483900652;592096;493141;637322;5862;
2024-05-13T13:15:03.653;538800314502069368;591992;493052;637218;5856;
2024-05-13T13:15:03.671;538800314520238084;591701;492957;636947;5945;
2024-05-13T13:15:03.689;538800314538406800;591184;492704;636586;5907;
2024-05-13T13:15:03.707;538800314556575516;590495;492213;635916;5893;
2024-05-13T13:15:03.726;538800314574744232;589814;491714;635290;5880;
2024-05-13T13:15:03.744;538800314592912948;589000;491137;634492;5816;
2024-05-13T13:15:03.762;538800314611081664;588367;490650;633779;5823;
2024-05-13T13:15:03.780;538800314629250380;587729;490247;633189;5918;
2024-05-13T13:15:03.798;538800314647419096;587175;489845;632626;5879;
2024-05-13T13:15:03.816;538800314665587812;586647;489464;632105;5810;
2024-05-13T13:15:03.835;538800314683756528;586140;489092;631655;5781;
2024-05-13T13:15:03.853;538800314701925244;585749;488809;631237;5832;
2024-05-13T13:15:03.871;538800314720093960;585452;488578;630913;5870;
2024-05-13T13:15:03.889;538800314738262676;585233;488290;630574;5873;
2024-05-13T13:15:03.907;538800314756431392;584924;488118;630295;5918;
2024-05-13T13:15:03.925;538800314774600108;584626;487873;629965;5924;
2024-05-13T13:15:03.944;538800314792768824;584310;487647;629701;5901;
2024-05-13T13:15:03.962;538800314810937540;583940;487398;629369;5894;
2024-05-13T13:15:03.980;538800314829106256;583562;487107;628983;5912;
2024-05-13T13:15:03.998;538800314847274972;583221;486821;628630;5867;
2024-05-13T13:15:04.016;538800314865443688;582841;486552;628236;5894;
2024-05-13T13:15:04.034;538800314883612404;582539;486384;627868;5897;
2024-05-13T13:15:04.053;538800314901781120;582185;486061;627564;5861;
2024-05-13T13:15:04.071;538800314919949836;581968;485832;627265;5951;
2024-05-13T13:15:04.089;538800314938118552;581654;485626;626946;5922;
2024-05-13T13:15:04.107;538800314956287268;581405;485407;626710;5942;
2024-05-13T13:15:04.125;538800314974455984;581232;485291;626555;5967;
2024-05-13T13:15:04.144;538800314992623365;581068;485084;626306;5904;
2024-05-13T13:15:04.162;538800315010790730;580934;484934;626097;5918;
2024-05-13T13:15:04.180;538800315028958095;580744;484866;626027;5925;
2024-05-13T13:15:04.198;538800315047125460;580676;484742;625857;5889;
2024-05-13T13:15:04.216;538800315065292825;580608;484673;625678;5892;
2024-05-13T13:15:04.234;538800315083460190;580469;484553;625587;5918;
2024-05-13T13:15:04.253;538800315101627555;580368;484377;625528;5896;
2024-05-13T13:15:04.271;538800315119794920;580303;484351;625474;5860;
2024-05-13T13:15:04.289;538800315137962285;580250;484258;625353;5921;
2024-05-13T13:15:04.307;538800315156129650;580143;484201;625211;5963;
2024-05-13T13:15:04.325;538800315174297015;580156;484145;625181;5932;
2024-05-13T13:15:04.343;538800315192464380;579818;483941;624951;5916;
2024-05-13T13:15:04.362;538800315210631745;579234;483647;624493;5901;
2024-05-13T13:15:04.380;538800315228799110;578602;483152;623878;5937;
2024-05-13T13:15:04.398;538800315246966475;577804;482626;623082;5916;
2024-05-13T13:15:04.416;538800315265133840;576986;481996;622286;5915;
2024-05-13T13:15:04.434;538800315283301205;576238;481421;621641;5942;
2024-05-13T13:15:04.452;538800315301468570;575563;480961;620932;5942;
2024-05-13T13:15:04.471;538800315319635935;574985;480497;620426;5920;
2024-05-13T13:15:04.489;538800315337803300;574490;480136;619901;5967;
2024-05-13T13:15:04.507;538800315355970665;574018;479753;619390;5892;
2024-05-13T13:15:04.525;538800315374138030;573643;479458;619038;5865;
2024-05-13T13:15:04.543;538800315392305395;573374;479141;618709;5883;
2024-05-13T13:15:04.561;538800315410472760;573108;478989;618451;5861;
2024-05-13T13:15:04.580;538800315428640125;572897;478706;618201;5915;
2024-05-13T13:15:04.598;538800315446807490;572618;478504;617877;5886;
2024-05-13T13:15:04.616;538800315464974855;572287;478263;617561;5908;
2024-05-13T13:15:04.634;538800315483142220;572008;478093;617281;5922;
2024-05-13T13:15:04.652;538800315501309585;571657;477777;616913;5873;
2024-05-13T13:15:04.670;538800315519476950;571325;477404;616524;5867;
2024-05-13T13:15:04.689;538800315537644315;570928;477154;616229;5865;
2024-05-13T13:15:04.707;538800315555811680;570609;476960;615923;5889;
2024-05-13T13:15:04.725;538800315573979045;570348;476675;615603;5814;
2024-05-13T13:15:04.743;538800315592146410;570121;476360;615256;5808;
2024-05-13T13:15:04.761;538800315610313775;569847;476221;615078;5839;
2024-05-13T13:15:04.779;538800315628481140;569728;475971;614973;5890;
2024-05-13T13:15:04.798;538800315646650797;569557;475840;614635;5842;
2024-05-13T13:15:04.816;538800315664820431;569435;475729;614474;5844;
2024-05-13T13:15:04.834;538800315682990065;569327;475640;614348;5855;
2024-05-13T13:15:04.852;538800315701159699;569263;475562;614341;5850;
2024-05-13T13:15:04.870;538800315719329333;569192;475405;614193;5857;
2024-05-13T13:15:04.888;538800315737498967;569138;475307;614090;5863;
2024-05-13T13:15:04.907;538800315755668601;569008;475233;613968;5828;
2024-05-13T13:15:04.925;538800315773838235;569002;475272;614013;5890;
2024-05-13T13:15:04.943;538800315792007869;569018;475129;613990;5874;
2024-05-13T13:15:04.961;538800315810177503;569007;475202;613939;5883;
2024-05-13T13:15:04.979;538800315828347137;568933;475074;613887;5908;
2024-05-13T13:15:04.997;538800315846516771;568782;474958;613755;5878;
2024-05-13T13:15:05.016;538800315864686405;568327;474671;613297;5873;
2024-05-13T13:15:05.034;538800315882856039;567695;474233;612706;5912;
2024-05-13T13:15:05.052;538800315901025673;566869;473695;611997;5933;
2024-05-13T13:15:05.070;538800315919195307;566126;473092;611253;5872;
2024-05-13T13:15:05.088;538800315937364941;565469;472573;610647;5895;
2024-05-13T13:15:05.106;538800315955534575;564930;472070;609985;5899;
2024-05-13T13:15:05.125;538800315973704209;564433;471673;609567;5921;
2024-05-13T13:15:05.143;538800315991873843;563984;471337;609158;5915;
2024-05-13T13:15:05.161;538800316010043477;563630;471044;608770;5852;
2024-05-13T13:15:05.179;538800316028213111;563254;470672;608435;5845;
2024-05-13T13:15:05.197;538800316046382745;563109;470518;608175;5867;
2024-05-13T13:15:05.215;538800316064552379;562978;470366;608041;5881;
2024-05-13T13:15:05.234;538800316082722013;562870;470196;607874;5908;
2024-05-13T13:15:05.252;538800316100891647;562701;470082;607720;5951;
2024-05-13T13:15:05.270;538800316119061281;562435;469889;607410;5886;
2024-05-13T13:15:05.288;538800316137230915;562241;469709;607208;5888;
2024-05-13T13:15:05.306;538800316155400549;561944;469379;606900;5895;
2024-05-13T13:15:05.324;538800316173570183;561753;469178;606612;5906;
2024-05-13T13:15:05.343;538800316191739817;561392;468936;606466;5923;
2024-05-13T13:15:05.361;538800316209909451;561161;468741;606164;5950;
2024-05-13T13:15:05.379;538800316228079085;560999;468582;605947;5961;
2024-05-13T13:15:05.397;538800316246248719;560845;468465;605811;5937;
2024-05-13T13:15:05.415;538800316264418353;560730;468367;605665;5932;
2024-05-13T13:15:05.433;538800316282587987;560724;468255;605569;5954;
2024-05-13T13:15:05.452;538800316300757621;560702;468165;605456;5957;
2024-05-13T13:15:05.470;538800316318927255;560648;468086;605403;5951;
2024-05-13T13:15:05.488;538800316337096889;560569;468013;605388;5877;
2024-05-13T13:15:05.506;538800316355265118;560622;468019;605462;5954;
2024-05-13T13:15:05.524;538800316373433344;560590;467968;605434;5872;
2024-05-13T13:15:05.542;538800316391601570;560665;467999;605492;5903;
2024-05-13T13:15:05.561;538800316409769796;560699;468094;605602;5967;
2024-05-13T13:15:05.579;538800316427938022;560722;468021;605639;5939;
2024-05-13T13:15:05.597;538800316446106248;560798;468050;605818;5922;
2024-05-13T13:15:05.615;538800316464274474;560729;468060;605797;5909;
2024-05-13T13:15:05.633;538800316482442700;560790;468087;605982;5857;
2024-05-13T13:15:05.651;538800316500610926;560863;468099;606113;5830;
2024-05-13T13:15:05.670;538800316518779152;560989;468152;606206;5784;
2024-05-13T13:15:05.688;538800316536947378;561079;468247;606420;5794;
2024-05-13T13:15:05.706;538800316555115604;560994;468340;606492;5756;
2024-05-13T13:15:05.724;538800316573283830;560733;468230;606304;5722;
2024-05-13T13:15:05.742;538800316591452056;560240;467978;606022;5691;
2024-05-13T13:15:05.760;538800316609620282;559735;467759;605609;5577;
2024-05-13T13:15:05.779;538800316627788508;559271;467552;605279;5594;
2024-05-13T13:15:05.797;538800316645956734;558933;467336;604885;5497;
2024-05-13T13:15:05.815;538800316664124960;558558;467196;604661;5440;
2024-05-13T13:15:05.833;538800316682293186;558406;467117;604473;5437;
2024-05-13T13:15:05.851;538800316700461412;558363;467201;604411;5433;
2024-05-13T13:15:05.870;538800316718629638;558264;467222;604431;5452;
2024-05-13T13:15:05.888;538800316736797864;558309;467318;604471;5378;
2024-05-13T13:15:05.906;538800316754966090;558451;467442;604566;5386;
2024-05-13T13:15:05.924;538800316773134316;558619;467603;604724;5379;
2024-05-13T13:15:05.942;538800316791302542;558738;467762;604950;5346;
2024-05-13T13:15:05.960;538800316809470768;558978;468020;605172;5442;
2024-05-13T13:15:05.979;538800316827638994;559160;468166;605250;5413;
2024-05-13T13:15:05.997;538800316845807220;559366;468385;605338;5507;
2024-05-13T13:15:06.015;538800316863975446;559519;468650;605487;5550;
2024-05-13T13:15:06.033;538800316882143672;559575;468706;605505;5567;
2024-05-13T13:15:06.051;538800316900311898;559742;468935;605705;5657;
2024-05-13T13:15:06.069;538800316918480124;559995;469005;605784;5657;
2024-05-13T13:15:06.088;538800316936648350;560223;469203;605921;5741;
2024-05-13T13:15:06.106;538800316954816576;560435;469431;606089;5799;
2024-05-13T13:15:06.124;538800316972984802;560753;469651;606298;5855;
2024-05-13T13:15:06.142;538800316991153028;561169;469935;606515;5891;
2024-05-13T13:15:06.160;538800317009321254;561473;470103;606688;5915;
2024-05-13T13:15:06.178;538800317027489480;561787;470390;606919;5950;
2024-05-13T13:15:06.197;538800317045657706;562187;470645;607190;6030;
2024-05-13T13:15:06.215;538800317063827806;562473;470740;607314;5960;
2024-05-13T13:15:06.233;538800317081997902;562992;471057;607632;6032;
2024-05-13T13:15:06.251;538800317100167998;563302;471297;607883;6040;
2024-05-13T13:15:06.269;538800317118338094;563584;471421;608062;6033;
2024-05-13T13:15:06.287;538800317136508190;564010;471683;608343;6065;
2024-05-13T13:15:06.306;538800317154678286;564404;471902;608602;6143;
2024-05-13T13:15:06.324;538800317172848382;564741;472164;608867;6179;
2024-05-13T13:15:06.342;538800317191018478;565045;472348;609224;6186;
2024-05-13T13:15:06.360;538800317209188574;565470;472518;609424;6245;
2024-05-13T13:15:06.378;538800317227358670;565745;472827;609689;6317;
2024-05-13T13:15:06.396;538800317245528766;565992;472944;609965;6406;
2024-05-13T13:15:06.415;538800317263698862;566270;473035;610096;6374;
2024-05-13T13:15:06.433;538800317281868958;566630;473200;610291;6385;
2024-05-13T13:15:06.451;538800317300039054;566861;473450;610507;6394;
2024-05-13T13:15:06.469;538800317318209150;566959;473417;610610;6442;
2024-05-13T13:15:06.487;538800317336379246;566773;473334;610399;6416;
2024-05-13T13:15:06.505;538800317354549342;566455;473167;609998;6426;
2024-05-13T13:15:06.524;538800317372719438;566118;472943;609644;6460;
2024-05-13T13:15:06.542;538800317390889534;565704;472593;609088;6496;
2024-05-13T13:15:06.560;538800317409059630;565355;472282;608712;6507;
2024-05-13T13:15:06.578;538800317427229726;565096;472011;608350;6476;
2024-05-13T13:15:06.596;538800317445399822;564855;471836;608114;6488;
2024-05-13T13:15:06.614;538800317463569918;564804;471707;607926;6565;
2024-05-13T13:15:06.633;538800317481740014;564680;471570;607685;6510;
2024-05-13T13:15:06.651;538800317499910110;564658;471454;607619;6534;
2024-05-13T13:15:06.669;538800317518080206;564735;471448;607598;6505;
2024-05-13T13:15:06.687;538800317536250302;564780;471427;607483;6480;
2024-05-13T13:15:06.705;538800317554420398;564754;471385;607398;6441;
2024-05-13T13:15:06.723;538800317572590494;564799;471290;607333;6438;
2024-05-13T13:15:06.742;538800317590760590;564803;471239;607201;6403;
2024-05-13T13:15:06.760;538800317608930686;564751;471247;607117;6379;
2024-05-13T13:15:06.778;538800317627100782;564730;471201;607040;6353;
2024-05-13T13:15:06.796;538800317645270878;564697;471159;606928;6366;
2024-05-13T13:15:06.814;538800317663440974;564678;471008;606872;6365;
2024-05-13T13:15:06.832;538800317681611070;564569;471044;606783;6387;
2024-05-13T13:15:06.851;538800317699781166;564655;471004;606772;6345;
2024-05-13T13:15:06.869;538800317717951262;564605;471057;606844;6325;
2024-05-13T13:15:06.887;538800317736121358;564706;471047;606825;6369;
2024-05-13T13:15:06.905;538800317754290575;564789;471107;606869;6374;
2024-05-13T13:15:06.923;538800317772459756;564929;471189;606935;6347;
2024-05-13T13:15:06.942;538800317790628937;565123;471249;606961;6362;
2024-05-13T13:15:06.960;538800317808798118;565226;471330;607106;6354;
2024-05-13T13:15:06.978;538800317826967299;565453;471444;607283;6340;
2024-05-13T13:15:06.996;538800317845136480;565651;471612;607432;6304;
2024-05-13T13:15:07.014;538800317863305661;565796;471702;607520;6324;
2024-05-13T13:15:07.032;538800317881474842;566053;471922;607791;6340;
2024-05-13T13:15:07.051;538800317899644023;566220;472093;607962;6326;
2024-05-13T13:15:07.069;538800317917813204;566504;472187;608110;6390;
2024-05-13T13:15:07.087;538800317935982385;566606;472272;608276;6379;
2024-05-13T13:15:07.105;538800317954151566;566790;472334;608406;6369;
2024-05-13T13:15:07.123;538800317972320747;567013;472435;608507;6305;
2024-05-13T13:15:07.141;538800317990489928;567102;472472;608645;6167;
2024-05-13T13:15:07.160;538800318008659109;567346;472593;608783;6245;
2024-05-13T13:15:07.178;538800318026828290;567478;472770;608886;6232;
2024-05-13T13:15:07.196;538800318044997471;567637;472968;609090;6247;
2024-05-13T13:15:07.214;538800318063166652;567922;473141;609388;6186;
2024-05-13T13:15:07.232;538800318081335833;568119;473322;609630;6238;
2024-05-13T13:15:07.250;538800318099505014;568389;473460;609781;6231;
2024-05-13T13:15:07.269;538800318117674195;568598;473640;610016;6196;
2024-05-13T13:15:07.287;538800318135843376;568517;473613;609946;6193;
2024-05-13T13:15:07.305;538800318154012557;568270;473379;609731;6176;
2024-05-13T13:15:07.323;538800318172181738;568006;473282;609456;6251;
2024-05-13T13:15:07.341;538800318190350919;567627;472943;609017;6178;
2024-05-13T13:15:07.359;538800318208520100;567294;472635;608650;6179;
2024-05-13T13:15:07.378;538800318226689281;566984;472415;608420;6255;
2024-05-13T13:15:07.396;538800318244858462;566744;472241;608275;6272;
2024-05-13T13:15:07.414;538800318263027643;566590;472120;608183;6251;
2024-05-13T13:15:07.432;538800318281196824;566531;472092;608077;6303;
2024-05-13T13:15:07.450;538800318299366005;566517;471925;607953;6279;
2024-05-13T13:15:07.468;538800318317535186;566519;471863;607904;6242;
2024-05-13T13:15:07.487;538800318335704367;566647;471986;607925;6291;
2024-05-13T13:15:07.505;538800318353873548;566708;472012;607975;6267;
2024-05-13T13:15:07.523;538800318372042729;566778;472131;608209;6258;
2024-05-13T13:15:07.541;538800318390211910;566928;472320;608400;6320;
2024-05-13T13:15:07.559;538800318408381091;567010;472369;608368;6249;
2024-05-13T13:15:07.577;538800318426550272;567070;472395;608427;6255;
2024-05-13T13:15:07.596;538800318444719453;567109;472369;608456;6306;
2024-05-13T13:15:07.614;538800318462888634;567127;472411;608358;6223;
2024-05-13T13:15:07.632;538800318481057815;567155;472465;608406;6266;
2024-05-13T13:15:07.650;538800318499226996;567231;472480;608551;6289;
2024-05-13T13:15:07.668;538800318517395905;567283;472465;608557;6272;
2024-05-13T13:15:07.686;538800318535564796;567467;472554;608627;6246;
2024-05-13T13:15:07.705;538800318553733687;567633;472616;608702;6205;
2024-05-13T13:15:07.723;538800318571902578;567795;472728;608764;6222;
2024-05-13T13:15:07.741;538800318590071469;567985;472825;608845;6106;
2024-05-13T13:15:07.759;538800318608240360;568176;472966;608966;6044;
2024-05-13T13:15:07.777;538800318626409251;568395;473133;609068;6045;
2024-05-13T13:15:07.795;538800318644578142;568637;473340;609321;6006;
2024-05-13T13:15:07.814;538800318662747033;568781;473445;609500;6007;
2024-05-13T13:15:07.832;538800318680915924;568871;473615;609657;6003;
2024-05-13T13:15:07.850;538800318699084815;568912;473750;609866;5860;
2024-05-13T13:15:07.868;538800318717253706;568971;473867;609971;5836;
2024-05-13T13:15:07.886;538800318735422597;569022;473889;610080;5724;
2024-05-13T13:15:07.904;538800318753591488;569051;473994;610220;5664;
2024-05-13T13:15:07.923;538800318771760379;569019;474002;610165;5486;
2024-05-13T13:15:07.941;538800318789929270;569018;474167;610376;5419;
2024-05-13T13:15:07.959;538800318808098161;568953;474314;610489;5289;
2024-05-13T13:15:07.977;538800318826267052;568996;474484;610578;5193;
2024-05-13T13:15:07.995;538800318844435943;569106;474515;610737;5101;
2024-05-13T13:15:08.013;538800318862604834;569198;474735;610969;5046;
2024-05-13T13:15:08.032;538800318880773725;569422;474914;611253;5039;
2024-05-13T13:15:08.050;538800318898942616;569667;475141;611493;5096;
2024-05-13T13:15:08.068;538800318917111507;569863;475457;611849;5088;
2024-05-13T13:15:08.086;538800318935280398;570093;475776;612232;5118;
2024-05-13T13:15:08.104;538800318953449289;570392;476098;612616;5183;
2024-05-13T13:15:08.122;538800318971618180;570580;476265;612875;5127;
2024-05-13T13:15:08.141;538800318989787071;570512;476344;612904;5096;
2024-05-13T13:15:08.159;538800319007955962;570342;476249;612834;5123;
2024-05-13T13:15:08.177;538800319026124853;570063;476147;612768;5101;
2024-05-13T13:15:08.195;538800319044293744;569803;475987;612602;5101;
2024-05-13T13:15:08.213;538800319062462635;569665;475893;612504;5060;
2024-05-13T13:15:08.232;538800319080631526;569533;475847;612430;5113;
2024-05-13T13:15:08.250;538800319098800417;569407;475804;612458;5088;
2024-05-13T13:15:08.268;538800319116969308;569301;475741;612488;5178;
2024-05-13T13:15:08.286;538800319135138199;569373;475757;612587;5224;
2024-05-13T13:15:08.304;538800319153307090;569412;475867;612809;5206;
2024-05-13T13:15:08.322;538800319171475981;569560;475899;612946;5263;
2024-05-13T13:15:08.341;538800319189644872;569706;476074;613158;5332;
2024-05-13T13:15:08.359;538800319207813763;569817;476136;613406;5265;
2024-05-13T13:15:08.377;538800319225982654;569941;476235;613577;5232;
2024-05-13T13:15:08.395;538800319244151545;570079;476286;613834;5277;
2024-05-13T13:15:08.413;538800319262320436;570067;476377;614005;5347;
2024-05-13T13:15:08.431;538800319280488528;570076;476352;614122;5270;
2024-05-13T13:15:08.450;538800319298656620;570121;476398;614285;5312;
2024-05-13T13:15:08.468;538800319316824712;570109;476375;614311;5280;
2024-05-13T13:15:08.486;538800319334992804;570197;476357;614461;5260;
2024-05-13T13:15:08.504;538800319353160896;570374;476438;614677;5284;
2024-05-13T13:15:08.522;538800319371328988;570391;476511;614786;5307;
2024-05-13T13:15:08.540;538800319389497080;570535;476573;614944;5357;
2024-05-13T13:15:08.559;538800319407665172;570638;476661;615081;5385;
2024-05-13T13:15:08.577;538800319425833264;570798;476752;615383;5391;
2024-05-13T13:15:08.595;538800319444001356;570872;476798;615572;5405;
2024-05-13T13:15:08.613;538800319462169448;571002;476843;615788;5452;
2024-05-13T13:15:08.631;538800319480337540;571197;476940;616016;5500;
2024-05-13T13:15:08.649;538800319498505632;571385;476963;616227;5466;
2024-05-13T13:15:08.668;538800319516673724;571539;477046;616441;5415;
2024-05-13T13:15:08.686;538800319534841816;571802;477092;616486;5352;
2024-05-13T13:15:08.704;538800319553009908;571979;477187;616621;5392;
2024-05-13T13:15:08.722;538800319571178000;572254;477319;616806;5344;
2024-05-13T13:15:08.740;538800319589346092;572489;477408;616972;5350;
2024-05-13T13:15:08.758;538800319607514184;572666;477601;617259;5397;
2024-05-13T13:15:08.777;538800319625682276;572850;477758;617558;5401;
2024-05-13T13:15:08.795;538800319643850368;573093;477916;617845;5434;
2024-05-13T13:15:08.813;538800319662018460;573331;478065;618110;5449;
2024-05-13T13:15:08.831;538800319680186552;573611;478183;618377;5440;
2024-05-13T13:15:08.849;538800319698354644;573814;478337;618578;5462;
2024-05-13T13:15:08.867;538800319716522736;574022;478426;618827;5437;
2024-05-13T13:15:08.886;538800319734690828;574149;478468;619001;5425;
2024-05-13T13:15:08.904;538800319752858920;574352;478530;619134;5423;
2024-05-13T13:15:08.922;538800319771027012;574584;478661;619288;5384;
2024-05-13T13:15:08.940;538800319789195104;574792;478720;619581;5377;
2024-05-13T13:15:08.958;538800319807363196;575008;478852;619770;5370;
2024-05-13T13:15:08.976;538800319825531288;574965;478814;619824;5345;
2024-05-13T13:15:08.995;538800319843699380;574719;478624;619690;5378;
2024-05-13T13:15:09.013;538800319861867472;574434;478479;619540;5370;
2024-05-13T13:15:09.031;538800319880035564;574200;478322;619321;5370;
2024-05-13T13:15:09.049;538800319898203656;573939;478075;619141;5410;
2024-05-13T13:15:09.067;538800319916371748;573813;477880;618939;5412;
2024-05-13T13:15:09.085;538800319934539840;573651;477722;618789;5420;
2024-05-13T13:15:09.104;538800319952707932;573625;477616;618792;5415;
2024-05-13T13:15:09.122;538800319970876024;573642;477591;618782;5483;
2024-05-13T13:15:09.140;538800319989044116;573712;477554;618755;5468;
2024-05-13T13:15:09.158;538800320007212208;573792;477558;618769;5452;
2024-05-13T13:15:09.176;538800320025380300;573822;477541;618819;5480;
2024-05-13T13:15:09.194;538800320043548274;574050;477626;619061;5543;
2024-05-13T13:15:09.213;538800320061716220;574180;477693;619138;5480;
2024-05-13T13:15:09.231;538800320079884166;574208;477732;619312;5492;
2024-05-13T13:15:09.249;538800320098052112;574304;477827;619424;5532;
2024-05-13T13:15:09.267;538800320116220058;574335;477778;619480;5572;
2024-05-13T13:15:09.285;538800320134388004;574437;477776;619550;5576;
2024-05-13T13:15:09.303;538800320152555950;574448;477712;619532;5616;
2024-05-13T13:15:09.322;538800320170723896;574469;477726;619625;5568;
2024-05-13T13:15:09.340;538800320188891842;574556;477728;619644;5596;
2024-05-13T13:15:09.358;538800320207059788;574570;477754;619732;5584;
2024-05-13T13:15:09.376;538800320225227734;574651;477799;619816;5582;
2024-05-13T13:15:09.394;538800320243395680;574740;477840;619920;5525;
2024-05-13T13:15:09.412;538800320261563626;574948;477956;620120;5542;
2024-05-13T13:15:09.431;538800320279731572;575156;478035;620243;5585;
2024-05-13T13:15:09.449;538800320297899518;575246;478126;620364;5557;
2024-05-13T13:15:09.467;538800320316067464;575364;478232;620490;5592;
2024-05-13T13:15:09.485;538800320334235410;575587;478381;620786;5514;
2024-05-13T13:15:09.503;538800320352403356;575810;478556;621051;5555;
2024-05-13T13:15:09.521;538800320370571302;575993;478711;621252;5534;
2024-05-13T13:15:09.540;538800320388739248;576318;478895;621531;5568;
2024-05-13T13:15:09.558;538800320406907194;576524;479014;621765;5570;
2024-05-13T13:15:09.576;538800320425075140;576772;479211;621954;5552;
2024-05-13T13:15:09.594;538800320443243086;577022;479406;622242;5528;
2024-05-13T13:15:09.612;538800320461411032;577259;479562;622437;5526;
2024-05-13T13:15:09.630;538800320479578978;577519;479715;622707;5528;
2024-05-13T13:15:09.649;538800320497746924;577801;479897;622905;5528;
2024-05-13T13:15:09.667;538800320515914870;578104;480062;623180;5513;
2024-05-13T13:15:09.685;538800320534082816;578261;480244;623424;5519;
2024-05-13T13:15:09.703;538800320552250762;578535;480458;623705;5566;
2024-05-13T13:15:09.721;538800320570418708;578760;480638;623960;5560;
2024-05-13T13:15:09.739;538800320588586654;579030;480792;624252;5589;
2024-05-13T13:15:09.758;538800320606754600;579120;480853;624336;5533;
2024-05-13T13:15:09.776;538800320624922546;578996;480843;624362;5548;
2024-05-13T13:15:09.794;538800320643090492;578862;480733;624161;5538;
2024-05-13T13:15:09.812;538800320661258438;578590;480494;623981;5500;
2024-05-13T13:15:09.830;538800320679426384;578364;480339;623776;5484;
2024-05-13T13:15:09.848;538800320697594330;578158;480195;623589;5523;
2024-05-13T13:15:09.867;538800320715762276;578060;480014;623436;5484;
2024-05-13T13:15:09.885;538800320733930222;578026;480009;623431;5542;
2024-05-13T13:15:09.903;538800320752098168;577970;479899;623465;5559;
2024-05-13T13:15:09.921;538800320770266114;578014;479941;623467;5539;
2024-05-13T13:15:09.939;538800320788434060;578089;479971;623536;5552;
2024-05-13T13:15:09.957;538800320806601818;578210;480058;623681;5515;
2024-05-13T13:15:09.976;538800320824769546;578343;480143;623834;5549;
2024-05-13T13:15:09.994;538800320842937274;578566;480179;623950;5591;
2024-05-13T13:15:10.012;538800320861105002;578657;480358;624074;5549;
2024-05-13T13:15:10.030;538800320879272730;578818;480384;624233;5509;
2024-05-13T13:15:10.048;538800320897440458;578869;480471;624385;5526;
2024-05-13T13:15:10.066;538800320915608186;578918;480504;624428;5517;
2024-05-13T13:15:10.085;538800320933775914;578945;480517;624455;5538;
2024-05-13T13:15:10.103;538800320951943642;578959;480510;624535;5540;
2024-05-13T13:15:10.121;538800320970111370;579119;480579;624636;5591;
2024-05-13T13:15:10.139;538800320988279098;579095;480602;624684;5572;
2024-05-13T13:15:10.157;538800321006446826;579290;480718;624719;5600;
2024-05-13T13:15:10.175;538800321024614554;579375;480828;624933;5575;
2024-05-13T13:15:10.194;538800321042782282;579482;480824;624938;5570;
2024-05-13T13:15:10.212;538800321060950010;579686;480962;625132;5640;
2024-05-13T13:15:10.230;538800321079117738;579838;481035;625313;5635;
2024-05-13T13:15:10.248;538800321097285466;580019;481140;625423;5566;
2024-05-13T13:15:10.266;538800321115453194;580231;481301;625616;5600;
2024-05-13T13:15:10.284;538800321133620922;580415;481413;625823;5558;
2024-05-13T13:15:10.303;538800321151788650;580596;481501;626047;5562;
2024-05-13T13:15:10.321;538800321169956378;580737;481685;626180;5506;
2024-05-13T13:15:10.339;538800321188124106;581007;481833;626398;5620;
2024-05-13T13:15:10.357;538800321206291834;581144;481968;626605;5539;
2024-05-13T13:15:10.375;538800321224459562;581425;482178;626850;5572;
2024-05-13T13:15:10.394;538800321242627290;581607;482305;626998;5564;
2024-05-13T13:15:10.412;538800321260795018;581725;482442;627155;5566;
2024-05-13T13:15:10.430;538800321278962746;581956;482617;627410;5531;
2024-05-13T13:15:10.448;538800321297130474;582193;482742;627632;5573;
2024-05-13T13:15:10.466;538800321315298202;582386;482905;627853;5541;
2024-05-13T13:15:10.484;538800321333465930;582660;483086;628077;5537;
2024-05-13T13:15:10.503;538800321351633658;582727;483099;628128;5524;
2024-05-13T13:15:10.521;538800321369801386;582573;483002;628079;5553;
2024-05-13T13:15:10.539;538800321387969114;582323;482913;627780;5555;
2024-05-13T13:15:10.557;538800321406136842;581987;482653;627559;5506;
2024-05-13T13:15:10.575;538800321424304570;581598;482366;627191;5507;
2024-05-13T13:15:10.593;538800321442472298;581273;482157;627004;5482;
2024-05-13T13:15:10.612;538800321460640026;581093;481940;626800;5485;
2024-05-13T13:15:10.630;538800321478807754;581046;481808;626669;5489;
2024-05-13T13:15:10.648;538800321496975482;580989;481687;626583;5501;
2024-05-13T13:15:10.666;538800321515143210;580945;481636;626514;5467;
2024-05-13T13:15:10.684;538800321533310938;580970;481640;626498;5469;
2024-05-13T13:15:10.702;538800321551478666;581000;481648;626487;5471;
2024-05-13T13:15:10.721;538800321569646858;581017;481680;626589;5479;
2024-05-13T13:15:10.739;538800321587815022;581133;481663;626608;5546;
2024-05-13T13:15:10.757;538800321605983186;581207;481787;626691;5483;
2024-05-13T13:15:10.775;538800321624151350;581232;481860;626713;5478;
2024-05-13T13:15:10.793;538800321642319514;581286;481871;626849;5487;
2024-05-13T13:15:10.811;538800321660487678;581294;481735;626793;5541;
2024-05-13T13:15:10.830;538800321678655842;581226;481745;626770;5583;
2024-05-13T13:15:10.848;538800321696824006;581167;481760;626740;5479;
2024-05-13T13:15:10.866;538800321714992170;581138;481698;626661;5504;
2024-05-13T13:15:10.884;538800321733160334;581184;481790;626727;5495;
2024-05-13T13:15:10.902;538800321751328498;581270;481799;626723;5530;
2024-05-13T13:15:10.920;538800321769496662;581268;481730;626736;5536;
2024-05-13T13:15:10.939;538800321787664826;581292;481847;626831;5514;
2024-05-13T13:15:10.957;538800321805832990;581368;481860;626886;5516;
2024-05-13T13:15:10.975;538800321824001154;581451;481966;626936;5460;
2024-05-13T13:15:10.993;538800321842169318;581647;481998;627059;5509;
2024-05-13T13:15:11.011;538800321860337482;581770;482112;627222;5509;
2024-05-13T13:15:11.029;538800321878505646;581923;482206;627356;5489;
2024-05-13T13:15:11.048;538800321896673810;582048;482322;627482;5507;
2024-05-13T13:15:11.066;538800321914841974;582168;482380;627606;5465;
2024-05-13T13:15:11.084;538800321933010138;582339;482573;627786;5495;
2024-05-13T13:15:11.102;538800321951178302;582513;482673;627934;5502;
2024-05-13T13:15:11.120;538800321969346466;582679;482797;628105;5470;
2024-05-13T13:15:11.138;538800321987514630;582844;482975;628251;5466;
2024-05-13T13:15:11.157;538800322005682794;583025;483134;628463;5498;
2024-05-13T13:15:11.175;538800322023850958;583182;483275;628617;5523;
2024-05-13T13:15:11.193;538800322042019122;583398;483289;628836;5453;
2024-05-13T13:15:11.211;538800322060187286;583538;483439;628982;5463;
2024-05-13T13:15:11.229;538800322078355450;583782;483576;629154;5504;
2024-05-13T13:15:11.247;538800322096523614;583880;483723;629249;5428;
2024-05-13T13:15:11.266;538800322114691778;583709;483717;629202;5478;
2024-05-13T13:15:11.284;538800322132859942;583431;483546;629010;5511;
2024-05-13T13:15:11.302;538800322151028106;583153;483257;628668;5481;
2024-05-13T13:15:11.320;538800322169196270;582797;482977;628324;5502;
2024-05-13T13:15:11.338;538800322187364434;582465;482653;628031;5532;
2024-05-13T13:15:11.356;538800322205532598;582085;482449;627667;5460;
2024-05-13T13:15:11.375;538800322223700762;581844;482283;627508;5471;
2024-05-13T13:15:11.393;538800322241868926;581714;482145;627342;5446;
2024-05-13T13:15:11.411;538800322260037090;581715;482096;627219;5449;
2024-05-13T13:15:11.429;538800322278205254;581589;482052;627156;5417;
2024-05-13T13:15:11.447;538800322296373418;581635;481967;627146;5450;
2024-05-13T13:15:11.465;538800322314541582;581575;481966;627096;5450;
2024-05-13T13:15:11.484;538800322332712325;581583;482013;627137;5393;
2024-05-13T13:15:11.502;538800322350883032;581636;482037;627164;5472;
2024-05-13T13:15:11.520;538800322369053739;581650;482071;627132;5445;
2024-05-13T13:15:11.538;538800322387224446;581624;482039;627091;5434;
2024-05-13T13:15:11.556;538800322405395153;581643;482097;627163;5435;
2024-05-13T13:15:11.574;538800322423565860;581568;481949;627089;5398;
2024-05-13T13:15:11.593;538800322441736567;581496;481891;626975;5440;
2024-05-13T13:15:11.611;538800322459907274;581388;481837;626840;5434;
2024-05-13T13:15:11.629;538800322478077981;581354;481833;626857;5445;
2024-05-13T13:15:11.647;538800322496248688;581351;481784;626813;5428;
2024-05-13T13:15:11.665;538800322514419395;581330;481785;626798;5485;
2024-05-13T13:15:11.683;538800322532590102;581385;481788;626816;5507;
2024-05-13T13:15:11.702;538800322550760809;581469;481768;626921;5446;
2024-05-13T13:15:11.720;538800322568931516;581465;481867;626944;5429;
2024-05-13T13:15:11.738;538800322587102223;581602;481913;626922;5466;
2024-05-13T13:15:11.756;538800322605272930;581716;481965;627059;5446;
2024-05-13T13:15:11.774;538800322623443637;581801;482114;627204;5456;
2024-05-13T13:15:11.792;538800322641614344;581970;482178;627278;5473;
2024-05-13T13:15:11.811;538800322659785051;582079;482269;627452;5462;
2024-05-13T13:15:11.829;538800322677955758;582172;482416;627505;5425;
2024-05-13T13:15:11.847;538800322696126465;582346;482515;627668;5477;
2024-05-13T13:15:11.865;538800322714297172;582494;482650;627785;5482;
2024-05-13T13:15:11.883;538800322732467879;582564;482686;627906;5489;
2024-05-13T13:15:11.902;538800322750638586;582671;482747;628022;5486;
2024-05-13T13:15:11.920;538800322768809293;582827;482855;628141;5485;
2024-05-13T13:15:11.938;538800322786980000;582911;482906;628275;5461;
2024-05-13T13:15:11.956;538800322805150707;583139;483104;628401;5502;
2024-05-13T13:15:11.974;538800322823321414;583239;483198;628556;5470;
2024-05-13T13:15:11.992;538800322841492121;583421;483367;628733;5505;
2024-05-13T13:15:12.011;538800322859662828;583533;483491;628798;5529;
2024-05-13T13:15:12.029;538800322877833535;583364;483374;628706;5492;
2024-05-13T13:15:12.047;538800322896004242;583101;483228;628458;5507;
2024-05-13T13:15:12.065;538800322914174949;582779;483022;628121;5468;
2024-05-13T13:15:12.083;538800322932345656;582346;482609;627771;5495;
2024-05-13T13:15:12.101;538800322950516363;581953;482335;627384;5496;
2024-05-13T13:15:12.120;538800322968687070;581567;482139;627037;5446;
2024-05-13T13:15:12.138;538800322986857777;581338;481824;626751;5437;
2024-05-13T13:15:12.156;538800323005028484;581091;481770;626544;5443;
2024-05-13T13:15:12.174;538800323023199191;580998;481675;626412;5418;
2024-05-13T13:15:12.192;538800323041369898;580907;481572;626342;5473;
2024-05-13T13:15:12.210;538800323059540605;580803;481467;626264;5471;
2024-05-13T13:15:12.229;538800323077711312;580742;481472;626267;5504;
2024-05-13T13:15:12.247;538800323095881737;580741;481467;626213;5489;
2024-05-13T13:15:12.265;538800323114052154;580782;481437;626198;5499;
2024-05-13T13:15:12.283;538800323132222571;580771;481371;626138;5478;
2024-05-13T13:15:12.301;538800323150392988;580660;481361;626135;5494;
2024-05-13T13:15:12.319;538800323168563405;580642;481304;626123;5520;
2024-05-13T13:15:12.338;538800323186733822;580580;481266;626068;5515;
2024-05-13T13:15:12.356;538800323204904239;580488;481189;625882;5584;
2024-05-13T13:15:12.374;538800323223074656;580326;481169;625792;5541;
2024-05-13T13:15:12.392;538800323241245073;580303;481115;625728;5596;
2024-05-13T13:15:12.410;538800323259415490;580212;481102;625664;5529;
2024-05-13T13:15:12.428;538800323277585907;580135;481046;625605;5517;
2024-05-13T13:15:12.447;538800323295756324;580153;481045;625614;5484;
2024-05-13T13:15:12.465;538800323313926741;580263;481053;625672;5541;
2024-05-13T13:15:12.483;538800323332097158;580224;481037;625643;5516;
2024-05-13T13:15:12.501;538800323350267575;580239;481108;625658;5470;
2024-05-13T13:15:12.519;538800323368437992;580385;481158;625771;5529;
2024-05-13T13:15:12.537;538800323386608409;580477;481237;625849;5525;
2024-05-13T13:15:12.556;538800323404778826;580605;481262;625886;5554;
2024-05-13T13:15:12.574;538800323422949243;580663;481393;625999;5491;
2024-05-13T13:15:12.592;538800323441119660;580741;481472;626092;5519;
2024-05-13T13:15:12.610;538800323459290077;580834;481529;626204;5524;
2024-05-13T13:15:12.628;538800323477460494;580990;481616;626314;5475;
2024-05-13T13:15:12.647;538800323495630911;581093;481752;626391;5517;
2024-05-13T13:15:12.665;538800323513801328;581184;481827;626560;5479;
2024-05-13T13:15:12.683;538800323531971745;581297;481990;626658;5500;
2024-05-13T13:15:12.701;538800323550142162;581393;481990;626701;5495;
2024-05-13T13:15:12.719;538800323568312579;581583;482057;626882;5524;
2024-05-13T13:15:12.737;538800323586482996;581784;482272;627029;5568;
2024-05-13T13:15:12.756;538800323604653413;581894;482365;627106;5553;
2024-05-13T13:15:12.774;538800323622823830;582015;482465;627307;5532;
2024-05-13T13:15:12.792;538800323640994247;582127;482539;627427;5506;
2024-05-13T13:15:12.810;538800323659164664;582046;482550;627412;5499;
2024-05-13T13:15:12.828;538800323677335081;581836;482533;627268;5531;
2024-05-13T13:15:12.846;538800323695505498;581553;482282;627001;5522;
2024-05-13T13:15:12.865;538800323713675915;581095;481959;626612;5504;
2024-05-13T13:15:12.883;538800323731846332;580620;481618;626131;5486;
2024-05-13T13:15:12.901;538800323750016749;580232;481364;625679;5568;
2024-05-13T13:15:12.919;538800323768187166;579870;481044;625433;5574;
2024-05-13T13:15:12.937;538800323786357583;579614;480876;625123;5529;
2024-05-13T13:15:12.955;538800323804528000;579401;480707;624934;5516;
2024-05-13T13:15:12.974;538800323822698417;579301;480600;624808;5521;
2024-05-13T13:15:12.992;538800323840868834;579178;480557;624700;5495;
2024-05-13T13:15:13.010;538800323859039705;579160;480474;624672;5582;
2024-05-13T13:15:13.028;538800323877210552;579115;480474;624652;5529;
2024-05-13T13:15:13.046;538800323895381399;579179;480402;624624;5494;
2024-05-13T13:15:13.064;538800323913552246;579128;480396;624586;5522;
2024-05-13T13:15:13.083;538800323931723093;579152;480353;624586;5560;
2024-05-13T13:15:13.101;538800323949893940;579006;480351;624489;5541;
2024-05-13T13:15:13.119;538800323968064787;578841;480182;624353;5537;
2024-05-13T13:15:13.137;538800323986235634;578693;480111;624107;5517;
2024-05-13T13:15:13.155;538800324004406481;578517;480022;624046;5517;
2024-05-13T13:15:13.173;538800324022577328;578450;479927;623939;5535;
2024-05-13T13:15:13.192;538800324040748175;578336;479873;623813;5492;
2024-05-13T13:15:13.210;538800324058919022;578345;479769;623711;5486;
2024-05-13T13:15:13.228;538800324077089869;578297;479742;623686;5539;
2024-05-13T13:15:13.246;538800324095260716;578272;479706;623617;5529;
2024-05-13T13:15:13.264;538800324113431563;578254;479713;623603;5507;
2024-05-13T13:15:13.282;538800324131602410;578325;479790;623651;5514;
2024-05-13T13:15:13.301;538800324149773257;578398;479815;623685;5523;
2024-05-13T13:15:13.319;538800324167944104;578444;479801;623724;5521;
2024-05-13T13:15:13.337;538800324186114951;578457;479886;623741;5474;
2024-05-13T13:15:13.355;538800324204285798;578518;479917;623763;5470;
2024-05-13T13:15:13.373;538800324222456645;578564;480003;623879;5480;
2024-05-13T13:15:13.392;538800324240627492;578658;480082;623926;5506;
2024-05-13T13:15:13.410;538800324258798339;578794;480092;623975;5452;
2024-05-13T13:15:13.428;538800324276969186;578889;480181;624100;5499;
2024-05-13T13:15:13.446;538800324295140033;579015;480281;624175;5525;
2024-05-13T13:15:13.464;538800324313310880;579092;480338;624242;5592;
2024-05-13T13:15:13.482;538800324331481727;579077;480395;624272;5522;
2024-05-13T13:15:13.501;538800324349652574;579263;480489;624382;5482;
2024-05-13T13:15:13.519;538800324367823421;579364;480589;624468;5445;
2024-05-13T13:15:13.537;538800324385994268;579455;480552;624608;5488;
2024-05-13T13:15:13.555;538800324404165115;579528;480653;624668;5473;
2024-05-13T13:15:13.573;538800324422335962;579622;480761;624766;5507;
2024-05-13T13:15:13.591;538800324440506809;579699;480790;624774;5565;
2024-05-13T13:15:13.610;538800324458677656;579348;480614;624492;5524;
2024-05-13T13:15:13.628;538800324476848503;578889;480348;624098;5529;
2024-05-13T13:15:13.646;538800324495019350;578346;479982;623574;5488;
2024-05-13T13:15:13.664;538800324513190197;577941;479633;623132;5507;
2024-05-13T13:15:13.682;538800324531361044;577489;479225;622698;5513;
2024-05-13T13:15:13.700;538800324549531891;577091;478966;622423;5555;
2024-05-13T13:15:13.719;538800324567703838;576718;478701;622040;5468;
2024-05-13T13:15:13.737;538800324585875781;576458;478509;621738;5440;
2024-05-13T13:15:13.755;538800324604047724;576349;478403;621519;5470;
2024-05-13T13:15:13.773;538800324622219667;576244;478349;621464;5479;
2024-05-13T13:15:13.791;538800324640391610;576265;478297;621382;5529;
2024-05-13T13:15:13.809;538800324658563553;576203;478227;621314;5471;
2024-05-13T13:15:13.828;538800324676735496;576228;478186;621281;5496;
2024-05-13T13:15:13.846;538800324694907439;576110;478054;621143;5477;
2024-05-13T13:15:13.864;538800324713079382;575989;477968;621007;5421;
2024-05-13T13:15:13.882;538800324731251325;575883;477893;620896;5439;
2024-05-13T13:15:13.900;538800324749423268;575768;477771;620763;5485;
2024-05-13T13:15:13.918;538800324767595211;575654;477696;620601;5495;
2024-05-13T13:15:13.937;538800324785767154;575396;477596;620393;5461;
2024-05-13T13:15:13.955;538800324803939097;575328;477498;620230;5474;
2024-05-13T13:15:13.973;538800324822111040;575123;477296;620087;5432;
2024-05-13T13:15:13.991;538800324840282983;575084;477259;619967;5404;
2024-05-13T13:15:14.009;538800324858454926;575013;477224;619891;5426;
2024-05-13T13:15:14.028;538800324876626869;574917;477158;619820;5430;
2024-05-13T13:15:14.046;538800324894798812;574926;477171;619796;5444;
2024-05-13T13:15:14.064;538800324912970755;574944;477135;619766;5402;
2024-05-13T13:15:14.082;538800324931142698;574946;477113;619779;5448;
2024-05-13T13:15:14.100;538800324949314641;574961;477204;619774;5500;
2024-05-13T13:15:14.118;538800324967486584;574976;477253;619798;5425;
2024-05-13T13:15:14.137;538800324985658527;575097;477256;619825;5425;
2024-05-13T13:15:14.155;538800325003830470;575153;477279;619801;5447;
2024-05-13T13:15:14.173;538800325022002413;575248;477338;619867;5465;
2024-05-13T13:15:14.191;538800325040174356;575293;477367;619959;5484;
2024-05-13T13:15:14.209;538800325058346299;575367;477382;619970;5453;
2024-05-13T13:15:14.227;538800325076518242;575449;477500;620097;5443;
2024-05-13T13:15:14.246;538800325094690185;575552;477550;620099;5447;
2024-05-13T13:15:14.264;538800325112862128;575677;477657;620151;5463;
2024-05-13T13:15:14.282;538800325131034071;575625;477608;620160;5422;
2024-05-13T13:15:14.300;538800325149206014;575745;477709;620280;5409;
2024-05-13T13:15:14.318;538800325167377957;575935;477789;620332;5412;
2024-05-13T13:15:14.336;538800325185549900;575942;477806;620398;5408;
2024-05-13T13:15:14.355;538800325203721843;575887;477835;620348;5387;
2024-05-13T13:15:14.373;538800325221893786;575525;477624;620060;5396;
2024-05-13T13:15:14.391;538800325240065729;575081;477365;619678;5404;
2024-05-13T13:15:14.409;538800325258237672;574583;477039;619136;5423;
2024-05-13T13:15:14.427;538800325276408941;573966;476623;618546;5387;
2024-05-13T13:15:14.445;538800325294580179;573409;476207;618005;5409;
2024-05-13T13:15:14.464;538800325312751417;572896;475781;617467;5405;
2024-05-13T13:15:14.482;538800325330922655;572547;475514;617055;5413;
2024-05-13T13:15:14.500;538800325349093893;572219;475275;616758;5386;
2024-05-13T13:15:14.518;538800325367265131;572049;475083;616453;5417;
2024-05-13T13:15:14.536;538800325385436369;571864;474876;616259;5446;
2024-05-13T13:15:14.554;538800325403607607;571644;474673;616000;5384;
2024-05-13T13:15:14.573;538800325421778845;571499;474600;615916;5429;
2024-05-13T13:15:14.591;538800325439950083;571496;474560;615788;5385;
2024-05-13T13:15:14.609;538800325458121321;571399;474506;615577;5381;
2024-05-13T13:15:14.627;538800325476292559;571238;474372;615481;5330;
2024-05-13T13:15:14.645;538800325494463797;571073;474233;615239;5353;
2024-05-13T13:15:14.664;538800325512635035;570959;474133;615130;5409;
2024-05-13T13:15:14.682;538800325530806273;570663;473920;614869;5384;
2024-05-13T13:15:14.700;538800325548977511;570461;473826;614631;5336;
2024-05-13T13:15:14.718;538800325567148749;570285;473633;614365;5318;
2024-05-13T13:15:14.736;538800325585319987;570180;473532;614255;5410;
2024-05-13T13:15:14.754;538800325603491225;570096;473433;614063;5416;
2024-05-13T13:15:14.773;538800325621662463;569956;473371;613932;5457;
2024-05-13T13:15:14.791;538800325639833701;569880;473279;613828;5432;
2024-05-13T13:15:14.809;538800325658004939;569844;473211;613713;5426;
2024-05-13T13:15:14.827;538800325676176177;569795;473191;613636;5381;
2024-05-13T13:15:14.845;538800325694347415;569798;473213;613623;5415;
2024-05-13T13:15:14.863;538800325712518653;569877;473265;613671;5403;
2024-05-13T13:15:14.882;538800325730689891;569851;473272;613677;5330;
2024-05-13T13:15:14.900;538800325748861129;569901;473258;613672;5379;
2024-05-13T13:15:14.918;538800325767032367;569948;473376;613705;5374;
2024-05-13T13:15:14.936;538800325785203605;570042;473385;613705;5409;
2024-05-13T13:15:14.954;538800325803374843;570121;473433;613696;5365;
2024-05-13T13:15:14.972;538800325821546081;570229;473471;613865;5386;
2024-05-13T13:15:14.991;538800325839717319;570243;473504;613789;5391;
2024-05-13T13:15:15.009;538800325857888557;570331;473613;613934;5374;
2024-05-13T13:15:15.027;538800325876059795;570414;473634;614019;5367;
2024-05-13T13:15:15.045;538800325894231033;570550;473695;614032;5400;
2024-05-13T13:15:15.063;538800325912402271;570667;473772;614122;5451;
2024-05-13T13:15:15.081;538800325930573509;570710;473837;614203;5410;
2024-05-13T13:15:15.100;538800325948744747;570806;473887;614219;5409;
2024-05-13T13:15:15.118;538800325966915985;570909;473965;614298;5404;
2024-05-13T13:15:15.136;538800325985086318;571001;474035;614313;5399;
2024-05-13T13:15:15.154;538800326003256617;570794;474022;614234;5418;
2024-05-13T13:15:15.172;538800326021426916;570341;473785;613889;5351;
2024-05-13T13:15:15.190;538800326039597215;569853;473429;613329;5337;
2024-05-13T13:15:15.209;538800326057767514;569287;473070;612808;5376;
2024-05-13T13:15:15.227;538800326075937813;568701;472599;612237;5344;
2024-05-13T13:15:15.245;538800326094108112;568078;472210;611613;5395;
2024-05-13T13:15:15.263;538800326112278411;567615;471852;611198;5380;
2024-05-13T13:15:15.281;538800326130448710;567324;471639;610822;5343;
2024-05-13T13:15:15.299;538800326148619009;567123;471398;610483;5360;
2024-05-13T13:15:15.318;538800326166789308;566881;471206;610223;5348;
2024-05-13T13:15:15.336;538800326184959607;566659;471037;609995;5380;
2024-05-13T13:15:15.354;538800326203129906;566540;470903;609893;5398;
2024-05-13T13:15:15.372;538800326221300205;566462;470840;609699;5363;
2024-05-13T13:15:15.390;538800326239470504;566389;470763;609517;5352;
2024-05-13T13:15:15.409;538800326257640803;566249;470697;609438;5401;
2024-05-13T13:15:15.427;538800326275811102;566066;470577;609289;5343;
2024-05-13T13:15:15.445;538800326293981401;565911;470510;609125;5384;
2024-05-13T13:15:15.463;538800326312151700;565820;470316;608873;5366;
2024-05-13T13:15:15.481;538800326330321999;565604;470168;608663;5346;
2024-05-13T13:15:15.499;538800326348492298;565384;469966;608461;5402;
2024-05-13T13:15:15.518;538800326366662597;565204;469854;608315;5362;
2024-05-13T13:15:15.536;538800326384832896;564956;469784;608141;5361;
2024-05-13T13:15:15.554;538800326403003195;564876;469618;607926;5361;
2024-05-13T13:15:15.572;538800326421173494;564772;469607;607775;5420;
2024-05-13T13:15:15.590;538800326439343793;564779;469583;607632;5382;
2024-05-13T13:15:15.608;538800326457514092;564789;469603;607589;5330;
2024-05-13T13:15:15.627;538800326475684391;564763;469538;607597;5351;
2024-05-13T13:15:15.645;538800326493854690;564720;469537;607622;5378;
2024-05-13T13:15:15.663;538800326512024989;564817;469529;607617;5378;
2024-05-13T13:15:15.681;538800326530195288;564876;469502;607701;5353;
2024-05-13T13:15:15.699;538800326548365587;565016;469535;607598;5363;
2024-05-13T13:15:15.717;538800326566535886;564992;469635;607724;5386;
2024-05-13T13:15:15.736;538800326584706185;564974;469692;607743;5392;
2024-05-13T13:15:15.754;538800326602876484;565155;469715;607676;5375;
2024-05-13T13:15:15.772;538800326621046783;565232;469788;607810;5409;
2024-05-13T13:15:15.790;538800326639217082;565374;469907;607893;5416;
2024-05-13T13:15:15.808;538800326657387381;565473;469966;607964;5353;
2024-05-13T13:15:15.826;538800326675557680;565611;470076;608096;5465;
2024-05-13T13:15:15.845;538800326693726959;565632;470140;608162;5415;
2024-05-13T13:15:15.863;538800326711896221;565690;470229;608261;5460;
2024-05-13T13:15:15.881;538800326730065483;565818;470291;608319;5363;
2024-05-13T13:15:15.899;538800326748234745;565976;470390;608411;5401;
2024-05-13T13:15:15.917;538800326766404007;566054;470448;608511;5368;
2024-05-13T13:15:15.935;538800326784573269;566258;470567;608631;5328;
2024-05-13T13:15:15.954;538800326802742531;566391;470690;608844;5360;
2024-05-13T13:15:15.972;538800326820911793;566519;470789;608956;5368;
2024-05-13T13:15:15.990;538800326839081055;566341;470773;608803;5405;
2024-05-13T13:15:16.008;538800326857250317;565950;470535;608457;5380;
2024-05-13T13:15:16.026;538800326875419579;565447;470233;608024;5454;
2024-05-13T13:15:16.044;538800326893588841;564885;469802;607502;5423;
2024-05-13T13:15:16.063;538800326911758103;564280;469376;606847;5287;
2024-05-13T13:15:16.081;538800326929927365;563651;469016;606238;5354;
2024-05-13T13:15:16.099;538800326948096627;563281;468714;605771;5380;
2024-05-13T13:15:16.117;538800326966265889;563030;468512;605538;5337;
2024-05-13T13:15:16.135;538800326984435151;562789;468253;605226;5368;
2024-05-13T13:15:16.153;538800327002604413;562657;468086;605053;5375;
2024-05-13T13:15:16.172;538800327020773675;562517;468025;604927;5446;
2024-05-13T13:15:16.190;538800327038942937;562419;467861;604753;5370;
2024-05-13T13:15:16.208;538800327057112199;562314;467883;604616;5335;
2024-05-13T13:15:16.226;538800327075281461;562352;467803;604550;5357;
2024-05-13T13:15:16.244;538800327093450723;562188;467802;604492;5362;
2024-05-13T13:15:16.262;538800327111619985;562150;467735;604346;5361;
2024-05-13T13:15:16.281;538800327129789247;562005;467641;604269;5344;
2024-05-13T13:15:16.299;538800327147958509;561896;467464;604118;5376;
2024-05-13T13:15:16.317;538800327166127771;561736;467355;603886;5337;
2024-05-13T13:15:16.335;538800327184297033;561505;467252;603688;5411;
2024-05-13T13:15:16.353;538800327202466295;561390;467191;603604;5396;
2024-05-13T13:15:16.372;538800327220635557;561233;467057;603421;5377;
2024-05-13T13:15:16.390;538800327238804819;561134;466953;603353;5388;
2024-05-13T13:15:16.408;538800327256974081;561157;466922;603245;5378;
2024-05-13T13:15:16.426;538800327275143343;561169;466929;603240;5355;
2024-05-13T13:15:16.444;538800327293312605;561157;466937;603238;5399;
2024-05-13T13:15:16.462;538800327311481867;561151;466970;603229;5318;
2024-05-13T13:15:16.481;538800327329651129;561231;466974;603272;5359;
2024-05-13T13:15:16.499;538800327347820391;561262;467080;603258;5401;
2024-05-13T13:15:16.517;538800327365990816;561356;467108;603344;5374;
2024-05-13T13:15:16.535;538800327384161233;561445;467137;603375;5393;
2024-05-13T13:15:16.553;538800327402331650;561644;467227;603525;5376;
2024-05-13T13:15:16.571;538800327420502067;561741;467385;603692;5400;
2024-05-13T13:15:16.590;538800327438672484;561830;467385;603739;5345;
2024-05-13T13:15:16.608;538800327456842901;561891;467421;603783;5343;
2024-05-13T13:15:16.626;538800327475013318;562094;467617;603953;5381;
2024-05-13T13:15:16.644;538800327493183735;562219;467617;604020;5359;
2024-05-13T13:15:16.662;538800327511354152;562297;467770;604198;5395;
2024-05-13T13:15:16.680;538800327529524569;562375;467797;604337;5360;
2024-05-13T13:15:16.699;538800327547694986;562577;468022;604479;5391;
2024-05-13T13:15:16.717;538800327565865403;562662;468077;604564;5377;
2024-05-13T13:15:16.735;538800327584035820;562850;468161;604689;5383;
2024-05-13T13:15:16.753;538800327602206237;562981;468285;604818;5357;
2024-05-13T13:15:16.771;538800327620376654;563126;468392;605047;5425;
2024-05-13T13:15:16.789;538800327638547071;563352;468548;605158;5421;
2024-05-13T13:15:16.808;538800327656717488;563532;468617;605360;5422;
2024-05-13T13:15:16.826;538800327674887905;563302;468544;605220;5364;
2024-05-13T13:15:16.844;538800327693058322;562935;468408;604870;5400;
2024-05-13T13:15:16.862;538800327711228739;562494;468087;604385;5396;
2024-05-13T13:15:16.880;538800327729399156;561897;467661;603842;5374;
2024-05-13T13:15:16.898;538800327747569573;561363;467349;603259;5381;
2024-05-13T13:15:16.917;538800327765739990;560842;466894;602766;5392;
2024-05-13T13:15:16.935;538800327783910407;560524;466585;602401;5317;
2024-05-13T13:15:16.953;538800327802080824;560254;466361;602052;5376;
2024-05-13T13:15:16.971;538800327820251241;560013;466172;601799;5399;
2024-05-13T13:15:16.989;538800327838421658;559899;466103;601627;5352;
2024-05-13T13:15:17.007;538800327856592075;559765;466021;601523;5303;
2024-05-13T13:15:17.026;538800327874762492;559835;465985;601429;5352;
2024-05-13T13:15:17.044;538800327892932909;559937;465963;601505;5350;
2024-05-13T13:15:17.062;538800327911103326;559895;465942;601441;5338;
2024-05-13T13:15:17.080;538800327929273743;559899;465931;601423;5386;
2024-05-13T13:15:17.098;538800327947444160;559781;465894;601279;5431;
2024-05-13T13:15:17.116;538800327965614577;559630;465783;601202;5334;
2024-05-13T13:15:17.135;538800327983784994;559480;465638;601031;5392;
2024-05-13T13:15:17.153;538800328001956222;559276;465571;600798;5355;
2024-05-13T13:15:17.171;538800328020127442;559176;465433;600622;5352;
2024-05-13T13:15:17.189;538800328038298662;559056;465338;600432;5379;
2024-05-13T13:15:17.207;538800328056469882;558984;465205;600355;5355;
2024-05-13T13:15:17.226;538800328074641102;558807;465198;600229;5347;
2024-05-13T13:15:17.244;538800328092812322;558904;465165;600224;5364;
2024-05-13T13:15:17.262;538800328110983542;558882;465061;600125;5307;
2024-05-13T13:15:17.280;538800328129154762;558928;465109;600116;5333;
2024-05-13T13:15:17.298;538800328147325982;558989;465130;600161;5329;
2024-05-13T13:15:17.316;538800328165497202;559046;465206;600233;5333;
2024-05-13T13:15:17.335;538800328183668422;559136;465228;600310;5443;
2024-05-13T13:15:17.353;538800328201839642;559133;465302;600392;5376;
2024-05-13T13:15:17.371;538800328220010862;559333;465424;600508;5346;
2024-05-13T13:15:17.389;538800328238182082;559487;465495;600590;5383;
2024-05-13T13:15:17.407;538800328256353302;559542;465501;600660;5349;
2024-05-13T13:15:17.425;538800328274524522;559745;465627;600832;5369;
2024-05-13T13:15:17.444;538800328292695742;559821;465726;600954;5352;
2024-05-13T13:15:17.462;538800328310866962;559941;465815;600982;5319;
2024-05-13T13:15:17.480;538800328329038182;560036;465895;601112;5352;
2024-05-13T13:15:17.498;538800328347209402;560235;466037;601245;5347;
2024-05-13T13:15:17.516;538800328365380622;560356;466081;601287;5367;
2024-05-13T13:15:17.534;538800328383551842;560435;466194;601415;5378;
2024-05-13T13:15:17.553;538800328401723062;560569;466288;601524;5361;
2024-05-13T13:15:17.571;538800328419894282;560728;466403;601744;5309;
2024-05-13T13:15:17.589;538800328438065502;560891;466534;601896;5335;
2024-05-13T13:15:17.607;538800328456236722;561020;466599;601952;5317;
2024-05-13T13:15:17.625;538800328474407942;560766;466548;601758;5346;
2024-05-13T13:15:17.643;538800328492579162;560321;466310;601339;5348;
2024-05-13T13:15:17.662;538800328510750382;559826;465883;600764;5309;
2024-05-13T13:15:17.680;538800328528921602;559238;465381;600162;5330;
2024-05-13T13:15:17.698;538800328547092822;558558;464893;599552;5320;
2024-05-13T13:15:17.716;538800328565264042;558037;464499;598948;5253;
2024-05-13T13:15:17.734;538800328583435262;557628;464194;598499;5291;
2024-05-13T13:15:17.752;538800328601606482;557378;463948;598177;5294;
2024-05-13T13:15:17.771;538800328619777702;557177;463761;597881;5239;
2024-05-13T13:15:17.789;538800328637948922;556948;463571;597683;5307;
2024-05-13T13:15:17.807;538800328656120142;556814;463496;597526;5337;
2024-05-13T13:15:17.825;538800328674291362;556787;463395;597386;5252;
2024-05-13T13:15:17.843;538800328692461787;556741;463393;597330;5266;
2024-05-13T13:15:17.862;538800328710632204;556813;463408;597376;5313;
2024-05-13T13:15:17.880;538800328728802621;556673;463241;597153;5282;
2024-05-13T13:15:17.898;538800328746973038;556592;463200;597065;5272;
2024-05-13T13:15:17.916;538800328765143455;556432;463065;596931;5284;
2024-05-13T13:15:17.934;538800328783313872;556302;462965;596821;5315;
2024-05-13T13:15:17.952;538800328801484289;556122;462818;596568;5320;
2024-05-13T13:15:17.971;538800328819654706;555931;462679;596358;5312;
2024-05-13T13:15:17.989;538800328837825123;555733;462510;596168;5336;
2024-05-13T13:15:18.007;538800328855995540;555700;462452;596072;5331;
2024-05-13T13:15:18.025;538800328874165957;555543;462368;595907;5287;
2024-05-13T13:15:18.043;538800328892336374;555495;462304;595883;5310;
2024-05-13T13:15:18.061;538800328910506791;555493;462298;595814;5269;
2024-05-13T13:15:18.080;538800328928677208;555518;462339;595814;5256;
2024-05-13T13:15:18.098;538800328946847625;555562;462339;595827;5282;
2024-05-13T13:15:18.116;538800328965018042;555670;462404;595902;5289;
2024-05-13T13:15:18.134;538800328983188459;555720;462479;595934;5270;
2024-05-13T13:15:18.152;538800329001358876;555766;462498;595925;5310;
2024-05-13T13:15:18.170;538800329019529293;555922;462574;596110;5300;
2024-05-13T13:15:18.189;538800329037699710;556111;462726;596201;5346;
2024-05-13T13:15:18.207;538800329055870127;556208;462717;596267;5270;
2024-05-13T13:15:18.225;538800329074040544;556333;462821;596412;5295;
2024-05-13T13:15:18.243;538800329092210961;556453;462930;596513;5274;
2024-05-13T13:15:18.261;538800329110381378;556571;463080;596646;5295;
2024-05-13T13:15:18.279;538800329128551795;556686;463131;596755;5297;
2024-05-13T13:15:18.298;538800329146722212;556860;463172;596898;5295;
2024-05-13T13:15:18.316;538800329164892629;556974;463301;596988;5286;
2024-05-13T13:15:18.334;538800329183063046;557108;463429;597166;5343;
2024-05-13T13:15:18.352;538800329201233463;557266;463551;597258;5360;
2024-05-13T13:15:18.370;538800329219403880;557420;463680;597355;5345;
2024-05-13T13:15:18.388;538800329237574297;557551;463800;597517;5275;
2024-05-13T13:15:18.407;538800329255744714;557677;463878;597659;5318;
2024-05-13T13:15:18.425;538800329273915131;557501;463718;597444;5309;
2024-05-13T13:15:18.443;538800329292085548;557056;463541;597085;5280;
2024-05-13T13:15:18.461;538800329310255965;556497;463083;596582;5290;
2024-05-13T13:15:18.479;538800329328426382;555967;462650;595930;5260;
2024-05-13T13:15:18.497;538800329346596799;555431;462179;595315;5281;
2024-05-13T13:15:18.516;538800329364767216;554813;461788;594826;5234;
2024-05-13T13:15:18.534;538800329382937633;554448;461461;594347;5268;
2024-05-13T13:15:18.552;538800329401106757;554109;461167;593925;5291;
2024-05-13T13:15:18.570;538800329419275877;553919;461015;593699;5226;
2024-05-13T13:15:18.588;538800329437444997;553756;460818;593450;5245;
2024-05-13T13:15:18.606;538800329455614117;553676;460698;593322;5290;
2024-05-13T13:15:18.625;538800329473783237;553630;460679;593233;5230;
2024-05-13T13:15:18.643;538800329491952357;553566;460568;593201;5227;
2024-05-13T13:15:18.661;538800329510121477;553586;460539;593099;5241;
2024-05-13T13:15:18.679;538800329528290597;553456;460456;593078;5223;
2024-05-13T13:15:18.697;538800329546459717;553317;460461;593022;5283;
2024-05-13T13:15:18.716;538800329564628837;553221;460331;592823;5252;
2024-05-13T13:15:18.734;538800329582797957;553070;460232;592662;5231;
2024-05-13T13:15:18.752;538800329600967077;552915;460064;592468;5296;
2024-05-13T13:15:18.770;538800329619136197;552762;459958;592308;5241;
2024-05-13T13:15:18.788;538800329637305317;552604;459776;592146;5241;
2024-05-13T13:15:18.806;538800329655474437;552520;459614;592031;5219;
2024-05-13T13:15:18.825;538800329673643557;552491;459651;591969;5273;
2024-05-13T13:15:18.843;538800329691812677;552454;459587;591858;5265;
2024-05-13T13:15:18.861;538800329709981797;552477;459601;591842;5199;
2024-05-13T13:15:18.879;538800329728150917;552467;459606;591879;5222;
2024-05-13T13:15:18.897;538800329746320037;552563;459648;591905;5227;
2024-05-13T13:15:18.915;538800329764489157;552697;459708;592004;5228;
2024-05-13T13:15:18.934;538800329782658277;552733;459780;592079;5245;
2024-05-13T13:15:18.952;538800329800827397;552862;459819;592099;5228;
2024-05-13T13:15:18.970;538800329818996517;552962;459871;592260;5245;
2024-05-13T13:15:18.988;538800329837165637;553041;459957;592286;5121;
2024-05-13T13:15:19.006;538800329855334757;553235;460082;592512;5243;
2024-05-13T13:15:19.024;538800329873503877;553331;460169;592609;5233;
2024-05-13T13:15:19.043;538800329891672997;553479;460302;592865;5256;
2024-05-13T13:15:19.061;538800329909842117;553576;460387;592883;5180;
2024-05-13T13:15:19.079;538800329928011237;553720;460522;593053;5204;
2024-05-13T13:15:19.097;538800329946180357;553856;460657;593197;5269;
2024-05-13T13:15:19.115;538800329964349477;554037;460796;593397;5230;
2024-05-13T13:15:19.133;538800329982518597;554214;460843;593502;5263;
2024-05-13T13:15:19.152;538800330000687717;554316;460975;593660;5247;
2024-05-13T13:15:19.170;538800330018856837;554456;461102;593869;5191;
2024-05-13T13:15:19.188;538800330037025957;554739;461252;594103;5266;
2024-05-13T13:15:19.206;538800330055195077;554890;461442;594231;5205;
2024-05-13T13:15:19.224;538800330073364197;555069;461629;594396;5257;
2024-05-13T13:15:19.242;538800330091533317;554952;461596;594238;5267;
2024-05-13T13:15:19.261;538800330109702437;554609;461330;593936;5275;
2024-05-13T13:15:19.279;538800330127874056;554075;460939;593379;5281;
2024-05-13T13:15:19.297;538800330146045664;553553;460558;592930;5292;
2024-05-13T13:15:19.315;538800330164217272;553014;460126;592405;5269;
2024-05-13T13:15:19.333;538800330182388880;552592;459754;591916;5229;
2024-05-13T13:15:19.351;538800330200560488;552171;459481;591510;5259;
2024-05-13T13:15:19.370;538800330218732096;551886;459216;591237;5224;
2024-05-13T13:15:19.388;538800330236903704;551756;459071;591033;5232;
2024-05-13T13:15:19.406;538800330255075312;551687;458960;590926;5234;
2024-05-13T13:15:19.424;538800330273246920;551645;458892;590783;5222;
2024-05-13T13:15:19.442;538800330291418528;551613;458869;590752;5211;
2024-05-13T13:15:19.460;538800330309590136;551651;458834;590777;5267;
2024-05-13T13:15:19.479;538800330327761744;551713;458890;590833;5246;
2024-05-13T13:15:19.497;538800330345933352;551667;458846;590760;5195;
2024-05-13T13:15:19.515;538800330364104960;551700;458868;590793;5252;
2024-05-13T13:15:19.533;538800330382276568;551575;458816;590694;5240;
2024-05-13T13:15:19.551;538800330400448176;551411;458781;590589;5276;
2024-05-13T13:15:19.569;538800330418619784;551413;458663;590499;5258;
2024-05-13T13:15:19.588;538800330436791392;551296;458550;590439;5245;
2024-05-13T13:15:19.606;538800330454963000;551295;458527;590394;5287;
2024-05-13T13:15:19.624;538800330473134608;551243;458419;590351;5270;
2024-05-13T13:15:19.642;538800330491306216;551241;458425;590257;5279;
2024-05-13T13:15:19.660;538800330509477824;551311;458483;590314;5278;
2024-05-13T13:15:19.679;538800330527649432;551261;458439;590300;5273;
2024-05-13T13:15:19.697;538800330545821040;551317;458483;590381;5308;
2024-05-13T13:15:19.715;538800330563992648;551444;458521;590478;5358;
2024-05-13T13:15:19.733;538800330582164256;551625;458610;590577;5337;
2024-05-13T13:15:19.751;538800330600335864;551816;458715;590704;5325;
2024-05-13T13:15:19.769;538800330618507472;551896;458850;590852;5321;
2024-05-13T13:15:19.788;538800330636679080;551998;458961;591000;5326;
2024-05-13T13:15:19.806;538800330654850688;552184;459091;591188;5257;
2024-05-13T13:15:19.824;538800330673022296;552411;459276;591342;5258;
2024-05-13T13:15:19.842;538800330691193904;552608;459398;591599;5328;
2024-05-13T13:15:19.860;538800330709365512;552741;459521;591711;5321;
2024-05-13T13:15:19.878;538800330727537120;552890;459700;591956;5321;
2024-05-13T13:15:19.897;538800330745708728;553077;459753;592093;5306;
2024-05-13T13:15:19.915;538800330763880336;553337;459946;592331;5276;
2024-05-13T13:15:19.933;538800330782051944;553543;460076;592503;5307;
2024-05-13T13:15:19.951;538800330800223552;553681;460209;592725;5310;
2024-05-13T13:15:19.969;538800330818395160;553868;460436;592990;5329;
2024-05-13T13:15:19.987;538800330836566768;554091;460585;593221;5352;
2024-05-13T13:15:20.006;538800330854738376;554292;460766;593435;5338;
2024-05-13T13:15:20.024;538800330872909749;554572;460938;593673;5279;
2024-05-13T13:15:20.042;538800330891081098;554685;461038;593845;5276;
2024-05-13T13:15:20.060;538800330909252447;554587;460986;593733;5320;
2024-05-13T13:15:20.078;538800330927423796;554199;460710;593358;5298;
2024-05-13T13:15:20.096;538800330945595145;553758;460399;592924;5281;
2024-05-13T13:15:20.115;538800330963766494;553230;460015;592465;5345;
2024-05-13T13:15:20.133;538800330981937843;552658;459596;591906;5205;
2024-05-13T13:15:20.151;538800331000109192;552379;459323;591682;5253;
2024-05-13T13:15:20.169;538800331018280541;552095;459069;591307;5226;
2024-05-13T13:15:20.187;538800331036451890;551981;458990;591241;5206;
2024-05-13T13:15:20.206;538800331054623239;552096;458989;591204;5194;
2024-05-13T13:15:20.224;538800331072794588;552161;459022;591274;5235;
2024-05-13T13:15:20.242;538800331090965937;552428;459125;591471;5188;
2024-05-13T13:15:20.260;538800331109137286;552793;459395;591718;5178;
2024-05-13T13:15:20.278;538800331127308635;553152;459746;592087;5204;
2024-05-13T13:15:20.296;538800331145479984;553485;460065;592337;5177;
2024-05-13T13:15:20.315;538800331163651333;553855;460419;592721;5158;
2024-05-13T13:15:20.333;538800331181822682;554011;460650;592979;5021;
2024-05-13T13:15:20.351;538800331199994031;554179;460890;593093;4863;
2024-05-13T13:15:20.369;538800331218165380;554284;461012;593220;4761;
2024-05-13T13:15:20.387;538800331236336729;554384;461192;593302;4607;
2024-05-13T13:15:20.405;538800331254508078;554422;461337;593412;4370;
2024-05-13T13:15:20.424;538800331272679427;554558;461402;593590;4192;
2024-05-13T13:15:20.442;538800331290850776;554737;461517;593753;4007;
2024-05-13T13:15:20.460;538800331309022125;554897;461679;593946;3843;
2024-05-13T13:15:20.478;538800331327193474;555177;462048;594333;3763;
2024-05-13T13:15:20.496;538800331345364823;555426;462258;594629;3558;
2024-05-13T13:15:20.514;538800331363536172;555750;462480;594904;3366;
2024-05-13T13:15:20.533;538800331381707521;556018;462760;595203;3230;
2024-05-13T13:15:20.551;538800331399878870;556425;463119;595659;3116;
2024-05-13T13:15:20.569;538800331418050219;556926;463434;595981;2981;
