Phone timestamp;sensor timestamp [ns];channel 0;channel 1;channel 2;ambient
2024-05-14T12:07:49.313;538882681767207634;629627;502315;616730;172862;
2024-05-14T12:07:49.331;538882681785381175;629324;502164;616556;172850;
2024-05-14T12:07:49.349;538882681803554716;628853;501737;616196;172813;
2024-05-14T12:07:49.367;538882681821728257;628273;501323;615719;172885;
2024-05-14T12:07:49.385;538882681839901798;627841;500939;615303;172849;
2024-05-14T12:07:49.403;538882681858075339;627435;500570;614891;172865;
2024-05-14T12:07:49.422;538882681876248880;627137;500296;614608;172823;
2024-05-14T12:07:49.440;538882681894422421;626974;500113;614506;172795;
2024-05-14T12:07:49.458;538882681912595962;626916;500002;614512;172839;
2024-05-14T12:07:49.476;538882681930769503;626936;500094;614608;172861;
2024-05-14T12:07:49.494;538882681948943044;627089;500140;614711;172848;
2024-05-14T12:07:49.512;538882681967116585;627188;500329;614799;172848;
2024-05-14T12:07:49.531;538882681985290126;627442;500453;614991;172863;
2024-05-14T12:07:49.549;538882682003463667;627580;500540;615148;172834;
2024-05-14T12:07:49.567;538882682021637208;627706;500666;615225;172843;
2024-05-14T12:07:49.585;538882682039810749;627785;500718;615372;172868;
2024-05-14T12:07:49.603;538882682057984290;627827;500708;615402;172885;
2024-05-14T12:07:49.621;538882682076157831;627955;500781;615520;172878;
2024-05-14T12:07:49.640;538882682094331372;628038;500767;615580;172837;
2024-05-14T12:07:49.658;538882682112504913;628224;500886;615647;172862;
2024-05-14T12:07:49.676;538882682130678454;628394;501061;615722;172861;
2024-05-14T12:07:49.694;538882682148851995;628593;501259;615893;172822;
2024-05-14T12:07:49.712;538882682167025536;628832;501323;616080;172858;
2024-05-14T12:07:49.730;538882682185199077;629072;501535;616196;172871;
2024-05-14T12:07:49.749;538882682203372618;629344;501631;616443;172874;
2024-05-14T12:07:49.767;538882682221546159;629389;501661;616437;172828;
2024-05-14T12:07:49.785;538882682239719700;629159;501440;616175;172866;
2024-05-14T12:07:49.803;538882682257893241;628712;501146;615842;172851;
2024-05-14T12:07:49.821;538882682276066782;628226;500789;615432;172858;
2024-05-14T12:07:49.840;538882682294240323;627793;500400;614998;172833;
2024-05-14T12:07:49.858;538882682312413864;627372;500033;614634;172812;
2024-05-14T12:07:49.876;538882682330587405;627169;499785;614414;172923;
2024-05-14T12:07:49.894;538882682348760946;627053;499646;614268;172959;
2024-05-14T12:07:49.912;538882682366934487;627051;499581;614296;172900;
2024-05-14T12:07:49.930;538882682385108028;627096;499625;614284;172885;
2024-05-14T12:07:49.949;538882682403281569;627237;499679;614400;172916;
2024-05-14T12:07:49.967;538882682421455110;627376;499761;614576;172843;
2024-05-14T12:07:49.985;538882682439628677;627634;499916;614762;172857;
2024-05-14T12:07:50.003;538882682457802218;627761;500028;614837;172879;
2024-05-14T12:07:50.021;538882682475975759;627816;500146;614997;172852;
2024-05-14T12:07:50.039;538882682494149300;627955;500236;615083;172883;
2024-05-14T12:07:50.058;538882682512322841;628096;500360;615161;172891;
2024-05-14T12:07:50.076;538882682530496382;628100;500347;615281;172834;
2024-05-14T12:07:50.094;538882682548669923;628211;500350;615329;172883;
2024-05-14T12:07:50.112;538882682566843464;628253;500422;615376;172858;
2024-05-14T12:07:50.130;538882682585017005;628469;500514;615502;172889;
2024-05-14T12:07:50.148;538882682603190546;628601;500609;615569;172907;
2024-05-14T12:07:50.167;538882682621364087;628742;500754;615794;172898;
2024-05-14T12:07:50.185;538882682639537628;628908;500869;615968;172862;
2024-05-14T12:07:50.203;538882682657711169;629115;501036;616186;172888;
2024-05-14T12:07:50.221;538882682675884710;629257;501104;616308;172856;
2024-05-14T12:07:50.239;538882682694058251;629250;501169;616219;172872;
2024-05-14T12:07:50.258;538882682712231792;628979;500965;616033;172839;
2024-05-14T12:07:50.276;538882682730405333;628578;500650;615676;172834;
2024-05-14T12:07:50.294;538882682748578874;628143;500245;615256;172845;
2024-05-14T12:07:50.312;538882682766752415;627783;499920;614899;172788;
2024-05-14T12:07:50.330;538882682784925956;627467;499646;614644;172814;
2024-05-14T12:07:50.348;538882682803099497;627245;499490;614478;172824;
2024-05-14T12:07:50.367;538882682821273038;627188;499412;614383;172822;
2024-05-14T12:07:50.385;538882682839446579;627244;499407;614455;172820;
2024-05-14T12:07:50.403;538882682857620120;627367;499500;614543;172841;
2024-05-14T12:07:50.421;538882682875793661;627521;499597;614677;172821;
2024-05-14T12:07:50.439;538882682893967202;627748;499783;614915;172839;
2024-05-14T12:07:50.457;538882682912140743;627854;499908;614997;172816;
2024-05-14T12:07:50.476;538882682930314284;628078;500082;615201;172874;
2024-05-14T12:07:50.494;538882682948487825;628201;500223;615376;172820;
2024-05-14T12:07:50.512;538882682966661366;628454;500346;615521;172832;
2024-05-14T12:07:50.530;538882682984834907;628549;500402;615670;172847;
2024-05-14T12:07:50.548;538882683003008448;628630;500477;615785;172845;
2024-05-14T12:07:50.566;538882683021181989;628748;500620;615824;172866;
2024-05-14T12:07:50.585;538882683039355530;628932;500700;616059;172904;
2024-05-14T12:07:50.603;538882683057529071;629080;500838;616126;172828;
2024-05-14T12:07:50.621;538882683075702612;629230;500929;616258;172768;
2024-05-14T12:07:50.639;538882683093876153;629448;501074;616431;172781;
2024-05-14T12:07:50.657;538882683112049694;629745;501302;616672;172843;
2024-05-14T12:07:50.676;538882683130223235;629858;501439;616845;172905;
2024-05-14T12:07:50.694;538882683148396776;630179;501662;617163;172885;
2024-05-14T12:07:50.712;538882683166570317;630402;501847;617304;172904;
2024-05-14T12:07:50.730;538882683184743858;630360;501828;617324;172892;
2024-05-14T12:07:50.748;538882683202917344;630137;501648;617093;172898;
2024-05-14T12:07:50.766;538882683221090813;629716;501300;616711;172795;
2024-05-14T12:07:50.785;538882683239264282;629352;501029;616368;172826;
2024-05-14T12:07:50.803;538882683257437751;629057;500843;616200;172800;
2024-05-14T12:07:50.821;538882683275611220;628960;500621;616015;172811;
2024-05-14T12:07:50.839;538882683293784689;628859;500631;616024;172862;
2024-05-14T12:07:50.857;538882683311958158;628929;500605;616004;172818;
2024-05-14T12:07:50.875;538882683330131627;629036;500746;616162;172841;
2024-05-14T12:07:50.894;538882683348305096;629209;500872;616308;172801;
2024-05-14T12:07:50.912;538882683366478565;629430;500984;616564;172798;
2024-05-14T12:07:50.930;538882683384652034;629667;501133;616810;172750;
2024-05-14T12:07:50.948;538882683402825503;629831;501318;616946;172778;
2024-05-14T12:07:50.966;538882683420998972;630009;501489;617144;172822;
2024-05-14T12:07:50.984;538882683439172441;630183;501572;617262;172843;
2024-05-14T12:07:51.003;538882683457345910;630278;501758;617441;172812;
2024-05-14T12:07:51.021;538882683475519379;630474;501839;617532;172858;
2024-05-14T12:07:51.039;538882683493692848;630551;501900;617667;172856;
2024-05-14T12:07:51.057;538882683511866317;630701;502003;617768;172830;
2024-05-14T12:07:51.075;538882683530039786;630834;502108;617863;172823;
2024-05-14T12:07:51.094;538882683548213255;630975;502184;618016;172828;
2024-05-14T12:07:51.112;538882683566386724;631136;502397;618245;172830;
2024-05-14T12:07:51.130;538882683584560193;631427;502568;618391;172813;
2024-05-14T12:07:51.148;538882683602733662;631589;502695;618605;172777;
2024-05-14T12:07:51.166;538882683620907131;631895;502874;618827;172834;
2024-05-14T12:07:51.184;538882683639080600;632040;503027;618997;172809;
2024-05-14T12:07:51.203;538882683657254069;631929;503014;618964;172873;
2024-05-14T12:07:51.221;538882683675427538;631650;502819;618731;172809;
2024-05-14T12:07:51.239;538882683693601007;631359;502629;618503;172853;
2024-05-14T12:07:51.257;538882683711774476;631093;502287;618203;172779;
2024-05-14T12:07:51.275;538882683729947945;630776;502043;617991;172801;
2024-05-14T12:07:51.293;538882683748121414;630682;501983;617837;172819;
2024-05-14T12:07:51.312;538882683766294883;630679;501924;617801;172877;
2024-05-14T12:07:51.330;538882683784468352;630745;501989;617823;172850;
2024-05-14T12:07:51.348;538882683802641821;630940;502157;618027;172846;
2024-05-14T12:07:51.366;538882683820815290;631218;502326;618325;172857;
2024-05-14T12:07:51.384;538882683838988759;631420;502558;618530;172826;
2024-05-14T12:07:51.402;538882683857162228;631538;502665;618749;172785;
2024-05-14T12:07:51.421;538882683875335697;631793;502793;618852;172835;
2024-05-14T12:07:51.439;538882683893509166;631905;502918;618986;172814;
2024-05-14T12:07:51.457;538882683911682635;632069;503039;619135;172819;
2024-05-14T12:07:51.475;538882683929856104;632178;503230;619199;172829;
2024-05-14T12:07:51.493;538882683948029573;632256;503253;619343;172866;
2024-05-14T12:07:51.511;538882683966203086;632300;503338;619407;172795;
2024-05-14T12:07:51.530;538882683984376594;632419;503420;619565;172843;
2024-05-14T12:07:51.548;538882684002550102;632582;503559;619692;172776;
2024-05-14T12:07:51.566;538882684020723610;632818;503630;619836;172838;
2024-05-14T12:07:51.584;538882684038897118;633009;503810;620009;172841;
2024-05-14T12:07:51.602;538882684057070626;633148;503913;620199;172857;
2024-05-14T12:07:51.621;538882684075244134;633398;504153;620433;172855;
2024-05-14T12:07:51.639;538882684093417642;633523;504237;620581;172800;
2024-05-14T12:07:51.657;538882684111591150;633615;504307;620601;172841;
2024-05-14T12:07:51.675;538882684129764658;633364;504196;620431;172829;
2024-05-14T12:07:51.693;538882684147938166;632993;503932;620137;172781;
2024-05-14T12:07:51.711;538882684166111674;632575;503592;619782;172835;
2024-05-14T12:07:51.730;538882684184285182;632341;503323;619510;172866;
2024-05-14T12:07:51.748;538882684202458690;632131;503110;619280;172813;
2024-05-14T12:07:51.766;538882684220632198;631936;503027;619218;172819;
2024-05-14T12:07:51.784;538882684238805706;631963;503012;619165;172789;
2024-05-14T12:07:51.802;538882684256979214;632037;503026;619241;172838;
2024-05-14T12:07:51.820;538882684275152722;632174;503136;619423;172835;
2024-05-14T12:07:51.839;538882684293326230;632323;503241;619461;172786;
2024-05-14T12:07:51.857;538882684311499738;632425;503405;619687;172838;
2024-05-14T12:07:51.875;538882684329673246;632590;503523;619749;172847;
2024-05-14T12:07:51.893;538882684347846754;632782;503639;619935;172827;
2024-05-14T12:07:51.911;538882684366020262;632984;503791;620030;172776;
2024-05-14T12:07:51.929;538882684384193770;633032;503883;620150;172811;
2024-05-14T12:07:51.948;538882684402367278;633160;503923;620247;172819;
2024-05-14T12:07:51.966;538882684420540786;633259;504055;620373;172794;
2024-05-14T12:07:51.984;538882684438714294;633421;504137;620448;172786;
2024-05-14T12:07:52.002;538882684456887802;633593;504222;620622;172813;
2024-05-14T12:07:52.020;538882684475061310;633791;504325;620758;172814;
2024-05-14T12:07:52.039;538882684493234818;634009;504428;620912;172809;
2024-05-14T12:07:52.057;538882684511408326;634188;504666;621093;172796;
2024-05-14T12:07:52.075;538882684529581834;634508;504869;621337;172767;
2024-05-14T12:07:52.093;538882684547755342;634965;505184;621704;172786;
2024-05-14T12:07:52.111;538882684565928850;635380;505566;622041;172881;
2024-05-14T12:07:52.129;538882684584102358;635466;505716;622154;172816;
2024-05-14T12:07:52.148;538882684602275866;635663;505894;622373;172902;
2024-05-14T12:07:52.166;538882684620449374;635844;506167;622390;172911;
2024-05-14T12:07:52.184;538882684638622882;636104;506404;622533;172877;
2024-05-14T12:07:52.202;538882684656796390;636388;506734;622678;172963;
2024-05-14T12:07:52.220;538882684674972926;636855;507052;622822;172926;
2024-05-14T12:07:52.238;538882684693149446;637316;507353;623119;172870;
2024-05-14T12:07:52.257;538882684711325966;637750;507706;623408;172839;
2024-05-14T12:07:52.275;538882684729502486;638267;508008;623798;172899;
2024-05-14T12:07:52.293;538882684747679006;638777;508447;624124;172932;
2024-05-14T12:07:52.311;538882684765855526;639345;508845;624500;172873;
2024-05-14T12:07:52.329;538882684784032046;639860;509240;624935;172913;
2024-05-14T12:07:52.348;538882684802208566;640289;509589;625257;172929;
2024-05-14T12:07:52.366;538882684820385086;640633;509840;625598;172902;
2024-05-14T12:07:52.384;538882684838561606;640941;510147;625913;172928;
2024-05-14T12:07:52.402;538882684856738126;641124;510241;626108;172950;
2024-05-14T12:07:52.420;538882684874914646;641242;510427;626252;172946;
2024-05-14T12:07:52.438;538882684893091166;641314;510511;626355;172916;
2024-05-14T12:07:52.457;538882684911267686;641482;510583;626438;172909;
2024-05-14T12:07:52.475;538882684929444206;641712;510758;626627;172873;
2024-05-14T12:07:52.493;538882684947620726;642010;510949;626728;172919;
2024-05-14T12:07:52.511;538882684965797246;642141;511062;626881;172938;
2024-05-14T12:07:52.529;538882684983973766;642194;510945;626945;172868;
2024-05-14T12:07:52.547;538882685002150286;642195;510938;626952;172930;
2024-05-14T12:07:52.566;538882685020326806;642273;510967;627033;172900;
2024-05-14T12:07:52.584;538882685038503326;642105;510785;626932;172908;
2024-05-14T12:07:52.602;538882685056679846;641813;510520;626708;172915;
2024-05-14T12:07:52.620;538882685074856366;641286;510110;626263;172934;
2024-05-14T12:07:52.638;538882685093032886;640792;509597;625839;172940;
2024-05-14T12:07:52.657;538882685111209406;640227;509036;625419;172990;
2024-05-14T12:07:52.675;538882685129385926;639789;508587;624971;172945;
2024-05-14T12:07:52.693;538882685147562446;639480;508294;624698;172865;
2024-05-14T12:07:52.711;538882685165738966;639299;507952;624521;172933;
2024-05-14T12:07:52.729;538882685183915486;639156;507738;624338;172955;
2024-05-14T12:07:52.747;538882685202092006;639015;507661;624297;172921;
2024-05-14T12:07:52.766;538882685220268526;638996;507622;624277;172986;
2024-05-14T12:07:52.784;538882685238445046;638956;507580;624249;172986;
2024-05-14T12:07:52.802;538882685256621566;639044;507615;624234;173005;
2024-05-14T12:07:52.820;538882685274798086;638954;507517;624277;172843;
2024-05-14T12:07:52.838;538882685292974606;638941;507526;624234;172919;
2024-05-14T12:07:52.856;538882685311147752;638932;507552;624256;172968;
2024-05-14T12:07:52.875;538882685329320857;638990;507545;624296;172952;
2024-05-14T12:07:52.893;538882685347493962;638951;507575;624254;173010;
2024-05-14T12:07:52.911;538882685365667067;639005;507601;624303;172981;
2024-05-14T12:07:52.929;538882685383840172;639003;507726;624385;172934;
2024-05-14T12:07:52.947;538882685402013277;639133;507882;624457;172994;
2024-05-14T12:07:52.965;538882685420186382;639196;507938;624552;173059;
2024-05-14T12:07:52.984;538882685438359487;639167;507958;624545;173021;
2024-05-14T12:07:53.002;538882685456532592;639259;508105;624655;173023;
2024-05-14T12:07:53.020;538882685474705697;639432;508282;624866;172999;
2024-05-14T12:07:53.038;538882685492878802;639589;508455;625007;173076;
2024-05-14T12:07:53.056;538882685511051907;639790;508670;625193;173071;
2024-05-14T12:07:53.075;538882685529225012;639680;508665;625182;173017;
2024-05-14T12:07:53.093;538882685547398117;639573;508686;625136;173071;
2024-05-14T12:07:53.111;538882685565571222;639268;508506;624911;173072;
2024-05-14T12:07:53.129;538882685583744327;638951;508304;624638;173068;
2024-05-14T12:07:53.147;538882685601917432;638700;508090;624496;173052;
2024-05-14T12:07:53.165;538882685620090537;638521;507959;624356;173065;
2024-05-14T12:07:53.184;538882685638263642;638371;507905;624238;173074;
2024-05-14T12:07:53.202;538882685656436747;638310;507941;624225;173133;
2024-05-14T12:07:53.220;538882685674609852;638332;507936;624273;173154;
2024-05-14T12:07:53.238;538882685692782957;638435;508067;624378;173111;
2024-05-14T12:07:53.256;538882685710956062;638621;508252;624593;173143;
2024-05-14T12:07:53.274;538882685729129167;638729;508276;624689;173125;
2024-05-14T12:07:53.293;538882685747302272;638788;508429;624808;173128;
2024-05-14T12:07:53.311;538882685765475377;638774;508609;624790;173130;
2024-05-14T12:07:53.329;538882685783648482;638787;508703;624769;173096;
2024-05-14T12:07:53.347;538882685801821587;638802;508789;624761;173146;
2024-05-14T12:07:53.365;538882685819994692;638829;508995;624870;173101;
2024-05-14T12:07:53.383;538882685838167797;638873;509244;625010;173208;
2024-05-14T12:07:53.402;538882685856340902;638903;509544;625107;173221;
2024-05-14T12:07:53.420;538882685874514007;638943;509906;625248;173148;
2024-05-14T12:07:53.438;538882685892687112;639033;510334;625461;173157;
2024-05-14T12:07:53.456;538882685910860217;639227;510677;625653;173163;
2024-05-14T12:07:53.474;538882685929033322;639395;510843;625926;173198;
2024-05-14T12:07:53.492;538882685947206427;639683;511104;626203;173178;
2024-05-14T12:07:53.511;538882685965379532;639965;511388;626544;173207;
2024-05-14T12:07:53.529;538882685983552637;640338;511707;626840;173203;
2024-05-14T12:07:53.547;538882686001725742;640728;512138;627143;173203;
2024-05-14T12:07:53.565;538882686019898847;640826;512434;627197;173233;
2024-05-14T12:07:53.583;538882686038071952;640766;512595;627223;173258;
2024-05-14T12:07:53.602;538882686056245057;640887;512815;627464;173222;
2024-05-14T12:07:53.620;538882686074418008;641132;513061;627800;173240;
2024-05-14T12:07:53.638;538882686092590925;641366;513218;628021;173227;
2024-05-14T12:07:53.656;538882686110763842;641501;513306;628177;173202;
2024-05-14T12:07:53.674;538882686128936759;641759;513482;628471;173222;
2024-05-14T12:07:53.692;538882686147109676;642090;513594;628754;173228;
2024-05-14T12:07:53.711;538882686165282593;642525;513852;629028;173136;
2024-05-14T12:07:53.729;538882686183455510;643091;514297;629435;173227;
2024-05-14T12:07:53.747;538882686201628427;643597;514654;629722;173214;
2024-05-14T12:07:53.765;538882686219801344;643885;514799;629908;173219;
2024-05-14T12:07:53.783;538882686237974261;644154;515077;630207;173227;
2024-05-14T12:07:53.801;538882686256147178;644486;515318;630634;173139;
2024-05-14T12:07:53.820;538882686274320095;644738;515465;630959;173143;
2024-05-14T12:07:53.838;538882686292493012;645050;515519;631271;173118;
2024-05-14T12:07:53.856;538882686310665929;645443;515840;631734;173154;
2024-05-14T12:07:53.874;538882686328838846;645948;516246;632157;173161;
2024-05-14T12:07:53.892;538882686347011763;646357;516593;632431;173136;
2024-05-14T12:07:53.910;538882686365184680;646823;516971;632798;173101;
2024-05-14T12:07:53.929;538882686383357597;647386;517404;633288;173111;
2024-05-14T12:07:53.947;538882686401530514;647929;517847;633801;173186;
2024-05-14T12:07:53.965;538882686419703431;648596;518444;634369;173188;
2024-05-14T12:07:53.983;538882686437876348;649297;519090;634927;173188;
2024-05-14T12:07:54.001;538882686456049265;649828;519675;635384;173208;
2024-05-14T12:07:54.020;538882686474222182;650262;519950;635555;173172;
2024-05-14T12:07:54.038;538882686492395099;650552;520327;635737;173202;
2024-05-14T12:07:54.056;538882686510568016;650749;520534;635841;173145;
2024-05-14T12:07:54.074;538882686528740933;650834;520591;635910;173161;
2024-05-14T12:07:54.092;538882686546913850;650881;520639;636025;173187;
2024-05-14T12:07:54.110;538882686565086767;651112;520736;636181;173232;
2024-05-14T12:07:54.129;538882686583259684;651225;520732;636313;173176;
2024-05-14T12:07:54.147;538882686601432601;651392;520732;636440;173157;
2024-05-14T12:07:54.165;538882686619605518;651577;520854;636585;173123;
2024-05-14T12:07:54.183;538882686637778435;651760;520924;636763;173139;
2024-05-14T12:07:54.201;538882686655951352;651822;520906;636892;173146;
2024-05-14T12:07:54.219;538882686674124269;651910;520837;637070;173120;
2024-05-14T12:07:54.238;538882686692297186;651930;520893;637159;173129;
2024-05-14T12:07:54.256;538882686710470103;652096;520809;637415;173171;
2024-05-14T12:07:54.274;538882686728643677;652169;520725;637560;173114;
2024-05-14T12:07:54.292;538882686746817230;652221;520762;637742;173152;
2024-05-14T12:07:54.310;538882686764990783;652307;520785;637856;173135;
2024-05-14T12:07:54.328;538882686783164336;652565;520984;638067;173133;
2024-05-14T12:07:54.347;538882686801337889;652834;521374;638421;173174;
2024-05-14T12:07:54.365;538882686819511442;653237;521808;638816;173113;
2024-05-14T12:07:54.383;538882686837684995;653728;522326;639174;173240;
2024-05-14T12:07:54.401;538882686855858548;654172;522948;639551;173248;
2024-05-14T12:07:54.419;538882686874032101;654609;523314;639745;173232;
2024-05-14T12:07:54.437;538882686892205654;654933;523622;640010;173286;
2024-05-14T12:07:54.456;538882686910379207;655131;523810;640271;173208;
2024-05-14T12:07:54.474;538882686928552760;655338;523827;640403;173229;
2024-05-14T12:07:54.492;538882686946726313;655312;523840;640323;173232;
2024-05-14T12:07:54.510;538882686964899866;654984;523701;640146;173190;
2024-05-14T12:07:54.528;538882686983073419;654849;523617;640001;173152;
2024-05-14T12:07:54.547;538882687001246972;654877;523602;639820;173213;
2024-05-14T12:07:54.565;538882687019420525;654992;523716;639856;173196;
2024-05-14T12:07:54.583;538882687037594078;655102;523857;640003;173155;
2024-05-14T12:07:54.601;538882687055767631;655349;523961;640217;173194;
2024-05-14T12:07:54.619;538882687073941184;655394;523936;640093;173206;
2024-05-14T12:07:54.637;538882687092114737;655356;523841;639948;173206;
2024-05-14T12:07:54.656;538882687110288290;655548;523904;639963;173206;
2024-05-14T12:07:54.674;538882687128461843;655595;524071;640065;173156;
2024-05-14T12:07:54.692;538882687146635396;655717;524130;640090;173145;
2024-05-14T12:07:54.710;538882687164808949;655913;524281;640257;173088;
2024-05-14T12:07:54.728;538882687182982502;655960;524400;640350;173168;
2024-05-14T12:07:54.746;538882687201156055;656070;524401;640332;173157;
2024-05-14T12:07:54.765;538882687219329608;656268;524553;640438;173159;
2024-05-14T12:07:54.783;538882687237503161;656567;524801;640720;173123;
2024-05-14T12:07:54.801;538882687255676714;656738;525104;640839;173170;
2024-05-14T12:07:54.819;538882687273850267;656705;525122;640735;173078;
2024-05-14T12:07:54.837;538882687292023820;656622;525109;640624;173121;
2024-05-14T12:07:54.855;538882687310197373;656665;525160;640690;173139;
2024-05-14T12:07:54.874;538882687328370926;656762;525246;640788;173113;
2024-05-14T12:07:54.892;538882687346544479;656745;525200;640853;173111;
2024-05-14T12:07:54.910;538882687364718032;656526;525083;640718;173111;
2024-05-14T12:07:54.928;538882687382891722;656185;524846;640528;173112;
2024-05-14T12:07:54.946;538882687401065397;655747;524570;640222;173075;
2024-05-14T12:07:54.965;538882687419239072;655280;524213;639919;173111;
2024-05-14T12:07:54.983;538882687437412747;654878;523956;639727;173109;
2024-05-14T12:07:55.001;538882687455586422;654668;523689;639727;173165;
2024-05-14T12:07:55.019;538882687473760097;654449;523456;639731;173084;
2024-05-14T12:07:55.037;538882687491933772;654503;523379;639960;173123;
2024-05-14T12:07:55.055;538882687510107447;654639;523350;640134;173147;
2024-05-14T12:07:55.074;538882687528281122;654645;523082;640188;173107;
2024-05-14T12:07:55.092;538882687546454797;654961;522816;640330;173141;
2024-05-14T12:07:55.110;538882687564628472;654922;522641;640365;173096;
2024-05-14T12:07:55.128;538882687582802147;654969;522528;640477;173138;
2024-05-14T12:07:55.146;538882687600975822;655050;522393;640682;173186;
2024-05-14T12:07:55.164;538882687619149497;655094;522293;640847;173163;
2024-05-14T12:07:55.183;538882687637323172;655139;522305;641101;173151;
2024-05-14T12:07:55.201;538882687655496847;655447;522544;641467;173223;
2024-05-14T12:07:55.219;538882687673670522;655688;522841;641677;173244;
2024-05-14T12:07:55.237;538882687691844197;655819;523025;641752;173207;
2024-05-14T12:07:55.255;538882687710017872;655880;523157;641607;173241;
2024-05-14T12:07:55.273;538882687728191547;656271;523629;641861;173222;
2024-05-14T12:07:55.292;538882687746365222;656824;524300;642328;173231;
2024-05-14T12:07:55.310;538882687764538897;657659;525258;643109;173300;
2024-05-14T12:07:55.328;538882687782712572;658376;526048;643757;173334;
2024-05-14T12:07:55.346;538882687800886247;658994;526626;644322;173366;
2024-05-14T12:07:55.364;538882687819059922;659588;527251;644949;173377;
2024-05-14T12:07:55.383;538882687837233597;660064;527704;645419;173373;
2024-05-14T12:07:55.401;538882687855407272;660209;527941;645523;173380;
2024-05-14T12:07:55.419;538882687873580947;660246;528013;645588;173392;
2024-05-14T12:07:55.437;538882687891754622;660183;527987;645574;173390;
2024-05-14T12:07:55.455;538882687909928297;660278;527880;645667;173337;
2024-05-14T12:07:55.473;538882687928101972;660158;527587;645579;173314;
2024-05-14T12:07:55.492;538882687946275647;660059;527331;645561;173289;
2024-05-14T12:07:55.510;538882687964449322;659824;526903;645483;173253;
2024-05-14T12:07:55.528;538882687982622997;659541;526477;645226;173278;
2024-05-14T12:07:55.546;538882688000796672;659492;526249;645103;173305;
2024-05-14T12:07:55.564;538882688018970347;659701;526098;645243;173270;
2024-05-14T12:07:55.582;538882688037144022;659832;526078;645570;173273;
2024-05-14T12:07:55.601;538882688055317709;659830;526117;645812;173284;
2024-05-14T12:07:55.619;538882688073491396;659562;526025;645728;173314;
2024-05-14T12:07:55.637;538882688091665083;659524;526076;645761;173292;
2024-05-14T12:07:55.655;538882688109838770;659781;526245;645956;173324;
2024-05-14T12:07:55.673;538882688128012457;660211;526666;646401;173304;
2024-05-14T12:07:55.691;538882688146186144;660478;527135;646661;173300;
2024-05-14T12:07:55.710;538882688164359831;660841;527577;646894;173294;
2024-05-14T12:07:55.728;538882688182533518;661568;528316;647533;173327;
2024-05-14T12:07:55.746;538882688200707205;662231;528989;648171;173248;
2024-05-14T12:07:55.764;538882688218880892;662862;529620;648553;173243;
2024-05-14T12:07:55.782;538882688237054579;663210;530087;648840;173270;
2024-05-14T12:07:55.801;538882688255228266;663830;530667;649352;173266;
2024-05-14T12:07:55.819;538882688273401953;664530;531279;649916;173243;
2024-05-14T12:07:55.837;538882688291575640;665151;531840;650314;173248;
2024-05-14T12:07:55.855;538882688309749327;665583;532240;650607;173237;
2024-05-14T12:07:55.873;538882688327923014;665935;532619;650793;173219;
2024-05-14T12:07:55.891;538882688346096701;666237;532995;650956;173245;
2024-05-14T12:07:55.910;538882688364270388;666537;533380;651004;173237;
2024-05-14T12:07:55.928;538882688382444075;666779;533719;651080;173197;
2024-05-14T12:07:55.946;538882688400617762;667169;533916;651191;173213;
2024-05-14T12:07:55.964;538882688418791449;667485;534159;651318;173161;
2024-05-14T12:07:55.982;538882688436965136;667836;534459;651434;173148;
2024-05-14T12:07:56.000;538882688455138823;668418;534854;651821;173165;
2024-05-14T12:07:56.019;538882688473312510;669099;535330;652212;173104;
2024-05-14T12:07:56.037;538882688491486197;669859;535891;652686;173167;
2024-05-14T12:07:56.055;538882688509659884;670678;536433;653170;173133;
2024-05-14T12:07:56.073;538882688527833571;671415;536867;653625;173202;
2024-05-14T12:07:56.091;538882688546007258;672105;537217;653956;173196;
2024-05-14T12:07:56.109;538882688564180945;672645;537608;654222;173158;
2024-05-14T12:07:56.128;538882688582354632;672934;537752;654375;173246;
2024-05-14T12:07:56.146;538882688600528319;673206;537884;654531;173158;
2024-05-14T12:07:56.164;538882688618702006;673492;537967;654645;173206;
2024-05-14T12:07:56.182;538882688636875693;673621;538086;654779;173209;
2024-05-14T12:07:56.200;538882688655049380;673629;538124;654820;173208;
2024-05-14T12:07:56.219;538882688673223067;673736;538191;654901;173225;
2024-05-14T12:07:56.237;538882688691395012;673893;538276;655063;173227;
2024-05-14T12:07:56.255;538882688709566955;674069;538494;655256;173250;
2024-05-14T12:07:56.273;538882688727738898;674492;538788;655573;173290;
2024-05-14T12:07:56.291;538882688745910841;674791;539093;655901;173308;
2024-05-14T12:07:56.309;538882688764082784;674930;539206;656074;173351;
2024-05-14T12:07:56.328;538882688782254727;674968;539247;656071;173457;
2024-05-14T12:07:56.346;538882688800426670;674661;539158;655919;173377;
2024-05-14T12:07:56.364;538882688818598613;674180;538990;655547;173432;
2024-05-14T12:07:56.382;538882688836770556;673655;538613;655257;173459;
2024-05-14T12:07:56.400;538882688854942499;673200;538225;654954;173478;
2024-05-14T12:07:56.418;538882688873114442;672998;538090;654870;173527;
2024-05-14T12:07:56.437;538882688891286385;672896;537960;654832;173447;
2024-05-14T12:07:56.455;538882688909458328;672844;537903;654918;173514;
2024-05-14T12:07:56.473;538882688927630271;672894;537862;655179;173556;
2024-05-14T12:07:56.491;538882688945802214;673156;537890;655606;173535;
2024-05-14T12:07:56.509;538882688963974157;673499;538093;656004;173525;
2024-05-14T12:07:56.527;538882688982146100;673846;538346;656430;173495;
2024-05-14T12:07:56.546;538882689000318043;674114;538546;656761;173546;
2024-05-14T12:07:56.564;538882689018489986;674405;538773;657125;173535;
2024-05-14T12:07:56.582;538882689036661929;674961;539212;657626;173572;
2024-05-14T12:07:56.600;538882689054833872;675621;539767;658247;173587;
2024-05-14T12:07:56.618;538882689073005815;676147;540164;658719;173583;
2024-05-14T12:07:56.636;538882689091177758;676722;540647;659172;173605;
2024-05-14T12:07:56.655;538882689109349701;677134;540967;659586;173646;
2024-05-14T12:07:56.673;538882689127521644;677417;541327;659902;173622;
2024-05-14T12:07:56.691;538882689145693587;677740;541575;660123;173633;
2024-05-14T12:07:56.709;538882689163865530;678066;541805;660489;173727;
2024-05-14T12:07:56.727;538882689182037473;678300;541880;660748;173724;
2024-05-14T12:07:56.746;538882689200209416;678550;542162;661086;173749;
2024-05-14T12:07:56.764;538882689218381359;678725;542356;661421;173791;
2024-05-14T12:07:56.782;538882689236553302;678924;542524;661590;173827;
2024-05-14T12:07:56.800;538882689254725245;678593;542397;661366;173841;
2024-05-14T12:07:56.818;538882689272897188;678121;542102;660779;173850;
2024-05-14T12:07:56.836;538882689291069131;677971;542085;660490;173902;
2024-05-14T12:07:56.855;538882689309241074;677961;542278;660467;173932;
2024-05-14T12:07:56.873;538882689327414381;677741;542368;660125;173928;
2024-05-14T12:07:56.891;538882689345587685;677513;542338;659708;173974;
2024-05-14T12:07:56.909;538882689363760989;677239;542116;659322;173916;
2024-05-14T12:07:56.927;538882689381934293;676986;541905;658847;173988;
2024-05-14T12:07:56.945;538882689400107597;676707;541618;658540;173959;
2024-05-14T12:07:56.964;538882689418280901;676519;541313;658467;173991;
2024-05-14T12:07:56.982;538882689436454205;676597;541256;658700;174020;
2024-05-14T12:07:57.000;538882689454627509;676649;541149;658830;174052;
2024-05-14T12:07:57.018;538882689472800813;676582;540808;658932;174039;
2024-05-14T12:07:57.036;538882689490974117;676610;540670;658903;174000;
2024-05-14T12:07:57.054;538882689509147421;676722;540605;658881;173936;
2024-05-14T12:07:57.073;538882689527320725;676760;540679;658752;174012;
2024-05-14T12:07:57.091;538882689545494029;676883;540781;658675;174017;
2024-05-14T12:07:57.109;538882689563667333;677275;541082;658899;174022;
2024-05-14T12:07:57.127;538882689581840637;677854;541424;659352;174006;
2024-05-14T12:07:57.145;538882689600013941;678227;541626;659705;173907;
2024-05-14T12:07:57.163;538882689618187245;678365;541867;659920;173866;
2024-05-14T12:07:57.182;538882689636360549;678362;541916;659869;173772;
2024-05-14T12:07:57.200;538882689654533853;678537;542348;660000;173737;
2024-05-14T12:07:57.218;538882689672707157;679207;543272;660577;173738;
2024-05-14T12:07:57.236;538882689690880461;680011;544445;661200;173713;
2024-05-14T12:07:57.254;538882689709053765;680271;545436;661161;173744;
2024-05-14T12:07:57.273;538882689727227069;679992;545868;660419;173794;
2024-05-14T12:07:57.291;538882689745400373;679542;545424;659675;173886;
2024-05-14T12:07:57.309;538882689763573677;678654;544400;658563;173972;
2024-05-14T12:07:57.327;538882689781746981;677648;543231;657720;173970;
2024-05-14T12:07:57.345;538882689799920285;676935;542443;657283;174068;
2024-05-14T12:07:57.363;538882689818093589;676591;542136;657103;174057;
2024-05-14T12:07:57.382;538882689836266893;676718;542302;657203;174130;
2024-05-14T12:07:57.400;538882689854440197;676842;542646;657342;174242;
2024-05-14T12:07:57.418;538882689872613501;676490;542474;656966;174340;
2024-05-14T12:07:57.436;538882689890786805;676113;542099;656821;174419;
2024-05-14T12:07:57.454;538882689908960109;676019;541992;656995;174417;
2024-05-14T12:07:57.472;538882689927133413;676005;541827;657245;174490;
2024-05-14T12:07:57.491;538882689945306717;675924;541554;657275;174555;
2024-05-14T12:07:57.509;538882689963480021;675825;541165;657257;174601;
2024-05-14T12:07:57.527;538882689981653325;675792;540845;657256;174509;
2024-05-14T12:07:57.545;538882689999826452;675412;540232;657231;174568;
2024-05-14T12:07:57.563;538882690017999572;674553;539031;657180;174484;
2024-05-14T12:07:57.581;538882690036172692;673379;537543;656929;174337;
2024-05-14T12:07:57.600;538882690054345812;671935;535845;656504;174219;
2024-05-14T12:07:57.618;538882690072518932;670462;534341;656024;174112;
2024-05-14T12:07:57.636;538882690090692052;669652;533599;655936;174059;
2024-05-14T12:07:57.654;538882690108865172;669640;533572;656426;173977;
2024-05-14T12:07:57.672;538882690127038292;670448;534439;657364;173775;
2024-05-14T12:07:57.691;538882690145211412;671569;535569;658295;173685;
2024-05-14T12:07:57.709;538882690163384532;672711;536705;659150;173579;
2024-05-14T12:07:57.727;538882690181557652;673599;537869;659888;173453;
2024-05-14T12:07:57.745;538882690199730772;674587;539118;660665;173345;
2024-05-14T12:07:57.763;538882690217903892;675954;540540;661734;173264;
2024-05-14T12:07:57.781;538882690236077012;677479;542316;662954;173270;
2024-05-14T12:07:57.800;538882690254250132;679152;544253;664233;173322;
2024-05-14T12:07:57.818;538882690272423252;680965;546176;665779;173434;
2024-05-14T12:07:57.836;538882690290596372;682426;547607;667191;173520;
2024-05-14T12:07:57.854;538882690308769492;683180;548218;668054;173653;
2024-05-14T12:07:57.872;538882690326942612;683667;548557;668519;173731;
2024-05-14T12:07:57.890;538882690345115732;683850;548640;668609;173808;
2024-05-14T12:07:57.909;538882690363288852;683865;548544;668484;173965;
2024-05-14T12:07:57.927;538882690381461972;683765;548485;668249;174097;
2024-05-14T12:07:57.945;538882690399635092;683439;548168;667838;174225;
2024-05-14T12:07:57.963;538882690417808212;683024;547562;667239;174363;
2024-05-14T12:07:57.981;538882690435981332;682399;546857;666520;174401;
2024-05-14T12:07:57.999;538882690454154452;682030;546531;666236;174490;
2024-05-14T12:07:58.018;538882690472327572;682098;546627;666331;174550;
2024-05-14T12:07:58.036;538882690490500692;681751;546385;666024;174558;
2024-05-14T12:07:58.054;538882690508673812;681646;546236;665785;174574;
2024-05-14T12:07:58.072;538882690526846932;681834;546282;665867;174593;
2024-05-14T12:07:58.090;538882690545020052;682051;546229;665712;174593;
2024-05-14T12:07:58.108;538882690563193172;682145;545952;665305;174489;
2024-05-14T12:07:58.127;538882690581366292;681949;545477;664953;174482;
2024-05-14T12:07:58.145;538882690599539412;681551;544928;664732;174408;
2024-05-14T12:07:58.163;538882690617712532;681067;544494;664475;174270;
2024-05-14T12:07:58.181;538882690635883605;680489;543906;664423;174216;
2024-05-14T12:07:58.199;538882690654054676;679923;543469;664601;174179;
2024-05-14T12:07:58.218;538882690672225747;679833;543413;665320;174150;
2024-05-14T12:07:58.236;538882690690396818;680154;543682;666132;174123;
2024-05-14T12:07:58.254;538882690708567889;680855;544160;667083;174066;
2024-05-14T12:07:58.272;538882690726738960;681625;544848;667874;173874;
2024-05-14T12:07:58.290;538882690744910031;682460;545519;668551;173824;
2024-05-14T12:07:58.308;538882690763081102;683282;546210;668933;173623;
2024-05-14T12:07:58.327;538882690781252173;683771;546721;669133;173461;
2024-05-14T12:07:58.345;538882690799423244;684340;547262;669320;173318;
2024-05-14T12:07:58.363;538882690817594315;685807;548866;670687;173256;
2024-05-14T12:07:58.381;538882690835765386;688974;552284;673675;173203;
2024-05-14T12:07:58.399;538882690853936457;692559;556380;676824;173203;
2024-05-14T12:07:58.417;538882690872107528;695424;559463;678869;173266;
2024-05-14T12:07:58.436;538882690890278599;697700;561826;680257;173221;
2024-05-14T12:07:58.454;538882690908449670;699952;563806;681801;173270;
2024-05-14T12:07:58.472;538882690926620741;702013;565274;683320;173323;
2024-05-14T12:07:58.490;538882690944791812;703296;566163;683885;173351;
2024-05-14T12:07:58.508;538882690962962883;703763;566398;683715;173347;
2024-05-14T12:07:58.526;538882690981133954;703637;566221;683035;173365;
2024-05-14T12:07:58.545;538882690999305025;703213;565952;682144;173366;
2024-05-14T12:07:58.563;538882691017476096;702586;565615;681328;173398;
2024-05-14T12:07:58.581;538882691035647167;701469;564894;680081;173346;
2024-05-14T12:07:58.599;538882691053818238;699423;563308;677955;173227;
2024-05-14T12:07:58.617;538882691071989309;697656;561763;675988;173162;
2024-05-14T12:07:58.635;538882691090160380;696514;560715;674933;173169;
2024-05-14T12:07:58.654;538882691108331451;695675;559877;674120;173184;
2024-05-14T12:07:58.672;538882691126502522;695138;559334;673593;173235;
2024-05-14T12:07:58.690;538882691144675653;694034;558264;672862;173312;
2024-05-14T12:07:58.708;538882691162848773;692891;557071;672243;173338;
2024-05-14T12:07:58.726;538882691181021893;692431;556694;672215;173334;
2024-05-14T12:07:58.744;538882691199195013;691987;556295;672089;173340;
2024-05-14T12:07:58.763;538882691217368133;691177;555731;671963;173264;
2024-05-14T12:07:58.781;538882691235541253;690687;555165;672057;173290;
2024-05-14T12:07:58.799;538882691253714373;690447;554748;672277;173275;
2024-05-14T12:07:58.817;538882691271887493;690617;554627;672523;173287;
2024-05-14T12:07:58.835;538882691290060613;691050;554940;673033;173247;
2024-05-14T12:07:58.854;538882691308233733;691821;555759;673952;173280;
2024-05-14T12:07:58.872;538882691326406853;692706;556819;674995;173270;
2024-05-14T12:07:58.890;538882691344579973;693535;557992;675910;173279;
2024-05-14T12:07:58.908;538882691362753093;693977;558850;676569;173255;
2024-05-14T12:07:58.926;538882691380926213;693975;559295;676899;173249;
2024-05-14T12:07:58.944;538882691399099333;694012;559460;677330;173233;
2024-05-14T12:07:58.963;538882691417272453;694207;559828;677973;173259;
2024-05-14T12:07:58.981;538882691435445573;694287;560339;678804;173253;
2024-05-14T12:07:58.999;538882691453618693;694328;560901;679779;173270;
2024-05-14T12:07:59.017;538882691471791813;694330;561282;680504;173236;
2024-05-14T12:07:59.035;538882691489964933;694245;561347;680692;173261;
2024-05-14T12:07:59.053;538882691508138053;694166;561276;680646;173288;
2024-05-14T12:07:59.072;538882691526311173;694063;561115;680446;173350;
2024-05-14T12:07:59.090;538882691544484293;694176;561168;680530;173329;
2024-05-14T12:07:59.108;538882691562657413;694264;561307;680665;173280;
2024-05-14T12:07:59.126;538882691580830533;694342;561519;680780;173282;
2024-05-14T12:07:59.144;538882691599003653;694481;561855;680900;173321;
2024-05-14T12:07:59.162;538882691617176773;694482;562216;680967;173339;
2024-05-14T12:07:59.181;538882691635349893;694354;562099;680857;173325;
2024-05-14T12:07:59.199;538882691653523013;694384;562246;680804;173357;
2024-05-14T12:07:59.217;538882691671696133;694327;562567;680934;173454;
2024-05-14T12:07:59.235;538882691689869253;694219;562365;680770;173501;
2024-05-14T12:07:59.253;538882691708042373;694163;562058;680257;173513;
2024-05-14T12:07:59.272;538882691726215493;694245;561909;680235;173537;
2024-05-14T12:07:59.290;538882691744388613;694899;562143;681006;173565;
2024-05-14T12:07:59.308;538882691762561733;696010;562876;682107;173599;
2024-05-14T12:07:59.326;538882691780734084;696910;563469;682882;173557;
2024-05-14T12:07:59.344;538882691798906419;697122;563528;683042;173523;
2024-05-14T12:07:59.362;538882691817078754;697034;563239;682882;173520;
2024-05-14T12:07:59.381;538882691835251089;696690;562732;682717;173484;
2024-05-14T12:07:59.399;538882691853423424;696243;562220;682385;173556;
2024-05-14T12:07:59.417;538882691871595759;695593;561598;681798;173500;
2024-05-14T12:07:59.435;538882691889768094;694985;561175;681267;173461;
2024-05-14T12:07:59.453;538882691907940429;694068;560760;680500;173455;
2024-05-14T12:07:59.471;538882691926112764;692619;559806;679318;173401;
2024-05-14T12:07:59.490;538882691944285099;691245;558678;678040;173350;
2024-05-14T12:07:59.508;538882691962457434;690375;558183;677227;173303;
2024-05-14T12:07:59.526;538882691980629769;690144;558188;677016;173307;
2024-05-14T12:07:59.544;538882691998802104;690222;558601;677354;173356;
2024-05-14T12:07:59.562;538882692016974439;690606;558938;677775;173394;
2024-05-14T12:07:59.580;538882692035146774;690881;559126;677982;173427;
2024-05-14T12:07:59.599;538882692053319109;690883;559124;677939;173510;
2024-05-14T12:07:59.617;538882692071491444;690638;558833;677621;173465;
2024-05-14T12:07:59.635;538882692089663779;690470;558639;677445;173463;
2024-05-14T12:07:59.653;538882692107836114;690292;558498;677435;173536;
2024-05-14T12:07:59.671;538882692126008449;690098;558448;677356;173560;
2024-05-14T12:07:59.689;538882692144180784;690202;558614;677512;173472;
2024-05-14T12:07:59.708;538882692162353119;690472;559042;677927;173467;
2024-05-14T12:07:59.726;538882692180525454;690607;559254;677969;173533;
2024-05-14T12:07:59.744;538882692198697789;690622;559151;677711;173477;
2024-05-14T12:07:59.762;538882692216870124;690642;559078;677571;173497;
2024-05-14T12:07:59.780;538882692235042459;691048;559339;677786;173523;
2024-05-14T12:07:59.799;538882692253214794;691464;559743;677967;173444;
2024-05-14T12:07:59.817;538882692271387129;691810;559982;678171;173536;
2024-05-14T12:07:59.835;538882692289559464;692151;560234;678364;173520;
2024-05-14T12:07:59.853;538882692307731799;692120;560186;678395;173544;
2024-05-14T12:07:59.871;538882692325904134;691677;559835;678162;173512;
2024-05-14T12:07:59.889;538882692344076469;690733;559135;677400;173482;
2024-05-14T12:07:59.908;538882692362248804;689850;558350;676596;173466;
2024-05-14T12:07:59.926;538882692380421139;689320;557792;676074;173444;
2024-05-14T12:07:59.944;538882692398593474;689118;557613;675999;173483;
2024-05-14T12:07:59.962;538882692416764537;689010;557442;675860;173465;
2024-05-14T12:07:59.980;538882692434935582;688933;557175;675694;173552;
2024-05-14T12:07:59.998;538882692453106627;689028;556950;675638;173509;
2024-05-14T12:08:00.017;538882692471277672;689097;556952;675854;173514;
2024-05-14T12:08:00.035;538882692489448717;689479;557265;676266;173510;
2024-05-14T12:08:00.053;538882692507619762;690046;557630;676648;173538;
2024-05-14T12:08:00.071;538882692525790807;690529;558032;677002;173522;
2024-05-14T12:08:00.089;538882692543961852;690933;558395;677442;173542;
2024-05-14T12:08:00.107;538882692562132897;691228;558666;677736;173511;
2024-05-14T12:08:00.126;538882692580303942;691353;558682;677853;173498;
2024-05-14T12:08:00.144;538882692598474987;691421;558737;677820;173542;
2024-05-14T12:08:00.162;538882692616646032;691318;558609;677669;173536;
2024-05-14T12:08:00.180;538882692634817077;691143;558530;677481;173511;
2024-05-14T12:08:00.198;538882692652988122;690708;558310;677098;173492;
2024-05-14T12:08:00.216;538882692671159167;690215;557944;676607;173518;
2024-05-14T12:08:00.235;538882692689330212;689678;557544;676011;173522;
2024-05-14T12:08:00.253;538882692707501257;689408;557234;675713;173474;
2024-05-14T12:08:00.271;538882692725672302;689262;557104;675545;173474;
2024-05-14T12:08:00.289;538882692743843347;689099;557014;675387;173504;
2024-05-14T12:08:00.307;538882692762014392;688932;557024;675321;173428;
2024-05-14T12:08:00.325;538882692780185437;688744;556967;675186;173404;
2024-05-14T12:08:00.344;538882692798356482;688518;556817;675005;173347;
2024-05-14T12:08:00.362;538882692816527527;688397;556796;674922;173361;
2024-05-14T12:08:00.380;538882692834698572;688226;556744;674737;173340;
2024-05-14T12:08:00.398;538882692852869617;688114;556658;674681;173293;
2024-05-14T12:08:00.416;538882692871040662;687933;556554;674430;173325;
2024-05-14T12:08:00.435;538882692889211707;687767;556405;674483;173332;
2024-05-14T12:08:00.453;538882692907382752;687679;556276;674417;173282;
2024-05-14T12:08:00.471;538882692925553797;687582;556157;674444;173296;
2024-05-14T12:08:00.489;538882692943724842;687550;556081;674488;173255;
2024-05-14T12:08:00.507;538882692961895887;687539;556029;674522;173186;
2024-05-14T12:08:00.525;538882692980066932;687683;556096;674569;173236;
2024-05-14T12:08:00.544;538882692998237977;687749;556145;674657;173227;
2024-05-14T12:08:00.562;538882693016409022;687765;556191;674737;173289;
2024-05-14T12:08:00.580;538882693034581621;688045;556357;674859;173287;
2024-05-14T12:08:00.598;538882693052754218;688362;556602;675108;173281;
2024-05-14T12:08:00.616;538882693070926815;688702;557009;675341;173327;
2024-05-14T12:08:00.634;538882693089099412;688767;557230;675456;173304;
2024-05-14T12:08:00.653;538882693107272009;689013;557463;675638;173340;
2024-05-14T12:08:00.671;538882693125444606;689178;557605;675857;173326;
2024-05-14T12:08:00.689;538882693143617203;689314;557793;676055;173373;
2024-05-14T12:08:00.707;538882693161789800;689202;557608;676055;173310;
2024-05-14T12:08:00.725;538882693179962397;689046;557403;675991;173317;
2024-05-14T12:08:00.743;538882693198134994;688597;556958;675635;173368;
2024-05-14T12:08:00.762;538882693216307591;687804;556114;674963;173369;
2024-05-14T12:08:00.780;538882693234480188;686928;555305;674164;173362;
2024-05-14T12:08:00.798;538882693252652785;686181;554464;673512;173346;
2024-05-14T12:08:00.816;538882693270825382;685656;553897;673048;173416;
2024-05-14T12:08:00.834;538882693288997979;685499;553570;672744;173411;
2024-05-14T12:08:00.852;538882693307170576;685628;553477;672679;173443;
2024-05-14T12:08:00.871;538882693325343173;685993;553696;672717;173494;
2024-05-14T12:08:00.889;538882693343515770;686622;553997;672917;173513;
2024-05-14T12:08:00.907;538882693361688367;687326;554467;673371;173547;
2024-05-14T12:08:00.925;538882693379860964;688006;554828;673812;173548;
2024-05-14T12:08:00.943;538882693398033561;688934;555476;674350;173639;
2024-05-14T12:08:00.961;538882693416206158;689742;556098;674711;173686;
2024-05-14T12:08:00.980;538882693434378755;690360;556280;674863;173693;
2024-05-14T12:08:00.998;538882693452551352;690918;556575;675280;173728;
2024-05-14T12:08:01.016;538882693470723949;691532;556900;676026;173764;
2024-05-14T12:08:01.034;538882693488896546;692081;557170;676590;173761;
2024-05-14T12:08:01.052;538882693507069143;692454;557300;676991;173858;
2024-05-14T12:08:01.071;538882693525241740;693081;557706;677521;173893;
2024-05-14T12:08:01.089;538882693543414337;694273;558501;678426;173943;
2024-05-14T12:08:01.107;538882693561586934;695868;559704;679512;174024;
2024-05-14T12:08:01.125;538882693579759531;697522;561071;680597;174054;
2024-05-14T12:08:01.143;538882693597932128;699546;562458;681802;174179;
2024-05-14T12:08:01.161;538882693616104725;701406;563949;683013;174278;
2024-05-14T12:08:01.180;538882693634277322;702961;565048;684173;174421;
2024-05-14T12:08:01.198;538882693652449919;704319;566114;685174;174521;
2024-05-14T12:08:01.216;538882693670621210;705498;567108;685960;174626;
2024-05-14T12:08:01.234;538882693688792499;706588;568252;686680;174767;
2024-05-14T12:08:01.252;538882693706963788;707645;569377;687431;175004;
2024-05-14T12:08:01.270;538882693725135077;708534;570292;687994;175175;
2024-05-14T12:08:01.289;538882693743306366;709592;571374;688757;175391;
2024-05-14T12:08:01.307;538882693761477655;710991;572677;689775;175585;
2024-05-14T12:08:01.325;538882693779648944;712332;573997;690938;175818;
2024-05-14T12:08:01.343;538882693797820233;713883;575259;692077;176114;
2024-05-14T12:08:01.361;538882693815991522;715450;576491;693338;176321;
2024-05-14T12:08:01.379;538882693834162811;716939;577552;694411;176583;
2024-05-14T12:08:01.398;538882693852334100;718360;578570;695484;176752;
2024-05-14T12:08:01.416;538882693870505389;720006;580027;696900;176904;
2024-05-14T12:08:01.434;538882693888676678;721898;581765;698567;177120;
2024-05-14T12:08:01.452;538882693906847967;723612;583375;700131;177429;
2024-05-14T12:08:01.470;538882693925019256;724956;584664;701271;177569;
2024-05-14T12:08:01.488;538882693943190545;726282;585782;702424;177745;
2024-05-14T12:08:01.507;538882693961361834;727641;587241;703949;177976;
2024-05-14T12:08:01.525;538882693979533123;728566;588371;705348;178108;
2024-05-14T12:08:01.543;538882693997704412;729151;589043;706022;178284;
2024-05-14T12:08:01.561;538882694015875701;729592;589492;706749;178373;
2024-05-14T12:08:01.579;538882694034046990;729685;589880;707858;178477;
2024-05-14T12:08:01.598;538882694052218279;729977;590303;708867;178460;
2024-05-14T12:08:01.616;538882694070389568;730045;590475;709554;178574;
2024-05-14T12:08:01.634;538882694088560857;730301;590730;710051;178674;
2024-05-14T12:08:01.652;538882694106732146;730503;591023;710736;178640;
2024-05-14T12:08:01.670;538882694124903435;730212;591251;711410;178656;
2024-05-14T12:08:01.688;538882694143074724;729899;591313;711981;178559;
2024-05-14T12:08:01.707;538882694161246013;729481;591203;712544;178520;
2024-05-14T12:08:01.725;538882694179417302;729121;590950;713140;178448;
2024-05-14T12:08:01.743;538882694197588591;728683;590660;713889;178361;
2024-05-14T12:08:01.761;538882694215759880;728731;590626;714681;178405;
2024-05-14T12:08:01.779;538882694233931169;728916;590635;715180;178400;
2024-05-14T12:08:01.797;538882694252102458;728228;590059;715684;178487;
2024-05-14T12:08:01.816;538882694270273747;727396;589478;716055;178206;
2024-05-14T12:08:01.834;538882694288445036;727114;589314;716049;177709;
2024-05-14T12:08:01.852;538882694306615309;726882;589009;715710;177217;
2024-05-14T12:08:01.870;538882694324785556;726615;588719;715374;176785;
2024-05-14T12:08:01.888;538882694342955803;726648;588625;715256;176482;
2024-05-14T12:08:01.906;538882694361126050;726490;588531;715057;176141;
2024-05-14T12:08:01.925;538882694379296297;726369;588441;714756;175902;
2024-05-14T12:08:01.943;538882694397466544;726389;588511;714659;175670;
2024-05-14T12:08:01.961;538882694415636791;726375;588599;714706;175558;
2024-05-14T12:08:01.979;538882694433807038;726372;588545;714710;175427;
2024-05-14T12:08:01.997;538882694451977285;726465;588455;714912;175433;
2024-05-14T12:08:02.015;538882694470147532;726913;588900;715357;175513;
2024-05-14T12:08:02.034;538882694488317779;727577;589459;715819;175554;
2024-05-14T12:08:02.052;538882694506488026;728097;589965;716291;175641;
2024-05-14T12:08:02.070;538882694524658273;728360;590333;716578;175630;
2024-05-14T12:08:02.088;538882694542828520;728012;590334;716203;175681;
2024-05-14T12:08:02.106;538882694560998767;726947;589676;715174;175636;
2024-05-14T12:08:02.124;538882694579169014;726501;589693;714729;175627;
2024-05-14T12:08:02.143;538882694597339261;726381;590101;714561;175675;
2024-05-14T12:08:02.161;538882694615509508;726117;590142;714234;175681;
2024-05-14T12:08:02.179;538882694633679755;725912;590051;714019;175721;
2024-05-14T12:08:02.197;538882694651850002;725802;589971;713819;175624;
2024-05-14T12:08:02.215;538882694670020249;725398;589617;713597;175596;
2024-05-14T12:08:02.233;538882694688190496;724999;589021;713344;175542;
2024-05-14T12:08:02.252;538882694706360743;724587;588273;712961;175398;
2024-05-14T12:08:02.270;538882694724530990;724463;587703;712823;175423;
2024-05-14T12:08:02.288;538882694742701237;724569;587593;713007;175364;
2024-05-14T12:08:02.306;538882694760871484;724692;587650;713163;175306;
2024-05-14T12:08:02.324;538882694779041731;724758;587803;713308;175315;
2024-05-14T12:08:02.343;538882694797211978;724858;587873;713370;175261;
2024-05-14T12:08:02.361;538882694815382225;724970;587973;713547;175197;
2024-05-14T12:08:02.379;538882694833552472;725082;588085;713759;175149;
2024-05-14T12:08:02.397;538882694851722719;725082;588117;713824;175112;
2024-05-14T12:08:02.415;538882694869892966;725153;588156;713769;175061;
2024-05-14T12:08:02.433;538882694888063213;725108;588114;713777;175001;
2024-05-14T12:08:02.452;538882694906233460;725263;588223;713836;174979;
2024-05-14T12:08:02.470;538882694924403707;725351;588226;713932;174936;
2024-05-14T12:08:02.488;538882694942573954;725354;588302;713968;174904;
2024-05-14T12:08:02.506;538882694960744131;725254;588215;713883;174840;
2024-05-14T12:08:02.524;538882694978914286;725113;588060;713456;174857;
2024-05-14T12:08:02.542;538882694997084441;724793;587865;712914;174998;
2024-05-14T12:08:02.561;538882695015254596;723941;587216;712056;175099;
2024-05-14T12:08:02.579;538882695033424751;722690;586200;711102;175224;
2024-05-14T12:08:02.597;538882695051594906;721118;585132;710243;175447;
2024-05-14T12:08:02.615;538882695069765061;719315;583757;708974;175497;
2024-05-14T12:08:02.633;538882695087935216;718168;582654;707986;175697;
2024-05-14T12:08:02.651;538882695106105371;717911;582081;707883;175953;
2024-05-14T12:08:02.670;538882695124275526;718007;581711;707928;176248;
2024-05-14T12:08:02.688;538882695142445681;717933;581146;707718;176213;
2024-05-14T12:08:02.706;538882695160615836;717655;580491;707418;176028;
2024-05-14T12:08:02.724;538882695178785991;717386;579942;707269;175888;
2024-05-14T12:08:02.742;538882695196956146;717300;579496;707204;175891;
2024-05-14T12:08:02.760;538882695215126301;716943;578922;707125;175858;
2024-05-14T12:08:02.779;538882695233296456;716360;578367;706828;175662;
2024-05-14T12:08:02.797;538882695251466611;715734;577750;706485;175491;
2024-05-14T12:08:02.815;538882695269636766;715166;577295;706159;175241;
2024-05-14T12:08:02.833;538882695287806921;714423;576663;705706;174933;
2024-05-14T12:08:02.851;538882695305977076;713612;575937;705079;174621;
2024-05-14T12:08:02.869;538882695324147231;712834;575331;704430;174299;
2024-05-14T12:08:02.888;538882695342317386;712271;574793;703876;174063;
2024-05-14T12:08:02.906;538882695360487541;711912;574383;703379;173844;
2024-05-14T12:08:02.924;538882695378657696;711553;574101;703015;173655;
2024-05-14T12:08:02.942;538882695396827851;711313;573921;702772;173552;
2024-05-14T12:08:02.960;538882695414998006;711013;573813;702522;173509;
2024-05-14T12:08:02.978;538882695433168161;710726;573660;702132;173477;
2024-05-14T12:08:02.997;538882695451338316;710564;573772;701952;173533;
2024-05-14T12:08:03.015;538882695469508471;710073;573642;701534;173539;
2024-05-14T12:08:03.033;538882695487678626;709438;573225;701073;173544;
2024-05-14T12:08:03.051;538882695505848781;708893;572873;700700;173489;
2024-05-14T12:08:03.069;538882695524018936;708820;572754;700708;173493;
2024-05-14T12:08:03.087;538882695542189091;708596;572673;700622;173463;
2024-05-14T12:08:03.106;538882695560359246;708440;572668;700532;173385;
2024-05-14T12:08:03.124;538882695578529401;708573;572904;700674;173313;
2024-05-14T12:08:03.142;538882695596699822;708984;573385;701123;173334;
2024-05-14T12:08:03.160;538882695614870239;709376;573944;701552;173269;
2024-05-14T12:08:03.178;538882695633040656;709975;574530;702004;173250;
2024-05-14T12:08:03.197;538882695651211073;710456;575035;702412;173222;
2024-05-14T12:08:03.215;538882695669381490;711034;575424;702893;173196;
2024-05-14T12:08:03.233;538882695687551907;711375;575672;703091;173168;
2024-05-14T12:08:03.251;538882695705722324;711529;575741;703130;173139;
2024-05-14T12:08:03.269;538882695723892741;711770;575871;703141;173112;
2024-05-14T12:08:03.287;538882695742063158;712143;576093;703325;173128;
2024-05-14T12:08:03.306;538882695760233575;712428;576344;703450;173138;
2024-05-14T12:08:03.324;538882695778403992;712861;576814;703780;173104;
2024-05-14T12:08:03.342;538882695796574409;713238;577386;704159;173104;
2024-05-14T12:08:03.360;538882695814744826;713474;577804;704446;173151;
2024-05-14T12:08:03.378;538882695832915243;713810;578294;704683;173181;
2024-05-14T12:08:03.396;538882695851085660;713971;578628;704689;173066;
2024-05-14T12:08:03.415;538882695869256077;714041;578981;704704;173163;
2024-05-14T12:08:03.433;538882695887426494;713937;579073;704533;173138;
2024-05-14T12:08:03.451;538882695905596911;713598;578996;704094;173172;
2024-05-14T12:08:03.469;538882695923767328;713004;578807;703535;173108;
2024-05-14T12:08:03.487;538882695941937745;712588;578617;703187;173071;
2024-05-14T12:08:03.505;538882695960108162;712201;578288;702811;173114;
2024-05-14T12:08:03.524;538882695978278579;711796;577996;702313;173067;
2024-05-14T12:08:03.542;538882695996448996;711514;577713;702039;173100;
2024-05-14T12:08:03.560;538882696014619413;711344;577570;701850;173124;
2024-05-14T12:08:03.578;538882696032789830;711207;577516;701744;173162;
2024-05-14T12:08:03.596;538882696050960247;711211;577470;701733;173152;
2024-05-14T12:08:03.614;538882696069130664;711308;577565;701756;173150;
2024-05-14T12:08:03.633;538882696087301081;711410;577569;701927;173088;
2024-05-14T12:08:03.651;538882696105471498;711453;577640;701983;173171;
2024-05-14T12:08:03.669;538882696123641915;711479;577692;701972;173174;
2024-05-14T12:08:03.687;538882696141812332;711392;577682;701972;173151;
2024-05-14T12:08:03.705;538882696159982749;711206;577474;701866;173137;
2024-05-14T12:08:03.723;538882696178153166;710905;577181;701738;173123;
2024-05-14T12:08:03.742;538882696196323583;710787;576791;701554;173109;
2024-05-14T12:08:03.760;538882696214494000;710551;576504;701410;173150;
2024-05-14T12:08:03.778;538882696232664417;710397;576167;701342;173169;
2024-05-14T12:08:03.796;538882696250834834;710221;575785;701260;173176;
2024-05-14T12:08:03.814;538882696269005251;710086;575533;701140;173161;
2024-05-14T12:08:03.832;538882696287174806;709829;575173;701046;173156;
2024-05-14T12:08:03.851;538882696305344351;709529;574793;700756;173125;
2024-05-14T12:08:03.869;538882696323513896;709208;574455;700512;173147;
2024-05-14T12:08:03.887;538882696341683441;708677;573953;700008;173143;
2024-05-14T12:08:03.905;538882696359852986;707844;573318;699359;173097;
2024-05-14T12:08:03.923;538882696378022531;707007;572600;698603;173095;
2024-05-14T12:08:03.941;538882696396192076;706042;571861;697801;173122;
2024-05-14T12:08:03.960;538882696414361621;705229;571201;697062;173116;
2024-05-14T12:08:03.978;538882696432531166;704402;570584;696307;173076;
2024-05-14T12:08:03.996;538882696450700711;703636;570072;695709;173074;
2024-05-14T12:08:04.014;538882696468870256;703022;569595;695130;173108;
2024-05-14T12:08:04.032;538882696487039801;702575;569237;694741;173152;
2024-05-14T12:08:04.051;538882696505209346;702140;568918;694336;173074;
2024-05-14T12:08:04.069;538882696523378891;701821;568549;693936;173054;
2024-05-14T12:08:04.087;538882696541548436;701346;568259;693544;173033;
2024-05-14T12:08:04.105;538882696559717981;701101;567940;693195;172998;
2024-05-14T12:08:04.123;538882696577887526;700641;567695;692806;172999;
2024-05-14T12:08:04.141;538882696596057071;700364;567351;692331;173000;
2024-05-14T12:08:04.160;538882696614226616;699939;567000;691946;173004;
2024-05-14T12:08:04.178;538882696632396161;699555;566605;691392;172975;
2024-05-14T12:08:04.196;538882696650565706;699105;566266;690994;172990;
2024-05-14T12:08:04.214;538882696668735251;698770;565934;690744;172951;
2024-05-14T12:08:04.232;538882696686904796;698420;565628;690413;172966;
2024-05-14T12:08:04.250;538882696705074341;698155;565332;690099;172986;
2024-05-14T12:08:04.269;538882696723243886;697861;565142;689916;172997;
2024-05-14T12:08:04.287;538882696741413431;697607;564842;689652;172946;
2024-05-14T12:08:04.305;538882696759582976;697350;564698;689420;172935;
2024-05-14T12:08:04.323;538882696777752521;696995;564484;689183;172959;
2024-05-14T12:08:04.341;538882696795922066;696493;564069;688652;173034;
2024-05-14T12:08:04.359;538882696814091611;695582;563448;687987;172935;
2024-05-14T12:08:04.378;538882696832261156;694654;562800;687151;172936;
2024-05-14T12:08:04.396;538882696850430701;693547;562068;686253;172937;
2024-05-14T12:08:04.414;538882696868600246;692652;561430;685473;173015;
2024-05-14T12:08:04.432;538882696886769791;691768;560833;684667;172999;
2024-05-14T12:08:04.450;538882696904939336;690993;560233;683982;172994;
2024-05-14T12:08:04.468;538882696923109389;690334;559738;683456;173013;
2024-05-14T12:08:04.487;538882696941279413;689770;559317;682893;172932;
2024-05-14T12:08:04.505;538882696959449437;689295;559049;682538;172955;
2024-05-14T12:08:04.523;538882696977619461;688997;558896;682249;172916;
2024-05-14T12:08:04.541;538882696995789485;688927;558882;682120;172924;
2024-05-14T12:08:04.559;538882697013959509;688824;559133;682074;172959;
2024-05-14T12:08:04.577;538882697032129533;688955;559534;682071;172987;
2024-05-14T12:08:04.596;538882697050299557;689233;560106;682241;172939;
2024-05-14T12:08:04.614;538882697068469581;689490;560776;682664;172968;
2024-05-14T12:08:04.632;538882697086639605;689745;561347;682961;173057;
2024-05-14T12:08:04.650;538882697104809629;689925;561772;683384;173019;
2024-05-14T12:08:04.668;538882697122979653;689967;562060;683548;173021;
2024-05-14T12:08:04.686;538882697141149677;689873;562117;683575;173013;
2024-05-14T12:08:04.705;538882697159319701;689630;561984;683421;173059;
2024-05-14T12:08:04.723;538882697177489725;689297;561746;683207;173067;
2024-05-14T12:08:04.741;538882697195659749;689042;561419;683033;173004;
2024-05-14T12:08:04.759;538882697213829773;688771;561160;682805;173019;
2024-05-14T12:08:04.777;538882697231999797;688498;560683;682622;173026;
2024-05-14T12:08:04.795;538882697250169821;687889;560127;682100;173008;
2024-05-14T12:08:04.814;538882697268339845;686887;559229;681275;173073;
2024-05-14T12:08:04.832;538882697286509869;685802;558217;680271;173014;
2024-05-14T12:08:04.850;538882697304679893;684664;557136;679234;173045;
2024-05-14T12:08:04.868;538882697322849917;683508;556129;678234;173010;
2024-05-14T12:08:04.886;538882697341019941;682490;555221;677343;172969;
2024-05-14T12:08:04.904;538882697359189965;681574;554456;676447;172967;
2024-05-14T12:08:04.923;538882697377359989;680767;553794;675678;173010;
2024-05-14T12:08:04.941;538882697395530013;680155;553194;675129;173020;
2024-05-14T12:08:04.959;538882697413700037;679571;552709;674477;172923;
2024-05-14T12:08:04.977;538882697431870061;679060;552305;674083;172917;
2024-05-14T12:08:04.995;538882697450040085;678612;551976;673679;172980;
2024-05-14T12:08:05.014;538882697468210109;678183;551560;673278;172940;
2024-05-14T12:08:05.032;538882697486380133;677671;551252;672921;172992;
2024-05-14T12:08:05.050;538882697504550157;677185;550932;672554;172947;
2024-05-14T12:08:05.068;538882697522720181;676764;550548;672117;172897;
2024-05-14T12:08:05.086;538882697540890205;676286;550224;671757;172945;
2024-05-14T12:08:05.104;538882697559059978;675835;549922;671363;172970;
2024-05-14T12:08:05.123;538882697577229741;675343;549575;670989;172904;
2024-05-14T12:08:05.141;538882697595399504;674873;549279;670650;172930;
2024-05-14T12:08:05.159;538882697613569267;674400;548907;670301;172888;
2024-05-14T12:08:05.177;538882697631739030;674076;548685;670027;172930;
2024-05-14T12:08:05.195;538882697649908793;673738;548458;669832;172960;
2024-05-14T12:08:05.213;538882697668078556;673450;548266;669569;172948;
2024-05-14T12:08:05.232;538882697686248319;673162;548155;669368;172959;
2024-05-14T12:08:05.250;538882697704418082;672733;547899;669061;172891;
2024-05-14T12:08:05.268;538882697722587845;671946;547380;668418;172916;
2024-05-14T12:08:05.286;538882697740757608;670959;546829;667614;172877;
2024-05-14T12:08:05.304;538882697758927371;669831;545995;666637;172898;
2024-05-14T12:08:05.322;538882697777097134;668638;545321;665617;172902;
2024-05-14T12:08:05.341;538882697795266897;667596;544519;664669;172928;
2024-05-14T12:08:05.359;538882697813436660;666549;543871;663758;172889;
2024-05-14T12:08:05.377;538882697831606423;665667;543287;663070;172914;
2024-05-14T12:08:05.395;538882697849776186;665037;542761;662529;172901;
2024-05-14T12:08:05.413;538882697867945949;664394;542307;662004;172890;
2024-05-14T12:08:05.431;538882697886115712;663905;541967;661516;172931;
2024-05-14T12:08:05.450;538882697904285475;663448;541649;661277;172939;
2024-05-14T12:08:05.468;538882697922455238;663190;541365;660896;172915;
2024-05-14T12:08:05.486;538882697940625001;662782;541236;660653;172949;
2024-05-14T12:08:05.504;538882697958794764;662441;540930;660399;172901;
2024-05-14T12:08:05.522;538882697976964527;662113;540670;660068;172918;
2024-05-14T12:08:05.540;538882697995134290;661672;540370;659766;172855;
2024-05-14T12:08:05.559;538882698013304053;661366;540164;659466;172891;
2024-05-14T12:08:05.577;538882698031473816;660970;539965;659247;172928;
2024-05-14T12:08:05.595;538882698049643579;660650;539699;658965;172906;
2024-05-14T12:08:05.613;538882698067813342;660321;539458;658715;172947;
2024-05-14T12:08:05.631;538882698085983105;660053;539294;658517;172912;
2024-05-14T12:08:05.649;538882698104152868;659739;539125;658291;172871;
2024-05-14T12:08:05.668;538882698122322631;659502;538967;658055;172880;
2024-05-14T12:08:05.686;538882698140492394;659320;538803;657948;172873;
2024-05-14T12:08:05.704;538882698158662157;659222;538752;657880;172936;
2024-05-14T12:08:05.722;538882698176831920;658991;538531;657715;172933;
2024-05-14T12:08:05.740;538882698195000823;658426;538208;657275;172923;
2024-05-14T12:08:05.758;538882698213169714;657527;537710;656552;172886;
2024-05-14T12:08:05.777;538882698231338605;656559;537101;655814;172887;
2024-05-14T12:08:05.795;538882698249507496;655558;536421;654931;172899;
2024-05-14T12:08:05.813;538882698267676387;654626;535887;654078;172907;
2024-05-14T12:08:05.831;538882698285845278;653746;535265;653336;172886;
2024-05-14T12:08:05.849;538882698304014169;653099;534784;652751;172872;
2024-05-14T12:08:05.867;538882698322183060;652548;534454;652305;172834;
2024-05-14T12:08:05.886;538882698340351951;652233;534167;652011;172829;
2024-05-14T12:08:05.904;538882698358520842;651916;533904;651683;172896;
2024-05-14T12:08:05.922;538882698376689733;651696;533754;651586;172856;
2024-05-14T12:08:05.940;538882698394858624;651466;533694;651424;172845;
2024-05-14T12:08:05.958;538882698413027515;651354;533524;651347;172921;
2024-05-14T12:08:05.976;538882698431196406;651234;533494;651303;172861;
2024-05-14T12:08:05.995;538882698449365297;651019;533325;651119;172883;
2024-05-14T12:08:06.013;538882698467534188;650775;533204;650877;172896;
2024-05-14T12:08:06.031;538882698485703079;650526;533027;650738;172884;
2024-05-14T12:08:06.049;538882698503871970;650326;532892;650555;172887;
2024-05-14T12:08:06.067;538882698522040861;650055;532763;650375;172880;
2024-05-14T12:08:06.086;538882698540209752;649852;532620;650280;172897;
2024-05-14T12:08:06.104;538882698558378643;649675;532491;650123;172839;
2024-05-14T12:08:06.122;538882698576547534;649479;532372;650020;172848;
2024-05-14T12:08:06.140;538882698594716425;649407;532292;649951;172883;
2024-05-14T12:08:06.158;538882698612885316;649332;532245;649901;172899;
2024-05-14T12:08:06.176;538882698631054207;649266;532232;649910;172864;
2024-05-14T12:08:06.195;538882698649223098;649255;532202;649971;172880;
2024-05-14T12:08:06.213;538882698667391989;649062;532148;649820;172856;
2024-05-14T12:08:06.231;538882698685560880;648519;531804;649433;172844;
2024-05-14T12:08:06.249;538882698703729771;647838;531351;648846;172836;
2024-05-14T12:08:06.267;538882698721898662;647050;530907;648158;172858;
2024-05-14T12:08:06.285;538882698740067553;646296;530327;647514;172845;
2024-05-14T12:08:06.304;538882698758236444;645553;529905;646907;172922;
2024-05-14T12:08:06.322;538882698776405335;644929;529508;646383;172901;
2024-05-14T12:08:06.340;538882698794574226;644493;529190;646100;172857;
2024-05-14T12:08:06.358;538882698812743117;644172;528947;645794;172865;
2024-05-14T12:08:06.376;538882698830912008;644010;528878;645655;172892;
2024-05-14T12:08:06.394;538882698849079381;643905;528768;645585;172864;
2024-05-14T12:08:06.413;538882698867246746;643898;528764;645629;172885;
2024-05-14T12:08:06.431;538882698885414111;644036;528768;645705;172952;
2024-05-14T12:08:06.449;538882698903581476;643997;528836;645705;172947;
2024-05-14T12:08:06.467;538882698921748841;643985;528797;645698;172926;
2024-05-14T12:08:06.485;538882698939916206;643916;528708;645679;172940;
2024-05-14T12:08:06.503;538882698958083571;643792;528689;645632;172852;
2024-05-14T12:08:06.522;538882698976250936;643725;528600;645628;172880;
2024-05-14T12:08:06.540;538882698994418301;643605;528554;645511;172931;
2024-05-14T12:08:06.558;538882699012585666;643462;528438;645449;172874;
2024-05-14T12:08:06.576;538882699030753031;643392;528381;645429;172920;
2024-05-14T12:08:06.594;538882699048920396;643347;528372;645435;172925;
2024-05-14T12:08:06.612;538882699067087761;643341;528338;645416;172891;
2024-05-14T12:08:06.631;538882699085255126;643432;528392;645533;172939;
2024-05-14T12:08:06.649;538882699103422491;643397;528406;645564;172892;
2024-05-14T12:08:06.667;538882699121589856;643420;528399;645568;172906;
2024-05-14T12:08:06.685;538882699139757221;643376;528359;645537;172905;
2024-05-14T12:08:06.703;538882699157924586;643049;528211;645254;172862;
2024-05-14T12:08:06.721;538882699176091951;642441;527831;644867;172839;
2024-05-14T12:08:06.740;538882699194259316;641714;527386;644268;172877;
2024-05-14T12:08:06.758;538882699212426681;641084;526948;643621;172923;
2024-05-14T12:08:06.776;538882699230594046;640390;526436;643035;172886;
2024-05-14T12:08:06.794;538882699248761411;639874;526127;642662;172946;
2024-05-14T12:08:06.812;538882699266928776;639574;525889;642225;172907;
2024-05-14T12:08:06.830;538882699285096141;639311;525766;642005;172865;
2024-05-14T12:08:06.849;538882699303263506;639144;525584;641948;172873;
2024-05-14T12:08:06.867;538882699321430871;639188;525574;641932;172921;
2024-05-14T12:08:06.885;538882699339598236;639334;525656;642034;172947;
2024-05-14T12:08:06.903;538882699357765601;639458;525659;642145;172848;
2024-05-14T12:08:06.921;538882699375932966;639542;525766;642230;172862;
2024-05-14T12:08:06.939;538882699394100331;639609;525840;642319;172845;
2024-05-14T12:08:06.958;538882699412267696;639624;525801;642346;172896;
2024-05-14T12:08:06.976;538882699430435061;639646;525856;642413;172923;
2024-05-14T12:08:06.994;538882699448602426;639623;525820;642370;172838;
2024-05-14T12:08:07.012;538882699466769791;639591;525818;642422;172868;
2024-05-14T12:08:07.030;538882699484937156;639548;525785;642356;172867;
2024-05-14T12:08:07.048;538882699503106781;639576;525709;642354;172879;
2024-05-14T12:08:07.067;538882699521276390;639532;525690;642326;172884;
2024-05-14T12:08:07.085;538882699539445999;639615;525783;642412;172928;
2024-05-14T12:08:07.103;538882699557615608;639644;525708;642442;172933;
2024-05-14T12:08:07.121;538882699575785217;639691;525816;642567;172923;
2024-05-14T12:08:07.139;538882699593954826;639797;525873;642682;172885;
2024-05-14T12:08:07.157;538882699612124435;639756;525887;642660;172911;
2024-05-14T12:08:07.176;538882699630294044;639363;525651;642311;172878;
2024-05-14T12:08:07.194;538882699648463653;638827;525317;641841;172873;
2024-05-14T12:08:07.212;538882699666633262;638195;524889;641204;172936;
2024-05-14T12:08:07.230;538882699684802871;637474;524511;640630;172942;
2024-05-14T12:08:07.248;538882699702972480;636787;524057;639969;172905;
2024-05-14T12:08:07.266;538882699721142089;636301;523724;639514;172889;
2024-05-14T12:08:07.285;538882699739311698;635987;523465;639220;172897;
2024-05-14T12:08:07.303;538882699757481307;635849;523313;639026;172870;
2024-05-14T12:08:07.321;538882699775650916;635795;523302;638994;172885;
2024-05-14T12:08:07.339;538882699793820525;635799;523227;638918;172888;
2024-05-14T12:08:07.357;538882699811990134;635886;523301;639028;172912;
2024-05-14T12:08:07.375;538882699830159743;636024;523402;639123;172912;
2024-05-14T12:08:07.394;538882699848329352;636211;523439;639286;172915;
2024-05-14T12:08:07.412;538882699866498961;636221;523450;639381;172931;
2024-05-14T12:08:07.430;538882699884668570;636239;523535;639392;172929;
2024-05-14T12:08:07.448;538882699902838179;636204;523538;639440;172909;
2024-05-14T12:08:07.466;538882699921007788;636261;523594;639504;172923;
2024-05-14T12:08:07.484;538882699939177397;636311;523531;639402;172933;
2024-05-14T12:08:07.503;538882699957347006;636317;523477;639400;172921;
2024-05-14T12:08:07.521;538882699975516615;636239;523506;639417;172924;
2024-05-14T12:08:07.539;538882699993686224;636219;523475;639448;172839;
2024-05-14T12:08:07.557;538882700011855833;636354;523537;639513;172884;
2024-05-14T12:08:07.575;538882700030025442;636349;523539;639526;172866;
2024-05-14T12:08:07.593;538882700048195051;636541;523656;639648;172947;
2024-05-14T12:08:07.612;538882700066364660;636563;523728;639745;172846;
2024-05-14T12:08:07.630;538882700084534269;636359;523591;639580;172908;
2024-05-14T12:08:07.648;538882700102703878;635859;523353;639176;172909;
2024-05-14T12:08:07.666;538882700120872781;635157;522967;638582;172924;
2024-05-14T12:08:07.684;538882700139041672;634415;522436;637860;172862;
2024-05-14T12:08:07.703;538882700157210563;633749;521973;637223;172861;
2024-05-14T12:08:07.721;538882700175379454;633139;521560;636642;172891;
2024-05-14T12:08:07.739;538882700193548345;632645;521260;636185;172854;
2024-05-14T12:08:07.757;538882700211717236;632245;521029;635887;172868;
2024-05-14T12:08:07.775;538882700229886127;632195;520845;635783;172909;
2024-05-14T12:08:07.793;538882700248055018;632143;520895;635681;172923;
2024-05-14T12:08:07.812;538882700266223909;632153;520819;635654;172897;
2024-05-14T12:08:07.830;538882700284392800;632250;520893;635741;172902;
2024-05-14T12:08:07.848;538882700302561691;632355;520931;635838;172905;
2024-05-14T12:08:07.866;538882700320730582;632449;520986;635938;172869;
2024-05-14T12:08:07.884;538882700338899473;632512;520996;635999;172884;
2024-05-14T12:08:07.902;538882700357068364;632632;521059;636049;172891;
2024-05-14T12:08:07.921;538882700375237255;632566;521055;636047;172870;
2024-05-14T12:08:07.939;538882700393406146;632526;521071;636016;172892;
2024-05-14T12:08:07.957;538882700411575037;632493;520981;636041;172855;
2024-05-14T12:08:07.975;538882700429743928;632466;521030;636028;172888;
2024-05-14T12:08:07.993;538882700447912819;632525;521028;636065;172878;
2024-05-14T12:08:08.011;538882700466081710;632525;521009;636038;172878;
2024-05-14T12:08:08.030;538882700484250601;632607;521057;636102;172883;
2024-05-14T12:08:08.048;538882700502419492;632649;521110;636201;172931;
2024-05-14T12:08:08.066;538882700520588383;632779;521211;636248;172928;
2024-05-14T12:08:08.084;538882700538757274;632829;521208;636331;172926;
2024-05-14T12:08:08.102;538882700556926165;632553;521074;636133;172890;
2024-05-14T12:08:08.120;538882700575095056;631981;520750;635712;172904;
2024-05-14T12:08:08.139;538882700593263947;631222;520373;635052;172890;
2024-05-14T12:08:08.157;538882700611432838;630425;519826;634383;172932;
2024-05-14T12:08:08.175;538882700629601729;629678;519323;633671;172891;
2024-05-14T12:08:08.193;538882700647770620;629046;518991;633099;172878;
2024-05-14T12:08:08.211;538882700665939511;628593;518683;632648;172865;
2024-05-14T12:08:08.229;538882700684108402;628312;518455;632302;172848;
2024-05-14T12:08:08.248;538882700702277293;628075;518230;632055;172840;
2024-05-14T12:08:08.266;538882700720446184;628071;518224;632012;172874;
2024-05-14T12:08:08.284;538882700738615075;628059;518230;632087;172871;
2024-05-14T12:08:08.302;538882700756783966;628144;518297;632137;172904;
2024-05-14T12:08:08.320;538882700774952857;628159;518343;632205;172898;
2024-05-14T12:08:08.338;538882700793121748;628230;518360;632224;172937;
2024-05-14T12:08:08.357;538882700811290639;628309;518401;632288;172861;
2024-05-14T12:08:08.375;538882700829459332;628255;518382;632297;172864;
2024-05-14T12:08:08.393;538882700847628011;628252;518330;632286;172934;
2024-05-14T12:08:08.411;538882700865796690;628235;518427;632324;172870;
2024-05-14T12:08:08.429;538882700883965369;628256;518311;632378;172881;
2024-05-14T12:08:08.447;538882700902134048;628244;518376;632396;172932;
2024-05-14T12:08:08.466;538882700920302727;628176;518480;632341;172907;
2024-05-14T12:08:08.484;538882700938471406;628255;518441;632401;172868;
2024-05-14T12:08:08.502;538882700956640085;628349;518486;632485;172934;
2024-05-14T12:08:08.520;538882700974808764;628352;518447;632485;172872;
2024-05-14T12:08:08.538;538882700992977443;628452;518523;632640;172897;
2024-05-14T12:08:08.556;538882701011146122;628562;518688;632779;172914;
2024-05-14T12:08:08.575;538882701029314801;628498;518604;632740;172907;
2024-05-14T12:08:08.593;538882701047483480;628053;518405;632418;172901;
2024-05-14T12:08:08.611;538882701065652159;627346;518005;631761;172896;
2024-05-14T12:08:08.629;538882701083820838;626572;517532;631025;172911;
2024-05-14T12:08:08.647;538882701101989517;625785;517017;630362;172951;
2024-05-14T12:08:08.665;538882701120158196;625115;516603;629771;172892;
2024-05-14T12:08:08.684;538882701138326875;624719;516273;629317;172900;
2024-05-14T12:08:08.702;538882701156495554;624356;516021;629047;172900;
2024-05-14T12:08:08.720;538882701174664233;624211;515897;628789;172890;
2024-05-14T12:08:08.738;538882701192832912;624064;515864;628702;172907;
2024-05-14T12:08:08.756;538882701211001591;624117;515892;628715;172872;
2024-05-14T12:08:08.774;538882701229170270;624183;515923;628842;172912;
2024-05-14T12:08:08.793;538882701247338949;624325;516011;628867;172914;
2024-05-14T12:08:08.811;538882701265507628;624421;516124;629010;172908;
2024-05-14T12:08:08.829;538882701283676307;624539;516115;629114;172924;
2024-05-14T12:08:08.847;538882701301844986;624466;516116;629128;172900;
2024-05-14T12:08:08.865;538882701320013665;624476;516106;629138;172901;
2024-05-14T12:08:08.883;538882701338182344;624430;516148;629097;172879;
2024-05-14T12:08:08.902;538882701356351023;624449;516087;629102;172906;
2024-05-14T12:08:08.920;538882701374519702;624419;516112;629079;172811;
2024-05-14T12:08:08.938;538882701392688381;624429;516083;629202;172900;
2024-05-14T12:08:08.956;538882701410857060;624471;516152;629241;172925;
2024-05-14T12:08:08.974;538882701429025739;624514;516214;629273;172885;
2024-05-14T12:08:08.992;538882701447194418;624620;516265;629406;172904;
2024-05-14T12:08:09.011;538882701465363097;624667;516347;629460;172850;
2024-05-14T12:08:09.029;538882701483533088;624808;516417;629624;172832;
2024-05-14T12:08:09.047;538882701501703069;624976;516534;629866;172885;
2024-05-14T12:08:09.065;538882701519873050;624855;516494;629834;172894;
2024-05-14T12:08:09.083;538882701538043031;624453;516274;629487;172880;
2024-05-14T12:08:09.102;538882701556213012;623715;515874;628822;172833;
2024-05-14T12:08:09.120;538882701574382993;623125;515456;628245;172884;
2024-05-14T12:08:09.138;538882701592552974;622330;515020;627618;172909;
2024-05-14T12:08:09.156;538882701610722955;621822;514705;627111;172914;
2024-05-14T12:08:09.174;538882701628892936;621376;514303;626608;172856;
2024-05-14T12:08:09.192;538882701647062917;621030;514150;626339;172856;
2024-05-14T12:08:09.211;538882701665232898;620936;514079;626217;172874;
2024-05-14T12:08:09.229;538882701683402879;621025;514062;626296;172926;
2024-05-14T12:08:09.247;538882701701572860;621082;514119;626332;172914;
2024-05-14T12:08:09.265;538882701719742841;621257;514234;626471;172917;
2024-05-14T12:08:09.283;538882701737912822;621396;514246;626597;172915;
2024-05-14T12:08:09.301;538882701756082803;621489;514422;626809;172897;
2024-05-14T12:08:09.320;538882701774252784;621683;514457;626953;172892;
2024-05-14T12:08:09.338;538882701792422765;621668;514533;627008;172863;
2024-05-14T12:08:09.356;538882701810592746;621690;514536;627016;172851;
2024-05-14T12:08:09.374;538882701828762727;621780;514613;627110;172934;
2024-05-14T12:08:09.392;538882701846932708;621799;514668;627208;172932;
2024-05-14T12:08:09.410;538882701865102689;621736;514622;627104;172863;
2024-05-14T12:08:09.429;538882701883272670;621817;514651;627259;172895;
2024-05-14T12:08:09.447;538882701901442651;621876;514754;627314;172932;
2024-05-14T12:08:09.465;538882701919612632;621925;514779;627357;172915;
2024-05-14T12:08:09.483;538882701937782613;622034;514796;627487;172884;
2024-05-14T12:08:09.501;538882701955952594;622151;514938;627600;172885;
2024-05-14T12:08:09.519;538882701974122575;622348;515046;627842;172956;
2024-05-14T12:08:09.538;538882701992292556;622534;515127;627895;172889;
2024-05-14T12:08:09.556;538882702010462537;622576;515240;628074;172868;
2024-05-14T12:08:09.574;538882702028632518;622369;515164;627960;172902;
2024-05-14T12:08:09.592;538882702046802499;621862;514840;627605;172880;
2024-05-14T12:08:09.610;538882702064972480;621272;514521;626995;172898;
2024-05-14T12:08:09.628;538882702083142461;620577;514063;626402;172901;
2024-05-14T12:08:09.647;538882702101312442;619929;513724;625840;172875;
2024-05-14T12:08:09.665;538882702119482863;619502;513455;625419;172897;
2024-05-14T12:08:09.683;538882702137653280;619167;513227;625132;172894;
2024-05-14T12:08:09.701;538882702155823697;619087;513166;625074;172915;
2024-05-14T12:08:09.719;538882702173994114;619110;513183;625131;172896;
2024-05-14T12:08:09.737;538882702192164531;619158;513233;625163;172854;
2024-05-14T12:08:09.756;538882702210334948;619376;513354;625336;172916;
2024-05-14T12:08:09.774;538882702228505365;619547;513506;625556;172861;
2024-05-14T12:08:09.792;538882702246675782;619735;513664;625710;172866;
2024-05-14T12:08:09.810;538882702264846199;619877;513743;625839;172841;
2024-05-14T12:08:09.828;538882702283016616;619986;513796;626033;172845;
2024-05-14T12:08:09.846;538882702301187033;620083;513833;626101;172887;
2024-05-14T12:08:09.865;538882702319357450;620123;513896;626172;172884;
2024-05-14T12:08:09.883;538882702337527867;620072;513888;626220;172850;
2024-05-14T12:08:09.901;538882702355698284;620109;513970;626270;172872;
2024-05-14T12:08:09.919;538882702373868701;620096;513905;626300;172866;
2024-05-14T12:08:09.937;538882702392039118;620199;514009;626398;172879;
2024-05-14T12:08:09.956;538882702410209535;620281;514004;626456;172872;
2024-05-14T12:08:09.974;538882702428379952;620319;514081;626574;172824;
2024-05-14T12:08:09.992;538882702446550369;620469;514213;626727;172888;
2024-05-14T12:08:10.010;538882702464720786;620669;514336;626852;172848;
2024-05-14T12:08:10.028;538882702482891203;620864;514436;627000;172880;
2024-05-14T12:08:10.046;538882702501061620;621025;514567;627229;172803;
2024-05-14T12:08:10.065;538882702519232037;620914;514605;627230;172823;
2024-05-14T12:08:10.083;538882702537402454;620531;514373;626914;172857;
2024-05-14T12:08:10.101;538882702555572871;619991;514084;626419;172873;
2024-05-14T12:08:10.119;538882702573743288;619327;513666;625865;172903;
2024-05-14T12:08:10.137;538882702591913705;618778;513399;625396;172956;
2024-05-14T12:08:10.155;538882702610084122;618316;513043;624942;172913;
2024-05-14T12:08:10.174;538882702628254539;617904;512799;624587;172890;
2024-05-14T12:08:10.192;538882702646424956;617717;512716;624397;172864;
2024-05-14T12:08:10.210;538882702664595373;617703;512717;624430;172903;
2024-05-14T12:08:10.228;538882702682765790;617750;512792;624493;172868;
2024-05-14T12:08:10.246;538882702700936207;617986;512845;624697;172903;
2024-05-14T12:08:10.264;538882702719106624;618202;512975;624909;172870;
2024-05-14T12:08:10.283;538882702737277041;618369;513112;625045;172866;
2024-05-14T12:08:10.301;538882702755447458;618618;513301;625295;172883;
2024-05-14T12:08:10.319;538882702773617875;618699;513431;625377;172896;
2024-05-14T12:08:10.337;538882702791788292;618797;513523;625533;172903;
2024-05-14T12:08:10.355;538882702809956651;618845;513492;625565;172912;
2024-05-14T12:08:10.373;538882702828125006;618826;513541;625675;172917;
2024-05-14T12:08:10.392;538882702846293361;618867;513523;625686;172822;
2024-05-14T12:08:10.410;538882702864461716;618950;513581;625757;172884;
2024-05-14T12:08:10.428;538882702882630071;618944;513617;625803;172881;
2024-05-14T12:08:10.446;538882702900798426;619024;513659;625883;172903;
2024-05-14T12:08:10.464;538882702918966781;619129;513741;625965;172908;
2024-05-14T12:08:10.482;538882702937135136;619283;513874;626132;172874;
2024-05-14T12:08:10.501;538882702955303491;619408;514039;626324;172903;
2024-05-14T12:08:10.519;538882702973471846;619627;514113;626480;172924;
2024-05-14T12:08:10.537;538882702991640201;619719;514152;626617;172917;
2024-05-14T12:08:10.555;538882703009808556;619432;514084;626394;172925;
2024-05-14T12:08:10.573;538882703027976911;618967;513782;626037;172892;
2024-05-14T12:08:10.591;538882703046145266;618248;513420;625380;172912;
2024-05-14T12:08:10.610;538882703064313621;617570;512997;624798;172900;
2024-05-14T12:08:10.628;538882703082481976;616897;512628;624233;172897;
2024-05-14T12:08:10.646;538882703100650331;616483;512295;623828;172946;
2024-05-14T12:08:10.664;538882703118818686;616176;512064;623551;172904;
2024-05-14T12:08:10.682;538882703136987041;616110;512018;623389;172903;
2024-05-14T12:08:10.700;538882703155155396;616072;512033;623435;172948;
2024-05-14T12:08:10.719;538882703173323751;616135;512104;623460;172891;
2024-05-14T12:08:10.737;538882703191492106;616227;512140;623550;172866;
2024-05-14T12:08:10.755;538882703209660461;616460;512310;623747;172863;
2024-05-14T12:08:10.773;538882703227828816;616682;512436;623945;172880;
2024-05-14T12:08:10.791;538882703245997171;616747;512516;624053;172867;
2024-05-14T12:08:10.809;538882703264165526;616838;512574;624199;172894;
2024-05-14T12:08:10.828;538882703282333881;616898;512586;624231;172861;
2024-05-14T12:08:10.846;538882703300502236;616892;512652;624330;172903;
2024-05-14T12:08:10.864;538882703318670591;616851;512681;624266;172898;
2024-05-14T12:08:10.882;538882703336838946;616892;512650;624266;172877;
2024-05-14T12:08:10.900;538882703355007301;616890;512669;624311;172891;
2024-05-14T12:08:10.918;538882703373175656;616879;512753;624363;172809;
2024-05-14T12:08:10.937;538882703391344011;616985;512810;624437;172860;
2024-05-14T12:08:10.955;538882703409512366;617087;512861;624527;172878;
2024-05-14T12:08:10.973;538882703427680721;617253;512908;624751;172863;
2024-05-14T12:08:10.991;538882703445849076;617404;513061;624817;172875;
2024-05-14T12:08:11.009;538882703464017431;617450;513112;624923;172850;
2024-05-14T12:08:11.027;538882703482185248;617302;512993;624833;172883;
2024-05-14T12:08:11.046;538882703500353049;616841;512828;624488;172881;
2024-05-14T12:08:11.064;538882703518520850;616148;512386;623836;172889;
2024-05-14T12:08:11.082;538882703536688651;615311;511852;623105;172834;
2024-05-14T12:08:11.100;538882703554856452;614580;511443;622386;172868;
2024-05-14T12:08:11.118;538882703573024253;613972;511058;621852;172901;
2024-05-14T12:08:11.136;538882703591192054;613559;510804;621422;172869;
2024-05-14T12:08:11.155;538882703609359855;613330;510633;621196;172938;
2024-05-14T12:08:11.173;538882703627527656;613178;510482;621127;172844;
2024-05-14T12:08:11.191;538882703645695457;613231;510489;621083;172906;
2024-05-14T12:08:11.209;538882703663863258;613257;510597;621180;172891;
2024-05-14T12:08:11.227;538882703682031059;613404;510671;621279;172905;
2024-05-14T12:08:11.245;538882703700198860;613512;510832;621410;172886;
2024-05-14T12:08:11.264;538882703718366661;613547;510859;621473;172850;
2024-05-14T12:08:11.282;538882703736534462;613658;510870;621567;172868;
2024-05-14T12:08:11.300;538882703754702263;613646;510851;621600;172887;
2024-05-14T12:08:11.318;538882703772870064;613592;510874;621601;172850;
2024-05-14T12:08:11.336;538882703791037865;613597;510825;621635;172934;
2024-05-14T12:08:11.354;538882703809205666;613587;510780;621571;172915;
2024-05-14T12:08:11.373;538882703827373467;613609;510817;621569;172874;
2024-05-14T12:08:11.391;538882703845541268;613589;510871;621540;172857;
2024-05-14T12:08:11.409;538882703863709069;613591;510937;621629;172797;
2024-05-14T12:08:11.427;538882703881876870;613632;510899;621698;172822;
2024-05-14T12:08:11.445;538882703900044671;613735;510921;621797;172838;
2024-05-14T12:08:11.464;538882703918212472;613864;511071;621973;172863;
2024-05-14T12:08:11.482;538882703936380273;613972;511159;622072;172860;
2024-05-14T12:08:11.500;538882703954548074;613831;511170;621936;172850;
2024-05-14T12:08:11.518;538882703972715875;613305;510845;621547;172844;
2024-05-14T12:08:11.536;538882703990883676;612601;510346;620917;172868;
2024-05-14T12:08:11.554;538882704009051477;611622;509776;620068;172837;
2024-05-14T12:08:11.573;538882704027219278;610762;509319;619346;172834;
2024-05-14T12:08:11.591;538882704045387079;610078;508897;618728;172853;
2024-05-14T12:08:11.609;538882704063554880;609534;508538;618174;172813;
2024-05-14T12:08:11.627;538882704081722681;609150;508293;617809;172891;
2024-05-14T12:08:11.645;538882704099890482;608952;508095;617534;172826;
2024-05-14T12:08:11.663;538882704118059663;608865;508036;617463;172868;
2024-05-14T12:08:11.682;538882704136228843;608793;508053;617543;172814;
2024-05-14T12:08:11.700;538882704154398023;608877;508062;617583;172866;
2024-05-14T12:08:11.718;538882704172567203;609024;508091;617681;172826;
2024-05-14T12:08:11.736;538882704190736383;609093;508176;617737;172863;
2024-05-14T12:08:11.754;538882704208905563;609139;508179;617820;172932;
2024-05-14T12:08:11.772;538882704227074743;609112;508195;617819;172877;
2024-05-14T12:08:11.791;538882704245243923;609072;508139;617768;172813;
2024-05-14T12:08:11.809;538882704263413103;608997;508129;617784;172843;
2024-05-14T12:08:11.827;538882704281582283;609019;508067;617738;172816;
2024-05-14T12:08:11.845;538882704299751463;609028;508117;617800;172941;
2024-05-14T12:08:11.863;538882704317920643;609056;508081;617724;172866;
2024-05-14T12:08:11.881;538882704336089823;609075;508128;617837;172907;
2024-05-14T12:08:11.900;538882704354259003;609092;508209;617880;172835;
2024-05-14T12:08:11.918;538882704372428183;609258;508304;617940;172891;
2024-05-14T12:08:11.936;538882704390597363;609345;508292;618068;172883;
2024-05-14T12:08:11.954;538882704408766543;609461;508226;618157;172832;
2024-05-14T12:08:11.972;538882704426935723;609463;508231;618272;172865;
2024-05-14T12:08:11.990;538882704445104903;609108;508007;618089;172898;
2024-05-14T12:08:12.009;538882704463274083;608440;507700;617508;172843;
2024-05-14T12:08:12.027;538882704481443263;607667;507220;616867;172883;
2024-05-14T12:08:12.045;538882704499612443;606817;506758;616085;172852;
2024-05-14T12:08:12.063;538882704517781623;606067;506275;615290;172929;
2024-05-14T12:08:12.081;538882704535950803;605396;505822;614749;172866;
2024-05-14T12:08:12.099;538882704554119983;604985;505558;614305;172847;
2024-05-14T12:08:12.118;538882704572289163;604671;505359;614048;172862;
2024-05-14T12:08:12.136;538882704590458343;604548;505263;613916;172854;
2024-05-14T12:08:12.154;538882704608627523;604478;505232;613868;172839;
2024-05-14T12:08:12.172;538882704626796703;604564;505241;613946;172848;
2024-05-14T12:08:12.190;538882704644965883;604754;505283;613988;172850;
2024-05-14T12:08:12.208;538882704663135063;604802;505289;614056;172889;
2024-05-14T12:08:12.227;538882704681304243;604873;505387;614166;172835;
2024-05-14T12:08:12.245;538882704699473423;604884;505353;614171;172830;
2024-05-14T12:08:12.263;538882704717642603;604933;505365;614228;172849;
2024-05-14T12:08:12.281;538882704735811783;604945;505474;614270;172872;
2024-05-14T12:08:12.299;538882704753980963;604906;505413;614235;172870;
2024-05-14T12:08:12.317;538882704772150143;604914;505430;614261;172904;
2024-05-14T12:08:12.336;538882704790320662;604895;505429;614289;172885;
2024-05-14T12:08:12.354;538882704808491166;605024;505434;614323;172860;
2024-05-14T12:08:12.372;538882704826661670;605172;505515;614422;172881;
2024-05-14T12:08:12.390;538882704844832174;605211;505563;614550;172860;
2024-05-14T12:08:12.408;538882704863002678;605367;505662;614702;172880;
2024-05-14T12:08:12.426;538882704881173182;605545;505735;614907;172883;
2024-05-14T12:08:12.445;538882704899343686;605799;505878;615127;172933;
2024-05-14T12:08:12.463;538882704917514190;605975;505952;615288;172878;
2024-05-14T12:08:12.481;538882704935684694;605966;505946;615352;172877;
2024-05-14T12:08:12.499;538882704953855198;605500;505651;614938;172786;
2024-05-14T12:08:12.517;538882704972025702;604869;505288;614389;172837;
2024-05-14T12:08:12.535;538882704990196206;603971;504794;613648;172786;
2024-05-14T12:08:12.554;538882705008366710;603290;504354;612979;172917;
2024-05-14T12:08:12.572;538882705026537214;602554;503910;612358;172849;
2024-05-14T12:08:12.590;538882705044707718;602053;503542;611885;172877;
2024-05-14T12:08:12.608;538882705062878222;601728;503312;611603;172882;
2024-05-14T12:08:12.626;538882705081048726;601544;503197;611446;172883;
2024-05-14T12:08:12.645;538882705099219230;601552;503218;611394;172856;
2024-05-14T12:08:12.663;538882705117389734;601637;503288;611427;172886;
2024-05-14T12:08:12.681;538882705135560238;601728;503301;611479;172885;
2024-05-14T12:08:12.699;538882705153730742;601866;503309;611590;172847;
2024-05-14T12:08:12.717;538882705171901246;602017;503377;611784;172861;
2024-05-14T12:08:12.735;538882705190071750;602142;503504;611978;172863;
2024-05-14T12:08:12.754;538882705208242254;602156;503518;612061;172855;
2024-05-14T12:08:12.772;538882705226412758;602178;503576;612145;172871;
2024-05-14T12:08:12.790;538882705244583262;602205;503552;612049;172880;
2024-05-14T12:08:12.808;538882705262753766;602314;503537;612114;172855;
2024-05-14T12:08:12.826;538882705280924270;602343;503507;612166;172872;
2024-05-14T12:08:12.844;538882705299094774;602415;503641;612308;172862;
2024-05-14T12:08:12.863;538882705317265278;602540;503694;612362;172912;
2024-05-14T12:08:12.881;538882705335435782;602711;503738;612485;172951;
2024-05-14T12:08:12.899;538882705353606286;602855;503842;612639;172880;
2024-05-14T12:08:12.917;538882705371776790;603044;503965;612804;172883;
2024-05-14T12:08:12.935;538882705389947294;603191;504096;612993;172863;
2024-05-14T12:08:12.953;538882705408117798;603464;504245;613249;172830;
2024-05-14T12:08:12.972;538882705426288980;603777;504415;613587;172819;
2024-05-14T12:08:12.990;538882705444460160;604016;504549;613762;172875;
2024-05-14T12:08:13.008;538882705462631340;603967;504498;613741;172874;
2024-05-14T12:08:13.026;538882705480802520;603491;504275;613391;172888;
2024-05-14T12:08:13.044;538882705498973700;602809;503872;612756;172855;
2024-05-14T12:08:13.062;538882705517144880;602051;503427;612141;172832;
2024-05-14T12:08:13.081;538882705535316060;601428;502944;611565;172838;
2024-05-14T12:08:13.099;538882705553487240;600903;502628;611089;172894;
2024-05-14T12:08:13.117;538882705571658420;600572;502416;610737;172860;
2024-05-14T12:08:13.135;538882705589829600;600413;502299;610629;172858;
2024-05-14T12:08:13.153;538882705608000780;600409;502264;610565;172850;
2024-05-14T12:08:13.171;538882705626171960;600472;502340;610718;172837;
2024-05-14T12:08:13.190;538882705644343140;600688;502443;610919;172833;
2024-05-14T12:08:13.208;538882705662514320;600879;502520;611062;172794;
2024-05-14T12:08:13.226;538882705680685500;601125;502702;611253;172878;
2024-05-14T12:08:13.244;538882705698856680;601271;502819;611390;172835;
2024-05-14T12:08:13.262;538882705717027860;601422;502850;611510;172891;
2024-05-14T12:08:13.280;538882705735199040;601516;502915;611678;172877;
2024-05-14T12:08:13.299;538882705753370220;601501;502900;611659;172827;
2024-05-14T12:08:13.317;538882705771541400;601590;502951;611697;172811;
2024-05-14T12:08:13.335;538882705789712580;601651;503031;611875;172841;
2024-05-14T12:08:13.353;538882705807883760;601816;503113;611933;172834;
2024-05-14T12:08:13.371;538882705826054940;601875;503210;612123;172847;
2024-05-14T12:08:13.390;538882705844226120;602114;503273;612264;172846;
2024-05-14T12:08:13.408;538882705862397300;602257;503364;612404;172897;
2024-05-14T12:08:13.426;538882705880568480;602451;503507;612603;172872;
2024-05-14T12:08:13.444;538882705898739660;602606;503662;612868;172817;
2024-05-14T12:08:13.462;538882705916910840;602979;503881;613130;172968;
2024-05-14T12:08:13.480;538882705935082020;603237;503940;613332;172861;
2024-05-14T12:08:13.499;538882705953253200;603571;504205;613580;172865;
2024-05-14T12:08:13.517;538882705971424380;603752;504354;613811;172871;
2024-05-14T12:08:13.535;538882705989595560;603783;504428;613854;172890;
2024-05-14T12:08:13.553;538882706007766740;603389;504248;613567;172912;
2024-05-14T12:08:13.571;538882706025937920;602763;503834;613069;172908;
2024-05-14T12:08:13.589;538882706044109100;602201;503407;612486;172889;
2024-05-14T12:08:13.608;538882706062280280;601590;503032;611923;172870;
2024-05-14T12:08:13.626;538882706080447841;601176;502734;611534;172889;
2024-05-14T12:08:13.644;538882706098615366;600934;502549;611313;172865;
2024-05-14T12:08:13.662;538882706116782891;600894;502536;611279;172887;
2024-05-14T12:08:13.680;538882706134950416;600937;502627;611353;172905;
2024-05-14T12:08:13.698;538882706153117941;601166;502719;611490;172847;
2024-05-14T12:08:13.717;538882706171285466;601432;502859;611754;172872;
2024-05-14T12:08:13.735;538882706189452991;601685;503002;611944;172964;
2024-05-14T12:08:13.753;538882706207620516;601962;503127;612177;172829;
2024-05-14T12:08:13.771;538882706225788041;602201;503298;612395;172850;
2024-05-14T12:08:13.789;538882706243955566;602394;503427;612550;172875;
2024-05-14T12:08:13.807;538882706262123091;602459;503474;612633;172837;
2024-05-14T12:08:13.826;538882706280290616;602519;503588;612721;172810;
2024-05-14T12:08:13.844;538882706298458141;602583;503625;612848;172847;
2024-05-14T12:08:13.862;538882706316625666;602647;503627;612930;172882;
2024-05-14T12:08:13.880;538882706334793191;602742;503736;612999;172853;
2024-05-14T12:08:13.898;538882706352960716;602905;503859;613144;172870;
2024-05-14T12:08:13.916;538882706371128241;603152;503933;613307;172923;
2024-05-14T12:08:13.935;538882706389295766;603336;504088;613506;172923;
2024-05-14T12:08:13.953;538882706407463291;603524;504180;613700;172866;
2024-05-14T12:08:13.971;538882706425630816;603761;504312;613939;172913;
2024-05-14T12:08:13.989;538882706443798341;604048;504578;614181;172839;
2024-05-14T12:08:14.007;538882706461965866;604307;504760;614398;172839;
2024-05-14T12:08:14.025;538882706480133391;604541;504877;614632;172881;
2024-05-14T12:08:14.044;538882706498300916;604416;504832;614569;172916;
2024-05-14T12:08:14.062;538882706516468441;603956;504566;614239;172799;
2024-05-14T12:08:14.080;538882706534635966;603325;504156;613611;172768;
2024-05-14T12:08:14.098;538882706552803491;602710;503842;613131;172871;
2024-05-14T12:08:14.116;538882706570971016;602145;503487;612600;172839;
2024-05-14T12:08:14.134;538882706589138541;601773;503256;612239;172903;
2024-05-14T12:08:14.153;538882706607306066;601599;503150;612060;172924;
2024-05-14T12:08:14.171;538882706625473591;601509;503070;611978;172885;
2024-05-14T12:08:14.189;538882706643641116;601640;503073;612043;172905;
2024-05-14T12:08:14.207;538882706661808641;601817;503237;612134;172869;
2024-05-14T12:08:14.225;538882706679976166;602042;503383;612392;172858;
2024-05-14T12:08:14.243;538882706698143691;602341;503558;612631;172873;
2024-05-14T12:08:14.262;538882706716311216;602523;503642;612886;172889;
2024-05-14T12:08:14.280;538882706734478741;602716;503774;613060;172867;
2024-05-14T12:08:14.298;538882706752646266;602849;503866;613133;172885;
2024-05-14T12:08:14.316;538882706770813647;602976;503938;613252;172878;
2024-05-14T12:08:14.334;538882706788981012;603118;504037;613291;172908;
2024-05-14T12:08:14.352;538882706807148377;603137;504066;613325;172848;
2024-05-14T12:08:14.371;538882706825315742;603184;504182;613483;172820;
2024-05-14T12:08:14.389;538882706843483107;603365;504242;613591;172809;
2024-05-14T12:08:14.407;538882706861650472;603522;504282;613678;172862;
2024-05-14T12:08:14.425;538882706879817837;603669;504455;613868;172841;
2024-05-14T12:08:14.443;538882706897985202;603841;504525;614094;172843;
2024-05-14T12:08:14.461;538882706916152567;604095;504689;614279;172882;
2024-05-14T12:08:14.480;538882706934319932;604365;504820;614523;172829;
2024-05-14T12:08:14.498;538882706952487297;604587;505030;614800;172858;
2024-05-14T12:08:14.516;538882706970654662;604866;505227;615089;172848;
2024-05-14T12:08:14.534;538882706988822027;604885;505199;615118;172846;
2024-05-14T12:08:14.552;538882707006989392;604539;505057;614792;172887;
2024-05-14T12:08:14.570;538882707025156757;603905;504657;614239;172923;
2024-05-14T12:08:14.589;538882707043324122;603204;504196;613543;172847;
2024-05-14T12:08:14.607;538882707061491487;602585;503787;612980;172850;
2024-05-14T12:08:14.625;538882707079658852;602031;503535;612597;172847;
2024-05-14T12:08:14.643;538882707097826217;601731;503267;612275;172838;
2024-05-14T12:08:14.661;538882707115993582;601559;503195;612115;172886;
2024-05-14T12:08:14.679;538882707134160947;601548;503180;612010;172811;
2024-05-14T12:08:14.698;538882707152328312;601670;503195;612089;172863;
2024-05-14T12:08:14.716;538882707170495677;601807;503244;612226;172816;
2024-05-14T12:08:14.734;538882707188663042;602005;503408;612316;172821;
2024-05-14T12:08:14.752;538882707206830407;602194;503476;612538;172796;
2024-05-14T12:08:14.770;538882707224997772;602316;503561;612735;172799;
2024-05-14T12:08:14.788;538882707243165137;602469;503651;612878;172854;
2024-05-14T12:08:14.807;538882707261332502;602584;503748;612970;172898;
2024-05-14T12:08:14.825;538882707279499867;602630;503815;613017;172829;
2024-05-14T12:08:14.843;538882707297667232;602703;503855;613077;172816;
2024-05-14T12:08:14.861;538882707315834597;602788;503895;613183;172830;
2024-05-14T12:08:14.879;538882707334001962;602940;503973;613278;172849;
2024-05-14T12:08:14.897;538882707352169327;603036;504035;613370;172870;
2024-05-14T12:08:14.916;538882707370336692;603297;504125;613550;172824;
2024-05-14T12:08:14.934;538882707388504057;603393;504279;613761;172823;
2024-05-14T12:08:14.952;538882707406671422;603630;504407;613963;172845;
2024-05-14T12:08:14.970;538882707424838787;603869;504521;614142;172883;
2024-05-14T12:08:14.988;538882707443006152;604176;504684;614408;172920;
2024-05-14T12:08:15.006;538882707461173997;604451;504950;614740;172857;
2024-05-14T12:08:15.025;538882707479341842;604636;505075;614877;172855;
2024-05-14T12:08:15.043;538882707497509687;604482;504989;614781;172832;
2024-05-14T12:08:15.061;538882707515677532;604004;504685;614432;172843;
2024-05-14T12:08:15.079;538882707533845377;603361;504317;613757;172874;
2024-05-14T12:08:15.097;538882707552013222;602570;503899;613201;172855;
2024-05-14T12:08:15.115;538882707570181067;602025;503526;612591;172883;
2024-05-14T12:08:15.134;538882707588348912;601567;503145;612142;172872;
2024-05-14T12:08:15.152;538882707606516757;601262;502985;611867;172840;
2024-05-14T12:08:15.170;538882707624684602;601086;502889;611707;172813;
2024-05-14T12:08:15.188;538882707642852447;601073;502841;611647;172852;
2024-05-14T12:08:15.206;538882707661020292;601197;502844;611745;172883;
2024-05-14T12:08:15.224;538882707679188137;601245;502928;611810;172847;
2024-05-14T12:08:15.243;538882707697355982;601402;503045;611965;172854;
2024-05-14T12:08:15.261;538882707715523827;601578;503188;612041;172867;
2024-05-14T12:08:15.279;538882707733691672;601737;503297;612217;172873;
2024-05-14T12:08:15.297;538882707751859517;601916;503318;612329;172901;
2024-05-14T12:08:15.315;538882707770027362;602022;503358;612430;172906;
2024-05-14T12:08:15.333;538882707788195207;602076;503455;612548;172849;
2024-05-14T12:08:15.352;538882707806363052;602150;503460;612579;172886;
2024-05-14T12:08:15.370;538882707824530897;602261;503555;612625;172851;
2024-05-14T12:08:15.388;538882707842698742;602414;503681;612837;172857;
2024-05-14T12:08:15.406;538882707860866587;602593;503691;612956;172871;
2024-05-14T12:08:15.424;538882707879034432;602741;503762;613125;172818;
2024-05-14T12:08:15.442;538882707897202277;602898;503911;613278;172776;
2024-05-14T12:08:15.461;538882707915370122;603195;504080;613502;172854;
2024-05-14T12:08:15.479;538882707933537967;603429;504241;613717;172813;
2024-05-14T12:08:15.497;538882707951705812;603745;504410;614021;172854;
2024-05-14T12:08:15.515;538882707969873657;604017;504633;614274;172860;
2024-05-14T12:08:15.533;538882707988041502;604359;504732;614588;172858;
2024-05-14T12:08:15.552;538882708006209347;604396;504897;614669;172913;
2024-05-14T12:08:15.570;538882708024377192;604171;504747;614480;172858;
2024-05-14T12:08:15.588;538882708042545037;603621;504444;614005;172865;
2024-05-14T12:08:15.606;538882708060712882;602967;504085;613508;172880;
2024-05-14T12:08:15.624;538882708078880727;602371;503706;612845;172887;
2024-05-14T12:08:15.642;538882708097048466;601909;503381;612454;172850;
2024-05-14T12:08:15.661;538882708115216183;601583;503074;612129;172833;
2024-05-14T12:08:15.679;538882708133383900;601426;503011;611993;172880;
2024-05-14T12:08:15.697;538882708151551617;601381;502938;611952;172900;
2024-05-14T12:08:15.715;538882708169719334;601389;502949;611966;172828;
2024-05-14T12:08:15.733;538882708187887051;601534;502978;612044;172849;
2024-05-14T12:08:15.751;538882708206054768;601719;503099;612210;172892;
2024-05-14T12:08:15.770;538882708224222485;601959;503326;612470;172918;
2024-05-14T12:08:15.788;538882708242390202;602139;503443;612613;172904;
2024-05-14T12:08:15.806;538882708260557919;602281;503492;612755;172890;
2024-05-14T12:08:15.824;538882708278725636;602420;503545;612852;172855;
2024-05-14T12:08:15.842;538882708296893353;602597;503665;612940;172833;
2024-05-14T12:08:15.860;538882708315061070;602622;503626;613048;172834;
2024-05-14T12:08:15.879;538882708333228787;602700;503739;613152;172850;
2024-05-14T12:08:15.897;538882708351396504;602852;503754;613266;172816;
2024-05-14T12:08:15.915;538882708369564221;603044;503960;613442;172878;
2024-05-14T12:08:15.933;538882708387731938;603267;503989;613621;172865;
2024-05-14T12:08:15.951;538882708405899655;603424;504180;613764;172828;
2024-05-14T12:08:15.969;538882708424067372;603664;504377;613994;172809;
2024-05-14T12:08:15.988;538882708442235089;603915;504471;614226;172853;
2024-05-14T12:08:16.006;538882708460402806;604274;504661;614528;172855;
2024-05-14T12:08:16.024;538882708478570523;604546;504871;614842;172862;
2024-05-14T12:08:16.042;538882708496738240;604890;504971;615110;172868;
2024-05-14T12:08:16.060;538882708514905957;605220;505260;615471;172890;
2024-05-14T12:08:16.078;538882708533073674;605488;505504;615745;172837;
2024-05-14T12:08:16.097;538882708551241391;605465;505469;615713;172880;
2024-05-14T12:08:16.115;538882708569409108;605165;505286;615471;172863;
2024-05-14T12:08:16.133;538882708587576825;604577;504971;615005;172892;
2024-05-14T12:08:16.151;538882708605744542;604058;504681;614544;172827;
2024-05-14T12:08:16.169;538882708623912259;603540;504352;614098;172877;
2024-05-14T12:08:16.187;538882708642079976;603221;504111;613830;172858;
2024-05-14T12:08:16.206;538882708660247693;603095;503934;613627;172885;
2024-05-14T12:08:16.224;538882708678415410;602934;503912;613530;172858;
2024-05-14T12:08:16.242;538882708696583127;603065;503919;613609;172918;
2024-05-14T12:08:16.260;538882708714750844;603274;504109;613724;172913;
2024-05-14T12:08:16.278;538882708732918561;603458;504126;613883;172899;
2024-05-14T12:08:16.296;538882708751086278;603697;504342;614148;172830;
2024-05-14T12:08:16.315;538882708769253995;603962;504509;614412;172858;
2024-05-14T12:08:16.333;538882708787421712;604179;504604;614578;172863;
2024-05-14T12:08:16.351;538882708805589468;604414;504763;614724;172835;
2024-05-14T12:08:16.369;538882708823757196;604566;504908;614912;172866;
2024-05-14T12:08:16.387;538882708841924924;604685;505013;615053;172826;
2024-05-14T12:08:16.405;538882708860092652;604800;505028;615151;172852;
2024-05-14T12:08:16.424;538882708878260380;604941;505126;615278;172858;
2024-05-14T12:08:16.442;538882708896428108;605079;505221;615393;172872;
2024-05-14T12:08:16.460;538882708914595836;605264;505318;615558;172899;
2024-05-14T12:08:16.478;538882708932763564;605403;505486;615751;172841;
2024-05-14T12:08:16.496;538882708950931292;605686;505647;615897;172850;
2024-05-14T12:08:16.514;538882708969099020;605863;505843;616193;172834;
2024-05-14T12:08:16.533;538882708987266748;606208;505974;616483;172858;
2024-05-14T12:08:16.551;538882709005434476;606493;506119;616719;172831;
2024-05-14T12:08:16.569;538882709023602204;606794;506400;617038;172900;
2024-05-14T12:08:16.587;538882709041769932;607166;506588;617362;172897;
2024-05-14T12:08:16.605;538882709059937660;607427;506798;617648;172897;
2024-05-14T12:08:16.623;538882709078105388;607821;507031;617936;172926;
2024-05-14T12:08:16.642;538882709096273116;608132;507242;618269;172856;
2024-05-14T12:08:16.660;538882709114440844;608175;507321;618410;172903;
2024-05-14T12:08:16.678;538882709132608572;607974;507149;618237;172883;
2024-05-14T12:08:16.696;538882709150776300;607538;506939;617928;172850;
2024-05-14T12:08:16.714;538882709168944028;607036;506617;617457;172874;
2024-05-14T12:08:16.732;538882709187111756;606577;506301;617007;172843;
2024-05-14T12:08:16.751;538882709205279484;606281;506176;616792;172880;
2024-05-14T12:08:16.769;538882709223447212;606128;505994;616589;172821;
2024-05-14T12:08:16.787;538882709241614940;606126;505954;616587;172819;
2024-05-14T12:08:16.805;538882709259782668;606203;506043;616646;172870;
2024-05-14T12:08:16.823;538882709277950396;606449;506171;616803;172868;
2024-05-14T12:08:16.841;538882709296118124;606766;506338;617111;172877;
2024-05-14T12:08:16.860;538882709314285852;607044;506551;617468;172935;
2024-05-14T12:08:16.878;538882709332453580;607414;506710;617685;172882;
2024-05-14T12:08:16.896;538882709350621308;607626;506915;617852;172828;
2024-05-14T12:08:16.914;538882709368789036;607824;507063;618078;172843;
2024-05-14T12:08:16.932;538882709386956764;607995;507109;618200;172823;
2024-05-14T12:08:16.950;538882709405124492;608131;507234;618337;172853;
2024-05-14T12:08:16.969;538882709423292220;608302;507289;618542;172884;
2024-05-14T12:08:16.987;538882709441459948;608394;507462;618655;172903;
2024-05-14T12:08:17.005;538882709459627676;608546;507455;618726;172872;
2024-05-14T12:08:17.023;538882709477795404;608782;507624;618956;172873;
2024-05-14T12:08:17.041;538882709495963132;609006;507747;619181;172914;
2024-05-14T12:08:17.059;538882709514130860;609226;507892;619356;172855;
2024-05-14T12:08:17.078;538882709532298588;609468;508063;619522;172866;
2024-05-14T12:08:17.096;538882709550466316;609669;508257;619791;172865;
2024-05-14T12:08:17.114;538882709568633741;609967;508494;620048;172892;
2024-05-14T12:08:17.132;538882709586801145;610228;508619;620270;172836;
2024-05-14T12:08:17.150;538882709604968549;610591;508830;620602;172771;
2024-05-14T12:08:17.168;538882709623135953;610896;509026;620924;172833;
2024-05-14T12:08:17.187;538882709641303357;611117;509222;621149;172847;
2024-05-14T12:08:17.205;538882709659470761;611036;509176;621167;172834;
2024-05-14T12:08:17.223;538882709677638165;610766;509021;620917;172874;
2024-05-14T12:08:17.241;538882709695805569;610275;508671;620451;172884;
2024-05-14T12:08:17.259;538882709713972973;609783;508384;620036;172871;
2024-05-14T12:08:17.277;538882709732140377;609383;508133;619660;172866;
2024-05-14T12:08:17.296;538882709750307781;609216;508009;619427;172906;
2024-05-14T12:08:17.314;538882709768475185;609016;507900;619322;172885;
2024-05-14T12:08:17.332;538882709786642589;609074;507895;619275;172865;
2024-05-14T12:08:17.350;538882709804809993;609199;507931;619413;172887;
2024-05-14T12:08:17.368;538882709822977397;609432;508096;619641;172885;
2024-05-14T12:08:17.386;538882709841144801;609725;508289;619854;172911;
2024-05-14T12:08:17.405;538882709859312205;609980;508385;620117;172897;
2024-05-14T12:08:17.423;538882709877479609;610250;508552;620293;172894;
2024-05-14T12:08:17.441;538882709895647013;610403;508723;620433;172867;
2024-05-14T12:08:17.459;538882709913814417;610601;508817;620637;172889;
2024-05-14T12:08:17.477;538882709931981821;610723;508820;620735;172837;
2024-05-14T12:08:17.495;538882709950149225;610889;508965;620861;172915;
2024-05-14T12:08:17.514;538882709968316629;610924;508946;620898;172868;
2024-05-14T12:08:17.532;538882709986484033;611070;509070;621101;172901;
2024-05-14T12:08:17.550;538882710004651437;611171;509169;621226;172875;
2024-05-14T12:08:17.568;538882710022818841;611412;509241;621385;172898;
2024-05-14T12:08:17.586;538882710040986245;611657;509440;621631;172873;
2024-05-14T12:08:17.604;538882710059153649;611854;509511;621762;172881;
2024-05-14T12:08:17.623;538882710077321053;612084;509726;621986;172824;
2024-05-14T12:08:17.641;538882710095488457;612309;509859;622177;172840;
2024-05-14T12:08:17.659;538882710113655861;612564;509975;622462;172887;
2024-05-14T12:08:17.677;538882710131823265;612824;510199;622674;172848;
2024-05-14T12:08:17.695;538882710149990669;613113;510383;622922;172880;
2024-05-14T12:08:17.713;538882710168158073;613229;510485;622972;172774;
2024-05-14T12:08:17.732;538882710186325477;612991;510327;622807;172838;
2024-05-14T12:08:17.750;538882710204492881;612519;510000;622420;172872;
2024-05-14T12:08:17.768;538882710222660285;611936;509597;621864;172867;
2024-05-14T12:08:17.786;538882710240827689;611385;509275;621390;172843;
2024-05-14T12:08:17.804;538882710258995093;611089;509083;621060;172857;
2024-05-14T12:08:17.822;538882710277161266;610850;508880;620836;172862;
2024-05-14T12:08:17.841;538882710295327418;610719;508813;620721;172865;
2024-05-14T12:08:17.859;538882710313493570;610773;508823;620803;172886;
2024-05-14T12:08:17.877;538882710331659722;610883;508899;620867;172847;
2024-05-14T12:08:17.895;538882710349825874;611028;508941;620963;172846;
2024-05-14T12:08:17.913;538882710367992026;611271;509102;621220;172830;
2024-05-14T12:08:17.931;538882710386158178;611476;509215;621350;172851;
2024-05-14T12:08:17.950;538882710404324330;611665;509322;621541;172871;
2024-05-14T12:08:17.968;538882710422490482;611811;509395;621655;172890;
2024-05-14T12:08:17.986;538882710440656634;611907;509482;621816;172879;
2024-05-14T12:08:18.004;538882710458822786;612112;509593;621979;172884;
2024-05-14T12:08:18.022;538882710476988938;612169;509675;622060;172838;
2024-05-14T12:08:18.040;538882710495155090;612313;509675;622079;172888;
2024-05-14T12:08:18.059;538882710513321242;612351;509751;622176;172803;
2024-05-14T12:08:18.077;538882710531487394;612538;509823;622324;172821;
2024-05-14T12:08:18.095;538882710549653546;612649;509978;622451;172878;
2024-05-14T12:08:18.113;538882710567819698;612889;510077;622653;172892;
2024-05-14T12:08:18.131;538882710585985850;613091;510192;622794;172897;
2024-05-14T12:08:18.149;538882710604152002;613332;510316;623031;172835;
2024-05-14T12:08:18.168;538882710622318154;613553;510444;623221;172853;
2024-05-14T12:08:18.186;538882710640484306;613862;510627;623466;172833;
2024-05-14T12:08:18.204;538882710658650458;614122;510815;623739;172886;
2024-05-14T12:08:18.222;538882710676816610;614389;510971;624021;172886;
2024-05-14T12:08:18.240;538882710694982762;614394;510997;624048;172865;
2024-05-14T12:08:18.258;538882710713148914;614114;510849;623793;172894;
2024-05-14T12:08:18.277;538882710731315066;613548;510500;623301;172829;
2024-05-14T12:08:18.295;538882710749481218;613015;510112;622846;172860;
2024-05-14T12:08:18.313;538882710767647370;612528;509774;622389;172864;
2024-05-14T12:08:18.331;538882710785813522;612109;509574;622071;172856;
2024-05-14T12:08:18.349;538882710803979674;611865;509322;621815;172840;
2024-05-14T12:08:18.367;538882710822145826;611731;509248;621700;172902;
2024-05-14T12:08:18.386;538882710840311978;611687;509259;621696;172872;
2024-05-14T12:08:18.404;538882710858478130;611750;509180;621633;172828;
2024-05-14T12:08:18.422;538882710876644282;611958;509220;621755;172831;
2024-05-14T12:08:18.440;538882710894810434;612134;509310;621856;172838;
2024-05-14T12:08:18.458;538882710912976586;612363;509492;622056;172858;
2024-05-14T12:08:18.476;538882710931142738;612462;509590;622196;172857;
2024-05-14T12:08:18.495;538882710949308890;612603;509646;622317;172828;
2024-05-14T12:08:18.513;538882710967475042;612762;509710;622467;172869;
2024-05-14T12:08:18.531;538882710985644059;612905;509728;622571;172878;
2024-05-14T12:08:18.549;538882711003813074;612959;509833;622666;172866;
2024-05-14T12:08:18.567;538882711021982089;613068;509892;622799;172878;
2024-05-14T12:08:18.585;538882711040151104;613173;509934;622911;172866;
2024-05-14T12:08:18.604;538882711058320119;613356;509995;622952;172887;
2024-05-14T12:08:18.622;538882711076489134;613479;510076;623137;172907;
2024-05-14T12:08:18.640;538882711094658149;613680;510182;623243;172822;
2024-05-14T12:08:18.658;538882711112827164;613930;510302;623511;172889;
2024-05-14T12:08:18.676;538882711130996179;614162;510455;623717;172894;
2024-05-14T12:08:18.694;538882711149165194;614391;510607;623934;172855;
2024-05-14T12:08:18.713;538882711167334209;614643;510785;624185;172902;
2024-05-14T12:08:18.731;538882711185503224;614997;510902;624463;172863;
2024-05-14T12:08:18.749;538882711203672239;615288;511147;624627;172858;
2024-05-14T12:08:18.767;538882711221841254;615495;511285;624906;172831;
2024-05-14T12:08:18.785;538882711240010269;615567;511313;624894;172845;
2024-05-14T12:08:18.803;538882711258179284;615251;511147;624714;172872;
2024-05-14T12:08:18.822;538882711276348299;614775;510791;624329;172882;
2024-05-14T12:08:18.840;538882711294517314;614255;510496;623904;172905;
2024-05-14T12:08:18.858;538882711312686329;613762;510193;623500;172857;
2024-05-14T12:08:18.876;538882711330855344;613355;509875;623135;172853;
2024-05-14T12:08:18.894;538882711349024359;613110;509652;622901;172873;
2024-05-14T12:08:18.912;538882711367193374;613067;509577;622820;172880;
2024-05-14T12:08:18.931;538882711385362389;613046;509639;622821;172896;
2024-05-14T12:08:18.949;538882711403531404;613127;509615;622796;172898;
2024-05-14T12:08:18.967;538882711421700419;613321;509734;622922;172858;
2024-05-14T12:08:18.985;538882711439869434;613494;509781;623122;172869;
2024-05-14T12:08:19.003;538882711458038449;613673;509881;623288;172833;
2024-05-14T12:08:19.021;538882711476207464;613845;510020;623443;172852;
2024-05-14T12:08:19.040;538882711494376479;613987;510046;623635;172840;
2024-05-14T12:08:19.058;538882711512545494;614184;510103;623755;172879;
2024-05-14T12:08:19.076;538882711530714509;614246;510151;623775;172815;
2024-05-14T12:08:19.094;538882711548883524;614337;510213;623846;172839;
2024-05-14T12:08:19.112;538882711567052539;614380;510295;623934;172848;
2024-05-14T12:08:19.131;538882711585221554;614506;510311;623977;172857;
