Phone timestamp;sensor timestamp [ns];channel 0;channel 1;channel 2;ambient
2024-05-14T12:10:13.911;538882826367927447;597798;493394;602637;173014;
2024-05-14T12:10:13.929;538882826386091106;597249;493040;602197;173049;
2024-05-14T12:10:13.947;538882826404254765;596619;492572;601715;173062;
2024-05-14T12:10:13.965;538882826422418424;595970;492041;601116;173057;
2024-05-14T12:10:13.983;538882826440582083;595436;491515;600563;173033;
2024-05-14T12:10:14.001;538882826458745742;594923;491151;600191;173033;
2024-05-14T12:10:14.019;538882826476909401;594657;490770;599941;173026;
2024-05-14T12:10:14.038;538882826495073060;594597;490714;599932;173032;
2024-05-14T12:10:14.056;538882826513236719;594535;490691;599980;172982;
2024-05-14T12:10:14.074;538882826531400378;594691;490714;600118;173036;
2024-05-14T12:10:14.092;538882826549564037;594876;490802;600347;173034;
2024-05-14T12:10:14.110;538882826567727696;595117;490941;600561;173016;
2024-05-14T12:10:14.128;538882826585891355;595249;491099;600727;172951;
2024-05-14T12:10:14.147;538882826604055014;595460;491103;600895;173005;
2024-05-14T12:10:14.165;538882826622218673;595553;491272;601121;172965;
2024-05-14T12:10:14.183;538882826640382332;595641;491353;601255;173020;
2024-05-14T12:10:14.201;538882826658545991;595678;491411;601297;173000;
2024-05-14T12:10:14.219;538882826676709650;595778;491461;601388;173044;
2024-05-14T12:10:14.237;538882826694873309;595802;491510;601494;173069;
2024-05-14T12:10:14.256;538882826713036968;595948;491555;601681;173050;
2024-05-14T12:10:14.274;538882826731200627;596109;491747;601903;172960;
2024-05-14T12:10:14.292;538882826749364286;596491;491933;602156;173022;
2024-05-14T12:10:14.310;538882826767527945;596750;492146;602406;172980;
2024-05-14T12:10:14.328;538882826785691604;597071;492292;602722;173018;
2024-05-14T12:10:14.346;538882826803855263;597212;492382;602964;173050;
2024-05-14T12:10:14.365;538882826822018922;597385;492428;603134;172970;
2024-05-14T12:10:14.383;538882826840182581;597531;492523;603315;172981;
2024-05-14T12:10:14.401;538882826858346240;597631;492606;603539;172953;
2024-05-14T12:10:14.419;538882826876509899;597768;492775;603753;172965;
2024-05-14T12:10:14.437;538882826894673558;598000;492963;604034;172987;
2024-05-14T12:10:14.455;538882826912837217;598216;493174;604258;172992;
2024-05-14T12:10:14.474;538882826931000876;598472;493385;604517;173009;
2024-05-14T12:10:14.492;538882826949164535;598675;493597;604863;173027;
2024-05-14T12:10:14.510;538882826967328194;598642;493705;604979;173057;
2024-05-14T12:10:14.528;538882826985491853;598239;493525;604757;173004;
2024-05-14T12:10:14.546;538882827003655512;597687;493175;604413;173048;
2024-05-14T12:10:14.564;538882827021819197;597036;492756;603919;173015;
2024-05-14T12:10:14.583;538882827039982856;596467;492383;603421;173044;
2024-05-14T12:10:14.601;538882827058146515;596173;492099;603002;173009;
2024-05-14T12:10:14.619;538882827076310174;595937;491925;602792;172987;
2024-05-14T12:10:14.637;538882827094473833;596050;492048;602767;173036;
2024-05-14T12:10:14.655;538882827112637492;596249;492106;602837;173031;
2024-05-14T12:10:14.673;538882827130801151;596590;492348;603100;173062;
2024-05-14T12:10:14.692;538882827148964810;596945;492621;603503;173001;
2024-05-14T12:10:14.710;538882827167128469;597481;492949;603941;173045;
2024-05-14T12:10:14.728;538882827185292128;597901;493263;604314;173009;
2024-05-14T12:10:14.746;538882827203455787;598382;493631;604714;173065;
2024-05-14T12:10:14.764;538882827221619446;598887;493969;605125;173085;
2024-05-14T12:10:14.782;538882827239783105;599188;494245;605402;173103;
2024-05-14T12:10:14.801;538882827257946764;599454;494439;605713;173064;
2024-05-14T12:10:14.819;538882827276110423;599616;494599;605901;173036;
2024-05-14T12:10:14.837;538882827294274082;599775;494721;606071;173032;
2024-05-14T12:10:14.855;538882827312437741;600105;495043;606362;173049;
2024-05-14T12:10:14.873;538882827330601400;600402;495287;606642;173078;
2024-05-14T12:10:14.891;538882827348765059;600828;495581;607056;173068;
2024-05-14T12:10:14.910;538882827366928718;601276;495976;607428;173003;
2024-05-14T12:10:14.928;538882827385092377;601818;496414;607953;173055;
2024-05-14T12:10:14.946;538882827403256036;602436;496817;608408;173101;
2024-05-14T12:10:14.964;538882827421419695;603068;497187;608948;173093;
2024-05-14T12:10:14.982;538882827439583354;603739;497656;609450;173091;
2024-05-14T12:10:15.000;538882827457747013;604151;497920;609834;173082;
2024-05-14T12:10:15.018;538882827475910672;604460;498099;610040;173106;
2024-05-14T12:10:15.037;538882827494074331;604581;498228;610260;173073;
2024-05-14T12:10:15.055;538882827512237990;604683;498339;610470;173020;
2024-05-14T12:10:15.073;538882827530401649;604567;498331;610534;173011;
2024-05-14T12:10:15.091;538882827548565308;604060;498050;610242;173057;
2024-05-14T12:10:15.109;538882827566728967;603368;497639;609779;173099;
2024-05-14T12:10:15.127;538882827584892626;602449;497066;609157;173001;
2024-05-14T12:10:15.146;538882827603056285;601616;496407;608442;173007;
2024-05-14T12:10:15.164;538882827621219944;600946;495752;607786;172965;
2024-05-14T12:10:15.182;538882827639383603;600422;495301;607284;173020;
2024-05-14T12:10:15.200;538882827657545928;599978;494945;606924;172989;
2024-05-14T12:10:15.218;538882827675708220;599783;494663;606717;173007;
2024-05-14T12:10:15.236;538882827693870512;599662;494570;606667;173037;
2024-05-14T12:10:15.255;538882827712032804;599794;494615;606691;173024;
2024-05-14T12:10:15.273;538882827730195096;599977;494668;606807;173026;
2024-05-14T12:10:15.291;538882827748357388;600184;494803;606978;172983;
2024-05-14T12:10:15.309;538882827766519680;600393;494937;607229;173003;
2024-05-14T12:10:15.327;538882827784681972;600611;495043;607397;172957;
2024-05-14T12:10:15.345;538882827802844264;600841;495143;607573;173023;
2024-05-14T12:10:15.364;538882827821006556;601045;495345;607756;173015;
2024-05-14T12:10:15.382;538882827839168848;601314;495488;608017;173023;
2024-05-14T12:10:15.400;538882827857331140;601525;495651;608246;172992;
2024-05-14T12:10:15.418;538882827875493432;601799;495861;608386;173033;
2024-05-14T12:10:15.436;538882827893655724;601996;495962;608612;172999;
2024-05-14T12:10:15.454;538882827911818016;602282;496149;608834;173023;
2024-05-14T12:10:15.473;538882827929980308;602563;496418;609108;173019;
2024-05-14T12:10:15.491;538882827948142600;603166;496778;609501;173003;
2024-05-14T12:10:15.509;538882827966304892;603732;497250;609990;172989;
2024-05-14T12:10:15.527;538882827984467184;604141;497493;610270;172980;
2024-05-14T12:10:15.545;538882828002629476;604519;497737;610569;172998;
2024-05-14T12:10:15.563;538882828020791768;605031;498073;610997;172976;
2024-05-14T12:10:15.582;538882828038954060;605554;498397;611385;172999;
2024-05-14T12:10:15.600;538882828057116352;606073;498775;611896;173041;
2024-05-14T12:10:15.618;538882828075278644;606537;499182;612415;173014;
2024-05-14T12:10:15.636;538882828093440936;607179;499642;612900;173010;
2024-05-14T12:10:15.654;538882828111603228;607831;500071;613420;173011;
2024-05-14T12:10:15.672;538882828129765520;608214;500431;613759;173022;
2024-05-14T12:10:15.691;538882828147927812;608263;500615;613934;173021;
2024-05-14T12:10:15.709;538882828166090104;607852;500440;613665;172988;
2024-05-14T12:10:15.727;538882828184252396;607395;500154;613271;172997;
2024-05-14T12:10:15.745;538882828202414688;606990;499842;612846;173024;
2024-05-14T12:10:15.763;538882828220576980;606704;499672;612532;173072;
2024-05-14T12:10:15.781;538882828238739272;606477;499369;612275;173040;
2024-05-14T12:10:15.799;538882828256901564;606341;499180;612049;173016;
2024-05-14T12:10:15.818;538882828275063856;606159;498958;611857;173057;
2024-05-14T12:10:15.836;538882828293226148;606149;498897;611867;173095;
2024-05-14T12:10:15.854;538882828311388440;606252;498877;611942;173069;
2024-05-14T12:10:15.872;538882828329554613;606506;499039;612127;173025;
2024-05-14T12:10:15.890;538882828347720765;606789;499215;612392;173002;
2024-05-14T12:10:15.908;538882828365886917;607123;499458;612665;172975;
2024-05-14T12:10:15.927;538882828384053069;607460;499761;613050;173026;
2024-05-14T12:10:15.945;538882828402219221;607820;500035;613337;173033;
2024-05-14T12:10:15.963;538882828420385373;608092;500248;613647;172988;
2024-05-14T12:10:15.981;538882828438551525;608544;500503;613903;172945;
2024-05-14T12:10:15.999;538882828456717677;608890;500779;614223;173013;
2024-05-14T12:10:16.017;538882828474883829;609155;500910;614454;173025;
2024-05-14T12:10:16.036;538882828493049981;609176;500929;614570;173043;
2024-05-14T12:10:16.054;538882828511216133;609133;500894;614559;172990;
2024-05-14T12:10:16.072;538882828529382285;609039;500820;614618;173011;
2024-05-14T12:10:16.090;538882828547548437;609000;500854;614724;172992;
2024-05-14T12:10:16.108;538882828565714589;608928;500714;614751;172999;
2024-05-14T12:10:16.126;538882828583880741;608977;500722;614875;172975;
2024-05-14T12:10:16.145;538882828602046893;609060;500866;614998;172957;
2024-05-14T12:10:16.163;538882828620213045;609177;500932;615152;172958;
2024-05-14T12:10:16.181;538882828638379197;609290;500990;615293;173006;
2024-05-14T12:10:16.199;538882828656545349;609524;501115;615525;172996;
2024-05-14T12:10:16.217;538882828674711501;609644;501203;615692;172959;
2024-05-14T12:10:16.235;538882828692877653;609889;501283;615956;172943;
2024-05-14T12:10:16.254;538882828711043805;610135;501447;616178;173020;
2024-05-14T12:10:16.272;538882828729209957;609931;501491;616230;172990;
2024-05-14T12:10:16.290;538882828747376109;609550;501280;615914;172979;
2024-05-14T12:10:16.308;538882828765542261;608719;500744;615322;173003;
2024-05-14T12:10:16.326;538882828783708413;607841;500101;614651;173069;
2024-05-14T12:10:16.344;538882828801874565;607064;499440;613905;173038;
2024-05-14T12:10:16.363;538882828820040717;606358;498915;613279;173011;
2024-05-14T12:10:16.381;538882828838206869;605869;498463;612846;173015;
2024-05-14T12:10:16.399;538882828856373021;605473;498158;612500;173016;
2024-05-14T12:10:16.417;538882828874539173;605285;497931;612237;172982;
2024-05-14T12:10:16.435;538882828892705325;605263;497858;612198;173009;
2024-05-14T12:10:16.453;538882828910871477;605253;497781;612149;173059;
2024-05-14T12:10:16.472;538882828929037629;605279;497782;612248;173072;
2024-05-14T12:10:16.490;538882828947203781;605315;497772;612272;172985;
2024-05-14T12:10:16.508;538882828965369933;605229;497732;612352;172997;
2024-05-14T12:10:16.526;538882828983536085;605330;497839;612526;172960;
2024-05-14T12:10:16.544;538882829001702237;605676;498130;612835;173021;
2024-05-14T12:10:16.562;538882829019868389;605995;498439;613117;172960;
2024-05-14T12:10:16.581;538882829038033430;606368;498747;613411;172988;
2024-05-14T12:10:16.599;538882829056198444;606452;498874;613533;173004;
2024-05-14T12:10:16.617;538882829074363458;606333;498803;613537;172948;
2024-05-14T12:10:16.635;538882829092528472;606317;498824;613595;172982;
2024-05-14T12:10:16.653;538882829110693486;606266;498912;613660;172983;
2024-05-14T12:10:16.671;538882829128858500;606461;498911;613734;173020;
2024-05-14T12:10:16.690;538882829147023514;606510;499010;613842;172993;
2024-05-14T12:10:16.708;538882829165188528;606671;499135;613945;172974;
2024-05-14T12:10:16.726;538882829183353542;606785;499180;614135;173007;
2024-05-14T12:10:16.744;538882829201518556;606865;499320;614295;172965;
2024-05-14T12:10:16.762;538882829219683570;606974;499345;614416;172942;
2024-05-14T12:10:16.780;538882829237848584;607230;499531;614736;172982;
2024-05-14T12:10:16.799;538882829256013598;607443;499676;614899;173028;
2024-05-14T12:10:16.817;538882829274178612;607664;499890;615083;173008;
2024-05-14T12:10:16.835;538882829292343626;607857;500139;615360;172993;
2024-05-14T12:10:16.853;538882829310508640;608131;500256;615701;173031;
2024-05-14T12:10:16.871;538882829328673654;608338;500403;615854;172974;
2024-05-14T12:10:16.889;538882829346838668;608544;500658;616144;172960;
2024-05-14T12:10:16.908;538882829365003682;608532;500693;616242;172975;
2024-05-14T12:10:16.926;538882829383168696;608168;500551;616042;173028;
2024-05-14T12:10:16.944;538882829401333710;607350;500068;615507;172928;
2024-05-14T12:10:16.962;538882829419498724;606427;499373;614751;173022;
2024-05-14T12:10:16.980;538882829437663738;605380;498673;613962;173006;
2024-05-14T12:10:16.998;538882829455828752;604526;497967;613140;172994;
2024-05-14T12:10:17.017;538882829473993766;603782;497392;612509;172994;
2024-05-14T12:10:17.035;538882829492158780;603163;496975;612016;172929;
2024-05-14T12:10:17.053;538882829510323794;602815;496696;611632;172897;
2024-05-14T12:10:17.071;538882829528488808;602664;496614;611500;172965;
2024-05-14T12:10:17.089;538882829546653822;602653;496503;611469;172983;
2024-05-14T12:10:17.107;538882829564818836;602679;496512;611488;173005;
2024-05-14T12:10:17.126;538882829582983850;602813;496619;611567;172956;
2024-05-14T12:10:17.144;538882829601148864;602923;496745;611727;172958;
2024-05-14T12:10:17.162;538882829619313878;603074;496875;611828;172945;
2024-05-14T12:10:17.180;538882829637478892;603195;496956;611879;172994;
2024-05-14T12:10:17.198;538882829655643906;603313;496932;612021;173022;
2024-05-14T12:10:17.216;538882829673808920;603266;496928;612063;172984;
2024-05-14T12:10:17.235;538882829691973934;603166;496908;612024;172943;
2024-05-14T12:10:17.253;538882829710138955;603123;496907;611972;172946;
2024-05-14T12:10:17.271;538882829728303946;603049;496845;611898;172981;
2024-05-14T12:10:17.289;538882829746468937;602973;496796;611862;172984;
2024-05-14T12:10:17.307;538882829764633928;602940;496811;611845;173003;
2024-05-14T12:10:17.325;538882829782798919;602853;496750;611772;172954;
2024-05-14T12:10:17.344;538882829800963910;602973;496852;611941;173011;
2024-05-14T12:10:17.362;538882829819128901;603121;496847;611998;173014;
2024-05-14T12:10:17.380;538882829837293892;603230;496994;612072;173017;
2024-05-14T12:10:17.398;538882829855458883;603333;497074;612214;172982;
2024-05-14T12:10:17.416;538882829873623874;603432;497103;612290;172974;
2024-05-14T12:10:17.434;538882829891788865;603529;497172;612448;172940;
2024-05-14T12:10:17.453;538882829909953856;603749;497320;612588;172948;
2024-05-14T12:10:17.471;538882829928118847;603933;497502;612783;173013;
2024-05-14T12:10:17.489;538882829946283838;603769;497491;612777;172997;
2024-05-14T12:10:17.507;538882829964448829;603406;497171;612516;172996;
2024-05-14T12:10:17.525;538882829982613820;602626;496629;611848;172943;
2024-05-14T12:10:17.543;538882830000778811;601710;495997;611093;172934;
2024-05-14T12:10:17.562;538882830018943802;600818;495367;610312;172909;
2024-05-14T12:10:17.580;538882830037108793;599962;494763;609495;172937;
2024-05-14T12:10:17.598;538882830055273784;599343;494195;608957;172993;
2024-05-14T12:10:17.616;538882830073438775;598839;493897;608475;172943;
2024-05-14T12:10:17.634;538882830091603766;598635;493580;608241;172935;
2024-05-14T12:10:17.652;538882830109768757;598586;493528;608194;172957;
2024-05-14T12:10:17.671;538882830127933748;598544;493492;608248;172962;
2024-05-14T12:10:17.689;538882830146098739;598630;493615;608360;172958;
2024-05-14T12:10:17.707;538882830164263730;598802;493765;608602;172937;
2024-05-14T12:10:17.725;538882830182428721;598999;493868;608706;172922;
2024-05-14T12:10:17.743;538882830200593712;599143;493965;608855;172923;
2024-05-14T12:10:17.761;538882830218758703;599361;494218;609078;172984;
2024-05-14T12:10:17.779;538882830236923694;599511;494295;609186;172967;
2024-05-14T12:10:17.798;538882830255088685;599405;494286;609112;172915;
2024-05-14T12:10:17.816;538882830273253676;599263;494212;609055;172949;
2024-05-14T12:10:17.834;538882830291418667;598940;493932;608938;172951;
2024-05-14T12:10:17.852;538882830309583658;598680;493595;608757;173002;
2024-05-14T12:10:17.870;538882830327748649;598421;493285;608549;172964;
2024-05-14T12:10:17.888;538882830345913640;598136;492901;608392;172933;
2024-05-14T12:10:17.907;538882830364077279;597944;492752;608272;172955;
2024-05-14T12:10:17.925;538882830382240914;597773;492478;608183;172912;
2024-05-14T12:10:17.943;538882830400404549;597608;492232;608117;172937;
2024-05-14T12:10:17.961;538882830418568184;597534;492141;608107;172913;
2024-05-14T12:10:17.979;538882830436731819;597535;492045;608144;172908;
2024-05-14T12:10:17.997;538882830454895454;597612;492130;608326;172933;
2024-05-14T12:10:18.016;538882830473059089;597741;492190;608531;172974;
2024-05-14T12:10:18.034;538882830491222724;597880;492353;608738;172932;
2024-05-14T12:10:18.052;538882830509386359;598023;492514;608958;173006;
2024-05-14T12:10:18.070;538882830527549994;598109;492633;609133;173001;
2024-05-14T12:10:18.088;538882830545713629;598043;492742;609156;172983;
2024-05-14T12:10:18.106;538882830563877264;597484;492506;608825;173048;
2024-05-14T12:10:18.125;538882830582040899;596842;492138;608206;173089;
2024-05-14T12:10:18.143;538882830600204534;595916;491621;607430;173066;
2024-05-14T12:10:18.161;538882830618368169;594902;490993;606445;173052;
2024-05-14T12:10:18.179;538882830636531804;593981;490419;605637;173053;
2024-05-14T12:10:18.197;538882830654695439;593093;489893;604838;173021;
2024-05-14T12:10:18.215;538882830672859074;592485;489479;604163;173000;
2024-05-14T12:10:18.234;538882830691022709;591989;489257;603707;173023;
2024-05-14T12:10:18.252;538882830709186344;591603;489019;603357;173015;
2024-05-14T12:10:18.270;538882830727349979;591182;488739;603011;172952;
2024-05-14T12:10:18.288;538882830745513614;590973;488579;602791;172972;
2024-05-14T12:10:18.306;538882830763677249;590876;488575;602635;172919;
2024-05-14T12:10:18.324;538882830781840884;590775;488591;602529;172866;
2024-05-14T12:10:18.343;538882830800004519;590627;488661;602462;172836;
2024-05-14T12:10:18.361;538882830818168154;590384;488614;602184;172822;
2024-05-14T12:10:18.379;538882830836331789;589906;488592;601779;172754;
2024-05-14T12:10:18.397;538882830854495424;589327;488350;601285;172769;
2024-05-14T12:10:18.415;538882830872659059;588764;488118;600696;172729;
2024-05-14T12:10:18.433;538882830890822694;588138;487732;600085;172748;
2024-05-14T12:10:18.452;538882830908986329;587487;487307;599484;172771;
2024-05-14T12:10:18.470;538882830927149964;586748;486841;598814;172726;
2024-05-14T12:10:18.488;538882830945313599;586097;486307;598190;172749;
2024-05-14T12:10:18.506;538882830963477234;585522;485824;597532;172760;
2024-05-14T12:10:18.524;538882830981640869;585026;485329;596992;172738;
2024-05-14T12:10:18.542;538882830999804504;584461;484886;596432;172667;
2024-05-14T12:10:18.561;538882831017967319;583990;484486;595986;172685;
2024-05-14T12:10:18.579;538882831036130106;583646;484183;595554;172754;
2024-05-14T12:10:18.597;538882831054292893;583254;483841;595085;172685;
2024-05-14T12:10:18.615;538882831072455680;582937;483532;594732;172730;
2024-05-14T12:10:18.633;538882831090618467;582566;483181;594306;172690;
2024-05-14T12:10:18.651;538882831108781254;582071;482865;593951;172712;
2024-05-14T12:10:18.670;538882831126944041;581308;482265;593234;172730;
2024-05-14T12:10:18.688;538882831145106828;580061;481448;592225;172735;
2024-05-14T12:10:18.706;538882831163269615;578511;480389;590929;172675;
2024-05-14T12:10:18.724;538882831181432402;576888;479266;589504;172697;
2024-05-14T12:10:18.742;538882831199595189;575287;478084;588024;172702;
2024-05-14T12:10:18.760;538882831217757976;573842;477037;586687;172681;
2024-05-14T12:10:18.778;538882831235920763;572521;476136;585587;172707;
2024-05-14T12:10:18.797;538882831254083550;571414;475452;584553;172734;
2024-05-14T12:10:18.815;538882831272246337;570655;474897;583799;172675;
2024-05-14T12:10:18.833;538882831290409124;570029;474612;583196;172692;
2024-05-14T12:10:18.851;538882831308571911;569577;474296;582677;172725;
2024-05-14T12:10:18.869;538882831326734698;569279;474104;582385;172754;
2024-05-14T12:10:18.887;538882831344897485;568968;473893;582148;172775;
2024-05-14T12:10:18.906;538882831363060272;568766;473766;581882;172750;
2024-05-14T12:10:18.924;538882831381223059;568465;473616;581715;172711;
2024-05-14T12:10:18.942;538882831399385846;568122;473417;581501;172776;
2024-05-14T12:10:18.960;538882831417548633;567666;473096;581127;172639;
2024-05-14T12:10:18.978;538882831435711420;567227;472778;580745;172696;
2024-05-14T12:10:18.996;538882831453874207;566720;472316;580198;172680;
2024-05-14T12:10:19.015;538882831472036994;566185;471972;579776;172713;
2024-05-14T12:10:19.033;538882831490199781;565699;471632;579402;172729;
2024-05-14T12:10:19.051;538882831508362568;565343;471352;579045;172741;
2024-05-14T12:10:19.069;538882831526525355;565063;470988;578731;172712;
2024-05-14T12:10:19.087;538882831544688142;564686;470793;578449;172719;
2024-05-14T12:10:19.105;538882831562850929;564526;470574;578208;172751;
2024-05-14T12:10:19.124;538882831581013716;564367;470366;578009;172718;
2024-05-14T12:10:19.142;538882831599176503;564151;470277;577889;172685;
2024-05-14T12:10:19.160;538882831617339290;564087;470131;577755;172708;
2024-05-14T12:10:19.178;538882831635502077;564008;470111;577691;172687;
2024-05-14T12:10:19.196;538882831653666010;563964;470054;577655;172677;
2024-05-14T12:10:19.214;538882831671829931;563916;470032;577619;172684;
2024-05-14T12:10:19.233;538882831689993852;564014;470044;577589;172701;
2024-05-14T12:10:19.251;538882831708157773;563793;469888;577400;172706;
2024-05-14T12:10:19.269;538882831726321694;563287;469552;576957;172710;
2024-05-14T12:10:19.287;538882831744485615;562278;468858;576137;172707;
2024-05-14T12:10:19.305;538882831762649536;560957;467894;574873;172698;
2024-05-14T12:10:19.323;538882831780813457;559650;467018;573705;172711;
2024-05-14T12:10:19.342;538882831798977378;558319;466048;572517;172668;
2024-05-14T12:10:19.360;538882831817141299;557152;465163;571441;172693;
2024-05-14T12:10:19.378;538882831835305220;556251;464490;570459;172672;
2024-05-14T12:10:19.396;538882831853469141;555471;463883;569700;172659;
2024-05-14T12:10:19.414;538882831871633062;554945;463410;569252;172689;
2024-05-14T12:10:19.432;538882831889796983;554550;463210;568762;172704;
2024-05-14T12:10:19.451;538882831907960904;554282;463005;568516;172666;
2024-05-14T12:10:19.469;538882831926124825;554202;462889;568355;172693;
2024-05-14T12:10:19.487;538882831944288746;554136;462766;568255;172658;
2024-05-14T12:10:19.505;538882831962452667;554132;462753;568258;172683;
2024-05-14T12:10:19.523;538882831980616588;554098;462668;568179;172696;
2024-05-14T12:10:19.541;538882831998780509;553920;462584;568048;172642;
2024-05-14T12:10:19.560;538882832016944430;553769;462404;567818;172660;
2024-05-14T12:10:19.578;538882832035108351;553543;462305;567604;172657;
2024-05-14T12:10:19.596;538882832053272272;553281;462137;567385;172659;
2024-05-14T12:10:19.614;538882832071436193;553087;461968;567131;172658;
2024-05-14T12:10:19.632;538882832089600114;552862;461798;567009;172665;
2024-05-14T12:10:19.650;538882832107764035;552756;461628;566763;172672;
2024-05-14T12:10:19.669;538882832125927956;552660;461612;566677;172693;
2024-05-14T12:10:19.687;538882832144091877;552598;461500;566526;172617;
2024-05-14T12:10:19.705;538882832162255798;552644;461511;566581;172664;
2024-05-14T12:10:19.723;538882832180419719;552708;461492;566578;172697;
2024-05-14T12:10:19.741;538882832198583640;552818;461588;566632;172679;
2024-05-14T12:10:19.759;538882832216747561;552903;461702;566735;172598;
2024-05-14T12:10:19.777;538882832234911482;553147;461842;566847;172612;
2024-05-14T12:10:19.796;538882832253075403;553339;461943;567117;172619;
2024-05-14T12:10:19.814;538882832271239324;553571;462149;567295;172626;
2024-05-14T12:10:19.832;538882832289402843;553561;462128;567330;172676;
2024-05-14T12:10:19.850;538882832307566331;553154;461827;566958;172709;
2024-05-14T12:10:19.868;538882832325729819;552438;461240;566258;172728;
2024-05-14T12:10:19.886;538882832343893307;551469;460556;565354;172685;
2024-05-14T12:10:19.905;538882832362056795;550517;459914;564476;172719;
2024-05-14T12:10:19.923;538882832380220283;549568;459152;563510;172704;
2024-05-14T12:10:19.941;538882832398383771;548835;458549;562811;172657;
2024-05-14T12:10:19.959;538882832416547259;548276;458200;562223;172689;
2024-05-14T12:10:19.977;538882832434710747;547916;457894;561873;172698;
2024-05-14T12:10:19.995;538882832452874235;547786;457758;561624;172667;
2024-05-14T12:10:20.014;538882832471037723;547748;457639;561507;172666;
2024-05-14T12:10:20.032;538882832489201211;547864;457625;561569;172600;
2024-05-14T12:10:20.050;538882832507364699;548069;457765;561710;172672;
2024-05-14T12:10:20.068;538882832525528187;548243;457958;561868;172668;
2024-05-14T12:10:20.086;538882832543691675;548395;458094;561994;172667;
2024-05-14T12:10:20.104;538882832561855163;548458;458186;562090;172723;
2024-05-14T12:10:20.123;538882832580018651;548415;458205;562039;172644;
2024-05-14T12:10:20.141;538882832598182139;548453;458166;561998;172703;
2024-05-14T12:10:20.159;538882832616345627;548414;458096;561900;172707;
2024-05-14T12:10:20.177;538882832634509115;548420;458036;561896;172727;
2024-05-14T12:10:20.195;538882832652672603;548468;458006;561836;172675;
2024-05-14T12:10:20.213;538882832670836091;548418;458049;561876;172685;
2024-05-14T12:10:20.232;538882832688999579;548489;458076;561824;172675;
2024-05-14T12:10:20.250;538882832707163067;548614;458148;561903;172660;
2024-05-14T12:10:20.268;538882832725326555;548847;458341;562070;172626;
2024-05-14T12:10:20.286;538882832743490043;549132;458568;562300;172695;
2024-05-14T12:10:20.304;538882832761653531;549380;458847;562576;172669;
2024-05-14T12:10:20.322;538882832779817019;549860;459203;562944;172764;
2024-05-14T12:10:20.341;538882832797980507;550333;459532;563312;172704;
2024-05-14T12:10:20.359;538882832816143995;550800;459895;563723;172758;
2024-05-14T12:10:20.377;538882832834307483;551270;460264;564216;172747;
2024-05-14T12:10:20.395;538882832852470971;551625;460541;564468;172690;
2024-05-14T12:10:20.413;538882832870634459;551588;460587;564515;172752;
2024-05-14T12:10:20.431;538882832888797947;551198;460318;564139;172750;
2024-05-14T12:10:20.450;538882832906961435;550543;459902;563516;172758;
2024-05-14T12:10:20.468;538882832925124923;549711;459342;562735;172725;
2024-05-14T12:10:20.486;538882832943288411;549041;458803;562016;172744;
2024-05-14T12:10:20.504;538882832961452736;548450;458339;561433;172770;
2024-05-14T12:10:20.522;538882832979617049;547929;457920;560969;172753;
2024-05-14T12:10:20.540;538882832997781362;547697;457694;560657;172746;
2024-05-14T12:10:20.559;538882833015945675;547510;457528;560419;172733;
2024-05-14T12:10:20.577;538882833034109988;547555;457445;560329;172699;
2024-05-14T12:10:20.595;538882833052274301;547642;457520;560364;172716;
2024-05-14T12:10:20.613;538882833070438614;547848;457696;560489;172721;
2024-05-14T12:10:20.631;538882833088602927;548128;457935;560732;172734;
2024-05-14T12:10:20.649;538882833106767240;548451;458191;560963;172697;
2024-05-14T12:10:20.668;538882833124931553;548725;458392;561177;172743;
2024-05-14T12:10:20.686;538882833143095866;548957;458493;561258;172728;
2024-05-14T12:10:20.704;538882833161260179;549008;458559;561327;172707;
2024-05-14T12:10:20.722;538882833179424492;549115;458584;561420;172707;
2024-05-14T12:10:20.740;538882833197588805;549151;458554;561345;172736;
2024-05-14T12:10:20.758;538882833215753118;549152;458561;561363;172738;
2024-05-14T12:10:20.776;538882833233917431;549250;458606;561358;172682;
2024-05-14T12:10:20.795;538882833252081744;549238;458531;561404;172693;
2024-05-14T12:10:20.813;538882833270246057;549317;458688;561437;172784;
2024-05-14T12:10:20.831;538882833288410370;549506;458810;561536;172791;
2024-05-14T12:10:20.849;538882833306574683;549659;458862;561652;172726;
2024-05-14T12:10:20.867;538882833324738996;549908;459038;561862;172779;
2024-05-14T12:10:20.885;538882833342903309;550149;459073;562026;172786;
2024-05-14T12:10:20.904;538882833361067622;550443;459280;562304;172768;
2024-05-14T12:10:20.922;538882833379231935;550739;459472;562563;172724;
2024-05-14T12:10:20.940;538882833397396248;551050;459727;562905;172702;
2024-05-14T12:10:20.958;538882833415560561;551227;459882;563057;172742;
2024-05-14T12:10:20.976;538882833433724874;551012;459721;562832;172718;
2024-05-14T12:10:20.994;538882833451889187;550445;459286;562330;172755;
2024-05-14T12:10:21.013;538882833470053500;549666;458726;561590;172759;
2024-05-14T12:10:21.031;538882833488217813;548721;458020;560626;172736;
2024-05-14T12:10:21.049;538882833506382126;547895;457430;559843;172753;
2024-05-14T12:10:21.067;538882833524546439;547223;456914;559240;172770;
2024-05-14T12:10:21.085;538882833542710752;546658;456419;558586;172678;
2024-05-14T12:10:21.103;538882833560875065;546363;456107;558281;172754;
2024-05-14T12:10:21.122;538882833579039378;546077;455842;557833;172693;
2024-05-14T12:10:21.140;538882833597203691;546001;455741;557757;172746;
2024-05-14T12:10:21.158;538882833615367221;545899;455699;557736;172694;
2024-05-14T12:10:21.176;538882833633530731;546002;455652;557768;172689;
2024-05-14T12:10:21.194;538882833651694241;546121;455700;557872;172655;
2024-05-14T12:10:21.212;538882833669857751;546240;455844;558071;172680;
2024-05-14T12:10:21.231;538882833688021261;546326;455881;558103;172719;
2024-05-14T12:10:21.249;538882833706184771;546466;455903;558268;172731;
2024-05-14T12:10:21.267;538882833724348281;546489;455824;558305;172735;
2024-05-14T12:10:21.285;538882833742511791;546466;455805;558291;172698;
2024-05-14T12:10:21.303;538882833760675301;546379;455731;558219;172643;
2024-05-14T12:10:21.321;538882833778838811;546461;455643;558314;172767;
2024-05-14T12:10:21.340;538882833797002321;546504;455617;558394;172703;
2024-05-14T12:10:21.358;538882833815165831;546586;455613;558375;172725;
2024-05-14T12:10:21.376;538882833833329341;546739;455676;558489;172714;
2024-05-14T12:10:21.394;538882833851492851;546855;455797;558617;172667;
2024-05-14T12:10:21.412;538882833869656361;547038;455813;558758;172691;
2024-05-14T12:10:21.430;538882833887819871;547225;455976;558946;172708;
2024-05-14T12:10:21.449;538882833905983381;547461;456149;559114;172716;
2024-05-14T12:10:21.467;538882833924146891;547725;456315;559397;172703;
2024-05-14T12:10:21.485;538882833942310401;548056;456514;559674;172713;
2024-05-14T12:10:21.503;538882833960473911;548348;456673;559989;172657;
2024-05-14T12:10:21.521;538882833978637421;548409;456770;560105;172740;
2024-05-14T12:10:21.539;538882833996800931;548087;456546;559758;172684;
2024-05-14T12:10:21.558;538882834014964441;547427;456083;559134;172695;
2024-05-14T12:10:21.576;538882834033127951;546615;455417;558373;172708;
2024-05-14T12:10:21.594;538882834051291461;545717;454726;557518;172703;
2024-05-14T12:10:21.612;538882834069454971;544911;454126;556720;172706;
2024-05-14T12:10:21.630;538882834087618481;544330;453645;556085;172717;
2024-05-14T12:10:21.648;538882834105781991;543858;453263;555595;172725;
2024-05-14T12:10:21.667;538882834123945501;543633;453036;555301;172701;
2024-05-14T12:10:21.685;538882834142109011;543514;452922;555186;172738;
2024-05-14T12:10:21.703;538882834160272521;543500;452895;555133;172695;
2024-05-14T12:10:21.721;538882834178436031;543710;453065;555225;172711;
2024-05-14T12:10:21.739;538882834196599541;543902;453152;555423;172733;
2024-05-14T12:10:21.757;538882834214763051;544127;453297;555597;172716;
2024-05-14T12:10:21.775;538882834232926561;544362;453432;555774;172768;
2024-05-14T12:10:21.794;538882834251090071;544554;453572;555922;172691;
2024-05-14T12:10:21.812;538882834269253581;544644;453629;556069;172708;
2024-05-14T12:10:21.830;538882834287417091;544737;453667;556078;172730;
2024-05-14T12:10:21.848;538882834305580626;544801;453682;556118;172704;
2024-05-14T12:10:21.866;538882834323744157;544840;453695;556211;172710;
2024-05-14T12:10:21.884;538882834341907688;544882;453748;556231;172686;
2024-05-14T12:10:21.903;538882834360071219;545004;453781;556294;172644;
2024-05-14T12:10:21.921;538882834378234750;545172;453907;556421;172680;
2024-05-14T12:10:21.939;538882834396398281;545371;453977;556662;172692;
2024-05-14T12:10:21.957;538882834414561812;545573;454137;556835;172781;
2024-05-14T12:10:21.975;538882834432725343;545848;454332;557015;172706;
2024-05-14T12:10:21.993;538882834450888874;546079;454514;557301;172733;
2024-05-14T12:10:22.012;538882834469052405;546393;454749;557591;172745;
2024-05-14T12:10:22.030;538882834487215936;546746;454975;557871;172751;
2024-05-14T12:10:22.048;538882834505379467;547174;455210;558224;172745;
2024-05-14T12:10:22.066;538882834523542998;547492;455518;558521;172714;
2024-05-14T12:10:22.084;538882834541706529;547800;455701;558837;172782;
2024-05-14T12:10:22.102;538882834559870060;547737;455655;558786;172741;
2024-05-14T12:10:22.121;538882834578033591;547324;455346;558394;172743;
2024-05-14T12:10:22.139;538882834596197122;546659;454818;557731;172747;
2024-05-14T12:10:22.157;538882834614360653;545945;454229;557032;172789;
2024-05-14T12:10:22.175;538882834632524184;545227;453669;556228;172712;
2024-05-14T12:10:22.193;538882834650687715;544623;453219;555654;172727;
2024-05-14T12:10:22.211;538882834668851246;544219;452787;555170;172727;
2024-05-14T12:10:22.230;538882834687014777;543932;452614;554912;172744;
2024-05-14T12:10:22.248;538882834705178308;543902;452493;554782;172768;
2024-05-14T12:10:22.266;538882834723341839;543918;452431;554751;172691;
2024-05-14T12:10:22.284;538882834741505370;544058;452525;554848;172735;
2024-05-14T12:10:22.302;538882834759668901;544277;452704;555128;172747;
2024-05-14T12:10:22.320;538882834777832432;544449;452885;555231;172725;
2024-05-14T12:10:22.339;538882834795995963;544786;453111;555472;172755;
2024-05-14T12:10:22.357;538882834814159494;545039;453245;555771;172728;
2024-05-14T12:10:22.375;538882834832323025;545129;453355;555893;172724;
2024-05-14T12:10:22.393;538882834850486556;545269;453441;555953;172729;
2024-05-14T12:10:22.411;538882834868650087;545464;453515;556093;172704;
2024-05-14T12:10:22.429;538882834886813618;545486;453579;556140;172733;
2024-05-14T12:10:22.448;538882834904977149;545628;453621;556208;172735;
2024-05-14T12:10:22.466;538882834923140680;545759;453696;556301;172708;
2024-05-14T12:10:22.484;538882834941304211;545891;453794;556448;172738;
2024-05-14T12:10:22.502;538882834959467742;546153;454043;556664;172751;
2024-05-14T12:10:22.520;538882834977631273;546444;454103;556830;172695;
2024-05-14T12:10:22.538;538882834995794804;546640;454312;557144;172742;
2024-05-14T12:10:22.557;538882835013959141;547000;454559;557389;172719;
2024-05-14T12:10:22.575;538882835032123454;547216;454696;557604;172676;
2024-05-14T12:10:22.593;538882835050287767;547649;455048;557989;172724;
2024-05-14T12:10:22.611;538882835068452080;547975;455281;558371;172746;
2024-05-14T12:10:22.629;538882835086616393;548437;455541;558703;172697;
2024-05-14T12:10:22.647;538882835104780706;548817;455832;559136;172738;
2024-05-14T12:10:22.666;538882835122945019;549153;456091;559467;172690;
2024-05-14T12:10:22.684;538882835141109332;549480;456287;559663;172784;
2024-05-14T12:10:22.702;538882835159273645;549279;456161;559473;172737;
2024-05-14T12:10:22.720;538882835177437958;548888;455887;559129;172740;
2024-05-14T12:10:22.738;538882835195602271;548356;455384;558526;172717;
2024-05-14T12:10:22.756;538882835213766584;547703;454890;557865;172685;
2024-05-14T12:10:22.775;538882835231930897;547241;454450;557322;172701;
2024-05-14T12:10:22.793;538882835250095210;546928;454190;557029;172726;
2024-05-14T12:10:22.811;538882835268259523;546713;453985;556726;172698;
2024-05-14T12:10:22.829;538882835286423836;546712;453949;556654;172745;
2024-05-14T12:10:22.847;538882835304588149;546779;453973;556681;172729;
2024-05-14T12:10:22.865;538882835322752462;547033;454148;556893;172665;
2024-05-14T12:10:22.883;538882835340916775;547380;454349;557158;172749;
2024-05-14T12:10:22.902;538882835359081088;547687;454645;557414;172736;
2024-05-14T12:10:22.920;538882835377245401;548087;454882;557771;172751;
2024-05-14T12:10:22.938;538882835395409714;548425;455146;558091;172741;
2024-05-14T12:10:22.956;538882835413574027;548588;455317;558348;172697;
2024-05-14T12:10:22.974;538882835431738340;548867;455488;558480;172719;
2024-05-14T12:10:22.992;538882835449902653;549089;455600;558675;172737;
2024-05-14T12:10:23.011;538882835468066966;549210;455669;558776;172721;
2024-05-14T12:10:23.029;538882835486231279;549432;455825;558894;172728;
2024-05-14T12:10:23.047;538882835504395592;549531;455866;559020;172774;
2024-05-14T12:10:23.065;538882835522559905;549714;455989;559246;172703;
2024-05-14T12:10:23.083;538882835540724218;549954;456174;559404;172697;
2024-05-14T12:10:23.101;538882835558888531;550212;456324;559661;172711;
2024-05-14T12:10:23.120;538882835577052844;550572;456571;559897;172648;
2024-05-14T12:10:23.138;538882835595217157;550822;456814;560213;172681;
2024-05-14T12:10:23.156;538882835613381470;551215;457065;560609;172699;
2024-05-14T12:10:23.174;538882835631546347;551598;457323;560912;172703;
2024-05-14T12:10:23.192;538882835649711196;551973;457679;561225;172686;
2024-05-14T12:10:23.210;538882835667876045;552340;457933;561654;172666;
2024-05-14T12:10:23.229;538882835686040894;552756;458192;562057;172718;
2024-05-14T12:10:23.247;538882835704205743;553031;458437;562247;172710;
2024-05-14T12:10:23.265;538882835722370592;553084;458410;562339;172716;
2024-05-14T12:10:23.283;538882835740535441;552822;458258;562133;172703;
2024-05-14T12:10:23.301;538882835758700290;552401;457953;561746;172678;
2024-05-14T12:10:23.319;538882835776865139;551894;457459;561170;172694;
2024-05-14T12:10:23.338;538882835795029988;551517;457019;560728;172657;
2024-05-14T12:10:23.356;538882835813194837;551214;456791;560311;172681;
2024-05-14T12:10:23.374;538882835831359686;550992;456602;560077;172697;
2024-05-14T12:10:23.392;538882835849524535;550987;456565;560006;172712;
2024-05-14T12:10:23.410;538882835867689384;551080;456677;560017;172679;
2024-05-14T12:10:23.428;538882835885854233;551259;456761;560224;172684;
2024-05-14T12:10:23.447;538882835904019082;551636;457012;560510;172690;
2024-05-14T12:10:23.465;538882835922183931;551968;457181;560729;172568;
2024-05-14T12:10:23.483;538882835940348780;552369;457534;561193;172676;
2024-05-14T12:10:23.501;538882835958513629;552663;457770;561511;172692;
2024-05-14T12:10:23.519;538882835976678478;552929;457961;561675;172661;
2024-05-14T12:10:23.537;538882835994843327;553149;458149;561907;172632;
2024-05-14T12:10:23.556;538882836013008176;553306;458265;562038;172623;
2024-05-14T12:10:23.574;538882836031173025;553450;458398;562213;172653;
2024-05-14T12:10:23.592;538882836049337874;553602;458425;562439;172646;
2024-05-14T12:10:23.610;538882836067502723;553814;458644;562595;172627;
2024-05-14T12:10:23.628;538882836085667572;553949;458752;562732;172610;
2024-05-14T12:10:23.646;538882836103832421;554180;458921;562912;172691;
2024-05-14T12:10:23.665;538882836121997270;554459;459112;563148;172718;
2024-05-14T12:10:23.683;538882836140162119;554737;459290;563429;172713;
2024-05-14T12:10:23.701;538882836158326968;555048;459528;563643;172724;
2024-05-14T12:10:23.719;538882836176491817;555437;459777;564001;172670;
2024-05-14T12:10:23.737;538882836194656666;555753;460067;564301;172702;
2024-05-14T12:10:23.755;538882836212821515;556098;460275;564681;172657;
2024-05-14T12:10:23.774;538882836230986364;556479;460527;565014;172700;
2024-05-14T12:10:23.792;538882836249151213;556906;460870;565369;172657;
2024-05-14T12:10:23.810;538882836267316062;557285;461120;565717;172682;
2024-05-14T12:10:23.828;538882836285480911;557398;461276;565946;172678;
2024-05-14T12:10:23.846;538882836303644872;557261;461216;565785;172649;
2024-05-14T12:10:23.864;538882836321808814;556890;460892;565521;172672;
2024-05-14T12:10:23.883;538882836339972756;556314;460460;564957;172656;
2024-05-14T12:10:23.901;538882836358136698;555749;459966;564288;172658;
2024-05-14T12:10:23.919;538882836376300640;555336;459582;563828;172678;
2024-05-14T12:10:23.937;538882836394464582;555031;459261;563412;172706;
2024-05-14T12:10:23.955;538882836412628524;554868;459115;563306;172687;
2024-05-14T12:10:23.973;538882836430792466;554869;459072;563192;172675;
2024-05-14T12:10:23.992;538882836448956408;554981;459166;563239;172662;
2024-05-14T12:10:24.010;538882836467120350;555139;459245;563349;172676;
2024-05-14T12:10:24.028;538882836485284292;555352;459397;563517;172700;
2024-05-14T12:10:24.046;538882836503448234;555619;459592;563791;172678;
2024-05-14T12:10:24.064;538882836521612176;555890;459892;564031;172708;
2024-05-14T12:10:24.082;538882836539776118;556150;460028;564295;172676;
2024-05-14T12:10:24.101;538882836557940060;556339;460188;564483;172696;
2024-05-14T12:10:24.119;538882836576104002;556572;460341;564712;172699;
2024-05-14T12:10:24.137;538882836594267944;556662;460365;564811;172713;
2024-05-14T12:10:24.155;538882836612431886;556792;460469;564828;172726;
2024-05-14T12:10:24.173;538882836630595828;556983;460578;565013;172727;
2024-05-14T12:10:24.191;538882836648759770;557094;460684;565156;172713;
2024-05-14T12:10:24.209;538882836666923712;557256;460731;565242;172661;
2024-05-14T12:10:24.228;538882836685087654;557441;460933;565465;172679;
2024-05-14T12:10:24.246;538882836703251596;557716;461034;565670;172694;
2024-05-14T12:10:24.264;538882836721415538;557936;461285;565936;172720;
2024-05-14T12:10:24.282;538882836739579480;558206;461492;566156;172651;
2024-05-14T12:10:24.300;538882836757743422;558509;461687;566505;172685;
2024-05-14T12:10:24.318;538882836775907364;558838;461951;566769;172684;
2024-05-14T12:10:24.337;538882836794071306;559173;462238;567135;172711;
2024-05-14T12:10:24.355;538882836812235248;559514;462505;567507;172708;
2024-05-14T12:10:24.373;538882836830399190;559823;462698;567830;172684;
2024-05-14T12:10:24.391;538882836848563132;560116;462961;568122;172707;
2024-05-14T12:10:24.409;538882836866727074;560238;463122;568261;172723;
2024-05-14T12:10:24.427;538882836884891016;560073;462966;568145;172713;
2024-05-14T12:10:24.446;538882836903054958;559583;462568;567659;172631;
2024-05-14T12:10:24.464;538882836921218900;559092;462145;567098;172682;
2024-05-14T12:10:24.482;538882836939382842;558530;461628;566455;172668;
2024-05-14T12:10:24.500;538882836957546784;558036;461258;566003;172711;
2024-05-14T12:10:24.518;538882836975711615;557770;461031;565592;172657;
2024-05-14T12:10:24.536;538882836993876437;557611;460849;565431;172684;
2024-05-14T12:10:24.555;538882837012041259;557508;460666;565317;172642;
2024-05-14T12:10:24.573;538882837030206081;557551;460731;565351;172713;
2024-05-14T12:10:24.591;538882837048370903;557697;460818;565488;172803;
2024-05-14T12:10:24.609;538882837066535725;557837;461004;565621;172665;
2024-05-14T12:10:24.627;538882837084700547;558092;461085;565836;172678;
2024-05-14T12:10:24.645;538882837102865369;558388;461335;566100;172730;
2024-05-14T12:10:24.664;538882837121030191;558668;461474;566321;172772;
2024-05-14T12:10:24.682;538882837139195013;558773;461687;566551;172702;
2024-05-14T12:10:24.700;538882837157359835;558846;461743;566686;172643;
2024-05-14T12:10:24.718;538882837175524657;559007;461837;566854;172717;
2024-05-14T12:10:24.736;538882837193689479;559123;461992;566930;172729;
2024-05-14T12:10:24.754;538882837211854301;559335;462035;567029;172715;
2024-05-14T12:10:24.773;538882837230019123;559485;462116;567225;172706;
2024-05-14T12:10:24.791;538882837248183945;559681;462261;567420;172796;
2024-05-14T12:10:24.809;538882837266348767;559820;462424;567562;172698;
2024-05-14T12:10:24.827;538882837284513589;560111;462567;567772;172737;
2024-05-14T12:10:24.845;538882837302678411;560339;462788;567978;172712;
2024-05-14T12:10:24.863;538882837320843233;560673;462959;568323;172724;
2024-05-14T12:10:24.882;538882837339008055;560900;463131;568573;172678;
2024-05-14T12:10:24.900;538882837357172877;561160;463438;568901;172708;
2024-05-14T12:10:24.918;538882837375337699;561506;463722;569268;172704;
2024-05-14T12:10:24.936;538882837393502521;561780;463886;569515;172673;
2024-05-14T12:10:24.954;538882837411667343;562198;464212;569887;172714;
2024-05-14T12:10:24.972;538882837429832165;562477;464432;570232;172746;
2024-05-14T12:10:24.991;538882837447996987;562835;464752;570522;172716;
2024-05-14T12:10:25.009;538882837466161809;563111;464927;570788;172679;
2024-05-14T12:10:25.027;538882837484326631;563046;464881;570852;172704;
2024-05-14T12:10:25.045;538882837502491453;562764;464560;570471;172720;
2024-05-14T12:10:25.063;538882837520656275;562260;464157;570025;172720;
2024-05-14T12:10:25.081;538882837538821097;561632;463729;569399;172694;
2024-05-14T12:10:25.100;538882837556985919;561157;463231;568859;172687;
2024-05-14T12:10:25.118;538882837575150741;560772;462883;568472;172721;
2024-05-14T12:10:25.136;538882837593315563;560528;462658;568204;172765;
2024-05-14T12:10:25.154;538882837611480385;560445;462607;568033;172715;
2024-05-14T12:10:25.172;538882837629645207;560465;462559;567973;172707;
2024-05-14T12:10:25.190;538882837647810029;560517;462564;568001;172627;
2024-05-14T12:10:25.209;538882837665974851;560718;462680;568185;172627;
2024-05-14T12:10:25.227;538882837684137666;560921;462843;568429;172707;
2024-05-14T12:10:25.245;538882837702300453;561152;463066;568592;172736;
2024-05-14T12:10:25.263;538882837720463240;561376;463253;568872;172696;
2024-05-14T12:10:25.281;538882837738626027;561622;463469;569103;172686;
2024-05-14T12:10:25.299;538882837756788814;561857;463555;569320;172743;
2024-05-14T12:10:25.318;538882837774951601;561947;463663;569503;172751;
2024-05-14T12:10:25.336;538882837793114388;562049;463792;569582;172743;
2024-05-14T12:10:25.354;538882837811277175;562102;463915;569641;172655;
2024-05-14T12:10:25.372;538882837829439962;562261;463938;569762;172702;
2024-05-14T12:10:25.390;538882837847602749;562462;464103;569970;172728;
2024-05-14T12:10:25.408;538882837865765536;562548;464194;570128;172720;
2024-05-14T12:10:25.427;538882837883928323;562871;464304;570396;172740;
2024-05-14T12:10:25.445;538882837902091110;563052;464513;570485;172755;
2024-05-14T12:10:25.463;538882837920253897;563354;464723;570724;172726;
2024-05-14T12:10:25.481;538882837938416684;563592;464956;571072;172743;
2024-05-14T12:10:25.499;538882837956579471;563887;465125;571332;172707;
2024-05-14T12:10:25.517;538882837974742258;564113;465354;571553;172661;
2024-05-14T12:10:25.535;538882837992905045;564454;465618;571854;172708;
2024-05-14T12:10:25.554;538882838011067832;564776;465865;572238;172712;
2024-05-14T12:10:25.572;538882838029230619;565073;466127;572604;172730;
2024-05-14T12:10:25.590;538882838047393406;565423;466383;572910;172697;
2024-05-14T12:10:25.608;538882838065556193;565704;466636;573296;172717;
2024-05-14T12:10:25.626;538882838083718980;565998;466857;573557;172689;
2024-05-14T12:10:25.644;538882838101881767;565954;466888;573593;172675;
2024-05-14T12:10:25.663;538882838120044554;565745;466654;573283;172708;
2024-05-14T12:10:25.681;538882838138207341;565172;466215;572879;172732;
2024-05-14T12:10:25.699;538882838156370128;564608;465711;572257;172700;
2024-05-14T12:10:25.717;538882838174532915;564209;465379;571791;172762;
2024-05-14T12:10:25.735;538882838192695702;563842;465032;571421;172698;
2024-05-14T12:10:25.753;538882838210858489;563680;464829;571176;172763;
2024-05-14T12:10:25.772;538882838229021276;563597;464659;571128;172686;
2024-05-14T12:10:25.790;538882838247184063;563633;464734;571120;172740;
2024-05-14T12:10:25.808;538882838265346850;563736;464790;571239;172728;
2024-05-14T12:10:25.826;538882838283509637;563978;464971;571488;172706;
2024-05-14T12:10:25.844;538882838301672424;564245;465186;571705;172700;
2024-05-14T12:10:25.862;538882838319835211;564515;465424;571990;172713;
2024-05-14T12:10:25.881;538882838337997998;564758;465602;572228;172685;
2024-05-14T12:10:25.899;538882838356162335;565058;465750;572484;172714;
2024-05-14T12:10:25.917;538882838374326648;565172;465882;572662;172716;
2024-05-14T12:10:25.935;538882838392490961;565294;466028;572810;172680;
2024-05-14T12:10:25.953;538882838410655274;565373;466120;572892;172683;
2024-05-14T12:10:25.971;538882838428819587;565567;466143;572970;172754;
2024-05-14T12:10:25.990;538882838446983900;565630;466219;573139;172754;
2024-05-14T12:10:26.008;538882838465148213;565754;466352;573277;172777;
2024-05-14T12:10:26.026;538882838483312526;565922;466458;573405;172728;
2024-05-14T12:10:26.044;538882838501476839;566028;466545;573552;172724;
2024-05-14T12:10:26.062;538882838519641152;566225;466708;573769;172703;
2024-05-14T12:10:26.080;538882838537805465;566418;466886;573983;172687;
2024-05-14T12:10:26.099;538882838555969778;566696;467077;574276;172690;
2024-05-14T12:10:26.117;538882838574134091;567034;467343;574637;172766;
2024-05-14T12:10:26.135;538882838592298404;567300;467548;574854;172709;
2024-05-14T12:10:26.153;538882838610462717;567636;467802;575245;172715;
2024-05-14T12:10:26.171;538882838628627030;567903;468094;575563;172742;
2024-05-14T12:10:26.189;538882838646791343;568195;468331;575832;172686;
2024-05-14T12:10:26.208;538882838664955656;568532;468577;576177;172676;
2024-05-14T12:10:26.226;538882838683119969;568857;468858;576567;172741;
2024-05-14T12:10:26.244;538882838701284282;569161;469068;576841;172732;
2024-05-14T12:10:26.262;538882838719448595;569213;469079;576911;172729;
2024-05-14T12:10:26.280;538882838737612908;568947;468870;576679;172715;
2024-05-14T12:10:26.298;538882838755777221;568525;468489;576238;172676;
2024-05-14T12:10:26.317;538882838773941534;568075;468016;575752;172641;
2024-05-14T12:10:26.335;538882838792105847;567578;467651;575323;172685;
2024-05-14T12:10:26.353;538882838810270160;567253;467274;574952;172670;
2024-05-14T12:10:26.371;538882838828434473;567003;467081;574697;172686;
2024-05-14T12:10:26.389;538882838846598786;566904;466952;574583;172702;
2024-05-14T12:10:26.407;538882838864763099;566957;466990;574600;172721;
2024-05-14T12:10:26.425;538882838882927412;567042;467026;574670;172678;
2024-05-14T12:10:26.444;538882838901091725;567218;467215;574926;172692;
2024-05-14T12:10:26.462;538882838919256038;567443;467441;575099;172706;
2024-05-14T12:10:26.480;538882838937420351;567752;467633;575350;172690;
2024-05-14T12:10:26.498;538882838955584664;568048;467840;575603;172743;
2024-05-14T12:10:26.516;538882838973748977;568182;468021;575777;172694;
2024-05-14T12:10:26.534;538882838991913290;568459;468109;575996;172719;
2024-05-14T12:10:26.553;538882839010077603;568601;468208;576236;172704;
2024-05-14T12:10:26.571;538882839028241916;568655;468316;576320;172733;
2024-05-14T12:10:26.589;538882839046406229;568792;468365;576410;172710;
2024-05-14T12:10:26.607;538882839064570542;568866;468485;576492;172696;
2024-05-14T12:10:26.625;538882839082734855;568955;468504;576601;172715;
2024-05-14T12:10:26.643;538882839100899168;569055;468554;576681;172734;
2024-05-14T12:10:26.662;538882839119062698;569241;468677;576839;172704;
2024-05-14T12:10:26.680;538882839137226208;569429;468784;577015;172669;
2024-05-14T12:10:26.698;538882839155389718;569658;468943;577185;172692;
2024-05-14T12:10:26.716;538882839173553228;569859;469164;577471;172750;
2024-05-14T12:10:26.734;538882839191716738;570106;469345;577734;172708;
2024-05-14T12:10:26.752;538882839209880248;570359;469531;577984;172719;
2024-05-14T12:10:26.771;538882839228043758;570649;469769;578232;172713;
2024-05-14T12:10:26.789;538882839246207268;570937;469969;578459;172743;
2024-05-14T12:10:26.807;538882839264370778;571101;470188;578752;172706;
2024-05-14T12:10:26.825;538882839282534288;571488;470513;579173;172711;
2024-05-14T12:10:26.843;538882839300697798;571731;470699;579379;172701;
2024-05-14T12:10:26.861;538882839318861308;571672;470603;579302;172680;
2024-05-14T12:10:26.880;538882839337024818;571363;470400;579078;172685;
2024-05-14T12:10:26.898;538882839355188328;570890;469955;578674;172699;
2024-05-14T12:10:26.916;538882839373351838;570301;469476;578053;172730;
2024-05-14T12:10:26.934;538882839391515348;569759;469014;577551;172672;
2024-05-14T12:10:26.952;538882839409678858;569305;468554;577047;172714;
2024-05-14T12:10:26.970;538882839427842368;568996;468259;576732;172668;
2024-05-14T12:10:26.989;538882839446005878;568803;468035;576562;172691;
2024-05-14T12:10:27.007;538882839464169388;568744;467982;576454;172695;
2024-05-14T12:10:27.025;538882839482332898;568755;467962;576514;172707;
2024-05-14T12:10:27.043;538882839500496408;568854;468046;576601;172751;
2024-05-14T12:10:27.061;538882839518659918;569026;468163;576715;172651;
2024-05-14T12:10:27.079;538882839536823428;569167;468310;576931;172717;
2024-05-14T12:10:27.098;538882839554986938;569372;468489;577162;172686;
2024-05-14T12:10:27.116;538882839573150448;569527;468591;577306;172727;
2024-05-14T12:10:27.134;538882839591313958;569634;468741;577410;172718;
2024-05-14T12:10:27.152;538882839609477468;569712;468765;577521;172720;
2024-05-14T12:10:27.170;538882839627640978;569708;468857;577574;172703;
2024-05-14T12:10:27.188;538882839645804488;569757;468827;577643;172717;
2024-05-14T12:10:27.207;538882839663967998;569759;468837;577631;172700;
2024-05-14T12:10:27.225;538882839682131508;569839;468871;577692;172662;
2024-05-14T12:10:27.243;538882839700295018;569933;468906;577794;172662;
2024-05-14T12:10:27.261;538882839718458528;570044;468945;577898;172747;
2024-05-14T12:10:27.279;538882839736622038;570140;469090;578071;172713;
2024-05-14T12:10:27.297;538882839754785548;570312;469216;578229;172742;
2024-05-14T12:10:27.316;538882839772949058;570521;469409;578342;172747;
2024-05-14T12:10:27.334;538882839791112568;570828;469628;578650;172761;
2024-05-14T12:10:27.352;538882839809276893;571011;469768;578880;172721;
2024-05-14T12:10:27.370;538882839827441206;571301;469976;579155;172738;
2024-05-14T12:10:27.388;538882839845605519;571503;470195;579355;172760;
2024-05-14T12:10:27.406;538882839863769832;571736;470380;579674;172697;
2024-05-14T12:10:27.425;538882839881934145;572118;470620;579961;172744;
2024-05-14T12:10:27.443;538882839900098458;572282;470882;580253;172696;
2024-05-14T12:10:27.461;538882839918262771;572498;471001;580418;172729;
2024-05-14T12:10:27.479;538882839936427084;572327;470910;580261;172776;
2024-05-14T12:10:27.497;538882839954591397;571917;470554;579929;172778;
2024-05-14T12:10:27.515;538882839972755710;571322;470033;579360;172778;
2024-05-14T12:10:27.533;538882839990920023;570524;469482;578669;172700;
2024-05-14T12:10:27.552;538882840009084336;570030;468909;578071;172735;
2024-05-14T12:10:27.570;538882840027248649;569527;468500;577556;172725;
2024-05-14T12:10:27.588;538882840045412962;569174;468070;577243;172692;
2024-05-14T12:10:27.606;538882840063577275;569007;467942;577028;172632;
2024-05-14T12:10:27.624;538882840081741588;568911;467880;576998;172708;
2024-05-14T12:10:27.642;538882840099905901;568945;467895;576951;172715;
2024-05-14T12:10:27.661;538882840118070214;568959;467939;577027;172703;
2024-05-14T12:10:27.679;538882840136234527;569065;468115;577145;172677;
2024-05-14T12:10:27.697;538882840154398840;569183;468275;577304;172741;
2024-05-14T12:10:27.715;538882840172563153;569379;468394;577487;172744;
2024-05-14T12:10:27.733;538882840190727466;569500;468499;577577;172702;
2024-05-14T12:10:27.751;538882840208891779;569502;468546;577604;172710;
2024-05-14T12:10:27.770;538882840227056092;569603;468611;577659;172741;
2024-05-14T12:10:27.788;538882840245220405;569645;468639;577783;172769;
2024-05-14T12:10:27.806;538882840263384718;569620;468646;577765;172707;
2024-05-14T12:10:27.824;538882840281549031;569665;468684;577843;172717;
2024-05-14T12:10:27.842;538882840299713344;569756;468731;577944;172713;
2024-05-14T12:10:27.860;538882840317877657;569783;468784;577934;172718;
2024-05-14T12:10:27.879;538882840336041970;569850;468866;578030;172706;
2024-05-14T12:10:27.897;538882840354206283;570054;468941;578173;172733;
2024-05-14T12:10:27.915;538882840372370596;570157;469094;578414;172704;
2024-05-14T12:10:27.933;538882840390534909;570277;469288;578624;172741;
2024-05-14T12:10:27.951;538882840408699222;570525;469415;578764;172806;
2024-05-14T12:10:27.969;538882840426863535;570658;469594;579020;172749;
2024-05-14T12:10:27.988;538882840445027848;570904;469785;579244;172772;
2024-05-14T12:10:28.006;538882840463192161;571139;469992;579537;172772;
2024-05-14T12:10:28.024;538882840481354234;571354;470222;579807;172770;
2024-05-14T12:10:28.042;538882840499516301;571650;470464;579979;172731;
2024-05-14T12:10:28.060;538882840517678368;571929;470671;580250;172792;
2024-05-14T12:10:28.078;538882840535840435;571997;470771;580374;172721;
2024-05-14T12:10:28.097;538882840554002502;571883;470666;580320;172782;
2024-05-14T12:10:28.115;538882840572164569;571457;470368;579981;172800;
2024-05-14T12:10:28.133;538882840590326636;570746;469816;579325;172711;
2024-05-14T12:10:28.151;538882840608488703;570198;469300;578780;172746;
2024-05-14T12:10:28.169;538882840626650770;569572;468789;578211;172726;
2024-05-14T12:10:28.187;538882840644812837;569029;468316;577712;172701;
2024-05-14T12:10:28.206;538882840662974904;568769;468084;577407;172741;
2024-05-14T12:10:28.224;538882840681136971;568435;467821;577218;172683;
2024-05-14T12:10:28.242;538882840699299038;568336;467867;577060;172720;
2024-05-14T12:10:28.260;538882840717461105;568321;467890;577127;172764;
2024-05-14T12:10:28.278;538882840735623172;568431;467977;577171;172755;
2024-05-14T12:10:28.296;538882840753785239;568539;468061;577296;172675;
2024-05-14T12:10:28.315;538882840771947306;568753;468264;577602;172764;
2024-05-14T12:10:28.333;538882840790109373;568905;468435;577836;172813;
2024-05-14T12:10:28.351;538882840808271440;569006;468464;577868;172772;
2024-05-14T12:10:28.369;538882840826433507;569163;468638;577981;172775;
2024-05-14T12:10:28.387;538882840844595574;569213;468707;578047;172754;
2024-05-14T12:10:28.405;538882840862757641;569206;468745;578141;172741;
2024-05-14T12:10:28.423;538882840880919708;569200;468818;578166;172711;
2024-05-14T12:10:28.442;538882840899081775;569262;468769;578239;172758;
2024-05-14T12:10:28.460;538882840917243842;569286;468889;578292;172735;
2024-05-14T12:10:28.478;538882840935405909;569399;468945;578353;172755;
2024-05-14T12:10:28.496;538882840953567976;569497;469032;578412;172728;
2024-05-14T12:10:28.514;538882840971730043;569632;469172;578678;172734;
2024-05-14T12:10:28.532;538882840989892110;569792;469325;578816;172758;
2024-05-14T12:10:28.551;538882841008054177;569953;469487;579015;172736;
2024-05-14T12:10:28.569;538882841026216244;570145;469689;579226;172709;
2024-05-14T12:10:28.587;538882841044378311;570322;469847;579435;172702;
2024-05-14T12:10:28.605;538882841062540378;570581;470134;579696;172738;
2024-05-14T12:10:28.623;538882841080702445;570814;470312;580000;172694;
2024-05-14T12:10:28.641;538882841098864512;571127;470542;580283;172731;
2024-05-14T12:10:28.660;538882841117026579;571378;470698;580537;172719;
2024-05-14T12:10:28.678;538882841135188995;571614;470999;580809;172683;
2024-05-14T12:10:28.696;538882841153351401;571896;471226;581084;172734;
2024-05-14T12:10:28.714;538882841171513807;572174;471459;581383;172719;
2024-05-14T12:10:28.732;538882841189676213;572336;471604;581568;172772;
2024-05-14T12:10:28.750;538882841207838619;572171;471526;581436;172709;
2024-05-14T12:10:28.769;538882841226001025;571807;471259;581224;172753;
2024-05-14T12:10:28.787;538882841244163431;571204;470786;580640;172730;
2024-05-14T12:10:28.805;538882841262325837;570617;470307;580054;172767;
2024-05-14T12:10:28.823;538882841280488243;570042;469811;579534;172698;
2024-05-14T12:10:28.841;538882841298650649;569608;469506;579143;172762;
2024-05-14T12:10:28.859;538882841316813055;569276;469243;578843;172713;
2024-05-14T12:10:28.878;538882841334975461;569162;469150;578676;172777;
2024-05-14T12:10:28.896;538882841353137867;569064;469130;578646;172641;
2024-05-14T12:10:28.914;538882841371300273;569159;469244;578739;172737;
2024-05-14T12:10:28.932;538882841389462679;569288;469339;578869;172733;
2024-05-14T12:10:28.950;538882841407625085;569492;469494;579051;172755;
2024-05-14T12:10:28.968;538882841425787491;569712;469766;579290;172769;
2024-05-14T12:10:28.987;538882841443949897;569881;469956;579500;172704;
2024-05-14T12:10:29.005;538882841462112303;570090;470108;579705;172682;
2024-05-14T12:10:29.023;538882841480274709;570230;470235;579969;172692;
2024-05-14T12:10:29.041;538882841498437115;570365;470396;580076;172789;
2024-05-14T12:10:29.059;538882841516599521;570333;470368;580048;172741;
2024-05-14T12:10:29.077;538882841534761927;570335;470476;580171;172698;
2024-05-14T12:10:29.095;538882841552924333;570387;470452;580204;172740;
2024-05-14T12:10:29.114;538882841571086739;570454;470520;580273;172766;
2024-05-14T12:10:29.132;538882841589249145;570553;470572;580337;172748;
2024-05-14T12:10:29.150;538882841607411551;570618;470630;580440;172690;
2024-05-14T12:10:29.168;538882841625573957;570767;470820;580588;172745;
2024-05-14T12:10:29.186;538882841643736363;570886;470931;580773;172759;
2024-05-14T12:10:29.204;538882841661898769;571030;471120;580909;172740;
2024-05-14T12:10:29.223;538882841680061175;571279;471346;581153;172764;
2024-05-14T12:10:29.241;538882841698223581;571516;471561;581402;172727;
2024-05-14T12:10:29.259;538882841716385987;571843;471778;581675;172805;
2024-05-14T12:10:29.277;538882841734548393;572099;472001;581893;172709;
2024-05-14T12:10:29.295;538882841752710799;572328;472283;582131;172726;
2024-05-14T12:10:29.313;538882841770873205;572640;472435;582485;172735;
2024-05-14T12:10:29.332;538882841789036036;572867;472696;582728;172755;
2024-05-14T12:10:29.350;538882841807198865;573144;472872;583063;172771;
2024-05-14T12:10:29.368;538882841825361694;573171;472915;583108;172803;
2024-05-14T12:10:29.386;538882841843524523;572898;472748;582859;172763;
2024-05-14T12:10:29.404;538882841861687352;572361;472397;582418;172693;
2024-05-14T12:10:29.422;538882841879850181;571903;471984;581947;172720;
2024-05-14T12:10:29.441;538882841898013010;571376;471607;581484;172744;
2024-05-14T12:10:29.459;538882841916175839;570973;471266;581036;172716;
2024-05-14T12:10:29.477;538882841934338668;570602;471028;580732;172744;
2024-05-14T12:10:29.495;538882841952501497;570374;470885;580504;172685;
2024-05-14T12:10:29.513;538882841970664326;570370;470863;580513;172708;
2024-05-14T12:10:29.531;538882841988827155;570375;470858;580495;172678;
2024-05-14T12:10:29.550;538882842006989984;570559;471055;580640;172745;
2024-05-14T12:10:29.568;538882842025152813;570702;471185;580911;172761;
2024-05-14T12:10:29.586;538882842043315642;570917;471349;581078;172697;
2024-05-14T12:10:29.604;538882842061478471;571238;471594;581326;172763;
2024-05-14T12:10:29.622;538882842079641300;571373;471785;581553;172764;
2024-05-14T12:10:29.640;538882842097804129;571512;471937;581717;172767;
2024-05-14T12:10:29.659;538882842115966958;571711;472081;581887;172707;
2024-05-14T12:10:29.677;538882842134129787;571745;472153;581910;172702;
2024-05-14T12:10:29.695;538882842152292616;571843;472256;581967;172766;
2024-05-14T12:10:29.713;538882842170455445;571789;472291;581960;172760;
2024-05-14T12:10:29.731;538882842188618274;571850;472335;582030;172769;
2024-05-14T12:10:29.749;538882842206781103;571978;472378;582121;172794;
2024-05-14T12:10:29.768;538882842224943932;572040;472458;582195;172724;
2024-05-14T12:10:29.786;538882842243106761;572069;472566;582281;172744;
2024-05-14T12:10:29.804;538882842261269590;572283;472699;582477;172833;
2024-05-14T12:10:29.822;538882842279432419;572427;472775;582631;172748;
2024-05-14T12:10:29.840;538882842297595248;572614;472960;582862;172746;
2024-05-14T12:10:29.858;538882842315758077;572767;473137;583005;172703;
2024-05-14T12:10:29.876;538882842333920906;573016;473298;583241;172711;
2024-05-14T12:10:29.895;538882842352083735;573268;473533;583470;172679;
2024-05-14T12:10:29.913;538882842370246564;573549;473732;583749;172753;
2024-05-14T12:10:29.931;538882842388409393;573831;473955;583961;172718;
2024-05-14T12:10:29.949;538882842406572222;574060;474138;584197;172701;
2024-05-14T12:10:29.967;538882842424735051;574157;474301;584346;172679;
2024-05-14T12:10:29.985;538882842442897880;573990;474161;584210;172720;
2024-05-14T12:10:30.004;538882842461060907;573659;473894;583850;172684;
2024-05-14T12:10:30.022;538882842479223900;573073;473474;583265;172772;
2024-05-14T12:10:30.040;538882842497386893;572400;472936;582658;172723;
2024-05-14T12:10:30.058;538882842515549886;571891;472549;582226;172761;
2024-05-14T12:10:30.076;538882842533712879;571395;472144;581683;172719;
2024-05-14T12:10:30.094;538882842551875872;571089;471921;581439;172821;
2024-05-14T12:10:30.113;538882842570038865;570931;471833;581310;172792;
2024-05-14T12:10:30.131;538882842588201858;570856;471772;581208;172761;
2024-05-14T12:10:30.149;538882842606364851;570881;471864;581238;172740;
2024-05-14T12:10:30.167;538882842624527844;570941;471897;581292;172734;
2024-05-14T12:10:30.185;538882842642690837;571028;472020;581399;172762;
2024-05-14T12:10:30.203;538882842660853830;571243;472142;581599;172725;
2024-05-14T12:10:30.222;538882842679016823;571373;472277;581689;172779;
2024-05-14T12:10:30.240;538882842697179816;571586;472375;581844;172729;
2024-05-14T12:10:30.258;538882842715342809;571655;472444;581913;172767;
2024-05-14T12:10:30.276;538882842733505802;571725;472558;582012;172740;
2024-05-14T12:10:30.294;538882842751668795;571688;472619;582001;172747;
2024-05-14T12:10:30.312;538882842769831788;571682;472623;581998;172757;
2024-05-14T12:10:30.331;538882842787994781;571656;472592;581991;172729;
2024-05-14T12:10:30.349;538882842806157774;571711;472611;582025;172762;
2024-05-14T12:10:30.367;538882842824320767;571719;472710;582093;172778;
2024-05-14T12:10:30.385;538882842842483760;571768;472693;582142;172743;
2024-05-14T12:10:30.403;538882842860646753;571931;472827;582245;172743;
2024-05-14T12:10:30.421;538882842878809746;572065;472923;582385;172729;
2024-05-14T12:10:30.440;538882842896972739;572174;473064;582552;172770;
2024-05-14T12:10:30.458;538882842915135732;572387;473206;582743;172709;
2024-05-14T12:10:30.476;538882842933298725;572645;473464;582924;172737;
2024-05-14T12:10:30.494;538882842951461718;572803;473543;583142;172715;
2024-05-14T12:10:30.512;538882842969624711;573018;473775;583319;172716;
2024-05-14T12:10:30.530;538882842987787704;573327;473990;583597;172735;
2024-05-14T12:10:30.549;538882843005950697;573545;474208;583804;172708;
2024-05-14T12:10:30.567;538882843024113690;573803;474309;584020;172719;
2024-05-14T12:10:30.585;538882843042276683;573821;474355;584052;172693;
2024-05-14T12:10:30.603;538882843060439676;573500;474195;583782;172715;
2024-05-14T12:10:30.621;538882843078602669;573031;473768;583308;172726;
2024-05-14T12:10:30.639;538882843096765662;572386;473268;582706;172703;
2024-05-14T12:10:30.658;538882843114928655;571756;472776;582053;172693;
2024-05-14T12:10:30.676;538882843133091584;571191;472302;581526;172693;
2024-05-14T12:10:30.694;538882843151254495;570744;472024;581035;172716;
2024-05-14T12:10:30.712;538882843169417406;570368;471698;580720;172706;
2024-05-14T12:10:30.730;538882843187580317;570273;471546;580492;172728;
2024-05-14T12:10:30.748;538882843205743228;570225;471493;580409;172670;
2024-05-14T12:10:30.766;538882843223906139;570238;471565;580473;172663;
2024-05-14T12:10:30.785;538882843242069050;570320;471660;580551;172644;
2024-05-14T12:10:30.803;538882843260231961;570445;471689;580562;172633;
2024-05-14T12:10:30.821;538882843278394872;570588;471775;580736;172669;
2024-05-14T12:10:30.839;538882843296557783;570685;471886;580844;172655;
2024-05-14T12:10:30.857;538882843314720694;570789;471996;580947;172677;
2024-05-14T12:10:30.875;538882843332883605;570815;472041;580937;172703;
2024-05-14T12:10:30.894;538882843351046516;570762;472078;580915;172677;
2024-05-14T12:10:30.912;538882843369209427;570767;472054;580926;172666;
2024-05-14T12:10:30.930;538882843387372338;570797;472103;580952;172664;
2024-05-14T12:10:30.948;538882843405535249;570713;472079;580884;172652;
2024-05-14T12:10:30.966;538882843423698160;570791;472030;580975;172687;
2024-05-14T12:10:30.984;538882843441861071;570923;472104;581002;172728;
2024-05-14T12:10:31.003;538882843460023982;571036;472158;581043;172701;
2024-05-14T12:10:31.021;538882843478186893;571039;472274;581123;172692;
2024-05-14T12:10:31.039;538882843496349804;571222;472366;581236;172716;
2024-05-14T12:10:31.057;538882843514512715;571406;472519;581389;172685;
2024-05-14T12:10:31.075;538882843532675626;571588;472611;581587;172683;
2024-05-14T12:10:31.093;538882843550838537;571798;472790;581769;172623;
2024-05-14T12:10:31.112;538882843569001448;571969;472925;581931;172678;
2024-05-14T12:10:31.130;538882843587164359;572199;473116;582122;172726;
2024-05-14T12:10:31.148;538882843605327270;572359;473290;582381;172727;
2024-05-14T12:10:31.166;538882843623490181;572680;473477;582652;172735;
2024-05-14T12:10:31.184;538882843641653092;572969;473745;582911;172684;
2024-05-14T12:10:31.202;538882843659816003;573123;473906;583150;172723;
2024-05-14T12:10:31.221;538882843677978914;573085;473920;583091;172732;
2024-05-14T12:10:31.239;538882843696141825;572745;473632;582782;172689;
2024-05-14T12:10:31.257;538882843714304736;572256;473222;582280;172707;
2024-05-14T12:10:31.275;538882843732467647;571645;472710;581623;172768;
2024-05-14T12:10:31.293;538882843750630558;570981;472178;581002;172692;
2024-05-14T12:10:31.311;538882843768793469;570531;471838;580538;172692;
2024-05-14T12:10:31.330;538882843786956380;570119;471485;580070;172711;
2024-05-14T12:10:31.348;538882843805119139;569882;471288;579809;172699;
2024-05-14T12:10:31.366;538882843823281887;569813;471206;579645;172727;
2024-05-14T12:10:31.384;538882843841444635;569791;471167;579640;172748;
2024-05-14T12:10:31.402;538882843859607383;569796;471163;579648;172681;
2024-05-14T12:10:31.420;538882843877770131;569933;471313;579755;172734;
2024-05-14T12:10:31.439;538882843895932879;570052;471451;579848;172708;
2024-05-14T12:10:31.457;538882843914095627;570230;471579;580010;172699;
2024-05-14T12:10:31.475;538882843932258375;570384;471649;580111;172676;
2024-05-14T12:10:31.493;538882843950421123;570460;471785;580280;172703;
2024-05-14T12:10:31.511;538882843968583871;570452;471830;580298;172710;
2024-05-14T12:10:31.529;538882843986746619;570525;471761;580270;172715;
2024-05-14T12:10:31.547;538882844004909367;570555;471765;580280;172727;
2024-05-14T12:10:31.566;538882844023072115;570536;471819;580297;172703;
2024-05-14T12:10:31.584;538882844041234863;570531;471835;580248;172704;
2024-05-14T12:10:31.602;538882844059397611;570602;471812;580315;172771;
2024-05-14T12:10:31.620;538882844077560359;570712;471916;580424;172787;
2024-05-14T12:10:31.638;538882844095723107;570760;471967;580456;172760;
2024-05-14T12:10:31.656;538882844113885855;570916;472108;580692;172742;
2024-05-14T12:10:31.675;538882844132048603;571148;472262;580829;172712;
2024-05-14T12:10:31.693;538882844150211351;571290;472371;580968;172698;
2024-05-14T12:10:31.711;538882844168374099;571455;472661;581178;172747;
2024-05-14T12:10:31.729;538882844186536847;571790;472767;581426;172777;
2024-05-14T12:10:31.747;538882844204699595;571981;472942;581631;172782;
2024-05-14T12:10:31.765;538882844222862343;572192;473140;581833;172728;
2024-05-14T12:10:31.784;538882844241025091;572439;473246;582045;172723;
2024-05-14T12:10:31.802;538882844259187839;572654;473505;582371;172744;
2024-05-14T12:10:31.820;538882844277350587;572966;473737;582579;172765;
2024-05-14T12:10:31.838;538882844295513335;573103;473851;582808;172681;
2024-05-14T12:10:31.856;538882844313676083;573219;473859;582795;172717;
2024-05-14T12:10:31.874;538882844331838831;572857;473693;582492;172741;
2024-05-14T12:10:31.893;538882844350001579;572449;473324;582092;172734;
2024-05-14T12:10:31.911;538882844368164327;571936;472909;581587;172693;
2024-05-14T12:10:31.929;538882844386327075;571448;472525;581122;172740;
2024-05-14T12:10:31.947;538882844404489823;570999;472199;580663;172730;
2024-05-14T12:10:31.965;538882844422652571;570752;471893;580339;172700;
2024-05-14T12:10:31.983;538882844440815319;570581;471773;580114;172728;
2024-05-14T12:10:32.002;538882844458978067;570598;471722;580034;172753;
2024-05-14T12:10:32.020;538882844477140815;570548;471781;580069;172699;
2024-05-14T12:10:32.038;538882844495303563;570698;471916;580135;172711;
2024-05-14T12:10:32.056;538882844513466399;570933;472075;580314;172743;
2024-05-14T12:10:32.074;538882844531629223;571078;472216;580500;172743;
2024-05-14T12:10:32.092;538882844549792047;571277;472316;580672;172767;
2024-05-14T12:10:32.111;538882844567954871;571448;472487;580850;172721;
2024-05-14T12:10:32.129;538882844586117695;571568;472573;580912;172743;
2024-05-14T12:10:32.147;538882844604280519;571679;472606;580992;172736;
2024-05-14T12:10:32.165;538882844622443343;571741;472674;581047;172721;
2024-05-14T12:10:32.183;538882844640606167;571750;472657;581041;172718;
2024-05-14T12:10:32.201;538882844658768991;571765;472720;581069;172714;
2024-05-14T12:10:32.220;538882844676931815;571762;472705;581072;172631;
2024-05-14T12:10:32.238;538882844695094639;571880;472829;581190;172712;
2024-05-14T12:10:32.256;538882844713257463;571945;472889;581323;172734;
2024-05-14T12:10:32.274;538882844731420287;572108;472957;581415;172720;
2024-05-14T12:10:32.292;538882844749583111;572366;473180;581593;172755;
2024-05-14T12:10:32.310;538882844767745935;572539;473356;581802;172786;
2024-05-14T12:10:32.328;538882844785908759;572708;473509;581952;172772;
2024-05-14T12:10:32.347;538882844804071583;572945;473700;582199;172747;
2024-05-14T12:10:32.365;538882844822234407;573143;473816;582384;172711;
2024-05-14T12:10:32.383;538882844840397231;573402;474071;582638;172678;
2024-05-14T12:10:32.401;538882844858560055;573685;474273;582903;172759;
2024-05-14T12:10:32.419;538882844876722879;573931;474483;583188;172784;
2024-05-14T12:10:32.437;538882844894885703;574181;474603;583450;172728;
2024-05-14T12:10:32.456;538882844913048527;574385;474878;583660;172711;
2024-05-14T12:10:32.474;538882844931211351;574385;474827;583652;172737;
2024-05-14T12:10:32.492;538882844949374175;574160;474625;583402;172752;
2024-05-14T12:10:32.510;538882844967536999;573726;474306;582917;172783;
2024-05-14T12:10:32.528;538882844985699823;573297;473899;582472;172785;
2024-05-14T12:10:32.546;538882845003862647;572788;473437;581993;172721;
2024-05-14T12:10:32.565;538882845022025471;572419;473133;581572;172714;
2024-05-14T12:10:32.583;538882845040188295;572173;472948;581362;172738;
2024-05-14T12:10:32.601;538882845058351119;572039;472839;581190;172707;
2024-05-14T12:10:32.619;538882845076513943;572077;472832;581186;172759;
2024-05-14T12:10:32.637;538882845094676767;572075;472879;581171;172690;
2024-05-14T12:10:32.655;538882845112839591;572184;472953;581278;172764;
2024-05-14T12:10:32.674;538882845131002415;572429;473148;581388;172730;
2024-05-14T12:10:32.692;538882845149165239;572657;473333;581632;172769;
2024-05-14T12:10:32.710;538882845167328063;572847;473410;581814;172747;
2024-05-14T12:10:32.728;538882845185490887;573037;473527;581992;172746;
2024-05-14T12:10:32.746;538882845203653711;573058;473565;582008;172662;
2024-05-14T12:10:32.764;538882845221816535;573175;473647;582118;172691;
2024-05-14T12:10:32.783;538882845239979359;573195;473660;582104;172697;
2024-05-14T12:10:32.801;538882845258142183;573239;473640;582157;172689;
2024-05-14T12:10:32.819;538882845276305691;573241;473639;582176;172716;
2024-05-14T12:10:32.837;538882845294469199;573352;473779;582288;172675;
2024-05-14T12:10:32.855;538882845312632707;573463;473851;582347;172697;
2024-05-14T12:10:32.873;538882845330796215;573596;473949;582491;172730;
2024-05-14T12:10:32.892;538882845348959723;573762;474038;582648;172721;
2024-05-14T12:10:32.910;538882845367123231;573923;474173;582787;172761;
2024-05-14T12:10:32.928;538882845385286739;574071;474341;582930;172737;
2024-05-14T12:10:32.946;538882845403450247;574299;474537;583170;172716;
2024-05-14T12:10:32.964;538882845421613755;574540;474667;583351;172740;
2024-05-14T12:10:32.982;538882845439777263;574807;474830;583607;172778;
2024-05-14T12:10:33.001;538882845457940771;575045;475005;583833;172751;
2024-05-14T12:10:33.019;538882845476104279;575211;475213;584019;172730;
2024-05-14T12:10:33.037;538882845494267787;575455;475369;584250;172699;
2024-05-14T12:10:33.055;538882845512431295;575731;475555;584511;172745;
2024-05-14T12:10:33.073;538882845530594803;575983;475760;584754;172740;
2024-05-14T12:10:33.091;538882845548758311;576040;475724;584781;172694;
2024-05-14T12:10:33.109;538882845566921819;575814;475580;584593;172711;
2024-05-14T12:10:33.128;538882845585085327;575308;475216;584100;172755;
2024-05-14T12:10:33.146;538882845603248835;574757;474791;583627;172743;
2024-05-14T12:10:33.164;538882845621412343;574263;474362;583119;172745;
2024-05-14T12:10:33.182;538882845639575851;573832;473886;582605;172740;
2024-05-14T12:10:33.200;538882845657739359;573532;473632;582185;172684;
2024-05-14T12:10:33.218;538882845675902867;573269;473492;581978;172731;
2024-05-14T12:10:33.237;538882845694066375;573257;473411;581803;172734;
2024-05-14T12:10:33.255;538882845712229883;573246;473388;581800;172716;
2024-05-14T12:10:33.273;538882845730393391;573309;473471;581805;172707;
2024-05-14T12:10:33.291;538882845748556899;573409;473575;581831;172678;
2024-05-14T12:10:33.309;538882845766720407;573528;473641;582020;172735;
2024-05-14T12:10:33.327;538882845784883915;573641;473759;582174;172686;
2024-05-14T12:10:33.346;538882845803047423;573846;473891;582343;172737;
2024-05-14T12:10:33.364;538882845821210931;573970;473924;582440;172720;
2024-05-14T12:10:33.382;538882845839374439;573910;473920;582450;172724;
2024-05-14T12:10:33.400;538882845857537947;573985;473992;582477;172673;
2024-05-14T12:10:33.418;538882845875701455;574074;474094;582556;172710;
2024-05-14T12:10:33.436;538882845893864963;574070;474049;582558;172700;
2024-05-14T12:10:33.455;538882845912028471;574165;474025;582579;172710;
2024-05-14T12:10:33.473;538882845930192006;574238;474101;582697;172716;
2024-05-14T12:10:33.491;538882845948355537;574325;474115;582745;172609;
2024-05-14T12:10:33.509;538882845966519068;574444;474262;582902;172702;
2024-05-14T12:10:33.527;538882845984682599;574644;474453;583065;172751;
2024-05-14T12:10:33.545;538882846002846130;574790;474529;583121;172696;
2024-05-14T12:10:33.564;538882846021009661;574939;474721;583345;172689;
2024-05-14T12:10:33.582;538882846039173192;575165;474844;583551;172689;
2024-05-14T12:10:33.600;538882846057336723;575410;475025;583737;172727;
2024-05-14T12:10:33.618;538882846075500254;575596;475188;583915;172702;
2024-05-14T12:10:33.636;538882846093663785;575871;475358;584120;172698;
2024-05-14T12:10:33.654;538882846111827316;576076;475490;584392;172684;
2024-05-14T12:10:33.673;538882846129990847;576306;475761;584624;172679;
2024-05-14T12:10:33.691;538882846148154378;576644;475922;584922;172704;
2024-05-14T12:10:33.709;538882846166317909;576810;476053;585116;172765;
2024-05-14T12:10:33.727;538882846184481440;576604;475976;584992;172694;
2024-05-14T12:10:33.745;538882846202644971;576277;475692;584677;172748;
2024-05-14T12:10:33.763;538882846220808502;575825;475301;584141;172734;
2024-05-14T12:10:33.782;538882846238972033;575241;474758;583568;172673;
2024-05-14T12:10:33.800;538882846257135564;574793;474331;583011;172663;
2024-05-14T12:10:33.818;538882846275299095;574404;474038;582609;172650;
2024-05-14T12:10:33.836;538882846293462626;574223;473775;582337;172676;
2024-05-14T12:10:33.854;538882846311626157;574093;473743;582165;172704;
2024-05-14T12:10:33.872;538882846329789688;574064;473719;582190;172677;
2024-05-14T12:10:33.891;538882846347953219;574019;473661;582160;172707;
2024-05-14T12:10:33.909;538882846366116750;574156;473714;582246;172707;
2024-05-14T12:10:33.927;538882846384280281;574303;473757;582331;172699;
2024-05-14T12:10:33.945;538882846402443812;574412;473921;582484;172683;
2024-05-14T12:10:33.963;538882846420607343;574567;474088;582614;172704;
2024-05-14T12:10:33.981;538882846438770874;574679;474161;582769;172753;
2024-05-14T12:10:34.000;538882846456934405;574769;474259;582832;172729;
2024-05-14T12:10:34.018;538882846475097936;574784;474311;582823;172694;
2024-05-14T12:10:34.036;538882846493261467;574842;474288;582852;172716;
2024-05-14T12:10:34.054;538882846511424998;574921;474300;582932;172698;
2024-05-14T12:10:34.072;538882846529588529;574932;474340;582960;172706;
2024-05-14T12:10:34.090;538882846547752060;575049;474402;583030;172668;
2024-05-14T12:10:34.108;538882846565915591;575140;474513;583104;172710;
2024-05-14T12:10:34.127;538882846584079122;575326;474604;583232;172735;
2024-05-14T12:10:34.145;538882846602242653;575515;474719;583407;172760;
2024-05-14T12:10:34.163;538882846620406184;575660;474913;583622;172748;
2024-05-14T12:10:34.181;538882846638568551;575870;475094;583834;172729;
2024-05-14T12:10:34.199;538882846656730908;576074;475261;584026;172682;
2024-05-14T12:10:34.217;538882846674893265;576347;475416;584229;172732;
2024-05-14T12:10:34.236;538882846693055622;576551;475590;584439;172714;
2024-05-14T12:10:34.254;538882846711217979;576817;475802;584738;172740;
2024-05-14T12:10:34.272;538882846729380336;577024;475955;584963;172691;
2024-05-14T12:10:34.290;538882846747542693;577272;476102;585177;172727;
2024-05-14T12:10:34.308;538882846765705050;577546;476317;585424;172726;
2024-05-14T12:10:34.326;538882846783867407;577774;476560;585709;172642;
2024-05-14T12:10:34.345;538882846802029764;577961;476739;585866;172707;
2024-05-14T12:10:34.363;538882846820192121;578163;476896;586148;172644;
2024-05-14T12:10:34.381;538882846838354478;578388;477099;586380;172749;
2024-05-14T12:10:34.399;538882846856516835;578641;477317;586650;172777;
2024-05-14T12:10:34.417;538882846874679192;578838;477466;586840;172729;
2024-05-14T12:10:34.435;538882846892841549;579097;477722;587112;172709;
2024-05-14T12:10:34.454;538882846911003906;579268;477858;587360;172700;
2024-05-14T12:10:34.472;538882846929166263;579224;477825;587389;172663;
2024-05-14T12:10:34.490;538882846947328620;578892;477610;587067;172734;
2024-05-14T12:10:34.508;538882846965490977;578427;477192;586599;172720;
2024-05-14T12:10:34.526;538882846983653334;577881;476720;586032;172762;
2024-05-14T12:10:34.544;538882847001815691;577388;476305;585560;172802;
2024-05-14T12:10:34.563;538882847019978048;576978;475931;585155;172726;
2024-05-14T12:10:34.581;538882847038140405;576637;475706;584840;172759;
2024-05-14T12:10:34.599;538882847056302762;576450;475492;584710;172766;
2024-05-14T12:10:34.617;538882847074465119;576390;475497;584564;172782;
2024-05-14T12:10:34.635;538882847092627476;576453;475478;584630;172665;
2024-05-14T12:10:34.653;538882847110789833;576543;475525;584725;172683;
2024-05-14T12:10:34.672;538882847128952190;576654;475707;584868;172728;
2024-05-14T12:10:34.690;538882847147114547;576887;475834;584996;172736;
2024-05-14T12:10:34.708;538882847165276904;576987;475978;585125;172704;
2024-05-14T12:10:34.726;538882847183439261;577137;475962;585285;172770;
2024-05-14T12:10:34.744;538882847201601618;577171;476086;585375;172733;
2024-05-14T12:10:34.762;538882847219763975;577273;476108;585479;172752;
2024-05-14T12:10:34.780;538882847237926332;577260;476195;585508;172673;
2024-05-14T12:10:34.799;538882847256088689;577320;476175;585545;172744;
2024-05-14T12:10:34.817;538882847274251046;577292;476136;585574;172712;
2024-05-14T12:10:34.835;538882847292413403;577440;476211;585633;172754;
2024-05-14T12:10:34.853;538882847310575760;577485;476266;585706;172697;
2024-05-14T12:10:34.871;538882847328738117;577626;476342;585803;172710;
2024-05-14T12:10:34.889;538882847346900121;577742;476485;585954;172742;
2024-05-14T12:10:34.908;538882847365062109;577927;476590;586101;172743;
2024-05-14T12:10:34.926;538882847383224097;578119;476733;586332;172734;
2024-05-14T12:10:34.944;538882847401386085;578268;476840;586439;172730;
2024-05-14T12:10:34.962;538882847419548073;578454;477008;586626;172685;
2024-05-14T12:10:34.980;538882847437710061;578695;477245;586976;172720;
2024-05-14T12:10:34.998;538882847455872049;578938;477382;587116;172689;
2024-05-14T12:10:35.017;538882847474034037;579165;477581;587415;172695;
2024-05-14T12:10:35.035;538882847492196025;579404;477759;587645;172751;
2024-05-14T12:10:35.053;538882847510358013;579670;477960;587992;172749;
2024-05-14T12:10:35.071;538882847528520001;579942;478191;588240;172747;
2024-05-14T12:10:35.089;538882847546681989;580203;478403;588464;172723;
2024-05-14T12:10:35.107;538882847564843977;580444;478597;588710;172755;
2024-05-14T12:10:35.126;538882847583005965;580706;478815;588966;172691;
2024-05-14T12:10:35.144;538882847601167953;581027;479106;589305;172760;
2024-05-14T12:10:35.162;538882847619329941;581283;479282;589509;172741;
2024-05-14T12:10:35.180;538882847637491929;581582;479513;589827;172696;
2024-05-14T12:10:35.198;538882847655653917;581829;479716;590053;172741;
2024-05-14T12:10:35.216;538882847673815905;582145;479917;590436;172660;
2024-05-14T12:10:35.235;538882847691977893;582405;480213;590695;172699;
2024-05-14T12:10:35.253;538882847710139881;582696;480484;590919;172747;
2024-05-14T12:10:35.271;538882847728301869;582924;480664;591170;172727;
2024-05-14T12:10:35.289;538882847746463857;583218;480844;591352;172676;
2024-05-14T12:10:35.307;538882847764625845;583163;480863;591378;172668;
2024-05-14T12:10:35.325;538882847782787833;582944;480676;591263;172681;
2024-05-14T12:10:35.344;538882847800949821;582582;480348;590919;172738;
2024-05-14T12:10:35.362;538882847819111809;582101;479903;590495;172687;
2024-05-14T12:10:35.380;538882847837273797;581711;479534;590058;172679;
2024-05-14T12:10:35.398;538882847855435785;581353;479273;589705;172715;
2024-05-14T12:10:35.416;538882847873597773;581123;478952;589409;172719;
2024-05-14T12:10:35.434;538882847891759761;580997;478825;589234;172684;
2024-05-14T12:10:35.452;538882847909921749;580961;478758;589240;172651;
2024-05-14T12:10:35.471;538882847928083737;581092;478852;589278;172757;
2024-05-14T12:10:35.489;538882847946245725;581193;478916;589420;172735;
2024-05-14T12:10:35.507;538882847964407713;581436;479157;589694;172758;
2024-05-14T12:10:35.525;538882847982569701;581639;479345;589861;172758;
2024-05-14T12:10:35.543;538882848000731689;581849;479478;590064;172741;
2024-05-14T12:10:35.561;538882848018893677;582015;479652;590317;172753;
2024-05-14T12:10:35.580;538882848037055665;582196;479795;590407;172700;
2024-05-14T12:10:35.598;538882848055217653;582232;479884;590551;172761;
2024-05-14T12:10:35.616;538882848073379641;582277;479905;590601;172686;
2024-05-14T12:10:35.634;538882848091541629;582329;479891;590674;172712;
2024-05-14T12:10:35.652;538882848109701499;582330;479869;590737;172709;
2024-05-14T12:10:35.670;538882848127861355;582387;479900;590789;172720;
2024-05-14T12:10:35.689;538882848146021211;582419;479938;590745;172683;
2024-05-14T12:10:35.707;538882848164181067;582536;480093;590869;172721;
2024-05-14T12:10:35.725;538882848182340923;582786;480202;591023;172706;
2024-05-14T12:10:35.743;538882848200500779;583001;480490;591292;172746;
2024-05-14T12:10:35.761;538882848218660635;583201;480676;591403;172706;
2024-05-14T12:10:35.779;538882848236820491;583475;480913;591705;172708;
2024-05-14T12:10:35.798;538882848254980347;583656;481155;591850;172700;
2024-05-14T12:10:35.816;538882848273140203;583910;481372;592083;172801;
2024-05-14T12:10:35.834;538882848291300059;584180;481504;592359;172767;
2024-05-14T12:10:35.852;538882848309459915;584433;481688;592670;172748;
2024-05-14T12:10:35.870;538882848327619771;584606;481794;592812;172702;
2024-05-14T12:10:35.888;538882848345779627;584828;481993;593065;172766;
2024-05-14T12:10:35.907;538882848363939483;585065;482175;593275;172703;
2024-05-14T12:10:35.925;538882848382099339;585304;482426;593541;172770;
2024-05-14T12:10:35.943;538882848400259195;585501;482558;593784;172719;
2024-05-14T12:10:35.961;538882848418419051;585738;482781;594077;172769;
2024-05-14T12:10:35.979;538882848436578907;586003;483006;594291;172699;
2024-05-14T12:10:35.997;538882848454738763;586289;483152;594512;172731;
2024-05-14T12:10:36.015;538882848472898619;586354;483301;594671;172685;
2024-05-14T12:10:36.034;538882848491058475;586335;483296;594694;172676;
2024-05-14T12:10:36.052;538882848509218331;586118;483115;594523;172782;
2024-05-14T12:10:36.070;538882848527378187;585712;482721;594143;172744;
2024-05-14T12:10:36.088;538882848545538043;585269;482334;593720;172734;
2024-05-14T12:10:36.106;538882848563697899;584737;481907;593172;172724;
2024-05-14T12:10:36.124;538882848581857755;584283;481587;592780;172759;
2024-05-14T12:10:36.143;538882848600017611;584005;481309;592531;172791;
2024-05-14T12:10:36.161;538882848618177467;583743;480989;592298;172715;
2024-05-14T12:10:36.179;538882848636337323;583683;480898;592185;172749;
2024-05-14T12:10:36.197;538882848654497179;583651;480937;592201;172737;
2024-05-14T12:10:36.215;538882848672657035;583696;480948;592224;172772;
2024-05-14T12:10:36.233;538882848690816891;583700;481016;592320;172695;
2024-05-14T12:10:36.252;538882848708976747;583791;481095;592429;172695;
2024-05-14T12:10:36.270;538882848727136603;583921;481142;592522;172711;
2024-05-14T12:10:36.288;538882848745296459;584046;481244;592651;172753;
2024-05-14T12:10:36.306;538882848763456315;584106;481305;592826;172740;
2024-05-14T12:10:36.324;538882848781616171;584210;481395;592808;172670;
2024-05-14T12:10:36.342;538882848799776434;584148;481405;592905;172689;
2024-05-14T12:10:36.361;538882848817936664;584158;481368;592888;172679;
2024-05-14T12:10:36.379;538882848836096894;584069;481361;592856;172704;
2024-05-14T12:10:36.397;538882848854257124;584147;481370;592971;172755;
2024-05-14T12:10:36.415;538882848872417354;584113;481410;592871;172713;
2024-05-14T12:10:36.433;538882848890577584;584090;481407;592940;172700;
2024-05-14T12:10:36.451;538882848908737814;584182;481455;592977;172737;
2024-05-14T12:10:36.469;538882848926898044;584211;481463;593058;172719;
2024-05-14T12:10:36.488;538882848945058274;584373;481567;593195;172725;
2024-05-14T12:10:36.506;538882848963218504;584462;481601;593272;172699;
2024-05-14T12:10:36.524;538882848981378734;584598;481732;593438;172643;
2024-05-14T12:10:36.542;538882848999538964;584790;481930;593676;172696;
2024-05-14T12:10:36.560;538882849017699194;585024;482077;593898;172719;
2024-05-14T12:10:36.578;538882849035859424;585216;482247;594050;172685;
2024-05-14T12:10:36.597;538882849054019654;585436;482432;594312;172668;
2024-05-14T12:10:36.615;538882849072179884;585647;482596;594506;172682;
2024-05-14T12:10:36.633;538882849090340114;585842;482780;594726;172725;
2024-05-14T12:10:36.651;538882849108500344;586088;482972;594978;172749;
2024-05-14T12:10:36.669;538882849126660574;586229;483127;595129;172723;
2024-05-14T12:10:36.687;538882849144820804;586410;483336;595381;172676;
2024-05-14T12:10:36.706;538882849162981034;586691;483572;595638;172747;
2024-05-14T12:10:36.724;538882849181141264;586798;483597;595762;172711;
2024-05-14T12:10:36.742;538882849199301494;586636;483542;595671;172669;
2024-05-14T12:10:36.760;538882849217461724;586295;483236;595339;172731;
2024-05-14T12:10:36.778;538882849235621954;585732;482773;594884;172696;
2024-05-14T12:10:36.796;538882849253782184;585237;482285;594440;172684;
2024-05-14T12:10:36.815;538882849271942414;584723;481920;593898;172704;
2024-05-14T12:10:36.833;538882849290102644;584279;481504;593421;172713;
2024-05-14T12:10:36.851;538882849308262874;583933;481177;593092;172742;
2024-05-14T12:10:36.869;538882849326423104;583648;481028;592950;172752;
2024-05-14T12:10:36.887;538882849344583334;583531;480904;592824;172703;
2024-05-14T12:10:36.905;538882849362743564;583453;480829;592759;172738;
2024-05-14T12:10:36.923;538882849380903794;583442;480936;592865;172742;
2024-05-14T12:10:36.942;538882849399064024;583538;480946;592909;172729;
2024-05-14T12:10:36.960;538882849417224254;583597;481036;592999;172741;
2024-05-14T12:10:36.978;538882849435384484;583698;481052;593141;172716;
2024-05-14T12:10:36.996;538882849453544714;583785;481171;593195;172710;
2024-05-14T12:10:37.014;538882849471706393;583856;481257;593244;172727;
2024-05-14T12:10:37.032;538882849489868056;583862;481291;593354;172747;
2024-05-14T12:10:37.051;538882849508029719;583865;481292;593352;172742;
2024-05-14T12:10:37.069;538882849526191382;583747;481210;593244;172703;
2024-05-14T12:10:37.087;538882849544353045;583723;481159;593256;172727;
2024-05-14T12:10:37.105;538882849562514708;583654;481163;593242;172656;
2024-05-14T12:10:37.123;538882849580676371;583678;481203;593291;172732;
2024-05-14T12:10:37.141;538882849598838034;583674;481213;593300;172762;
2024-05-14T12:10:37.160;538882849616999697;583761;481251;593338;172690;
2024-05-14T12:10:37.178;538882849635161360;583874;481310;593471;172703;
2024-05-14T12:10:37.196;538882849653323023;583926;481405;593539;172704;
2024-05-14T12:10:37.214;538882849671484686;584112;481517;593711;172733;
2024-05-14T12:10:37.232;538882849689646349;584257;481634;593856;172672;
2024-05-14T12:10:37.250;538882849707808012;584371;481819;593986;172730;
2024-05-14T12:10:37.269;538882849725969675;584450;481848;594231;172710;
2024-05-14T12:10:37.287;538882849744131338;584644;482034;594386;172687;
2024-05-14T12:10:37.305;538882849762293001;584847;482208;594590;172749;
2024-05-14T12:10:37.323;538882849780454664;585098;482416;594777;172720;
2024-05-14T12:10:37.341;538882849798616327;585271;482572;594969;172697;
2024-05-14T12:10:37.359;538882849816777990;585458;482763;595171;172742;
2024-05-14T12:10:37.378;538882849834939653;585658;482899;595383;172698;
2024-05-14T12:10:37.396;538882849853101316;585877;483092;595596;172699;
2024-05-14T12:10:37.414;538882849871262979;586045;483236;595799;172708;
2024-05-14T12:10:37.432;538882849889424642;586204;483341;595998;172698;
2024-05-14T12:10:37.450;538882849907586305;586214;483382;595950;172700;
2024-05-14T12:10:37.468;538882849925747968;585895;483190;595721;172744;
2024-05-14T12:10:37.486;538882849943909631;585431;482847;595367;172708;
2024-05-14T12:10:37.505;538882849962071294;584891;482376;594854;172758;
2024-05-14T12:10:37.523;538882849980232957;584298;481914;594306;172702;
2024-05-14T12:10:37.541;538882849998394620;583781;481562;593906;172701;
2024-05-14T12:10:37.559;538882850016556283;583446;481242;593528;172736;
2024-05-14T12:10:37.577;538882850034717946;583179;480978;593326;172743;
2024-05-14T12:10:37.595;538882850052879609;583093;480860;593194;172735;
2024-05-14T12:10:37.614;538882850071041272;583015;480851;593163;172691;
2024-05-14T12:10:37.632;538882850089202935;583078;480873;593235;172735;
2024-05-14T12:10:37.650;538882850107364598;583138;480907;593258;172693;
2024-05-14T12:10:37.668;538882850125526261;583200;481055;593376;172730;
2024-05-14T12:10:37.686;538882850143687924;583362;481222;593493;172736;
2024-05-14T12:10:37.704;538882850161851101;583514;481296;593638;172685;
2024-05-14T12:10:37.723;538882850180014270;583613;481344;593704;172696;
2024-05-14T12:10:37.741;538882850198177439;583614;481391;593771;172674;
2024-05-14T12:10:37.759;538882850216340608;583560;481449;593775;172774;
2024-05-14T12:10:37.777;538882850234503777;583504;481404;593712;172744;
2024-05-14T12:10:37.795;538882850252666946;583480;481329;593732;172740;
2024-05-14T12:10:37.813;538882850270830115;583443;481312;593726;172753;
2024-05-14T12:10:37.832;538882850288993284;583403;481381;593748;172779;
2024-05-14T12:10:37.850;538882850307156453;583484;481387;593747;172770;
2024-05-14T12:10:37.868;538882850325319622;583509;481356;593737;172751;
2024-05-14T12:10:37.886;538882850343482791;583590;481420;593814;172798;
2024-05-14T12:10:37.904;538882850361645960;583591;481470;593826;172759;
2024-05-14T12:10:37.922;538882850379809129;583735;481569;593951;172750;
2024-05-14T12:10:37.941;538882850397972298;583916;481646;594035;172802;
2024-05-14T12:10:37.959;538882850416135467;584017;481855;594233;172817;
2024-05-14T12:10:37.977;538882850434298636;584194;481943;594383;172740;
2024-05-14T12:10:37.995;538882850452461805;584308;482093;594585;172718;
2024-05-14T12:10:38.013;538882850470624974;584552;482233;594731;172774;
2024-05-14T12:10:38.031;538882850488788143;584608;482370;594928;172741;
2024-05-14T12:10:38.050;538882850506951312;584773;482544;595034;172752;
2024-05-14T12:10:38.068;538882850525114481;584949;482705;595168;172742;
2024-05-14T12:10:38.086;538882850543277650;585148;482819;595318;172692;
2024-05-14T12:10:38.104;538882850561440819;585266;482928;595444;172634;
2024-05-14T12:10:38.122;538882850579603988;585209;482934;595492;172694;
2024-05-14T12:10:38.140;538882850597767157;584993;482727;595242;172716;
2024-05-14T12:10:38.159;538882850615930326;584529;482352;594909;172770;
2024-05-14T12:10:38.177;538882850634093495;583938;481926;594336;172760;
2024-05-14T12:10:38.195;538882850652256664;583358;481350;593763;172747;
2024-05-14T12:10:38.213;538882850670419833;582872;481032;593270;172693;
2024-05-14T12:10:38.231;538882850688583002;582483;480711;592957;172723;
2024-05-14T12:10:38.249;538882850706746171;582227;480468;592721;172743;
2024-05-14T12:10:38.267;538882850724909340;582087;480365;592524;172704;
2024-05-14T12:10:38.286;538882850743072509;581995;480334;592428;172742;
2024-05-14T12:10:38.304;538882850761235678;582062;480317;592478;172776;
2024-05-14T12:10:38.322;538882850779398847;582098;480387;592559;172754;
2024-05-14T12:10:38.340;538882850797562016;582142;480480;592639;172732;
2024-05-14T12:10:38.358;538882850815725185;582322;480607;592707;172753;
2024-05-14T12:10:38.376;538882850833888354;582337;480612;592816;172684;
2024-05-14T12:10:38.395;538882850852051523;582426;480707;592929;172745;
2024-05-14T12:10:38.413;538882850870214692;582440;480725;592887;172731;
2024-05-14T12:10:38.431;538882850888376747;582399;480675;592821;172712;
2024-05-14T12:10:38.449;538882850906538791;582278;480642;592785;172725;
2024-05-14T12:10:38.467;538882850924700835;582244;480618;592703;172723;
2024-05-14T12:10:38.485;538882850942862879;582160;480536;592622;172706;
2024-05-14T12:10:38.504;538882850961024923;582107;480557;592576;172697;
2024-05-14T12:10:38.522;538882850979186967;582206;480592;592696;172704;
2024-05-14T12:10:38.540;538882850997349011;582257;480588;592640;172711;
2024-05-14T12:10:38.558;538882851015511055;582227;480682;592689;172720;
2024-05-14T12:10:38.576;538882851033673099;582370;480655;592775;172708;
2024-05-14T12:10:38.594;538882851051835143;582477;480827;592934;172732;
2024-05-14T12:10:38.613;538882851069997187;582629;480974;593096;172719;
2024-05-14T12:10:38.631;538882851088159231;582821;481125;593243;172720;
2024-05-14T12:10:38.649;538882851106321275;583012;481278;593372;172726;
2024-05-14T12:10:38.667;538882851124483319;583177;481354;593526;172714;
2024-05-14T12:10:38.685;538882851142645363;583409;481592;593738;172796;
2024-05-14T12:10:38.703;538882851160807407;583527;481672;593865;172753;
2024-05-14T12:10:38.722;538882851178969451;583750;481845;593971;172729;
2024-05-14T12:10:38.740;538882851197131495;583960;482023;594156;172735;
2024-05-14T12:10:38.758;538882851215293539;584100;482172;594315;172743;
2024-05-14T12:10:38.776;538882851233455583;584189;482221;594475;172675;
2024-05-14T12:10:38.794;538882851251617627;583924;482130;594253;172727;
2024-05-14T12:10:38.812;538882851269779671;583494;481727;593838;172721;
2024-05-14T12:10:38.831;538882851287941715;582988;481294;593316;172764;
2024-05-14T12:10:38.849;538882851306103759;582406;480795;592725;172777;
2024-05-14T12:10:38.867;538882851324265803;581783;480287;592124;172740;
2024-05-14T12:10:38.885;538882851342427847;581327;479863;591620;172761;
2024-05-14T12:10:38.903;538882851360589891;581001;479638;591359;172792;
2024-05-14T12:10:38.921;538882851378751935;580794;479447;591070;172771;
2024-05-14T12:10:38.939;538882851396913979;580617;479310;590889;172734;
2024-05-14T12:10:38.958;538882851415076023;580656;479279;590846;172774;
2024-05-14T12:10:38.976;538882851433238067;580695;479353;590862;172755;
2024-05-14T12:10:38.994;538882851451400111;580702;479282;590845;172703;
2024-05-14T12:10:39.012;538882851469562155;580808;479431;590966;172741;
2024-05-14T12:10:39.030;538882851487724199;580916;479514;591018;172746;
2024-05-14T12:10:39.048;538882851505886243;580971;479554;591122;172741;
2024-05-14T12:10:39.067;538882851524048287;581032;479573;591196;172783;
2024-05-14T12:10:39.085;538882851542210331;581059;479579;591105;172716;
2024-05-14T12:10:39.103;538882851560372375;581001;479568;591106;172764;
2024-05-14T12:10:39.121;538882851578534419;581003;479517;590980;172732;
2024-05-14T12:10:39.139;538882851596696758;580915;479530;590985;172750;
2024-05-14T12:10:39.157;538882851614859092;580955;479544;590960;172745;
2024-05-14T12:10:39.176;538882851633021426;580934;479497;590935;172726;
2024-05-14T12:10:39.194;538882851651183760;580970;479509;590951;172728;
2024-05-14T12:10:39.212;538882851669346094;581033;479603;590978;172757;
2024-05-14T12:10:39.230;538882851687508428;581089;479702;591066;172806;
2024-05-14T12:10:39.248;538882851705670762;581224;479748;591199;172751;
2024-05-14T12:10:39.266;538882851723833096;581341;479840;591189;172744;
2024-05-14T12:10:39.285;538882851741995430;581459;480002;591356;172789;
2024-05-14T12:10:39.303;538882851760157764;581629;480040;591508;172791;
2024-05-14T12:10:39.321;538882851778320098;581827;480148;591663;172732;
2024-05-14T12:10:39.339;538882851796482432;582048;480344;591848;172748;
2024-05-14T12:10:39.357;538882851814644766;582189;480470;592038;172727;
2024-05-14T12:10:39.375;538882851832807100;582425;480694;592318;172763;
2024-05-14T12:10:39.394;538882851850969434;582635;480883;592433;172762;
2024-05-14T12:10:39.412;538882851869131768;582868;481114;592673;172730;
2024-05-14T12:10:39.430;538882851887294102;583052;481257;592909;172764;
2024-05-14T12:10:39.448;538882851905456436;583095;481333;592888;172736;
2024-05-14T12:10:39.466;538882851923618770;582839;481219;592629;172771;
2024-05-14T12:10:39.484;538882851941781104;582460;480792;592251;172732;
2024-05-14T12:10:39.503;538882851959943438;581888;480362;591664;172758;
2024-05-14T12:10:39.521;538882851978105772;581345;479911;591084;172753;
2024-05-14T12:10:39.539;538882851996268106;580923;479430;590540;172774;
2024-05-14T12:10:39.557;538882852014430440;580565;479119;590163;172774;
2024-05-14T12:10:39.575;538882852032592774;580296;478907;589921;172716;
2024-05-14T12:10:39.593;538882852050755108;580154;478760;589785;172766;
2024-05-14T12:10:39.611;538882852068917442;580168;478709;589717;172758;
2024-05-14T12:10:39.630;538882852087079776;580140;478711;589632;172716;
2024-05-14T12:10:39.648;538882852105242110;580193;478822;589697;172733;
2024-05-14T12:10:39.666;538882852123404444;580334;478853;589796;172776;
2024-05-14T12:10:39.684;538882852141566778;580363;478976;589882;172690;
2024-05-14T12:10:39.702;538882852159729112;580521;479060;589936;172746;
2024-05-14T12:10:39.720;538882852177891446;580637;479132;589981;172709;
2024-05-14T12:10:39.739;538882852196053780;580650;479184;589998;172694;
2024-05-14T12:10:39.757;538882852214216114;580701;479187;590060;172734;
2024-05-14T12:10:39.775;538882852232378448;580722;479229;590024;172718;
2024-05-14T12:10:39.793;538882852250540782;580705;479218;589979;172728;
2024-05-14T12:10:39.811;538882852268702515;580732;479179;590021;172686;
2024-05-14T12:10:39.829;538882852286864230;580771;479236;590014;172747;
2024-05-14T12:10:39.848;538882852305025945;580827;479246;589995;172706;
2024-05-14T12:10:39.866;538882852323187660;580926;479325;590073;172796;
2024-05-14T12:10:39.884;538882852341349375;581036;479403;590132;172735;
2024-05-14T12:10:39.902;538882852359511090;581195;479539;590249;172786;
2024-05-14T12:10:39.920;538882852377672805;581270;479683;590423;172716;
2024-05-14T12:10:39.938;538882852395834520;581451;479776;590597;172727;
2024-05-14T12:10:39.957;538882852413996235;581627;479957;590772;172719;
2024-05-14T12:10:39.975;538882852432157950;581919;480055;590859;172779;
2024-05-14T12:10:39.993;538882852450319665;582117;480260;591056;172748;
2024-05-14T12:10:40.011;538882852468481380;582329;480437;591279;172747;
2024-05-14T12:10:40.029;538882852486643095;582585;480579;591511;172774;
2024-05-14T12:10:40.047;538882852504804810;582797;480836;591759;172747;
2024-05-14T12:10:40.066;538882852522966525;582996;480964;591954;172740;
2024-05-14T12:10:40.084;538882852541128240;583252;481168;592152;172660;
2024-05-14T12:10:40.102;538882852559289955;583463;481333;592436;172712;
2024-05-14T12:10:40.120;538882852577451670;583639;481532;592564;172775;
2024-05-14T12:10:40.138;538882852595613385;583514;481474;592497;172715;
2024-05-14T12:10:40.156;538882852613775100;583355;481284;592311;172718;
2024-05-14T12:10:40.175;538882852631936815;582982;480992;591970;172755;
2024-05-14T12:10:40.193;538882852650098530;582509;480571;591442;172805;
2024-05-14T12:10:40.211;538882852668260245;582140;480276;591001;172764;
2024-05-14T12:10:40.229;538882852686421960;581843;479833;590703;172730;
2024-05-14T12:10:40.247;538882852704583675;581668;479682;590428;172758;
2024-05-14T12:10:40.265;538882852722745390;581539;479512;590175;172765;
2024-05-14T12:10:40.283;538882852740907105;581536;479533;590226;172763;
2024-05-14T12:10:40.302;538882852759068820;581590;479587;590214;172759;
2024-05-14T12:10:40.320;538882852777230535;581680;479687;590271;172772;
2024-05-14T12:10:40.338;538882852795392250;581834;479835;590423;172745;
2024-05-14T12:10:40.356;538882852813553965;582029;479979;590558;172713;
2024-05-14T12:10:40.374;538882852831715680;582201;480065;590727;172733;
2024-05-14T12:10:40.392;538882852849877395;582261;480207;590858;172690;
2024-05-14T12:10:40.411;538882852868039110;582379;480225;590938;172685;
2024-05-14T12:10:40.429;538882852886200825;582551;480284;591031;172720;
2024-05-14T12:10:40.447;538882852904362540;582601;480403;591106;172749;
2024-05-14T12:10:40.465;538882852922524255;582597;480344;591036;172700;
2024-05-14T12:10:40.483;538882852940685114;582554;480331;591049;172684;
2024-05-14T12:10:40.501;538882852958845939;582599;480275;591099;172716;
2024-05-14T12:10:40.520;538882852977006764;582711;480362;591111;172715;
2024-05-14T12:10:40.538;538882852995167589;582877;480458;591212;172736;
2024-05-14T12:10:40.556;538882853013328414;582927;480504;591268;172736;
2024-05-14T12:10:40.574;538882853031489239;583065;480652;591454;172778;
2024-05-14T12:10:40.592;538882853049650064;583244;480730;591536;172707;
2024-05-14T12:10:40.610;538882853067810889;583424;480974;591761;172744;
2024-05-14T12:10:40.629;538882853085971714;583601;481104;591949;172726;
2024-05-14T12:10:40.647;538882853104132539;583813;481196;592110;172655;
2024-05-14T12:10:40.665;538882853122293364;584059;481432;592398;172718;
2024-05-14T12:10:40.683;538882853140454189;584291;481608;592591;172755;
2024-05-14T12:10:40.701;538882853158615014;584506;481733;592772;172729;
2024-05-14T12:10:40.719;538882853176775839;584714;481999;592905;172731;
2024-05-14T12:10:40.738;538882853194936664;584995;482156;593203;172736;
2024-05-14T12:10:40.756;538882853213097489;585183;482350;593440;172717;
2024-05-14T12:10:40.774;538882853231258314;585339;482493;593577;172718;
2024-05-14T12:10:40.792;538882853249419139;585298;482411;593533;172704;
2024-05-14T12:10:40.810;538882853267579964;585067;482156;593312;172692;
2024-05-14T12:10:40.828;538882853285740789;584642;481840;592907;172704;
2024-05-14T12:10:40.846;538882853303901614;584289;481475;592447;172776;
2024-05-14T12:10:40.865;538882853322062439;583790;481083;591973;172737;
2024-05-14T12:10:40.883;538882853340223264;583532;480775;591667;172728;
2024-05-14T12:10:40.901;538882853358384089;583350;480620;591415;172730;
2024-05-14T12:10:40.919;538882853376544914;583259;480503;591301;172706;
2024-05-14T12:10:40.937;538882853394705739;583253;480449;591182;172712;
2024-05-14T12:10:40.955;538882853412866564;583305;480433;591235;172745;
2024-05-14T12:10:40.974;538882853431027389;583328;480408;591311;172684;
2024-05-14T12:10:40.992;538882853449188214;583428;480540;591398;172713;
2024-05-14T12:10:41.010;538882853467349039;583596;480653;591505;172727;
2024-05-14T12:10:41.028;538882853485509864;583674;480771;591644;172721;
2024-05-14T12:10:41.046;538882853503670689;583836;480843;591754;172708;
2024-05-14T12:10:41.064;538882853521831514;583917;480924;591865;172796;
2024-05-14T12:10:41.083;538882853539992339;583981;480909;591912;172764;
2024-05-14T12:10:41.101;538882853558153164;583975;480946;591853;172741;
2024-05-14T12:10:41.119;538882853576313989;584000;480946;591866;172727;
2024-05-14T12:10:41.137;538882853594474814;583993;480859;591891;172668;
2024-05-14T12:10:41.155;538882853612635639;584050;480919;591912;172662;
2024-05-14T12:10:41.173;538882853630796464;584177;481028;592007;172703;
2024-05-14T12:10:41.192;538882853648957289;584237;481115;592071;172794;
2024-05-14T12:10:41.210;538882853667118114;584363;481242;592209;172819;
2024-05-14T12:10:41.228;538882853685278939;584503;481281;592326;172746;
2024-05-14T12:10:41.246;538882853703440014;584649;481373;592490;172676;
2024-05-14T12:10:41.264;538882853721601057;584828;481594;592692;172687;
2024-05-14T12:10:41.282;538882853739762100;585013;481747;592829;172668;
2024-05-14T12:10:41.300;538882853757923143;585213;481889;593055;172749;
2024-05-14T12:10:41.319;538882853776084186;585448;482059;593240;172772;
2024-05-14T12:10:41.337;538882853794245229;585676;482213;593548;172732;
2024-05-14T12:10:41.355;538882853812406272;585728;482387;593697;172733;
2024-05-14T12:10:41.373;538882853830567315;585998;482565;593844;172694;
2024-05-14T12:10:41.391;538882853848728358;586305;482718;594099;172763;
2024-05-14T12:10:41.409;538882853866889401;586531;482960;594267;172779;
2024-05-14T12:10:41.428;538882853885050444;586717;483176;594550;172768;
2024-05-14T12:10:41.446;538882853903211487;586743;483206;594617;172706;
2024-05-14T12:10:41.464;538882853921372530;586621;483074;594480;172732;
2024-05-14T12:10:41.482;538882853939533573;586318;482855;594191;172709;
2024-05-14T12:10:41.500;538882853957694616;585900;482427;593755;172714;
2024-05-14T12:10:41.518;538882853975855659;585323;481988;593241;172685;
2024-05-14T12:10:41.537;538882853994016702;584934;481591;592878;172701;
2024-05-14T12:10:41.555;538882854012177745;584674;481254;592493;172694;
2024-05-14T12:10:41.573;538882854030338788;584445;481040;592248;172702;
2024-05-14T12:10:41.591;538882854048499831;584364;480919;592145;172759;
2024-05-14T12:10:41.609;538882854066660874;584283;480923;591975;172690;
2024-05-14T12:10:41.627;538882854084821917;584347;480891;591983;172719;
2024-05-14T12:10:41.646;538882854102982960;584426;480951;592026;172723;
2024-05-14T12:10:41.664;538882854121144003;584550;480967;592098;172720;
2024-05-14T12:10:41.682;538882854139305046;584589;481089;592198;172717;
2024-05-14T12:10:41.700;538882854157466089;584691;481154;592278;172709;
2024-05-14T12:10:41.718;538882854175627132;584756;481237;592286;172737;
2024-05-14T12:10:41.736;538882854193788175;584827;481278;592403;172742;
2024-05-14T12:10:41.755;538882854211949218;584845;481306;592465;172763;
2024-05-14T12:10:41.773;538882854230110261;584843;481299;592464;172697;
2024-05-14T12:10:41.791;538882854248271304;584831;481279;592427;172775;
2024-05-14T12:10:41.809;538882854266432347;584924;481343;592507;172760;
2024-05-14T12:10:41.827;538882854284593390;584880;481284;592483;172706;
2024-05-14T12:10:41.845;538882854302754433;584984;481376;592594;172693;
2024-05-14T12:10:41.863;538882854320915476;585129;481464;592720;172703;
2024-05-14T12:10:41.882;538882854339074438;585271;481611;592806;172724;
2024-05-14T12:10:41.900;538882854357233374;585296;481628;592860;172723;
2024-05-14T12:10:41.918;538882854375392310;585544;481683;593069;172738;
2024-05-14T12:10:41.936;538882854393551246;585711;481915;593259;172732;
2024-05-14T12:10:41.954;538882854411710182;585884;482026;593444;172732;
2024-05-14T12:10:41.972;538882854429869118;586068;482164;593591;172723;
2024-05-14T12:10:41.991;538882854448028054;586301;482420;593864;172750;
2024-05-14T12:10:42.009;538882854466186990;586504;482603;594111;172679;
2024-05-14T12:10:42.027;538882854484345926;586820;482822;594352;172776;
2024-05-14T12:10:42.045;538882854502504862;586989;482942;594571;172703;
2024-05-14T12:10:42.063;538882854520663798;587231;483160;594706;172767;
2024-05-14T12:10:42.081;538882854538822734;587422;483326;595012;172750;
2024-05-14T12:10:42.100;538882854556981670;587639;483426;595214;172707;
2024-05-14T12:10:42.118;538882854575140606;587902;483662;595431;172718;
2024-05-14T12:10:42.136;538882854593299542;588018;483786;595553;172708;
2024-05-14T12:10:42.154;538882854611458478;588074;483819;595683;172706;
2024-05-14T12:10:42.172;538882854629617414;587840;483712;595470;172677;
2024-05-14T12:10:42.190;538882854647776350;587481;483422;595193;172720;
2024-05-14T12:10:42.209;538882854665935286;586975;482984;594688;172690;
2024-05-14T12:10:42.227;538882854684094222;586594;482588;594227;172734;
2024-05-14T12:10:42.245;538882854702253158;586293;482246;593829;172713;
2024-05-14T12:10:42.263;538882854720412094;586014;481960;593576;172704;
2024-05-14T12:10:42.281;538882854738571030;585859;481762;593425;172653;
2024-05-14T12:10:42.299;538882854756729966;585799;481778;593304;172717;
2024-05-14T12:10:42.317;538882854774888902;585828;481774;593339;172780;
2024-05-14T12:10:42.336;538882854793047838;585864;481732;593348;172749;
2024-05-14T12:10:42.354;538882854811206774;585888;481774;593384;172763;
2024-05-14T12:10:42.372;538882854829365710;586005;481846;593484;172740;
2024-05-14T12:10:42.390;538882854847524646;586100;482022;593632;172738;
2024-05-14T12:10:42.408;538882854865683582;586235;481978;593692;172746;
2024-05-14T12:10:42.426;538882854883842518;586316;482081;593823;172770;
2024-05-14T12:10:42.445;538882854902001454;586360;482146;593779;172748;
2024-05-14T12:10:42.463;538882854920160390;586336;482170;593836;172672;
2024-05-14T12:10:42.481;538882854938319326;586366;482122;593873;172706;
2024-05-14T12:10:42.499;538882854956478262;586363;482128;593879;172683;
2024-05-14T12:10:42.517;538882854974637198;586468;482165;593940;172746;
2024-05-14T12:10:42.535;538882854992796134;586508;482224;593997;172708;
2024-05-14T12:10:42.554;538882855010955070;586613;482243;594022;172702;
2024-05-14T12:10:42.572;538882855029114006;586691;482354;594127;172731;
2024-05-14T12:10:42.590;538882855047272942;586849;482520;594313;172766;
2024-05-14T12:10:42.608;538882855065431878;586961;482575;594492;172784;
2024-05-14T12:10:42.626;538882855083590814;587191;482772;594655;172752;
2024-05-14T12:10:42.644;538882855101751512;587318;482922;594872;172731;
2024-05-14T12:10:42.662;538882855119912192;587545;483077;595033;172763;
2024-05-14T12:10:42.681;538882855138072872;587691;483220;595249;172694;
2024-05-14T12:10:42.699;538882855156233552;587948;483448;595470;172745;
2024-05-14T12:10:42.717;538882855174394232;588171;483612;595690;172697;
2024-05-14T12:10:42.735;538882855192554912;588391;483819;595856;172741;
2024-05-14T12:10:42.753;538882855210715592;588559;483986;596166;172697;
2024-05-14T12:10:42.771;538882855228876272;588784;484111;596332;172680;
2024-05-14T12:10:42.790;538882855247036952;589002;484324;596605;172737;
2024-05-14T12:10:42.808;538882855265197632;589209;484480;596800;172673;
2024-05-14T12:10:42.826;538882855283358312;589456;484740;597022;172677;
2024-05-14T12:10:42.844;538882855301518992;589646;484874;597228;172662;
2024-05-14T12:10:42.862;538882855319679672;589971;485132;597507;172759;
2024-05-14T12:10:42.880;538882855337840352;590216;485259;597690;172738;
2024-05-14T12:10:42.899;538882855356001032;590435;485491;597955;172679;
2024-05-14T12:10:42.917;538882855374161712;590550;485634;598126;172748;
2024-05-14T12:10:42.935;538882855392322392;590477;485606;598003;172712;
2024-05-14T12:10:42.953;538882855410483072;590184;485353;597849;172694;
2024-05-14T12:10:42.971;538882855428643752;589748;485041;597421;172684;
2024-05-14T12:10:42.989;538882855446804432;589399;484564;597060;172690;
2024-05-14T12:10:43.008;538882855464965112;589007;484230;596661;172684;
2024-05-14T12:10:43.026;538882855483125792;588730;483954;596417;172692;
2024-05-14T12:10:43.044;538882855501286472;588597;483826;596244;172693;
2024-05-14T12:10:43.062;538882855519447152;588512;483670;596139;172662;
2024-05-14T12:10:43.080;538882855537607832;588519;483617;596102;172684;
2024-05-14T12:10:43.098;538882855555768512;588588;483726;596134;172731;
2024-05-14T12:10:43.117;538882855573929192;588666;483817;596295;172686;
2024-05-14T12:10:43.135;538882855592089872;588840;483913;596476;172707;
2024-05-14T12:10:43.153;538882855610250552;588921;483995;596557;172674;
2024-05-14T12:10:43.171;538882855628411232;589154;484136;596726;172757;
2024-05-14T12:10:43.189;538882855646571912;589240;484227;596918;172703;
2024-05-14T12:10:43.207;538882855664732592;589257;484273;596949;172690;
2024-05-14T12:10:43.225;538882855682893272;589322;484298;597006;172715;
2024-05-14T12:10:43.244;538882855701053952;589389;484326;597051;172750;
2024-05-14T12:10:43.262;538882855719214632;589347;484304;597088;172656;
2024-05-14T12:10:43.280;538882855737375312;589385;484302;597071;172708;
2024-05-14T12:10:43.298;538882855755535992;589453;484375;597157;172665;
2024-05-14T12:10:43.316;538882855773696672;589540;484479;597245;172678;
2024-05-14T12:10:43.334;538882855791857352;589599;484500;597297;172679;
2024-05-14T12:10:43.353;538882855810018032;589731;484643;597379;172744;
2024-05-14T12:10:43.371;538882855828178712;589941;484736;597605;172728;
2024-05-14T12:10:43.389;538882855846339392;590063;484872;597738;172681;
2024-05-14T12:10:43.407;538882855864500151;590230;484923;597906;172665;
2024-05-14T12:10:43.425;538882855882660904;590437;485066;598099;172653;
2024-05-14T12:10:43.443;538882855900821657;590602;485300;598314;172664;
2024-05-14T12:10:43.462;538882855918982410;590892;485496;598508;172714;
2024-05-14T12:10:43.480;538882855937143163;590947;485594;598680;172673;
2024-05-14T12:10:43.498;538882855955303916;591195;485828;598927;172706;
2024-05-14T12:10:43.516;538882855973464669;591438;486022;599137;172668;
2024-05-14T12:10:43.534;538882855991625422;591686;486171;599341;172656;
2024-05-14T12:10:43.552;538882856009786175;591905;486353;599562;172667;
2024-05-14T12:10:43.571;538882856027946928;592157;486561;599788;172625;
2024-05-14T12:10:43.589;538882856046107681;592321;486734;600057;172699;
2024-05-14T12:10:43.607;538882856064268434;592569;486924;600293;172678;
2024-05-14T12:10:43.625;538882856082429187;592747;487141;600473;172667;
2024-05-14T12:10:43.643;538882856100589940;592971;487327;600683;172668;
2024-05-14T12:10:43.661;538882856118750693;593195;487524;600980;172707;
2024-05-14T12:10:43.679;538882856136911446;593396;487674;601168;172684;
2024-05-14T12:10:43.698;538882856155072199;593485;487740;601256;172719;
2024-05-14T12:10:43.716;538882856173232952;593322;487653;601139;172677;
