Phone timestamp;sensor timestamp [ns];channel 0;channel 1;channel 2;ambient
2024-05-15T22:04:37.329;539004890442584308;533516;450580;519104;172387;
2024-05-15T22:04:37.347;539004890460739466;532407;449794;518266;172406;
2024-05-15T22:04:37.365;539004890478894624;531322;449124;517446;172412;
2024-05-15T22:04:37.383;539004890497049782;530508;448604;516725;172407;
2024-05-15T22:04:37.401;539004890515204940;529967;448229;516295;172414;
2024-05-15T22:04:37.419;539004890533360098;529560;447998;516036;172360;
2024-05-15T22:04:37.437;539004890551515256;529445;447871;515864;172389;
2024-05-15T22:04:37.456;539004890569670414;529565;447981;515869;172388;
2024-05-15T22:04:37.474;539004890587825572;529749;448157;515955;172403;
2024-05-15T22:04:37.492;539004890605980730;530170;448519;516152;172401;
2024-05-15T22:04:37.510;539004890624135888;530621;448912;516506;172391;
2024-05-15T22:04:37.528;539004890642291046;531227;449317;516953;172467;
2024-05-15T22:04:37.546;539004890660446204;531588;449688;517149;172443;
2024-05-15T22:04:37.565;539004890678601362;531764;449752;517164;172414;
2024-05-15T22:04:37.583;539004890696756520;531601;449607;517011;172394;
2024-05-15T22:04:37.601;539004890714911678;531315;449317;516636;172391;
2024-05-15T22:04:37.619;539004890733066836;530960;449146;516328;172422;
2024-05-15T22:04:37.637;539004890751221994;530571;448978;515893;172435;
2024-05-15T22:04:37.655;539004890769377152;530316;448854;515609;172390;
2024-05-15T22:04:37.673;539004890787532310;530188;448689;515333;172401;
2024-05-15T22:04:37.692;539004890805687468;530040;448550;515105;172394;
2024-05-15T22:04:37.710;539004890823842626;530032;448579;515023;172402;
2024-05-15T22:04:37.728;539004890841997784;530126;448631;514948;172352;
2024-05-15T22:04:37.746;539004890860152942;530294;448741;515058;172412;
2024-05-15T22:04:37.764;539004890878308100;530484;448797;515100;172464;
2024-05-15T22:04:37.782;539004890896463258;530254;448599;514949;172382;
2024-05-15T22:04:37.801;539004890914618416;529620;448180;514448;172396;
2024-05-15T22:04:37.819;539004890932773574;528439;447392;513560;172403;
2024-05-15T22:04:37.837;539004890950928732;527054;446487;512552;172387;
2024-05-15T22:04:37.855;539004890969083890;525422;445508;511335;172366;
2024-05-15T22:04:37.873;539004890987239048;523762;444318;510070;172384;
2024-05-15T22:04:37.891;539004891005394206;522314;443249;508902;172376;
2024-05-15T22:04:37.909;539004891023549364;520904;442048;507755;172437;
2024-05-15T22:04:37.928;539004891041704522;519602;441042;506715;172401;
2024-05-15T22:04:37.946;539004891059859680;518481;440088;505637;172413;
2024-05-15T22:04:37.964;539004891078014848;517779;439293;504747;172379;
2024-05-15T22:04:37.982;539004891096170006;517309;438723;504184;172416;
2024-05-15T22:04:38.000;539004891114325164;517211;438475;503815;172365;
2024-05-15T22:04:38.018;539004891132480322;517350;438440;503776;172325;
2024-05-15T22:04:38.037;539004891150635480;517825;438618;503994;172389;
2024-05-15T22:04:38.055;539004891168790638;518454;439049;504389;172341;
2024-05-15T22:04:38.073;539004891186945796;519198;439493;504845;172367;
2024-05-15T22:04:38.091;539004891205100954;520013;440003;505419;172401;
2024-05-15T22:04:38.109;539004891223256112;520807;440564;506092;172406;
2024-05-15T22:04:38.127;539004891241411270;521584;441192;506786;172467;
2024-05-15T22:04:38.145;539004891259566428;522445;441789;507478;172419;
2024-05-15T22:04:38.164;539004891277721586;523500;442525;508378;172371;
2024-05-15T22:04:38.182;539004891295876744;524563;443433;509364;172358;
2024-05-15T22:04:38.200;539004891314031902;525705;444352;510485;172379;
2024-05-15T22:04:38.218;539004891332187060;526919;445382;511574;172358;
2024-05-15T22:04:38.236;539004891350342218;528154;446480;512705;172419;
2024-05-15T22:04:38.254;539004891368497376;529362;447540;513838;172403;
2024-05-15T22:04:38.273;539004891386652534;530581;448598;515111;172400;
2024-05-15T22:04:38.291;539004891404807692;531720;449618;516203;172384;
2024-05-15T22:04:38.309;539004891422962850;532362;450224;516794;172360;
2024-05-15T22:04:38.327;539004891441118008;532447;450554;516987;172365;
2024-05-15T22:04:38.345;539004891459273166;532111;450567;516830;172380;
2024-05-15T22:04:38.363;539004891477428324;531696;450418;516555;172409;
2024-05-15T22:04:38.381;539004891495583482;531169;450248;516210;172377;
2024-05-15T22:04:38.400;539004891513738640;530708;450097;516043;172396;
2024-05-15T22:04:38.418;539004891531893798;530536;450003;515942;172452;
2024-05-15T22:04:38.436;539004891550048956;530596;450104;516051;172377;
2024-05-15T22:04:38.454;539004891568204114;530899;450340;516321;172389;
2024-05-15T22:04:38.472;539004891586359272;531368;450661;516709;172429;
2024-05-15T22:04:38.490;539004891604514430;532040;451009;517183;172388;
2024-05-15T22:04:38.509;539004891622669588;532678;451338;517594;172319;
2024-05-15T22:04:38.527;539004891640824746;533400;451770;518120;172343;
2024-05-15T22:04:38.545;539004891658979904;533938;452082;518461;172416;
2024-05-15T22:04:38.563;539004891677135062;534104;452085;518493;172376;
2024-05-15T22:04:38.581;539004891695290220;534196;451860;518242;172396;
2024-05-15T22:04:38.599;539004891713446442;534124;451581;517981;172321;
2024-05-15T22:04:38.618;539004891731602652;533988;451277;517592;172307;
2024-05-15T22:04:38.636;539004891749758862;533869;450945;517251;172333;
2024-05-15T22:04:38.654;539004891767915072;533777;450641;516762;172343;
2024-05-15T22:04:38.672;539004891786071282;533740;450408;516436;172379;
2024-05-15T22:04:38.690;539004891804227492;533729;450108;516160;172391;
2024-05-15T22:04:38.708;539004891822383702;533743;450049;516018;172418;
2024-05-15T22:04:38.726;539004891840539912;533842;449900;515937;172392;
2024-05-15T22:04:38.745;539004891858696122;533779;449756;515790;172399;
2024-05-15T22:04:38.763;539004891876852332;533587;449507;515640;172351;
2024-05-15T22:04:38.781;539004891895008542;533085;449127;515544;172355;
2024-05-15T22:04:38.799;539004891913164752;532437;448654;515283;172395;
2024-05-15T22:04:38.817;539004891931320962;531326;447854;514652;172357;
2024-05-15T22:04:38.835;539004891949477172;529545;446602;513455;172394;
2024-05-15T22:04:38.854;539004891967633382;527215;445007;511724;172375;
2024-05-15T22:04:38.872;539004891985789592;524529;443268;509764;172367;
2024-05-15T22:04:38.890;539004892003945802;521657;441445;507532;172395;
2024-05-15T22:04:38.908;539004892022102012;518913;439654;505401;172370;
2024-05-15T22:04:38.926;539004892040258222;516466;438049;503408;172343;
2024-05-15T22:04:38.944;539004892058414432;514496;436641;501682;172390;
2024-05-15T22:04:38.962;539004892076570642;512770;435487;500263;172310;
2024-05-15T22:04:38.981;539004892094726852;511613;434600;499086;172341;
2024-05-15T22:04:38.999;539004892112883062;510745;433892;498266;172324;
2024-05-15T22:04:39.017;539004892131039272;510157;433438;497603;172321;
2024-05-15T22:04:39.035;539004892149195482;509706;433122;497180;172332;
2024-05-15T22:04:39.053;539004892167351692;509357;432805;496814;172388;
2024-05-15T22:04:39.071;539004892185507902;508918;432462;496366;172394;
2024-05-15T22:04:39.090;539004892203664112;508418;432010;495902;172389;
2024-05-15T22:04:39.108;539004892221820322;507910;431624;495414;172363;
2024-05-15T22:04:39.126;539004892239977621;507314;431112;494869;172353;
2024-05-15T22:04:39.144;539004892258134898;506719;430692;494252;172382;
2024-05-15T22:04:39.162;539004892276292175;506039;430235;493695;172389;
2024-05-15T22:04:39.180;539004892294449452;505476;429818;493145;172379;
2024-05-15T22:04:39.199;539004892312606729;505010;429420;492667;172312;
2024-05-15T22:04:39.217;539004892330764006;504487;429093;492255;172351;
2024-05-15T22:04:39.235;539004892348921283;504190;428868;491899;172383;
2024-05-15T22:04:39.253;539004892367078560;503959;428675;491640;172371;
2024-05-15T22:04:39.271;539004892385235837;503831;428518;491471;172344;
2024-05-15T22:04:39.289;539004892403393114;503706;428440;491373;172345;
2024-05-15T22:04:39.307;539004892421550391;503570;428317;491220;172322;
2024-05-15T22:04:39.326;539004892439707668;503178;428015;490859;172335;
2024-05-15T22:04:39.344;539004892457864945;502218;427382;490039;172320;
2024-05-15T22:04:39.362;539004892476022222;500924;426515;488898;172317;
2024-05-15T22:04:39.380;539004892494179499;499430;425544;487717;172307;
2024-05-15T22:04:39.398;539004892512336776;498069;424601;486524;172318;
2024-05-15T22:04:39.416;539004892530494053;496778;423653;485431;172315;
2024-05-15T22:04:39.435;539004892548651330;495848;423100;484586;172303;
2024-05-15T22:04:39.453;539004892566808607;495172;422582;483952;172338;
2024-05-15T22:04:39.471;539004892584965884;494849;422370;483583;172387;
2024-05-15T22:04:39.489;539004892603123161;494641;422194;483360;172303;
2024-05-15T22:04:39.507;539004892621280438;494806;422217;483389;172337;
2024-05-15T22:04:39.525;539004892639437715;495109;422405;483661;172385;
2024-05-15T22:04:39.544;539004892657594992;495383;422463;483773;172355;
2024-05-15T22:04:39.562;539004892675752269;495676;422650;483975;172317;
2024-05-15T22:04:39.580;539004892693909546;495865;422664;484009;172270;
2024-05-15T22:04:39.598;539004892712066823;495933;422745;484085;172314;
2024-05-15T22:04:39.616;539004892730224100;495856;422647;483947;172273;
2024-05-15T22:04:39.634;539004892748381377;495800;422596;483949;172354;
2024-05-15T22:04:39.652;539004892766538654;495618;422385;483768;172346;
2024-05-15T22:04:39.671;539004892784695931;495465;422316;483593;172371;
2024-05-15T22:04:39.689;539004892802853208;495404;422272;483472;172325;
2024-05-15T22:04:39.707;539004892821010485;495346;422164;483444;172359;
2024-05-15T22:04:39.725;539004892839167762;495352;422115;483399;172300;
2024-05-15T22:04:39.743;539004892857325039;495426;422135;483346;172255;
2024-05-15T22:04:39.761;539004892875482316;495608;422310;483581;172318;
2024-05-15T22:04:39.780;539004892893640994;495863;422384;483695;172389;
2024-05-15T22:04:39.798;539004892911799639;496046;422533;483869;172363;
2024-05-15T22:04:39.816;539004892929958284;496093;422542;483843;172331;
2024-05-15T22:04:39.834;539004892948116929;495605;422199;483495;172363;
2024-05-15T22:04:39.852;539004892966275574;494644;421590;482718;172357;
2024-05-15T22:04:39.870;539004892984434219;493359;420762;481687;172363;
2024-05-15T22:04:39.889;539004893002592864;491998;419903;480621;172334;
2024-05-15T22:04:39.907;539004893020751509;490794;419077;479544;172284;
2024-05-15T22:04:39.925;539004893038910154;489806;418437;478769;172359;
2024-05-15T22:04:39.943;539004893057068799;489143;418002;478156;172322;
2024-05-15T22:04:39.961;539004893075227444;488799;417775;477813;172361;
2024-05-15T22:04:39.979;539004893093386089;488764;417777;477753;172391;
2024-05-15T22:04:39.997;539004893111544734;488897;417802;477780;172360;
2024-05-15T22:04:40.016;539004893129703379;489193;417985;477990;172374;
2024-05-15T22:04:40.034;539004893147862024;489655;418244;478251;172373;
2024-05-15T22:04:40.052;539004893166020669;490040;418430;478581;172319;
2024-05-15T22:04:40.070;539004893184179314;490365;418617;478779;172271;
2024-05-15T22:04:40.088;539004893202337959;490532;418757;478918;172308;
2024-05-15T22:04:40.106;539004893220496604;490676;418751;478996;172352;
2024-05-15T22:04:40.125;539004893238655249;490672;418736;478932;172345;
2024-05-15T22:04:40.143;539004893256813894;490613;418752;478867;172317;
2024-05-15T22:04:40.161;539004893274972539;490581;418685;478751;172310;
2024-05-15T22:04:40.179;539004893293131184;490501;418541;478677;172271;
2024-05-15T22:04:40.197;539004893311289829;490521;418628;478739;172333;
2024-05-15T22:04:40.215;539004893329448474;490581;418620;478717;172328;
2024-05-15T22:04:40.234;539004893347607119;490729;418743;478821;172363;
2024-05-15T22:04:40.252;539004893365765764;490859;418804;478883;172351;
2024-05-15T22:04:40.270;539004893383924409;491079;418963;479129;172349;
2024-05-15T22:04:40.288;539004893402083054;491374;419159;479374;172324;
2024-05-15T22:04:40.306;539004893420241699;491662;419318;479604;172339;
2024-05-15T22:04:40.324;539004893438400344;491682;419373;479629;172355;
2024-05-15T22:04:40.342;539004893456558989;491152;419024;479185;172363;
2024-05-15T22:04:40.361;539004893474717634;490112;418361;478420;172322;
2024-05-15T22:04:40.379;539004893492876279;488875;417602;477429;172359;
2024-05-15T22:04:40.397;539004893511034924;487601;416757;476381;172318;
2024-05-15T22:04:40.415;539004893529190794;486532;416125;475509;172379;
2024-05-15T22:04:40.433;539004893547346653;485753;415644;474743;172420;
2024-05-15T22:04:40.451;539004893565502512;485276;415321;474309;172333;
2024-05-15T22:04:40.470;539004893583658371;485053;415113;474112;172344;
2024-05-15T22:04:40.488;539004893601814230;485064;415251;474173;172342;
2024-05-15T22:04:40.506;539004893619970089;485185;415303;474264;172342;
2024-05-15T22:04:40.524;539004893638125948;485602;415486;474566;172327;
2024-05-15T22:04:40.542;539004893656281807;485919;415691;474835;172299;
2024-05-15T22:04:40.560;539004893674437666;486203;415881;475116;172329;
2024-05-15T22:04:40.579;539004893692593525;486431;415955;475312;172317;
2024-05-15T22:04:40.597;539004893710749384;486562;415975;475399;172341;
2024-05-15T22:04:40.615;539004893728905243;486563;415941;475407;172317;
2024-05-15T22:04:40.633;539004893747061102;486523;415907;475422;172326;
2024-05-15T22:04:40.651;539004893765216961;486420;415838;475382;172301;
2024-05-15T22:04:40.669;539004893783372820;486307;415787;475336;172348;
2024-05-15T22:04:40.687;539004893801528679;486247;415697;475293;172342;
2024-05-15T22:04:40.706;539004893819684538;486222;415637;475265;172336;
2024-05-15T22:04:40.724;539004893837840397;486202;415610;475321;172306;
2024-05-15T22:04:40.742;539004893855996256;486248;415604;475321;172326;
2024-05-15T22:04:40.760;539004893874152115;486364;415705;475419;172311;
2024-05-15T22:04:40.778;539004893892307974;486569;415775;475592;172312;
2024-05-15T22:04:40.796;539004893910463833;486803;415944;475780;172307;
2024-05-15T22:04:40.815;539004893928619692;487010;416032;476019;172322;
2024-05-15T22:04:40.833;539004893946775551;487034;415973;475983;172340;
2024-05-15T22:04:40.851;539004893964931410;486499;415619;475563;172351;
2024-05-15T22:04:40.869;539004893983087269;485509;415014;474835;172358;
2024-05-15T22:04:40.887;539004894001243128;484388;414307;473900;172301;
2024-05-15T22:04:40.905;539004894019398987;483224;413585;473012;172332;
2024-05-15T22:04:40.923;539004894037554846;482328;412956;472253;172396;
2024-05-15T22:04:40.942;539004894055710705;481517;412456;471604;172333;
2024-05-15T22:04:40.960;539004894073866564;481040;412130;471194;172349;
2024-05-15T22:04:40.978;539004894092022423;480794;411883;470912;172272;
2024-05-15T22:04:40.996;539004894110178282;480750;411782;470853;172280;
2024-05-15T22:04:41.014;539004894128334141;480947;411869;470970;172316;
2024-05-15T22:04:41.032;539004894146490000;481157;411933;471065;172285;
2024-05-15T22:04:41.051;539004894164645859;481515;412087;471309;172329;
2024-05-15T22:04:41.069;539004894182801718;481781;412183;471472;172328;
2024-05-15T22:04:41.087;539004894200958570;481869;412222;471519;172274;
2024-05-15T22:04:41.105;539004894219115419;481906;412266;471591;172348;
2024-05-15T22:04:41.123;539004894237272268;481827;412201;471541;172367;
2024-05-15T22:04:41.141;539004894255429117;481834;412178;471443;172391;
2024-05-15T22:04:41.160;539004894273585966;481753;412008;471391;172335;
2024-05-15T22:04:41.178;539004894291742815;481589;411850;471193;172342;
2024-05-15T22:04:41.196;539004894309899664;481592;411850;471222;172352;
2024-05-15T22:04:41.214;539004894328056513;481526;411792;471116;172343;
2024-05-15T22:04:41.232;539004894346213362;481516;411826;471161;172334;
2024-05-15T22:04:41.250;539004894364370211;481629;411796;471138;172343;
2024-05-15T22:04:41.268;539004894382527060;481831;411905;471289;172363;
2024-05-15T22:04:41.287;539004894400683909;481983;411971;471378;172315;
2024-05-15T22:04:41.305;539004894418840758;482275;412119;471566;172393;
2024-05-15T22:04:41.323;539004894436997607;482521;412283;471789;172350;
2024-05-15T22:04:41.341;539004894455154456;482507;412192;471684;172335;
2024-05-15T22:04:41.359;539004894473311305;482022;411905;471357;172283;
2024-05-15T22:04:41.377;539004894491468154;481244;411429;470715;172358;
2024-05-15T22:04:41.396;539004894509625003;480290;410874;469962;172290;
2024-05-15T22:04:41.414;539004894527781852;479260;410256;469167;172266;
2024-05-15T22:04:41.432;539004894545938701;478438;409679;468494;172353;
2024-05-15T22:04:41.450;539004894564095550;477883;409324;468018;172288;
2024-05-15T22:04:41.468;539004894582252399;477502;409084;467686;172305;
2024-05-15T22:04:41.486;539004894600409248;477427;408972;467525;172324;
2024-05-15T22:04:41.504;539004894618566097;477496;408947;467532;172322;
2024-05-15T22:04:41.523;539004894636722946;477785;409115;467746;172343;
2024-05-15T22:04:41.541;539004894654879795;478079;409236;467922;172338;
2024-05-15T22:04:41.559;539004894673036644;478468;409434;468205;172322;
2024-05-15T22:04:41.577;539004894691193493;478740;409610;468367;172308;
2024-05-15T22:04:41.595;539004894709350342;478971;409744;468536;172371;
2024-05-15T22:04:41.613;539004894727507191;479211;409860;468729;172360;
2024-05-15T22:04:41.632;539004894745664040;479249;409818;468761;172334;
2024-05-15T22:04:41.650;539004894763820889;479300;409921;468737;172375;
2024-05-15T22:04:41.668;539004894781977738;479242;409736;468680;172294;
2024-05-15T22:04:41.686;539004894800134587;479193;409757;468650;172305;
2024-05-15T22:04:41.704;539004894818291436;479196;409765;468616;172295;
2024-05-15T22:04:41.722;539004894836448285;479153;409798;468575;172307;
2024-05-15T22:04:41.741;539004894854605134;479242;409760;468610;172324;
2024-05-15T22:04:41.759;539004894872761694;479475;409972;468824;172399;
2024-05-15T22:04:41.777;539004894890918247;479568;410034;468862;172339;
2024-05-15T22:04:41.795;539004894909074800;479818;410172;469039;172320;
2024-05-15T22:04:41.813;539004894927231353;480065;410225;469211;172311;
2024-05-15T22:04:41.831;539004894945387906;480379;410413;469425;172373;
2024-05-15T22:04:41.849;539004894963544459;480381;410406;469391;172303;
2024-05-15T22:04:41.868;539004894981701012;480043;410190;469126;172346;
2024-05-15T22:04:41.886;539004894999857565;479407;409752;468604;172318;
2024-05-15T22:04:41.904;539004895018014118;478580;409283;467965;172375;
2024-05-15T22:04:41.922;539004895036170671;477745;408809;467318;172387;
2024-05-15T22:04:41.940;539004895054327224;477041;408400;466759;172377;
2024-05-15T22:04:41.958;539004895072483777;476479;407995;466287;172348;
2024-05-15T22:04:41.977;539004895090640330;476205;407867;466022;172319;
2024-05-15T22:04:41.995;539004895108796883;476208;407748;465983;172353;
2024-05-15T22:04:42.013;539004895126953436;476396;407891;466051;172355;
2024-05-15T22:04:42.031;539004895145109989;476749;408081;466296;172335;
2024-05-15T22:04:42.049;539004895163266542;477263;408311;466613;172411;
2024-05-15T22:04:42.067;539004895181423095;477758;408566;466963;172366;
2024-05-15T22:04:42.085;539004895199579648;478117;408853;467275;172287;
2024-05-15T22:04:42.104;539004895217736201;478508;409050;467526;172339;
2024-05-15T22:04:42.122;539004895235892754;478700;409206;467725;172362;
2024-05-15T22:04:42.140;539004895254049307;478914;409301;467808;172351;
2024-05-15T22:04:42.158;539004895272205860;478876;409274;467884;172320;
2024-05-15T22:04:42.176;539004895290362413;478912;409312;467965;172329;
2024-05-15T22:04:42.194;539004895308518966;478882;409228;467898;172337;
2024-05-15T22:04:42.213;539004895326675519;478871;409229;467874;172221;
2024-05-15T22:04:42.231;539004895344832072;478957;409290;467954;172337;
2024-05-15T22:04:42.249;539004895362988625;479057;409303;468002;172291;
2024-05-15T22:04:42.267;539004895381145178;479203;409388;468082;172342;
2024-05-15T22:04:42.285;539004895399301731;479435;409503;468200;172360;
2024-05-15T22:04:42.303;539004895417458284;479643;409728;468395;172379;
2024-05-15T22:04:42.322;539004895435614837;479918;409828;468585;172319;
2024-05-15T22:04:42.340;539004895453771390;480243;409946;468837;172291;
2024-05-15T22:04:42.358;539004895471927943;480338;410025;468872;172324;
2024-05-15T22:04:42.376;539004895490084496;480025;409815;468682;172369;
2024-05-15T22:04:42.394;539004895508241156;479480;409496;468191;172321;
2024-05-15T22:04:42.412;539004895526397796;478728;409058;467640;172290;
2024-05-15T22:04:42.430;539004895544554436;478020;408570;467109;172337;
2024-05-15T22:04:42.449;539004895562711076;477401;408222;466588;172308;
2024-05-15T22:04:42.467;539004895580867716;476882;407925;466152;172306;
2024-05-15T22:04:42.485;539004895599024356;476743;407784;465976;172270;
2024-05-15T22:04:42.503;539004895617180996;476792;407817;465953;172341;
2024-05-15T22:04:42.521;539004895635337636;476945;407879;465987;172352;
2024-05-15T22:04:42.539;539004895653494276;477313;408072;466292;172300;
2024-05-15T22:04:42.558;539004895671650916;477780;408322;466633;172328;
2024-05-15T22:04:42.576;539004895689807556;478298;408631;466998;172327;
2024-05-15T22:04:42.594;539004895707964196;478676;408945;467291;172355;
2024-05-15T22:04:42.612;539004895726120836;479056;409098;467629;172309;
2024-05-15T22:04:42.630;539004895744277476;479289;409227;467829;172343;
2024-05-15T22:04:42.648;539004895762434116;479402;409352;467905;172389;
2024-05-15T22:04:42.667;539004895780590756;479437;409325;467958;172337;
2024-05-15T22:04:42.685;539004895798747396;479416;409336;468016;172394;
2024-05-15T22:04:42.703;539004895816904036;479477;409354;467967;172392;
2024-05-15T22:04:42.721;539004895835060676;479568;409395;468010;172420;
2024-05-15T22:04:42.739;539004895853217316;479618;409496;468063;172374;
2024-05-15T22:04:42.757;539004895871373956;479795;409546;468174;172341;
2024-05-15T22:04:42.775;539004895889530596;480004;409650;468395;172318;
2024-05-15T22:04:42.794;539004895907687236;480263;409910;468627;172370;
2024-05-15T22:04:42.812;539004895925843876;480535;410002;468813;172359;
2024-05-15T22:04:42.830;539004895944000516;480821;410162;469002;172265;
2024-05-15T22:04:42.848;539004895962157156;481192;410353;469280;172282;
2024-05-15T22:04:42.866;539004895980313796;481197;410385;469349;172289;
2024-05-15T22:04:42.884;539004895998470436;480964;410226;469129;172285;
2024-05-15T22:04:42.903;539004896016627076;480493;410036;468768;172345;
2024-05-15T22:04:42.921;539004896034783716;479908;409672;468352;172393;
2024-05-15T22:04:42.939;539004896052940356;479320;409319;467889;172334;
2024-05-15T22:04:42.957;539004896071096996;478893;409050;467592;172294;
2024-05-15T22:04:42.975;539004896089253636;478712;408942;467437;172359;
2024-05-15T22:04:42.993;539004896107410276;478702;408889;467337;172343;
2024-05-15T22:04:43.011;539004896125566916;478866;408967;467438;172351;
2024-05-15T22:04:43.030;539004896143724897;479144;409172;467616;172319;
2024-05-15T22:04:43.048;539004896161882852;479626;409426;467969;172269;
2024-05-15T22:04:43.066;539004896180040807;480214;409766;468348;172289;
2024-05-15T22:04:43.084;539004896198198762;480763;410088;468832;172315;
2024-05-15T22:04:43.102;539004896216356717;481240;410453;469233;172319;
2024-05-15T22:04:43.120;539004896234514672;481649;410685;469569;172362;
2024-05-15T22:04:43.139;539004896252672627;481906;410831;469791;172329;
2024-05-15T22:04:43.157;539004896270830582;482046;410917;469936;172307;
2024-05-15T22:04:43.175;539004896288988537;482176;411054;470042;172323;
2024-05-15T22:04:43.193;539004896307146492;482281;411093;470171;172374;
2024-05-15T22:04:43.211;539004896325304447;482343;411157;470192;172349;
2024-05-15T22:04:43.229;539004896343462402;482457;411215;470268;172391;
2024-05-15T22:04:43.248;539004896361620357;482606;411280;470374;172354;
2024-05-15T22:04:43.266;539004896379778312;482699;411400;470465;172390;
2024-05-15T22:04:43.284;539004896397936267;482902;411483;470635;172326;
2024-05-15T22:04:43.302;539004896416094222;483166;411709;470861;172341;
2024-05-15T22:04:43.320;539004896434252177;483515;411915;471032;172346;
2024-05-15T22:04:43.338;539004896452410132;483758;411994;471230;172322;
2024-05-15T22:04:43.356;539004896470568087;483589;411981;471173;172350;
2024-05-15T22:04:43.375;539004896488726042;483212;411737;470890;172319;
2024-05-15T22:04:43.393;539004896506883997;482618;411388;470407;172333;
2024-05-15T22:04:43.411;539004896525041952;481863;410933;469875;172352;
2024-05-15T22:04:43.429;539004896543199907;481247;410586;469334;172357;
2024-05-15T22:04:43.447;539004896561357862;480760;410349;468945;172385;
2024-05-15T22:04:43.465;539004896579515817;480453;410128;468679;172335;
2024-05-15T22:04:43.484;539004896597673772;480473;410094;468641;172362;
2024-05-15T22:04:43.502;539004896615831727;480724;410205;468814;172375;
2024-05-15T22:04:43.520;539004896633989682;481002;410351;469117;172283;
2024-05-15T22:04:43.538;539004896652147637;481490;410610;469445;172306;
2024-05-15T22:04:43.556;539004896670305592;482003;410982;469813;172335;
2024-05-15T22:04:43.574;539004896688463547;482478;411173;470128;172374;
2024-05-15T22:04:43.593;539004896706621502;482871;411468;470422;172400;
2024-05-15T22:04:43.611;539004896724779457;483135;411602;470782;172374;
2024-05-15T22:04:43.629;539004896742937412;483335;411808;470916;172340;
2024-05-15T22:04:43.647;539004896761095367;483595;411869;471081;172365;
2024-05-15T22:04:43.665;539004896779253322;483702;411989;471212;172367;
2024-05-15T22:04:43.683;539004896797410197;483732;412005;471220;172370;
2024-05-15T22:04:43.701;539004896815567050;483809;412113;471320;172365;
2024-05-15T22:04:43.720;539004896833723903;483812;412089;471321;172338;
2024-05-15T22:04:43.738;539004896851880756;483934;412142;471428;172374;
2024-05-15T22:04:43.756;539004896870037609;484103;412269;471506;172334;
2024-05-15T22:04:43.774;539004896888194462;484282;412344;471602;172339;
2024-05-15T22:04:43.792;539004896906351315;484513;412530;471770;172339;
2024-05-15T22:04:43.810;539004896924508168;484842;412676;472023;172335;
2024-05-15T22:04:43.829;539004896942665021;485006;412676;472155;172360;
2024-05-15T22:04:43.847;539004896960821874;484782;412588;472039;172337;
2024-05-15T22:04:43.865;539004896978978727;484177;412190;471610;172289;
2024-05-15T22:04:43.883;539004896997135580;483510;411847;471153;172357;
2024-05-15T22:04:43.901;539004897015292433;482717;411419;470490;172382;
2024-05-15T22:04:43.919;539004897033449286;481983;410965;469909;172331;
2024-05-15T22:04:43.938;539004897051606139;481505;410626;469509;172315;
2024-05-15T22:04:43.956;539004897069762992;481219;410457;469215;172323;
2024-05-15T22:04:43.974;539004897087919845;481198;410489;469181;172377;
2024-05-15T22:04:43.992;539004897106076698;481340;410517;469269;172344;
2024-05-15T22:04:44.010;539004897124233551;481619;410697;469476;172353;
2024-05-15T22:04:44.028;539004897142390404;482154;410957;469824;172394;
2024-05-15T22:04:44.046;539004897160547257;482638;411228;470210;172370;
2024-05-15T22:04:44.065;539004897178704110;483067;411431;470460;172314;
2024-05-15T22:04:44.083;539004897196860963;483444;411718;470717;172308;
2024-05-15T22:04:44.101;539004897215017816;483757;411832;471024;172314;
2024-05-15T22:04:44.119;539004897233174669;483879;411880;471113;172321;
2024-05-15T22:04:44.137;539004897251331522;483943;411976;471201;172304;
2024-05-15T22:04:44.155;539004897269488375;484008;412060;471266;172335;
2024-05-15T22:04:44.174;539004897287645228;484015;412061;471293;172312;
2024-05-15T22:04:44.192;539004897305802081;484060;412048;471277;172297;
2024-05-15T22:04:44.210;539004897323958934;484156;412128;471338;172349;
2024-05-15T22:04:44.228;539004897342115787;484314;412219;471482;172323;
2024-05-15T22:04:44.246;539004897360272640;484486;412287;471562;172380;
2024-05-15T22:04:44.264;539004897378429493;484695;412367;471709;172346;
2024-05-15T22:04:44.283;539004897396586346;484923;412478;471853;172325;
2024-05-15T22:04:44.301;539004897414743199;485226;412661;472131;172338;
2024-05-15T22:04:44.319;539004897432900052;485382;412787;472291;172353;
2024-05-15T22:04:44.337;539004897451056135;485155;412659;472170;172326;
2024-05-15T22:04:44.355;539004897469212190;484669;412272;471694;172344;
2024-05-15T22:04:44.373;539004897487368245;483918;411806;471108;172315;
2024-05-15T22:04:44.391;539004897505524300;483078;411395;470527;172326;
2024-05-15T22:04:44.410;539004897523680355;482413;411032;470014;172301;
2024-05-15T22:04:44.428;539004897541836410;481969;410558;469573;172332;
2024-05-15T22:04:44.446;539004897559992465;481664;410390;469325;172337;
2024-05-15T22:04:44.464;539004897578148520;481591;410264;469206;172354;
2024-05-15T22:04:44.482;539004897596304575;481730;410354;469295;172314;
2024-05-15T22:04:44.500;539004897614460630;482023;410485;469577;172356;
2024-05-15T22:04:44.519;539004897632616685;482438;410742;469781;172334;
2024-05-15T22:04:44.537;539004897650772740;482896;410993;470145;172348;
2024-05-15T22:04:44.555;539004897668928795;483317;411207;470436;172344;
2024-05-15T22:04:44.573;539004897687084850;483558;411338;470660;172342;
2024-05-15T22:04:44.591;539004897705240905;483854;411471;470843;172351;
2024-05-15T22:04:44.609;539004897723396960;484002;411623;471048;172349;
2024-05-15T22:04:44.627;539004897741553015;484109;411669;471117;172368;
2024-05-15T22:04:44.646;539004897759709070;484161;411672;471082;172361;
2024-05-15T22:04:44.664;539004897777865125;484192;411656;471132;172352;
2024-05-15T22:04:44.682;539004897796021180;484240;411691;471172;172323;
2024-05-15T22:04:44.700;539004897814177235;484303;411688;471238;172362;
2024-05-15T22:04:44.718;539004897832333290;484399;411702;471286;172343;
2024-05-15T22:04:44.736;539004897850489345;484569;411798;471415;172324;
2024-05-15T22:04:44.755;539004897868645400;484720;411931;471532;172360;
2024-05-15T22:04:44.773;539004897886801455;484923;412011;471684;172308;
2024-05-15T22:04:44.791;539004897904957510;485211;412090;471842;172326;
2024-05-15T22:04:44.809;539004897923113565;485276;412166;471866;172346;
2024-05-15T22:04:44.827;539004897941269620;485089;412033;471787;172316;
2024-05-15T22:04:44.845;539004897959425675;484593;411669;471365;172348;
2024-05-15T22:04:44.863;539004897977581730;483970;411295;470898;172367;
2024-05-15T22:04:44.882;539004897995737785;483212;410796;470288;172353;
2024-05-15T22:04:44.900;539004898013893840;482556;410382;469778;172308;
2024-05-15T22:04:44.918;539004898032049895;482061;410094;469355;172335;
2024-05-15T22:04:44.936;539004898050205950;481789;409842;469145;172339;
2024-05-15T22:04:44.954;539004898068361919;481869;409827;469095;172338;
2024-05-15T22:04:44.972;539004898086517880;481996;409831;469131;172331;
2024-05-15T22:04:44.991;539004898104673841;482307;409986;469391;172357;
2024-05-15T22:04:45.009;539004898122829802;482719;410220;469658;172354;
2024-05-15T22:04:45.027;539004898140985763;483163;410445;469977;172335;
2024-05-15T22:04:45.045;539004898159141724;483529;410629;470244;172331;
2024-05-15T22:04:45.063;539004898177297685;483886;410839;470539;172368;
2024-05-15T22:04:45.081;539004898195453646;484076;410908;470690;172317;
2024-05-15T22:04:45.100;539004898213609607;484268;410988;470833;172332;
2024-05-15T22:04:45.118;539004898231765568;484329;411050;470817;172366;
2024-05-15T22:04:45.136;539004898249921529;484236;410948;470788;172349;
2024-05-15T22:04:45.154;539004898268077490;484280;410927;470810;172377;
2024-05-15T22:04:45.172;539004898286233451;484296;410931;470752;172371;
2024-05-15T22:04:45.190;539004898304389412;484345;410962;470863;172346;
2024-05-15T22:04:45.208;539004898322545373;484412;411038;470892;172373;
2024-05-15T22:04:45.227;539004898340701334;484513;411053;471022;172301;
2024-05-15T22:04:45.245;539004898358857295;484750;411109;471215;172343;
2024-05-15T22:04:45.263;539004898377013256;484958;411271;471313;172312;
2024-05-15T22:04:45.281;539004898395169217;485241;411413;471541;172342;
2024-05-15T22:04:45.299;539004898413325178;485299;411391;471554;172334;
2024-05-15T22:04:45.317;539004898431481139;485044;411261;471363;172369;
2024-05-15T22:04:45.336;539004898449637100;484493;410927;470914;172349;
2024-05-15T22:04:45.354;539004898467793061;483835;410387;470406;172312;
2024-05-15T22:04:45.372;539004898485949022;483064;409989;469885;172350;
2024-05-15T22:04:45.390;539004898504104983;482454;409575;469333;172373;
2024-05-15T22:04:45.408;539004898522260944;482029;409282;468989;172394;
2024-05-15T22:04:45.426;539004898540416905;481886;409139;468847;172368;
2024-05-15T22:04:45.444;539004898558572866;481924;409152;468846;172351;
2024-05-15T22:04:45.463;539004898576728827;482139;409265;468951;172361;
2024-05-15T22:04:45.481;539004898594884788;482491;409514;469194;172378;
2024-05-15T22:04:45.499;539004898613040749;483032;409878;469591;172428;
2024-05-15T22:04:45.517;539004898631196710;483502;410085;469959;172371;
2024-05-15T22:04:45.535;539004898649352671;483880;410292;470264;172292;
2024-05-15T22:04:45.553;539004898667508632;484205;410429;470509;172275;
2024-05-15T22:04:45.572;539004898685664593;484343;410595;470596;172322;
2024-05-15T22:04:45.590;539004898703820554;484427;410632;470724;172346;
2024-05-15T22:04:45.608;539004898721976515;484379;410609;470754;172314;
2024-05-15T22:04:45.626;539004898740132476;484447;410627;470782;172318;
2024-05-15T22:04:45.644;539004898758287642;484531;410619;470823;172356;
2024-05-15T22:04:45.662;539004898776442800;484646;410634;470884;172356;
2024-05-15T22:04:45.681;539004898794597958;484750;410743;470988;172354;
2024-05-15T22:04:45.699;539004898812753116;484886;410791;471090;172371;
2024-05-15T22:04:45.717;539004898830908274;485142;410896;471245;172395;
2024-05-15T22:04:45.735;539004898849063432;485345;411063;471416;172379;
2024-05-15T22:04:45.753;539004898867218590;485662;411233;471664;172380;
2024-05-15T22:04:45.771;539004898885373748;485864;411301;471797;172399;
2024-05-15T22:04:45.789;539004898903528906;485677;411251;471697;172377;
2024-05-15T22:04:45.808;539004898921684064;485156;410899;471271;172345;
2024-05-15T22:04:45.826;539004898939839222;484447;410550;470793;172374;
2024-05-15T22:04:45.844;539004898957994380;483658;410051;470213;172386;
2024-05-15T22:04:45.862;539004898976149538;482951;409612;469624;172385;
2024-05-15T22:04:45.880;539004898994304696;482468;409304;469246;172358;
2024-05-15T22:04:45.898;539004899012459854;482201;409093;469008;172333;
2024-05-15T22:04:45.917;539004899030615012;482252;409124;468998;172334;
2024-05-15T22:04:45.935;539004899048770170;482352;409150;469099;172333;
2024-05-15T22:04:45.953;539004899066925328;482694;409292;469305;172317;
2024-05-15T22:04:45.971;539004899085080486;483180;409614;469614;172338;
2024-05-15T22:04:45.989;539004899103235644;483641;409899;469924;172335;
2024-05-15T22:04:46.007;539004899121390802;484117;410227;470354;172416;
2024-05-15T22:04:46.025;539004899139545960;484485;410375;470600;172379;
2024-05-15T22:04:46.044;539004899157701118;484719;410504;470841;172359;
2024-05-15T22:04:46.062;539004899175856276;484899;410674;471001;172304;
2024-05-15T22:04:46.080;539004899194011434;485043;410726;471069;172308;
2024-05-15T22:04:46.098;539004899212166592;485153;410723;471198;172334;
2024-05-15T22:04:46.116;539004899230321750;485253;410861;471317;172343;
2024-05-15T22:04:46.134;539004899248476908;485434;410909;471393;172345;
2024-05-15T22:04:46.153;539004899266632066;485499;410914;471448;172311;
2024-05-15T22:04:46.171;539004899284787224;485667;411074;471600;172386;
2024-05-15T22:04:46.189;539004899302942382;485862;411194;471729;172399;
2024-05-15T22:04:46.207;539004899321097540;486095;411291;471900;172342;
2024-05-15T22:04:46.225;539004899339252698;486418;411488;472204;172375;
2024-05-15T22:04:46.243;539004899357407856;486713;411654;472464;172352;
2024-05-15T22:04:46.261;539004899375563014;486903;411766;472588;172318;
2024-05-15T22:04:46.280;539004899393718172;486683;411599;472362;172342;
2024-05-15T22:04:46.298;539004899411872896;486016;411276;472018;172356;
2024-05-15T22:04:46.316;539004899430027600;485259;410820;471440;172324;
2024-05-15T22:04:46.334;539004899448182304;484536;410367;470891;172376;
2024-05-15T22:04:46.352;539004899466337008;483905;410019;470374;172405;
2024-05-15T22:04:46.370;539004899484491712;483500;409763;470028;172402;
2024-05-15T22:04:46.389;539004899502646416;483322;409564;469853;172367;
2024-05-15T22:04:46.407;539004899520801120;483261;409546;469792;172343;
2024-05-15T22:04:46.425;539004899538955824;483500;409702;469960;172301;
2024-05-15T22:04:46.443;539004899557110528;483831;409804;470167;172304;
2024-05-15T22:04:46.461;539004899575265232;484270;410065;470436;172318;
2024-05-15T22:04:46.479;539004899593419936;484719;410339;470809;172331;
2024-05-15T22:04:46.497;539004899611574640;485114;410577;471169;172355;
2024-05-15T22:04:46.516;539004899629729344;485413;410777;471368;172333;
2024-05-15T22:04:46.534;539004899647884048;485788;410980;471648;172337;
2024-05-15T22:04:46.552;539004899666038752;485936;411087;471755;172332;
2024-05-15T22:04:46.570;539004899684193456;485991;411099;471827;172328;
2024-05-15T22:04:46.588;539004899702348160;486099;411211;471928;172399;
2024-05-15T22:04:46.606;539004899720502864;486196;411281;472008;172348;
2024-05-15T22:04:46.625;539004899738657568;486340;411353;472154;172338;
2024-05-15T22:04:46.643;539004899756812272;486504;411441;472280;172340;
2024-05-15T22:04:46.661;539004899774966976;486680;411533;472381;172325;
2024-05-15T22:04:46.679;539004899793121680;486967;411698;472548;172361;
2024-05-15T22:04:46.697;539004899811276384;487213;411849;472780;172333;
2024-05-15T22:04:46.715;539004899829431088;487539;412050;473051;172365;
2024-05-15T22:04:46.734;539004899847585792;487773;412248;473199;172289;
2024-05-15T22:04:46.752;539004899865740496;488075;412441;473438;172334;
2024-05-15T22:04:46.770;539004899883895200;487968;412338;473446;172402;
2024-05-15T22:04:46.788;539004899902049904;487527;412099;473114;172404;
2024-05-15T22:04:46.806;539004899920204608;486868;411721;472684;172405;
2024-05-15T22:04:46.824;539004899938359312;486096;411197;472097;172391;
2024-05-15T22:04:46.842;539004899956514016;485425;410885;471612;172359;
2024-05-15T22:04:46.861;539004899974668720;485028;410634;471293;172340;
2024-05-15T22:04:46.879;539004899992823424;484827;410518;471084;172356;
2024-05-15T22:04:46.897;539004900010978128;484863;410427;470966;172342;
2024-05-15T22:04:46.915;539004900029132832;484918;410504;470999;172380;
2024-05-15T22:04:46.933;539004900047287536;485237;410705;471281;172411;
2024-05-15T22:04:46.951;539004900065442240;485623;410897;471531;172355;
2024-05-15T22:04:46.970;539004900083596286;486133;411182;471847;172388;
2024-05-15T22:04:46.988;539004900101750309;486449;411454;472239;172363;
2024-05-15T22:04:47.006;539004900119904332;486810;411689;472504;172373;
2024-05-15T22:04:47.024;539004900138058355;487084;411871;472699;172376;
2024-05-15T22:04:47.042;539004900156212378;487345;411989;472975;172369;
2024-05-15T22:04:47.060;539004900174366401;487432;412057;473012;172377;
2024-05-15T22:04:47.078;539004900192520424;487558;412119;473119;172369;
2024-05-15T22:04:47.097;539004900210674447;487687;412197;473245;172367;
2024-05-15T22:04:47.115;539004900228828470;487846;412316;473327;172376;
2024-05-15T22:04:47.133;539004900246982493;487997;412388;473424;172390;
2024-05-15T22:04:47.151;539004900265136516;488151;412508;473579;172336;
2024-05-15T22:04:47.169;539004900283290539;488375;412624;473815;172387;
2024-05-15T22:04:47.187;539004900301444562;488687;412831;474027;172375;
2024-05-15T22:04:47.206;539004900319598585;488878;412972;474160;172357;
2024-05-15T22:04:47.224;539004900337752608;489171;413147;474348;172306;
2024-05-15T22:04:47.242;539004900355906631;489552;413353;474714;172352;
2024-05-15T22:04:47.260;539004900374060654;489789;413505;474925;172294;
2024-05-15T22:04:47.278;539004900392214677;489757;413496;474861;172320;
2024-05-15T22:04:47.296;539004900410368700;489335;413327;474601;172339;
2024-05-15T22:04:47.314;539004900428522723;488647;412887;474143;172319;
2024-05-15T22:04:47.333;539004900446676746;487961;412503;473704;172363;
2024-05-15T22:04:47.351;539004900464830769;487402;412243;473239;172338;
2024-05-15T22:04:47.369;539004900482984792;487041;411930;472874;172312;
2024-05-15T22:04:47.387;539004900501138815;486741;411774;472682;172359;
2024-05-15T22:04:47.405;539004900519292838;486773;411803;472623;172314;
2024-05-15T22:04:47.423;539004900537446861;486856;411843;472697;172325;
2024-05-15T22:04:47.442;539004900555600884;487221;412031;472967;172333;
2024-05-15T22:04:47.460;539004900573754907;487610;412238;473202;172353;
2024-05-15T22:04:47.478;539004900591908930;488069;412523;473506;172378;
2024-05-15T22:04:47.496;539004900610062953;488461;412747;473852;172369;
2024-05-15T22:04:47.514;539004900628216976;488841;413012;474155;172380;
2024-05-15T22:04:47.532;539004900646370999;489127;413197;474356;172366;
2024-05-15T22:04:47.550;539004900664525022;489262;413360;474546;172356;
2024-05-15T22:04:47.569;539004900682679045;489403;413353;474671;172345;
2024-05-15T22:04:47.587;539004900700833068;489432;413434;474756;172286;
2024-05-15T22:04:47.605;539004900718987091;489537;413458;474861;172304;
2024-05-15T22:04:47.623;539004900737141114;489702;413647;474953;172297;
2024-05-15T22:04:47.641;539004900755295137;489754;413704;475039;172345;
2024-05-15T22:04:47.659;539004900773449160;489985;413770;475144;172360;
2024-05-15T22:04:47.678;539004900791603020;490120;413881;475315;172331;
2024-05-15T22:04:47.696;539004900809756870;490377;414004;475542;172383;
2024-05-15T22:04:47.714;539004900827910720;490629;414182;475655;172345;
2024-05-15T22:04:47.732;539004900846064570;490947;414331;475814;172355;
2024-05-15T22:04:47.750;539004900864218420;491215;414508;476039;172365;
2024-05-15T22:04:47.768;539004900882372270;491508;414689;476320;172349;
2024-05-15T22:04:47.786;539004900900526120;491777;414835;476523;172360;
2024-05-15T22:04:47.805;539004900918679970;491655;414794;476473;172357;
2024-05-15T22:04:47.823;539004900936833820;491204;414556;476220;172393;
2024-05-15T22:04:47.841;539004900954987670;490586;414219;475753;172317;
2024-05-15T22:04:47.859;539004900973141520;489883;413868;475266;172384;
2024-05-15T22:04:47.877;539004900991295370;489230;413460;474811;172360;
2024-05-15T22:04:47.895;539004901009449220;488725;413212;474432;172338;
2024-05-15T22:04:47.914;539004901027603070;488524;413066;474205;172348;
2024-05-15T22:04:47.932;539004901045756920;488458;412907;474026;172305;
2024-05-15T22:04:47.950;539004901063910770;488608;412984;474111;172338;
2024-05-15T22:04:47.968;539004901082064620;488948;413151;474313;172366;
2024-05-15T22:04:47.986;539004901100218470;489279;413430;474672;172332;
2024-05-15T22:04:48.004;539004901118372320;489719;413729;474934;172337;
2024-05-15T22:04:48.022;539004901136526170;490135;413948;475266;172371;
2024-05-15T22:04:48.041;539004901154680020;490404;414086;475493;172389;
2024-05-15T22:04:48.059;539004901172833870;490653;414260;475731;172380;
2024-05-15T22:04:48.077;539004901190987720;490779;414352;475859;172336;
2024-05-15T22:04:48.095;539004901209141570;490863;414400;475939;172375;
2024-05-15T22:04:48.113;539004901227295420;490924;414407;475943;172345;
2024-05-15T22:04:48.131;539004901245449270;491014;414388;475982;172289;
2024-05-15T22:04:48.150;539004901263603120;490998;414501;476028;172340;
2024-05-15T22:04:48.168;539004901281756970;491140;414550;476184;172300;
2024-05-15T22:04:48.186;539004901299910820;491257;414590;476310;172355;
2024-05-15T22:04:48.204;539004901318064670;491442;414691;476404;172365;
2024-05-15T22:04:48.222;539004901336218520;491557;414773;476424;172298;
2024-05-15T22:04:48.240;539004901354372370;491805;414943;476608;172337;
2024-05-15T22:04:48.258;539004901372526220;492065;415127;476809;172349;
2024-05-15T22:04:48.277;539004901390680070;492323;415321;477044;172354;
2024-05-15T22:04:48.295;539004901408833920;492629;415386;477268;172353;
2024-05-15T22:04:48.313;539004901426986936;492717;415567;477423;172334;
2024-05-15T22:04:48.331;539004901445139932;492642;415520;477387;172338;
2024-05-15T22:04:48.349;539004901463292928;492187;415360;477133;172337;
2024-05-15T22:04:48.367;539004901481445924;491614;414989;476694;172354;
2024-05-15T22:04:48.386;539004901499598920;490907;414570;476176;172346;
2024-05-15T22:04:48.404;539004901517751916;490333;414238;475748;172358;
2024-05-15T22:04:48.422;539004901535904912;489877;413975;475405;172339;
2024-05-15T22:04:48.440;539004901554057908;489617;413788;475134;172371;
2024-05-15T22:04:48.458;539004901572210904;489547;413762;475014;172351;
2024-05-15T22:04:48.476;539004901590363900;489651;413854;475141;172348;
2024-05-15T22:04:48.494;539004901608516896;489967;414034;475315;172362;
2024-05-15T22:04:48.513;539004901626669892;490403;414248;475605;172376;
2024-05-15T22:04:48.531;539004901644822888;490831;414503;475960;172361;
2024-05-15T22:04:48.549;539004901662975884;491168;414646;476242;172365;
2024-05-15T22:04:48.567;539004901681128880;491496;414922;476517;172344;
2024-05-15T22:04:48.585;539004901699281876;491651;415037;476692;172346;
2024-05-15T22:04:48.603;539004901717434872;491784;415084;476801;172300;
2024-05-15T22:04:48.622;539004901735587868;491871;415235;476849;172311;
2024-05-15T22:04:48.640;539004901753740864;491877;415222;476918;172345;
2024-05-15T22:04:48.658;539004901771893860;491953;415237;476975;172306;
2024-05-15T22:04:48.676;539004901790046856;491970;415246;476999;172319;
2024-05-15T22:04:48.694;539004901808199852;492068;415292;477088;172297;
2024-05-15T22:04:48.712;539004901826352848;492150;415333;477161;172311;
2024-05-15T22:04:48.730;539004901844505844;492333;415473;477270;172358;
2024-05-15T22:04:48.749;539004901862658840;492493;415596;477403;172319;
2024-05-15T22:04:48.767;539004901880811836;492646;415704;477548;172392;
2024-05-15T22:04:48.785;539004901898964832;492920;415866;477772;172371;
2024-05-15T22:04:48.803;539004901917117828;493250;416058;478068;172348;
2024-05-15T22:04:48.821;539004901935270824;493566;416282;478298;172304;
2024-05-15T22:04:48.839;539004901953423820;493754;416440;478491;172394;
2024-05-15T22:04:48.857;539004901971576816;493595;416280;478394;172388;
2024-05-15T22:04:48.876;539004901989729812;493055;415973;477989;172328;
2024-05-15T22:04:48.894;539004902007882808;492316;415650;477566;172386;
2024-05-15T22:04:48.912;539004902026035804;491519;415165;476927;172349;
2024-05-15T22:04:48.930;539004902044188800;490763;414819;476341;172384;
2024-05-15T22:04:48.948;539004902062341796;490218;414468;475963;172331;
2024-05-15T22:04:48.966;539004902080496190;489866;414285;475635;172368;
2024-05-15T22:04:48.985;539004902098650564;489774;414189;475501;172338;
2024-05-15T22:04:49.003;539004902116804938;489813;414203;475575;172308;
2024-05-15T22:04:49.021;539004902134959312;490083;414379;475730;172357;
2024-05-15T22:04:49.039;539004902153113686;490404;414553;475945;172404;
2024-05-15T22:04:49.057;539004902171268060;490806;414791;476214;172365;
2024-05-15T22:04:49.075;539004902189422434;491128;414987;476443;172406;
2024-05-15T22:04:49.093;539004902207576808;491393;415181;476655;172358;
2024-05-15T22:04:49.112;539004902225731182;491572;415236;476871;172371;
2024-05-15T22:04:49.130;539004902243885556;491656;415311;476961;172337;
2024-05-15T22:04:49.148;539004902262039930;491682;415335;477010;172295;
2024-05-15T22:04:49.166;539004902280194304;491662;415322;477005;172356;
2024-05-15T22:04:49.184;539004902298348678;491611;415314;476987;172312;
2024-05-15T22:04:49.202;539004902316503052;491633;415309;476956;172345;
2024-05-15T22:04:49.221;539004902334657426;491668;415331;476966;172340;
2024-05-15T22:04:49.239;539004902352811800;491776;415395;477077;172386;
2024-05-15T22:04:49.257;539004902370966174;491828;415392;477172;172366;
2024-05-15T22:04:49.275;539004902389120548;491995;415531;477298;172341;
2024-05-15T22:04:49.293;539004902407274922;492165;415589;477399;172374;
2024-05-15T22:04:49.311;539004902425429296;492325;415734;477529;172331;
2024-05-15T22:04:49.329;539004902443583670;492485;415858;477650;172332;
2024-05-15T22:04:49.348;539004902461738044;492772;416048;477945;172363;
2024-05-15T22:04:49.366;539004902479892418;492941;416154;478088;172366;
2024-05-15T22:04:49.384;539004902498046792;492814;416053;477932;172331;
2024-05-15T22:04:49.402;539004902516201166;492216;415744;477536;172355;
2024-05-15T22:04:49.420;539004902534355540;491287;415234;476903;172362;
2024-05-15T22:04:49.438;539004902552509914;490268;414579;476129;172354;
2024-05-15T22:04:49.457;539004902570664288;489329;413989;475392;172346;
2024-05-15T22:04:49.475;539004902588818662;488502;413547;474742;172374;
2024-05-15T22:04:49.493;539004902606973036;487967;413232;474250;172379;
2024-05-15T22:04:49.511;539004902625127410;487664;412990;473938;172314;
2024-05-15T22:04:49.529;539004902643281784;487649;413009;473904;172299;
2024-05-15T22:04:49.547;539004902661436158;487748;413078;474053;172363;
2024-05-15T22:04:49.566;539004902679590532;488104;413204;474184;172344;
2024-05-15T22:04:49.584;539004902697744906;488463;413477;474399;172359;
2024-05-15T22:04:49.602;539004902715899280;488829;413668;474749;172385;
2024-05-15T22:04:49.620;539004902734053654;489098;413802;475003;172431;
2024-05-15T22:04:49.638;539004902752207144;489285;413957;475101;172311;
2024-05-15T22:04:49.656;539004902770360606;489370;414000;475201;172379;
2024-05-15T22:04:49.674;539004902788514068;489311;413989;475200;172332;
2024-05-15T22:04:49.693;539004902806667530;489242;413934;475154;172307;
2024-05-15T22:04:49.711;539004902824820992;489117;413836;475048;172337;
2024-05-15T22:04:49.729;539004902842974454;489007;413793;474955;172356;
2024-05-15T22:04:49.747;539004902861127916;488963;413751;474952;172342;
2024-05-15T22:04:49.765;539004902879281378;488937;413700;474909;172361;
2024-05-15T22:04:49.783;539004902897434840;488883;413762;474910;172412;
2024-05-15T22:04:49.802;539004902915588302;488969;413731;474924;172290;
2024-05-15T22:04:49.820;539004902933741764;489150;413834;475011;172341;
2024-05-15T22:04:49.838;539004902951895226;489273;413896;475173;172359;
2024-05-15T22:04:49.856;539004902970048688;489471;414053;475298;172317;
2024-05-15T22:04:49.874;539004902988202150;489720;414173;475459;172341;
2024-05-15T22:04:49.892;539004903006355612;489852;414282;475611;172335;
2024-05-15T22:04:49.910;539004903024509074;490067;414379;475753;172375;
2024-05-15T22:04:49.929;539004903042662536;489686;414205;475487;172378;
2024-05-15T22:04:49.947;539004903060815998;488992;413791;475044;172325;
2024-05-15T22:04:49.965;539004903078969460;487973;413225;474241;172328;
2024-05-15T22:04:49.983;539004903097122922;486830;412472;473354;172298;
2024-05-15T22:04:50.001;539004903115276384;485868;411924;472595;172300;
2024-05-15T22:04:50.019;539004903133429846;485088;411361;471884;172346;
2024-05-15T22:04:50.037;539004903151583308;484563;410996;471447;172362;
2024-05-15T22:04:50.056;539004903169736770;484251;410851;471209;172365;
2024-05-15T22:04:50.074;539004903187890232;484309;410878;471211;172379;
2024-05-15T22:04:50.092;539004903206043694;484468;410876;471271;172336;
2024-05-15T22:04:50.110;539004903224197156;484809;411094;471513;172387;
2024-05-15T22:04:50.128;539004903242350618;485117;411255;471727;172329;
2024-05-15T22:04:50.146;539004903260504080;485517;411455;472026;172363;
2024-05-15T22:04:50.165;539004903278657542;485745;411708;472265;172298;
2024-05-15T22:04:50.183;539004903296811004;486022;411829;472420;172308;
2024-05-15T22:04:50.201;539004903314964466;486103;411943;472531;172343;
2024-05-15T22:04:50.219;539004903333117928;486145;411894;472529;172390;
2024-05-15T22:04:50.237;539004903351271390;486037;411815;472455;172359;
2024-05-15T22:04:50.255;539004903369424852;485952;411770;472441;172338;
2024-05-15T22:04:50.273;539004903387578314;485851;411696;472413;172335;
2024-05-15T22:04:50.292;539004903405732642;485805;411604;472320;172348;
2024-05-15T22:04:50.310;539004903423886952;485810;411634;472304;172326;
2024-05-15T22:04:50.328;539004903442041262;485820;411642;472344;172300;
2024-05-15T22:04:50.346;539004903460195572;485949;411662;472435;172352;
2024-05-15T22:04:50.364;539004903478349882;486019;411708;472473;172392;
2024-05-15T22:04:50.382;539004903496504192;486152;411790;472649;172328;
2024-05-15T22:04:50.401;539004903514658502;486443;411978;472754;172337;
2024-05-15T22:04:50.419;539004903532812812;486681;412103;472944;172372;
2024-05-15T22:04:50.437;539004903550967122;486803;412168;472976;172321;
2024-05-15T22:04:50.455;539004903569121432;486889;412206;473053;172318;
2024-05-15T22:04:50.473;539004903587275742;486401;411943;472734;172341;
2024-05-15T22:04:50.491;539004903605430052;485690;411593;472224;172369;
2024-05-15T22:04:50.510;539004903623584362;484787;410938;471547;172332;
2024-05-15T22:04:50.528;539004903641738672;483781;410299;470703;172343;
2024-05-15T22:04:50.546;539004903659892982;482840;409738;469937;172363;
2024-05-15T22:04:50.564;539004903678047292;482203;409270;469373;172368;
2024-05-15T22:04:50.582;539004903696201602;481791;409088;469050;172346;
2024-05-15T22:04:50.600;539004903714355912;481650;408902;468858;172389;
2024-05-15T22:04:50.618;539004903732510222;481743;408915;468853;172378;
2024-05-15T22:04:50.637;539004903750664532;481965;409054;468997;172328;
2024-05-15T22:04:50.655;539004903768818842;482357;409262;469226;172352;
2024-05-15T22:04:50.673;539004903786973152;482854;409490;469608;172391;
2024-05-15T22:04:50.691;539004903805127462;483268;409774;469953;172367;
2024-05-15T22:04:50.709;539004903823281772;483597;409929;470153;172344;
2024-05-15T22:04:50.727;539004903841436082;483871;410071;470374;172383;
2024-05-15T22:04:50.746;539004903859590392;483944;410080;470481;172408;
2024-05-15T22:04:50.764;539004903877744702;483897;410159;470515;172336;
2024-05-15T22:04:50.782;539004903895899012;483887;410127;470453;172365;
2024-05-15T22:04:50.800;539004903914053322;483753;410069;470396;172310;
2024-05-15T22:04:50.818;539004903932207632;483646;409896;470267;172384;
2024-05-15T22:04:50.836;539004903950361942;483591;409863;470161;172384;
2024-05-15T22:04:50.854;539004903968516252;483581;409934;470175;172385;
2024-05-15T22:04:50.873;539004903986670562;483585;409868;470141;172317;
2024-05-15T22:04:50.891;539004904004824872;483734;410011;470306;172374;
2024-05-15T22:04:50.909;539004904022979182;483864;410060;470390;172377;
2024-05-15T22:04:50.927;539004904041133492;484059;410126;470558;172353;
2024-05-15T22:04:50.945;539004904059287840;484260;410312;470642;172328;
2024-05-15T22:04:50.963;539004904077442173;484578;410480;470913;172346;
2024-05-15T22:04:50.982;539004904095596506;484808;410641;471100;172350;
2024-05-15T22:04:51.000;539004904113750839;484668;410551;470988;172353;
2024-05-15T22:04:51.018;539004904131905172;484142;410167;470646;172318;
2024-05-15T22:04:51.036;539004904150059505;483369;409769;470038;172289;
2024-05-15T22:04:51.054;539004904168213838;482552;409199;469342;172369;
2024-05-15T22:04:51.072;539004904186368171;481774;408722;468642;172419;
2024-05-15T22:04:51.090;539004904204522504;481088;408324;468046;172356;
2024-05-15T22:04:51.109;539004904222676837;480575;407977;467653;172390;
2024-05-15T22:04:51.127;539004904240831170;480406;407818;467442;172418;
2024-05-15T22:04:51.145;539004904258985503;480449;407841;467435;172334;
2024-05-15T22:04:51.163;539004904277139836;480637;407976;467580;172357;
2024-05-15T22:04:51.181;539004904295294169;481022;408183;467845;172290;
2024-05-15T22:04:51.199;539004904313448502;481529;408433;468161;172340;
2024-05-15T22:04:51.218;539004904331602835;482012;408743;468564;172352;
2024-05-15T22:04:51.236;539004904349757168;482453;409013;468918;172329;
2024-05-15T22:04:51.254;539004904367911501;482871;409270;469220;172350;
2024-05-15T22:04:51.272;539004904386065834;483095;409380;469417;172358;
2024-05-15T22:04:51.290;539004904404220167;483251;409484;469639;172389;
2024-05-15T22:04:51.308;539004904422374500;483272;409530;469587;172344;
2024-05-15T22:04:51.326;539004904440528833;483293;409549;469601;172345;
2024-05-15T22:04:51.345;539004904458683166;483195;409528;469553;172336;
2024-05-15T22:04:51.363;539004904476837499;483232;409504;469566;172336;
2024-05-15T22:04:51.381;539004904494991832;483185;409508;469557;172328;
2024-05-15T22:04:51.399;539004904513146165;483296;409607;469706;172383;
2024-05-15T22:04:51.417;539004904531300498;483374;409684;469715;172329;
2024-05-15T22:04:51.435;539004904549454831;483593;409801;469844;172342;
2024-05-15T22:04:51.454;539004904567609164;483771;409797;470014;172361;
2024-05-15T22:04:51.472;539004904585763497;484029;409980;470215;172346;
2024-05-15T22:04:51.490;539004904603917830;484286;410149;470408;172400;
2024-05-15T22:04:51.508;539004904622072163;484329;410243;470501;172292;
2024-05-15T22:04:51.526;539004904640226496;484009;410030;470218;172350;
2024-05-15T22:04:51.544;539004904658380829;483354;409615;469698;172316;
2024-05-15T22:04:51.562;539004904676535162;482457;409077;469026;172304;
2024-05-15T22:04:51.581;539004904694689495;481600;408604;468362;172363;
2024-05-15T22:04:51.599;539004904712843828;480841;408091;467687;172350;
2024-05-15T22:04:51.617;539004904730997318;480216;407719;467269;172335;
2024-05-15T22:04:51.635;539004904749150780;479930;407517;466894;172345;
2024-05-15T22:04:51.653;539004904767304242;479872;407461;466819;172387;
2024-05-15T22:04:51.671;539004904785457704;480030;407480;466907;172307;
2024-05-15T22:04:51.690;539004904803611166;480354;407699;467160;172341;
2024-05-15T22:04:51.708;539004904821764628;480817;408007;467531;172348;
2024-05-15T22:04:51.726;539004904839918090;481372;408348;467971;172331;
2024-05-15T22:04:51.744;539004904858071552;481864;408674;468382;172354;
2024-05-15T22:04:51.762;539004904876225014;482334;408930;468771;172352;
2024-05-15T22:04:51.780;539004904894378476;482682;409201;469040;172335;
2024-05-15T22:04:51.798;539004904912531938;482977;409321;469206;172334;
2024-05-15T22:04:51.817;539004904930685400;483014;409378;469267;172360;
2024-05-15T22:04:51.835;539004904948838862;483109;409412;469411;172366;
2024-05-15T22:04:51.853;539004904966992324;483035;409400;469375;172318;
2024-05-15T22:04:51.871;539004904985145786;483053;409473;469370;172390;
2024-05-15T22:04:51.889;539004905003299248;483048;409438;469393;172366;
2024-05-15T22:04:51.907;539004905021452710;483098;409462;469428;172340;
2024-05-15T22:04:51.926;539004905039606172;483217;409534;469508;172392;
2024-05-15T22:04:51.944;539004905057759634;483342;409560;469579;172344;
2024-05-15T22:04:51.962;539004905075913096;483551;409697;469696;172382;
2024-05-15T22:04:51.980;539004905094066558;483768;409902;469871;172320;
2024-05-15T22:04:51.998;539004905112220020;484086;410043;470145;172325;
2024-05-15T22:04:52.016;539004905130373482;484257;410193;470291;172339;
2024-05-15T22:04:52.034;539004905148526944;484072;410066;470170;172310;
2024-05-15T22:04:52.053;539004905166680406;483383;409653;469645;172337;
2024-05-15T22:04:52.071;539004905184833868;482562;409218;469019;172360;
2024-05-15T22:04:52.089;539004905202987330;481643;408618;468331;172351;
2024-05-15T22:04:52.107;539004905221140792;480891;408163;467673;172373;
2024-05-15T22:04:52.125;539004905239294254;480167;407733;467116;172329;
2024-05-15T22:04:52.143;539004905257447716;479808;407396;466737;172243;
2024-05-15T22:04:52.162;539004905275601178;479693;407392;466667;172285;
2024-05-15T22:04:52.180;539004905293754640;479777;407361;466733;172319;
2024-05-15T22:04:52.198;539004905311908102;480054;407544;466896;172311;
2024-05-15T22:04:52.216;539004905330061564;480554;407848;467267;172337;
2024-05-15T22:04:52.234;539004905348215026;481137;408109;467625;172348;
2024-05-15T22:04:52.252;539004905366368488;481696;408474;468082;172304;
2024-05-15T22:04:52.270;539004905384523650;482162;408797;468510;172314;
2024-05-15T22:04:52.289;539004905402678808;482548;409045;468806;172346;
2024-05-15T22:04:52.307;539004905420833966;482830;409173;469086;172340;
2024-05-15T22:04:52.325;539004905438989124;483020;409318;469171;172371;
2024-05-15T22:04:52.343;539004905457144282;483127;409404;469276;172352;
2024-05-15T22:04:52.361;539004905475299440;483177;409486;469383;172417;
2024-05-15T22:04:52.379;539004905493454598;483203;409460;469336;172385;
2024-05-15T22:04:52.398;539004905511609756;483235;409495;469372;172396;
2024-05-15T22:04:52.416;539004905529764914;483298;409524;469423;172325;
2024-05-15T22:04:52.434;539004905547920072;483460;409649;469504;172327;
2024-05-15T22:04:52.452;539004905566075230;483559;409666;469669;172394;
2024-05-15T22:04:52.470;539004905584230388;483758;409834;469803;172382;
2024-05-15T22:04:52.488;539004905602385546;484003;409965;470004;172355;
2024-05-15T22:04:52.506;539004905620540704;484312;410223;470306;172368;
2024-05-15T22:04:52.525;539004905638695862;484546;410348;470500;172322;
2024-05-15T22:04:52.543;539004905656851020;484516;410380;470450;172358;
2024-05-15T22:04:52.561;539004905675006178;483994;410073;470112;172320;
2024-05-15T22:04:52.579;539004905693161336;483334;409606;469562;172323;
2024-05-15T22:04:52.597;539004905711316494;482520;409214;468972;172369;
2024-05-15T22:04:52.615;539004905729471652;481697;408651;468258;172368;
2024-05-15T22:04:52.634;539004905747626810;480987;408230;467723;172352;
2024-05-15T22:04:52.652;539004905765781968;480553;407956;467309;172353;
2024-05-15T22:04:52.670;539004905783937126;480400;407863;467121;172308;
2024-05-15T22:04:52.688;539004905802092284;480537;407864;467159;172293;
2024-05-15T22:04:52.706;539004905820247442;480756;408030;467331;172304;
2024-05-15T22:04:52.724;539004905838402600;481147;408188;467607;172311;
2024-05-15T22:04:52.742;539004905856557758;481657;408505;468034;172339;
2024-05-15T22:04:52.761;539004905874712916;482249;408872;468459;172350;
2024-05-15T22:04:52.779;539004905892868074;482716;409182;468986;172290;
2024-05-15T22:04:52.797;539004905911023232;483069;409425;469238;172305;
2024-05-15T22:04:52.815;539004905929178390;483456;409624;469522;172290;
2024-05-15T22:04:52.833;539004905947333548;483714;409774;469745;172273;
2024-05-15T22:04:52.851;539004905965488706;483819;409864;469885;172302;
2024-05-15T22:04:52.870;539004905983643864;483903;409877;469927;172299;
2024-05-15T22:04:52.888;539004906001799022;483900;409943;469962;172363;
2024-05-15T22:04:52.906;539004906019954180;483957;409940;469970;172369;
2024-05-15T22:04:52.924;539004906038108508;484009;410017;470050;172400;
2024-05-15T22:04:52.942;539004906056262818;484081;410046;470063;172350;
2024-05-15T22:04:52.960;539004906074417128;484255;410168;470233;172335;
2024-05-15T22:04:52.978;539004906092571438;484402;410242;470391;172371;
2024-05-15T22:04:52.997;539004906110725748;484630;410378;470509;172349;
2024-05-15T22:04:53.015;539004906128880058;484971;410562;470746;172391;
2024-05-15T22:04:53.033;539004906147034368;485288;410732;471007;172403;
2024-05-15T22:04:53.051;539004906165188678;485306;410748;471023;172295;
2024-05-15T22:04:53.069;539004906183342988;484963;410589;470865;172380;
2024-05-15T22:04:53.087;539004906201497298;484419;410265;470409;172331;
2024-05-15T22:04:53.106;539004906219651608;483675;409904;469886;172385;
2024-05-15T22:04:53.124;539004906237805918;483005;409479;469367;172326;
2024-05-15T22:04:53.142;539004906255960228;482420;409169;468907;172349;
2024-05-15T22:04:53.160;539004906274114538;481938;408811;468509;172256;
2024-05-15T22:04:53.178;539004906292268848;481800;408652;468293;172311;
2024-05-15T22:04:53.196;539004906310423158;481816;408689;468399;172336;
2024-05-15T22:04:53.214;539004906328577468;482092;408843;468557;172361;
2024-05-15T22:04:53.233;539004906346731778;482432;409020;468792;172306;
2024-05-15T22:04:53.251;539004906364886088;482966;409324;469148;172311;
2024-05-15T22:04:53.269;539004906383040398;483448;409619;469526;172318;
2024-05-15T22:04:53.287;539004906401194708;484002;409954;469840;172312;
2024-05-15T22:04:53.305;539004906419349018;484324;410177;470269;172255;
2024-05-15T22:04:53.323;539004906437503328;484686;410350;470511;172345;
2024-05-15T22:04:53.342;539004906455657638;484886;410497;470714;172271;
2024-05-15T22:04:53.360;539004906473811948;485005;410613;470800;172288;
2024-05-15T22:04:53.378;539004906491966258;485024;410612;470865;172274;
2024-05-15T22:04:53.396;539004906510120568;485071;410631;470912;172308;
2024-05-15T22:04:53.414;539004906528274878;485071;410704;470856;172255;
2024-05-15T22:04:53.432;539004906546429188;485151;410733;470984;172307;
2024-05-15T22:04:53.450;539004906564583498;485231;410724;470989;172308;
2024-05-15T22:04:53.469;539004906582737808;485319;410835;471140;172327;
2024-05-15T22:04:53.487;539004906600892118;485514;410998;471241;172291;
2024-05-15T22:04:53.505;539004906619046428;485735;411091;471449;172306;
2024-05-15T22:04:53.523;539004906637200738;486031;411254;471638;172274;
2024-05-15T22:04:53.541;539004906655355048;486218;411340;471887;172256;
2024-05-15T22:04:53.559;539004906673509358;486336;411442;471952;172289;
2024-05-15T22:04:53.578;539004906691664958;485993;411266;471753;172336;
2024-05-15T22:04:53.596;539004906709820552;485437;410975;471347;172338;
2024-05-15T22:04:53.614;539004906727976146;484770;410568;470853;172302;
2024-05-15T22:04:53.632;539004906746131740;484156;410239;470363;172311;
2024-05-15T22:04:53.650;539004906764287334;483704;409985;469942;172318;
2024-05-15T22:04:53.668;539004906782442928;483408;409705;469726;172331;
2024-05-15T22:04:53.687;539004906800598522;483257;409605;469612;172329;
2024-05-15T22:04:53.705;539004906818754116;483416;409764;469633;172355;
2024-05-15T22:04:53.723;539004906836909710;483586;409846;469802;172302;
2024-05-15T22:04:53.741;539004906855065304;484012;410052;470097;172230;
2024-05-15T22:04:53.759;539004906873220898;484570;410387;470469;172265;
2024-05-15T22:04:53.777;539004906891376492;485055;410706;470880;172283;
2024-05-15T22:04:53.795;539004906909532086;485517;410897;471287;172320;
2024-05-15T22:04:53.814;539004906927687680;485924;411209;471550;172328;
2024-05-15T22:04:53.832;539004906945843274;486171;411325;471772;172306;
2024-05-15T22:04:53.850;539004906963998868;486350;411503;471938;172325;
2024-05-15T22:04:53.868;539004906982154462;486466;411602;472078;172328;
2024-05-15T22:04:53.886;539004907000310056;486564;411618;472133;172410;
2024-05-15T22:04:53.904;539004907018465650;486500;411651;472155;172310;
2024-05-15T22:04:53.923;539004907036621244;486607;411684;472183;172286;
2024-05-15T22:04:53.941;539004907054776838;486721;411760;472285;172304;
2024-05-15T22:04:53.959;539004907072932432;486886;411894;472444;172283;
2024-05-15T22:04:53.977;539004907091088026;487063;412015;472622;172291;
2024-05-15T22:04:53.995;539004907109243620;487229;412111;472752;172370;
2024-05-15T22:04:54.013;539004907127399214;487551;412358;473018;172336;
2024-05-15T22:04:54.031;539004907145554808;487855;412523;473248;172311;
2024-05-15T22:04:54.050;539004907163710402;487888;412538;473317;172324;
2024-05-15T22:04:54.068;539004907181865996;487565;412389;473094;172388;
2024-05-15T22:04:54.086;539004907200021590;487004;412071;472654;172375;
2024-05-15T22:04:54.104;539004907218177184;486316;411625;472161;172324;
2024-05-15T22:04:54.122;539004907236332778;485622;411272;471731;172331;
2024-05-15T22:04:54.140;539004907254488372;485132;410998;471262;172324;
2024-05-15T22:04:54.159;539004907272643966;484827;410736;471001;172349;
2024-05-15T22:04:54.177;539004907290799560;484717;410701;470949;172355;
2024-05-15T22:04:54.195;539004907308955154;484878;410740;470946;172325;
2024-05-15T22:04:54.213;539004907327109902;485183;410984;471151;172311;
2024-05-15T22:04:54.231;539004907345264636;485576;411184;471438;172284;
2024-05-15T22:04:54.249;539004907363419370;486116;411455;471866;172295;
2024-05-15T22:04:54.267;539004907381574104;486624;411778;472274;172307;
2024-05-15T22:04:54.286;539004907399728838;487092;411999;472665;172344;
2024-05-15T22:04:54.304;539004907417883572;487498;412337;473015;172286;
2024-05-15T22:04:54.322;539004907436038306;487753;412521;473211;172336;
2024-05-15T22:04:54.340;539004907454193040;488026;412673;473433;172301;
2024-05-15T22:04:54.358;539004907472347774;488149;412788;473558;172316;
2024-05-15T22:04:54.376;539004907490502508;488248;412886;473706;172332;
2024-05-15T22:04:54.395;539004907508657242;488278;412876;473737;172319;
2024-05-15T22:04:54.413;539004907526811976;488351;412993;473825;172348;
2024-05-15T22:04:54.431;539004907544966710;488516;413101;473900;172345;
2024-05-15T22:04:54.449;539004907563121444;488729;413243;474107;172357;
2024-05-15T22:04:54.467;539004907581276178;488965;413309;474211;172350;
2024-05-15T22:04:54.485;539004907599430912;489157;413509;474401;172336;
2024-05-15T22:04:54.504;539004907617585646;489521;413697;474729;172363;
2024-05-15T22:04:54.522;539004907635740380;489765;413890;474934;172334;
2024-05-15T22:04:54.540;539004907653895114;489764;413861;474942;172405;
2024-05-15T22:04:54.558;539004907672049848;489309;413665;474723;172342;
2024-05-15T22:04:54.576;539004907690204582;488673;413287;474290;172328;
2024-05-15T22:04:54.594;539004907708359316;488038;412938;473750;172370;
2024-05-15T22:04:54.612;539004907726514050;487259;412525;473084;172302;
2024-05-15T22:04:54.631;539004907744668784;486766;412163;472724;172326;
2024-05-15T22:04:54.649;539004907762823518;486497;411995;472528;172343;
2024-05-15T22:04:54.667;539004907780978252;486446;411910;472427;172353;
2024-05-15T22:04:54.685;539004907799132986;486564;412048;472501;172366;
2024-05-15T22:04:54.703;539004907817287720;486864;412224;472727;172352;
2024-05-15T22:04:54.721;539004907835442454;487280;412443;473078;172318;
2024-05-15T22:04:54.740;539004907853597188;487775;412766;473429;172366;
2024-05-15T22:04:54.758;539004907871751922;488297;413000;473869;172417;
2024-05-15T22:04:54.776;539004907889906656;488688;413272;474160;172339;
2024-05-15T22:04:54.794;539004907908061390;489023;413543;474395;172355;
2024-05-15T22:04:54.812;539004907926216124;489318;413758;474684;172318;
2024-05-15T22:04:54.830;539004907944370858;489516;413879;474847;172352;
2024-05-15T22:04:54.848;539004907962525592;489601;413926;474952;172312;
2024-05-15T22:04:54.867;539004907980680758;489686;413954;475016;172380;
2024-05-15T22:04:54.885;539004907998835916;489750;413984;475076;172367;
2024-05-15T22:04:54.903;539004908016991074;489836;414078;475178;172309;
2024-05-15T22:04:54.921;539004908035146232;490007;414232;475362;172384;
2024-05-15T22:04:54.939;539004908053301390;490198;414362;475497;172353;
2024-05-15T22:04:54.957;539004908071456548;490434;414541;475715;172366;
2024-05-15T22:04:54.976;539004908089611706;490709;414692;475890;172320;
2024-05-15T22:04:54.994;539004908107766864;490988;414846;476182;172366;
2024-05-15T22:04:55.012;539004908125922022;491327;415066;476415;172342;
2024-05-15T22:04:55.030;539004908144077180;491315;415068;476406;172344;
2024-05-15T22:04:55.048;539004908162232338;490932;414896;476166;172306;
2024-05-15T22:04:55.066;539004908180387496;490433;414523;475790;172329;
2024-05-15T22:04:55.084;539004908198542654;489711;414184;475325;172384;
2024-05-15T22:04:55.103;539004908216697812;489088;413796;474846;172368;
2024-05-15T22:04:55.121;539004908234852970;488560;413430;474399;172377;
2024-05-15T22:04:55.139;539004908253008128;488209;413206;474132;172353;
2024-05-15T22:04:55.157;539004908271163286;488164;413148;474041;172314;
2024-05-15T22:04:55.175;539004908289318444;488231;413242;474087;172399;
2024-05-15T22:04:55.193;539004908307473602;488570;413489;474286;172355;
2024-05-15T22:04:55.212;539004908325628760;488944;413621;474579;172326;
2024-05-15T22:04:55.230;539004908343783918;489405;413900;474926;172323;
2024-05-15T22:04:55.248;539004908361939076;489810;414223;475304;172346;
2024-05-15T22:04:55.266;539004908380094234;490231;414478;475592;172294;
2024-05-15T22:04:55.284;539004908398249392;490558;414667;475922;172337;
2024-05-15T22:04:55.302;539004908416404550;490824;414870;476122;172369;
2024-05-15T22:04:55.320;539004908434559708;491002;414981;476284;172312;
2024-05-15T22:04:55.339;539004908452714866;491068;415054;476426;172380;
2024-05-15T22:04:55.357;539004908470870024;491146;415057;476493;172359;
2024-05-15T22:04:55.375;539004908489025182;491219;415130;476535;172354;
2024-05-15T22:04:55.393;539004908507180340;491305;415208;476665;172325;
2024-05-15T22:04:55.411;539004908525335498;491476;415276;476807;172323;
2024-05-15T22:04:55.429;539004908543490656;491591;415416;476819;172273;
2024-05-15T22:04:55.448;539004908561645814;491824;415533;477043;172272;
2024-05-15T22:04:55.466;539004908579800972;492155;415775;477248;172374;
2024-05-15T22:04:55.484;539004908597956130;492433;415925;477483;172326;
2024-05-15T22:04:55.502;539004908616111288;492767;416117;477775;172351;
2024-05-15T22:04:55.520;539004908634267213;492994;416247;477949;172360;
2024-05-15T22:04:55.538;539004908652423134;492759;416177;477872;172414;
2024-05-15T22:04:55.556;539004908670579055;492253;415892;477521;172346;
2024-05-15T22:04:55.575;539004908688734976;491645;415494;477071;172321;
2024-05-15T22:04:55.593;539004908706890897;491050;415173;476640;172345;
2024-05-15T22:04:55.611;539004908725046818;490503;414927;476275;172341;
2024-05-15T22:04:55.629;539004908743202739;490183;414666;475926;172379;
2024-05-15T22:04:55.647;539004908761358660;490045;414590;475766;172316;
2024-05-15T22:04:55.665;539004908779514581;490106;414554;475733;172365;
2024-05-15T22:04:55.684;539004908797670502;490343;414728;475901;172341;
2024-05-15T22:04:55.702;539004908815826423;490655;414952;476193;172353;
2024-05-15T22:04:55.720;539004908833982344;491068;415126;476414;172300;
2024-05-15T22:04:55.738;539004908852138265;491566;415471;476783;172318;
2024-05-15T22:04:55.756;539004908870294186;491938;415682;477143;172308;
2024-05-15T22:04:55.774;539004908888450107;492331;415904;477516;172332;
2024-05-15T22:04:55.793;539004908906606028;492517;416069;477624;172328;
2024-05-15T22:04:55.811;539004908924761949;492688;416108;477744;172346;
2024-05-15T22:04:55.829;539004908942917870;492743;416263;477833;172373;
2024-05-15T22:04:55.847;539004908961073791;492797;416249;477971;172389;
2024-05-15T22:04:55.865;539004908979229712;492836;416302;478047;172301;
2024-05-15T22:04:55.883;539004908997385633;492899;416402;478061;172284;
2024-05-15T22:04:55.901;539004909015541554;493053;416535;478122;172344;
2024-05-15T22:04:55.920;539004909033697475;493247;416619;478267;172342;
2024-05-15T22:04:55.938;539004909051853396;493435;416734;478497;172355;
2024-05-15T22:04:55.956;539004909070009317;493678;416891;478615;172327;
2024-05-15T22:04:55.974;539004909088165238;493937;417021;478843;172306;
2024-05-15T22:04:55.992;539004909106321159;494217;417197;479032;172338;
2024-05-15T22:04:56.010;539004909124477080;494432;417300;479205;172323;
2024-05-15T22:04:56.029;539004909142633001;494311;417282;479261;172293;
2024-05-15T22:04:56.047;539004909160788922;494038;417122;479010;172340;
2024-05-15T22:04:56.065;539004909178944843;493431;416838;478583;172342;
2024-05-15T22:04:56.083;539004909197100764;492767;416473;478179;172269;
2024-05-15T22:04:56.101;539004909215256685;492224;416121;477743;172284;
2024-05-15T22:04:56.119;539004909233412606;491866;415921;477400;172309;
2024-05-15T22:04:56.137;539004909251568527;491665;415745;477200;172337;
2024-05-15T22:04:56.156;539004909269724448;491649;415749;477217;172359;
2024-05-15T22:04:56.174;539004909287879724;491814;415837;477337;172315;
2024-05-15T22:04:56.192;539004909306034966;492061;416013;477516;172307;
2024-05-15T22:04:56.210;539004909324190208;492493;416249;477841;172281;
2024-05-15T22:04:56.228;539004909342345450;492992;416491;478129;172285;
2024-05-15T22:04:56.246;539004909360500692;493335;416736;478459;172303;
2024-05-15T22:04:56.265;539004909378655934;493683;416934;478646;172315;
2024-05-15T22:04:56.283;539004909396811176;493882;417073;478953;172292;
2024-05-15T22:04:56.301;539004909414966418;494113;417234;479083;172317;
2024-05-15T22:04:56.319;539004909433121660;494173;417328;479160;172353;
2024-05-15T22:04:56.337;539004909451276902;494215;417399;479235;172263;
2024-05-15T22:04:56.355;539004909469432144;494276;417352;479253;172269;
2024-05-15T22:04:56.374;539004909487587386;494240;417401;479253;172298;
2024-05-15T22:04:56.392;539004909505742628;494395;417474;479337;172339;
2024-05-15T22:04:56.410;539004909523897870;494484;417547;479357;172298;
2024-05-15T22:04:56.428;539004909542053112;494669;417714;479567;172308;
2024-05-15T22:04:56.446;539004909560208354;494903;417796;479748;172332;
2024-05-15T22:04:56.464;539004909578363596;495145;417907;479989;172361;
2024-05-15T22:04:56.482;539004909596518838;495413;418091;480161;172341;
2024-05-15T22:04:56.501;539004909614674080;495606;418264;480346;172336;
2024-05-15T22:04:56.519;539004909632829322;495478;418186;480281;172305;
2024-05-15T22:04:56.537;539004909650984564;495047;417991;479974;172348;
2024-05-15T22:04:56.555;539004909669139806;494447;417633;479512;172315;
2024-05-15T22:04:56.573;539004909687295048;493802;417267;479063;172315;
2024-05-15T22:04:56.591;539004909705450290;493230;416946;478669;172299;
2024-05-15T22:04:56.610;539004909723605532;492870;416721;478368;172291;
2024-05-15T22:04:56.628;539004909741760774;492743;416637;478264;172269;
2024-05-15T22:04:56.646;539004909759916016;492738;416692;478234;172264;
2024-05-15T22:04:56.664;539004909778071258;492872;416712;478354;172302;
2024-05-15T22:04:56.682;539004909796226500;493231;416956;478555;172273;
2024-05-15T22:04:56.700;539004909814381742;493644;417217;478925;172326;
2024-05-15T22:04:56.718;539004909832536984;494132;417500;479278;172367;
2024-05-15T22:04:56.737;539004909850692226;494545;417738;479572;172321;
2024-05-15T22:04:56.755;539004909868847468;494908;417969;479862;172384;
2024-05-15T22:04:56.773;539004909887002710;495072;418126;480017;172372;
2024-05-15T22:04:56.791;539004909905157952;495234;418165;480209;172323;
2024-05-15T22:04:56.809;539004909923313194;495297;418268;480266;172308;
2024-05-15T22:04:56.827;539004909941468778;495308;418315;480264;172271;
2024-05-15T22:04:56.846;539004909959624360;495421;418366;480361;172334;
2024-05-15T22:04:56.864;539004909977779942;495479;418383;480349;172292;
2024-05-15T22:04:56.882;539004909995935524;495521;418450;480482;172284;
2024-05-15T22:04:56.900;539004910014091106;495683;418495;480609;172333;
2024-05-15T22:04:56.918;539004910032246688;495911;418639;480760;172352;
2024-05-15T22:04:56.936;539004910050402270;496086;418771;480911;172337;
2024-05-15T22:04:56.954;539004910068557852;496320;418987;481117;172272;
2024-05-15T22:04:56.973;539004910086713434;496602;419114;481390;172325;
2024-05-15T22:04:56.991;539004910104869016;496768;419205;481469;172297;
2024-05-15T22:04:57.009;539004910123024598;496519;419078;481305;172295;
2024-05-15T22:04:57.027;539004910141180180;496009;418776;481002;172295;
2024-05-15T22:04:57.045;539004910159335762;495209;418383;480437;172291;
2024-05-15T22:04:57.063;539004910177491344;494486;417993;479835;172308;
2024-05-15T22:04:57.082;539004910195646926;493842;417534;479355;172323;
2024-05-15T22:04:57.100;539004910213802508;493346;417282;479064;172288;
2024-05-15T22:04:57.118;539004910231958090;493187;417223;478891;172350;
2024-05-15T22:04:57.136;539004910250113672;493225;417205;478897;172368;
2024-05-15T22:04:57.154;539004910268269254;493389;417247;478908;172309;
2024-05-15T22:04:57.172;539004910286424836;493724;417436;479149;172304;
2024-05-15T22:04:57.190;539004910304580418;494052;417734;479526;172318;
2024-05-15T22:04:57.209;539004910322736000;494458;417934;479791;172289;
2024-05-15T22:04:57.227;539004910340891582;494778;418144;480093;172306;
2024-05-15T22:04:57.245;539004910359047164;495089;418326;480309;172352;
2024-05-15T22:04:57.263;539004910377202746;495282;418445;480491;172360;
2024-05-15T22:04:57.281;539004910395358328;495388;418497;480574;172327;
2024-05-15T22:04:57.299;539004910413513910;495416;418522;480685;172343;
2024-05-15T22:04:57.318;539004910431669492;495490;418624;480759;172329;
2024-05-15T22:04:57.336;539004910449825074;495570;418589;480831;172374;
2024-05-15T22:04:57.354;539004910467980656;495610;418647;480865;172344;
2024-05-15T22:04:57.372;539004910486136238;495700;418700;480904;172286;
2024-05-15T22:04:57.390;539004910504291820;495831;418808;481054;172323;
2024-05-15T22:04:57.408;539004910522447402;495974;418919;481171;172321;
2024-05-15T22:04:57.427;539004910540602984;496197;419057;481348;172307;
2024-05-15T22:04:57.445;539004910558758566;496429;419214;481532;172333;
2024-05-15T22:04:57.463;539004910576914148;496715;419365;481720;172325;
2024-05-15T22:04:57.481;539004910595069742;496936;419518;481927;172345;
2024-05-15T22:04:57.499;539004910613225312;496795;419366;481871;172353;
2024-05-15T22:04:57.517;539004910631380882;496189;419031;481493;172332;
2024-05-15T22:04:57.535;539004910649536452;495465;418625;480972;172336;
2024-05-15T22:04:57.554;539004910667692022;494699;418160;480397;172375;
2024-05-15T22:04:57.572;539004910685847592;493957;417710;479818;172341;
2024-05-15T22:04:57.590;539004910704003162;493399;417395;479381;172316;
2024-05-15T22:04:57.608;539004910722158732;493178;417240;479074;172378;
2024-05-15T22:04:57.626;539004910740314302;493066;417141;479037;172387;
2024-05-15T22:04:57.644;539004910758469872;493135;417172;479049;172362;
2024-05-15T22:04:57.663;539004910776625442;493255;417322;479118;172348;
2024-05-15T22:04:57.681;539004910794781012;493610;417495;479373;172363;
2024-05-15T22:04:57.699;539004910812936582;493996;417700;479699;172387;
2024-05-15T22:04:57.717;539004910831092152;494322;417935;480026;172403;
2024-05-15T22:04:57.735;539004910849247722;494604;418075;480147;172395;
2024-05-15T22:04:57.753;539004910867403292;494817;418126;480302;172365;
2024-05-15T22:04:57.771;539004910885558862;494882;418172;480445;172349;
2024-05-15T22:04:57.790;539004910903714432;494991;418302;480531;172373;
2024-05-15T22:04:57.808;539004910921870002;494935;418314;480537;172376;
2024-05-15T22:04:57.826;539004910940025572;494933;418221;480522;172371;
2024-05-15T22:04:57.844;539004910958181142;495056;418244;480576;172397;
2024-05-15T22:04:57.862;539004910976336712;495075;418273;480617;172420;
2024-05-15T22:04:57.880;539004910994492282;495182;418397;480738;172378;
2024-05-15T22:04:57.899;539004911012647852;495290;418434;480793;172410;
2024-05-15T22:04:57.917;539004911030803422;495474;418612;480914;172397;
2024-05-15T22:04:57.935;539004911048958992;495725;418691;481114;172376;
2024-05-15T22:04:57.953;539004911067114562;495943;418839;481341;172401;
2024-05-15T22:04:57.971;539004911085270132;496178;418960;481552;172327;
2024-05-15T22:04:57.989;539004911103425702;496332;419037;481640;172370;
2024-05-15T22:04:58.007;539004911121581272;496047;418891;481467;172358;
2024-05-15T22:04:58.026;539004911139736842;495404;418556;481094;172349;
2024-05-15T22:04:58.044;539004911157892412;494595;418060;480423;172345;
2024-05-15T22:04:58.062;539004911176047982;493742;417557;479764;172369;
2024-05-15T22:04:58.080;539004911194203552;492958;417102;479229;172365;
2024-05-15T22:04:58.098;539004911212359122;492423;416787;478790;172413;
2024-05-15T22:04:58.116;539004911230514692;492165;416568;478517;172421;
2024-05-15T22:04:58.135;539004911248670262;492036;416465;478404;172417;
2024-05-15T22:04:58.153;539004911266824610;492156;416520;478391;172376;
2024-05-15T22:04:58.171;539004911284978943;492409;416628;478592;172414;
2024-05-15T22:04:58.189;539004911303133276;492770;416849;478839;172389;
2024-05-15T22:04:58.207;539004911321287609;493084;416986;479051;172357;
2024-05-15T22:04:58.225;539004911339441942;493408;417253;479375;172385;
2024-05-15T22:04:58.244;539004911357596275;493598;417499;479534;172382;
2024-05-15T22:04:58.262;539004911375750608;493819;417528;479643;172405;
2024-05-15T22:04:58.280;539004911393904941;493919;417629;479783;172379;
2024-05-15T22:04:58.298;539004911412059274;493938;417599;479836;172395;
2024-05-15T22:04:58.316;539004911430213607;493862;417576;479697;172387;
2024-05-15T22:04:58.334;539004911448367940;493879;417517;479681;172376;
2024-05-15T22:04:58.352;539004911466522273;493793;417476;479715;172350;
2024-05-15T22:04:58.371;539004911484676606;493818;417436;479733;172365;
2024-05-15T22:04:58.389;539004911502830939;493942;417516;479719;172357;
2024-05-15T22:04:58.407;539004911520985272;494002;417589;479835;172346;
2024-05-15T22:04:58.425;539004911539139605;494135;417662;479944;172427;
2024-05-15T22:04:58.443;539004911557293938;494274;417748;480019;172335;
2024-05-15T22:04:58.461;539004911575448271;494469;417915;480175;172355;
2024-05-15T22:04:58.480;539004911593602604;494733;417975;480396;172363;
2024-05-15T22:04:58.498;539004911611756937;494898;418089;480534;172380;
2024-05-15T22:04:58.516;539004911629911270;494805;418018;480511;172317;
2024-05-15T22:04:58.534;539004911648065603;494341;417773;480150;172328;
2024-05-15T22:04:58.552;539004911666219936;493612;417336;479590;172339;
2024-05-15T22:04:58.570;539004911684374269;492682;416901;478922;172367;
2024-05-15T22:04:58.588;539004911702528602;491797;416345;478189;172409;
2024-05-15T22:04:58.607;539004911720682935;491049;415925;477618;172357;
2024-05-15T22:04:58.625;539004911738837268;490619;415612;477245;172359;
2024-05-15T22:04:58.643;539004911756991601;490452;415577;477091;172350;
2024-05-15T22:04:58.661;539004911775145934;490396;415469;476987;172384;
2024-05-15T22:04:58.679;539004911793300267;490592;415535;477137;172327;
2024-05-15T22:04:58.697;539004911811454600;490915;415731;477350;172400;
2024-05-15T22:04:58.716;539004911829608933;491294;415904;477570;172400;
2024-05-15T22:04:58.734;539004911847763266;491617;416145;477910;172413;
2024-05-15T22:04:58.752;539004911865917599;491878;416356;478072;172385;
2024-05-15T22:04:58.770;539004911884071932;491994;416440;478215;172366;
2024-05-15T22:04:58.788;539004911902226265;492105;416496;478262;172386;
2024-05-15T22:04:58.806;539004911920380598;491976;416427;478244;172356;
2024-05-15T22:04:58.824;539004911938536637;491943;416412;478191;172394;
2024-05-15T22:04:58.843;539004911956692642;491882;416299;478071;172422;
2024-05-15T22:04:58.861;539004911974848647;491780;416271;478005;172391;
2024-05-15T22:04:58.879;539004911993004652;491724;416235;478012;172323;
2024-05-15T22:04:58.897;539004912011160657;491822;416339;478057;172386;
2024-05-15T22:04:58.915;539004912029316662;491857;416350;478127;172440;
2024-05-15T22:04:58.933;539004912047472667;491920;416403;478176;172382;
2024-05-15T22:04:58.952;539004912065628672;492069;416536;478268;172374;
2024-05-15T22:04:58.970;539004912083784677;492214;416653;478403;172350;
2024-05-15T22:04:58.988;539004912101940682;492477;416738;478592;172369;
2024-05-15T22:04:59.006;539004912120096687;492728;416861;478724;172418;
2024-05-15T22:04:59.024;539004912138252692;492693;416834;478720;172337;
2024-05-15T22:04:59.042;539004912156408697;492224;416590;478443;172396;
2024-05-15T22:04:59.060;539004912174564702;491464;416160;477826;172379;
2024-05-15T22:04:59.079;539004912192720707;490439;415537;477108;172335;
2024-05-15T22:04:59.097;539004912210876712;489525;414989;476355;172316;
2024-05-15T22:04:59.115;539004912229032717;488743;414605;475788;172327;
2024-05-15T22:04:59.133;539004912247188722;488155;414251;475249;172352;
2024-05-15T22:04:59.151;539004912265344727;487920;414107;475006;172320;
2024-05-15T22:04:59.169;539004912283500732;487809;414064;474954;172355;
2024-05-15T22:04:59.188;539004912301656737;487978;414092;475002;172308;
2024-05-15T22:04:59.206;539004912319812742;488273;414218;475114;172339;
2024-05-15T22:04:59.224;539004912337968747;488706;414436;475446;172383;
2024-05-15T22:04:59.242;539004912356124752;489080;414746;475707;172353;
2024-05-15T22:04:59.260;539004912374280757;489337;414942;475983;172372;
2024-05-15T22:04:59.278;539004912392436762;489569;415017;476139;172333;
2024-05-15T22:04:59.297;539004912410592767;489669;415144;476354;172370;
2024-05-15T22:04:59.315;539004912428748772;489650;415038;476244;172345;
2024-05-15T22:04:59.333;539004912446904777;489605;415079;476191;172367;
2024-05-15T22:04:59.351;539004912465060782;489430;415077;476144;172394;
2024-05-15T22:04:59.369;539004912483216787;489399;414989;476044;172375;
2024-05-15T22:04:59.387;539004912501372792;489315;414999;476033;172423;
2024-05-15T22:04:59.405;539004912519528797;489404;415026;475990;172349;
2024-05-15T22:04:59.424;539004912537684802;489318;415014;475993;172309;
2024-05-15T22:04:59.442;539004912555840807;489492;415106;476119;172422;
2024-05-15T22:04:59.460;539004912573996812;489661;415165;476199;172366;
2024-05-15T22:04:59.478;539004912592152161;489867;415314;476381;172388;
2024-05-15T22:04:59.496;539004912610307488;490059;415387;476583;172348;
2024-05-15T22:04:59.514;539004912628462815;490262;415574;476701;172341;
2024-05-15T22:04:59.533;539004912646618142;490316;415588;476745;172369;
2024-05-15T22:04:59.551;539004912664773469;489817;415273;476381;172370;
2024-05-15T22:04:59.569;539004912682928796;488984;414848;475816;172355;
2024-05-15T22:04:59.587;539004912701084123;488007;414153;474951;172357;
2024-05-15T22:04:59.605;539004912719239450;487000;413549;474091;172358;
2024-05-15T22:04:59.623;539004912737394777;486068;413080;473386;172375;
2024-05-15T22:04:59.641;539004912755550104;485479;412754;472901;172362;
2024-05-15T22:04:59.660;539004912773705431;485065;412496;472500;172338;
2024-05-15T22:04:59.678;539004912791860758;484955;412380;472365;172343;
2024-05-15T22:04:59.696;539004912810016085;485071;412504;472392;172385;
2024-05-15T22:04:59.714;539004912828171412;485345;412629;472577;172383;
2024-05-15T22:04:59.732;539004912846326739;485732;412824;472849;172386;
2024-05-15T22:04:59.750;539004912864482066;486084;413035;473170;172373;
2024-05-15T22:04:59.769;539004912882637393;486372;413234;473370;172366;
2024-05-15T22:04:59.787;539004912900792720;486612;413297;473540;172340;
2024-05-15T22:04:59.805;539004912918948047;486719;413367;473610;172312;
2024-05-15T22:04:59.823;539004912937103374;486790;413448;473669;172393;
2024-05-15T22:04:59.841;539004912955258701;486770;413425;473620;172352;
2024-05-15T22:04:59.859;539004912973414028;486674;413371;473576;172309;
2024-05-15T22:04:59.877;539004912991569355;486620;413367;473514;172370;
2024-05-15T22:04:59.896;539004913009724682;486618;413289;473457;172345;
2024-05-15T22:04:59.914;539004913027880009;486595;413341;473462;172344;
2024-05-15T22:04:59.932;539004913046035336;486627;413350;473475;172318;
2024-05-15T22:04:59.950;539004913064190663;486739;413455;473623;172370;
2024-05-15T22:04:59.968;539004913082345990;486857;413513;473662;172308;
2024-05-15T22:04:59.986;539004913100501317;487119;413640;473759;172349;
2024-05-15T22:05:00.005;539004913118656644;487300;413783;473981;172356;
2024-05-15T22:05:00.023;539004913136811971;487617;413941;474241;172391;
2024-05-15T22:05:00.041;539004913154967298;487721;413976;474254;172380;
2024-05-15T22:05:00.059;539004913173122625;487380;413786;474002;172359;
2024-05-15T22:05:00.077;539004913191277952;486559;413317;473371;172354;
2024-05-15T22:05:00.095;539004913209433279;485471;412669;472598;172335;
2024-05-15T22:05:00.114;539004913227588606;484430;412023;471726;172339;
2024-05-15T22:05:00.132;539004913245744428;483439;411442;470911;172322;
2024-05-15T22:05:00.150;539004913263900246;482736;411027;470276;172356;
2024-05-15T22:05:00.168;539004913282056064;482307;410736;469979;172366;
2024-05-15T22:05:00.186;539004913300211882;482169;410639;469770;172342;
2024-05-15T22:05:00.204;539004913318367700;482282;410699;469827;172386;
2024-05-15T22:05:00.222;539004913336523518;482591;410869;469963;172337;
2024-05-15T22:05:00.241;539004913354679336;482988;411039;470261;172353;
2024-05-15T22:05:00.259;539004913372835154;483382;411283;470524;172353;
2024-05-15T22:05:00.277;539004913390990972;483777;411531;470831;172322;
2024-05-15T22:05:00.295;539004913409146790;484110;411677;471012;172355;
2024-05-15T22:05:00.313;539004913427302608;484267;411843;471211;172406;
2024-05-15T22:05:00.331;539004913445458426;484387;411957;471331;172354;
2024-05-15T22:05:00.350;539004913463614244;484405;411888;471310;172380;
2024-05-15T22:05:00.368;539004913481770062;484393;411914;471292;172372;
2024-05-15T22:05:00.386;539004913499925880;484327;411895;471345;172352;
2024-05-15T22:05:00.404;539004913518081698;484310;411837;471247;172307;
2024-05-15T22:05:00.422;539004913536237516;484377;411850;471287;172311;
2024-05-15T22:05:00.440;539004913554393334;484475;411888;471389;172389;
2024-05-15T22:05:00.458;539004913572549152;484593;411971;471502;172321;
2024-05-15T22:05:00.477;539004913590704970;484787;412081;471646;172400;
2024-05-15T22:05:00.495;539004913608860788;485066;412251;471732;172380;
2024-05-15T22:05:00.513;539004913627016606;485295;412346;471893;172335;
2024-05-15T22:05:00.531;539004913645172424;485595;412559;472128;172307;
2024-05-15T22:05:00.549;539004913663328242;485827;412678;472358;172335;
2024-05-15T22:05:00.567;539004913681484060;485842;412665;472368;172302;
2024-05-15T22:05:00.586;539004913699639878;485457;412429;472114;172371;
2024-05-15T22:05:00.604;539004913717795696;484653;411995;471549;172374;
2024-05-15T22:05:00.622;539004913735951514;483793;411499;470820;172397;
2024-05-15T22:05:00.640;539004913754107332;482716;410897;470011;172354;
2024-05-15T22:05:00.658;539004913772263150;481991;410472;469394;172407;
2024-05-15T22:05:00.676;539004913790418968;481423;410025;468815;172320;
2024-05-15T22:05:00.694;539004913808574786;481106;409732;468529;172323;
2024-05-15T22:05:00.713;539004913826730604;481056;409691;468537;172317;
2024-05-15T22:05:00.731;539004913844886422;481304;409836;468647;172336;
2024-05-15T22:05:00.749;539004913863042240;481691;410063;468956;172345;
2024-05-15T22:05:00.767;539004913881198058;482147;410360;469293;172380;
2024-05-15T22:05:00.785;539004913899353876;482558;410631;469621;172324;
2024-05-15T22:05:00.803;539004913917508224;483062;410854;469983;172318;
2024-05-15T22:05:00.822;539004913935662557;483393;411140;470296;172337;
2024-05-15T22:05:00.840;539004913953816890;483613;411144;470483;172314;
2024-05-15T22:05:00.858;539004913971971223;483824;411305;470670;172372;
2024-05-15T22:05:00.876;539004913990125556;483828;411350;470677;172405;
2024-05-15T22:05:00.894;539004914008279889;483817;411292;470696;172346;
2024-05-15T22:05:00.912;539004914026434222;483808;411211;470601;172368;
2024-05-15T22:05:00.931;539004914044588555;483788;411291;470626;172312;
2024-05-15T22:05:00.949;539004914062742888;483899;411333;470743;172305;
2024-05-15T22:05:00.967;539004914080897221;484047;411388;470794;172309;
2024-05-15T22:05:00.985;539004914099051554;484235;411439;470895;172338;
2024-05-15T22:05:01.003;539004914117205887;484422;411616;471065;172338;
2024-05-15T22:05:01.021;539004914135360220;484667;411777;471308;172392;
2024-05-15T22:05:01.039;539004914153514553;484941;411932;471519;172356;
2024-05-15T22:05:01.058;539004914171668886;485242;412178;471785;172344;
2024-05-15T22:05:01.076;539004914189823219;485596;412275;472041;172317;
2024-05-15T22:05:01.094;539004914207977552;485639;412282;472128;172319;
2024-05-15T22:05:01.112;539004914226131885;485238;412102;471757;172360;
2024-05-15T22:05:01.130;539004914244286218;484650;411716;471322;172326;
2024-05-15T22:05:01.148;539004914262440551;483830;411228;470682;172326;
2024-05-15T22:05:01.167;539004914280594884;483025;410793;470090;172406;
2024-05-15T22:05:01.185;539004914298749217;482351;410372;469517;172331;
2024-05-15T22:05:01.203;539004914316903550;481850;410020;469100;172382;
2024-05-15T22:05:01.221;539004914335057883;481695;409902;468926;172358;
2024-05-15T22:05:01.239;539004914353212216;481806;409835;468956;172412;
2024-05-15T22:05:01.257;539004914371366549;482033;409989;469155;172348;
2024-05-15T22:05:01.275;539004914389520882;482447;410231;469442;172354;
2024-05-15T22:05:01.294;539004914407675215;482950;410564;469864;172345;
2024-05-15T22:05:01.312;539004914425829548;483484;410854;470209;172392;
2024-05-15T22:05:01.330;539004914443983881;483947;411095;470575;172370;
2024-05-15T22:05:01.348;539004914462138214;484344;411377;470909;172332;
2024-05-15T22:05:01.366;539004914480292547;484629;411570;471198;172357;
2024-05-15T22:05:01.384;539004914498446880;484806;411667;471294;172400;
2024-05-15T22:05:01.403;539004914516601213;484878;411670;471345;172387;
2024-05-15T22:05:01.421;539004914534755546;484939;411656;471444;172391;
2024-05-15T22:05:01.439;539004914552909879;484994;411677;471507;172351;
2024-05-15T22:05:01.457;539004914571064212;485023;411746;471528;172335;
2024-05-15T22:05:01.475;539004914589219378;485081;411777;471569;172341;
2024-05-15T22:05:01.493;539004914607374536;485197;411905;471677;172337;
2024-05-15T22:05:01.511;539004914625529694;485376;411930;471803;172366;
2024-05-15T22:05:01.530;539004914643684852;485538;412093;472006;172384;
2024-05-15T22:05:01.548;539004914661840010;485821;412224;472161;172383;
2024-05-15T22:05:01.566;539004914679995168;486138;412397;472377;172391;
2024-05-15T22:05:01.584;539004914698150326;486444;412634;472667;172349;
2024-05-15T22:05:01.602;539004914716305484;486760;412731;472874;172391;
2024-05-15T22:05:01.620;539004914734460642;486733;412744;472876;172342;
2024-05-15T22:05:01.639;539004914752615800;486309;412482;472599;172360;
2024-05-15T22:05:01.657;539004914770770958;485710;412198;472148;172402;
2024-05-15T22:05:01.675;539004914788926116;485032;411790;471663;172385;
2024-05-15T22:05:01.693;539004914807081274;484316;411292;471036;172337;
2024-05-15T22:05:01.711;539004914825236432;483759;410911;470607;172335;
2024-05-15T22:05:01.729;539004914843391590;483323;410665;470266;172359;
2024-05-15T22:05:01.747;539004914861546748;483256;410618;470145;172356;
2024-05-15T22:05:01.766;539004914879701906;483351;410687;470183;172342;
2024-05-15T22:05:01.784;539004914897857064;483675;410787;470432;172349;
2024-05-15T22:05:01.802;539004914916012222;484071;411022;470667;172351;
2024-05-15T22:05:01.820;539004914934167380;484567;411285;471029;172334;
2024-05-15T22:05:01.838;539004914952322538;485090;411593;471478;172324;
2024-05-15T22:05:01.856;539004914970477696;485531;411858;471799;172310;
2024-05-15T22:05:01.875;539004914988632854;485999;412094;472166;172329;
2024-05-15T22:05:01.893;539004915006788012;486274;412274;472359;172352;
2024-05-15T22:05:01.911;539004915024943170;486414;412350;472547;172366;
2024-05-15T22:05:01.929;539004915043098328;486458;412429;472605;172397;
2024-05-15T22:05:01.947;539004915061253486;486494;412400;472678;172369;
2024-05-15T22:05:01.965;539004915079408644;486533;412411;472733;172429;
2024-05-15T22:05:01.983;539004915097563802;486515;412422;472654;172357;
2024-05-15T22:05:02.002;539004915115718960;486572;412393;472680;172352;
2024-05-15T22:05:02.020;539004915133874118;486558;412462;472742;172295;
2024-05-15T22:05:02.038;539004915152029276;486726;412535;472847;172342;
2024-05-15T22:05:02.056;539004915170184434;486939;412679;473028;172343;
2024-05-15T22:05:02.074;539004915188339592;487096;412737;473154;172334;
2024-05-15T22:05:02.092;539004915206494750;487361;412915;473390;172384;
2024-05-15T22:05:02.111;539004915224649908;487690;413101;473576;172401;
2024-05-15T22:05:02.129;539004915242805074;487702;413105;473659;172344;
2024-05-15T22:05:02.147;539004915260960232;487517;412984;473472;172383;
2024-05-15T22:05:02.165;539004915279115390;486989;412664;473093;172335;
2024-05-15T22:05:02.183;539004915297270548;486354;412281;472602;172322;
2024-05-15T22:05:02.201;539004915315425706;485731;411931;472102;172338;
2024-05-15T22:05:02.219;539004915333580864;485230;411585;471734;172382;
2024-05-15T22:05:02.238;539004915351736022;484809;411362;471344;172352;
2024-05-15T22:05:02.256;539004915369891180;484736;411302;471270;172378;
2024-05-15T22:05:02.274;539004915388046338;484697;411249;471261;172388;
2024-05-15T22:05:02.292;539004915406201496;484931;411407;471443;172376;
2024-05-15T22:05:02.310;539004915424356654;485300;411592;471754;172318;
2024-05-15T22:05:02.328;539004915442511812;485834;411908;472121;172357;
2024-05-15T22:05:02.347;539004915460666970;486412;412237;472497;172368;
2024-05-15T22:05:02.365;539004915478822128;486828;412526;472879;172376;
2024-05-15T22:05:02.383;539004915496977286;487248;412808;473223;172376;
2024-05-15T22:05:02.401;539004915515132444;487613;413003;473520;172370;
2024-05-15T22:05:02.419;539004915533287602;487813;413093;473682;172354;
2024-05-15T22:05:02.437;539004915551442760;488029;413173;473831;172338;
2024-05-15T22:05:02.456;539004915569597918;488046;413209;473866;172343;
2024-05-15T22:05:02.474;539004915587753076;488052;413277;473928;172335;
2024-05-15T22:05:02.492;539004915605908234;488085;413315;473955;172353;
2024-05-15T22:05:02.510;539004915624063392;488095;413287;473941;172367;
2024-05-15T22:05:02.528;539004915642218550;488184;413373;474018;172399;
2024-05-15T22:05:02.546;539004915660373708;488312;413484;474175;172378;
2024-05-15T22:05:02.564;539004915678528866;488462;413502;474229;172348;
2024-05-15T22:05:02.583;539004915696684024;488702;413666;474394;172303;
2024-05-15T22:05:02.601;539004915714839182;488961;413805;474663;172375;
2024-05-15T22:05:02.619;539004915732994340;489119;413893;474847;172370;
2024-05-15T22:05:02.637;539004915751149498;488843;413748;474632;172376;
2024-05-15T22:05:02.655;539004915769304656;488391;413476;474335;172383;
2024-05-15T22:05:02.673;539004915787459814;487693;413042;473836;172375;
2024-05-15T22:05:02.692;539004915805614972;487043;412667;473319;172316;
2024-05-15T22:05:02.710;539004915823770130;486489;412282;472808;172351;
2024-05-15T22:05:02.728;539004915841925288;486027;411994;472489;172380;
2024-05-15T22:05:02.746;539004915860080446;485736;411884;472278;172410;
2024-05-15T22:05:02.764;539004915878235604;485672;411837;472167;172359;
2024-05-15T22:05:02.782;539004915896390766;485923;411885;472356;172402;
2024-05-15T22:05:02.800;539004915914545924;486279;412093;472587;172376;
2024-05-15T22:05:02.819;539004915932701082;486713;412380;472917;172349;
2024-05-15T22:05:02.837;539004915950856240;487270;412721;473310;172356;
2024-05-15T22:05:02.855;539004915969011398;487788;413058;473712;172323;
2024-05-15T22:05:02.873;539004915987166556;488283;413319;474100;172305;
2024-05-15T22:05:02.891;539004916005321714;488645;413509;474417;172312;
2024-05-15T22:05:02.909;539004916023476872;488902;413701;474638;172342;
2024-05-15T22:05:02.928;539004916041632030;489107;413865;474855;172350;
2024-05-15T22:05:02.946;539004916059787188;489264;413965;474923;172349;
2024-05-15T22:05:02.964;539004916077942346;489230;413932;474970;172327;
2024-05-15T22:05:02.982;539004916096097504;489260;413932;475033;172360;
2024-05-15T22:05:03.000;539004916114252662;489298;414039;475117;172336;
2024-05-15T22:05:03.018;539004916132407820;489395;414032;475081;172348;
2024-05-15T22:05:03.036;539004916150562978;489462;414123;475106;172355;
2024-05-15T22:05:03.055;539004916168718136;489587;414211;475289;172328;
2024-05-15T22:05:03.073;539004916186873294;489821;414287;475488;172367;
2024-05-15T22:05:03.091;539004916205028452;490042;414456;475757;172394;
2024-05-15T22:05:03.109;539004916223183610;490145;414573;475757;172303;
2024-05-15T22:05:03.127;539004916241338768;489854;414372;475540;172299;
2024-05-15T22:05:03.145;539004916259493926;489373;414100;475198;172367;
2024-05-15T22:05:03.164;539004916277649084;488613;413612;474617;172389;
2024-05-15T22:05:03.182;539004916295804242;487782;413125;474045;172397;
2024-05-15T22:05:03.200;539004916313959400;487017;412659;473474;172375;
2024-05-15T22:05:03.218;539004916332114558;486373;412308;473001;172369;
2024-05-15T22:05:03.236;539004916350269716;486090;412043;472684;172339;
2024-05-15T22:05:03.254;539004916368424874;486061;411996;472645;172363;
2024-05-15T22:05:03.272;539004916386580032;486197;412040;472716;172346;
2024-05-15T22:05:03.291;539004916404735190;486500;412239;472973;172348;
2024-05-15T22:05:03.309;539004916422890348;487038;412521;473331;172345;
2024-05-15T22:05:03.327;539004916441045506;487471;412722;473703;172255;
2024-05-15T22:05:03.345;539004916459200664;487998;413083;474082;172290;
2024-05-15T22:05:03.363;539004916477355822;488446;413359;474475;172377;
2024-05-15T22:05:03.381;539004916495510980;488819;413621;474783;172326;
2024-05-15T22:05:03.400;539004916513666138;489042;413736;474951;172344;
2024-05-15T22:05:03.418;539004916531821304;489153;413779;475105;172323;
2024-05-15T22:05:03.436;539004916549976462;489223;413813;475127;172365;
2024-05-15T22:05:03.454;539004916568131620;489216;413887;475210;172382;
2024-05-15T22:05:03.472;539004916586286778;489204;413793;475160;172342;
2024-05-15T22:05:03.490;539004916604441936;489169;413797;475153;172322;
2024-05-15T22:05:03.509;539004916622597094;489166;413881;475148;172286;
2024-05-15T22:05:03.527;539004916640752252;489269;413962;475249;172355;
2024-05-15T22:05:03.545;539004916658907410;489375;413982;475328;172299;
2024-05-15T22:05:03.563;539004916677062568;489585;414097;475487;172342;
2024-05-15T22:05:03.581;539004916695217726;489859;414241;475804;172384;
2024-05-15T22:05:03.599;539004916713372884;490109;414369;475922;172362;
2024-05-15T22:05:03.617;539004916731528042;489945;414216;475799;172391;
2024-05-15T22:05:03.636;539004916749683200;489380;413951;475387;172328;
2024-05-15T22:05:03.654;539004916767838358;488681;413519;474895;172325;
2024-05-15T22:05:03.672;539004916785993516;487833;413010;474280;172369;
2024-05-15T22:05:03.690;539004916804148674;486973;412508;473620;172282;
2024-05-15T22:05:03.708;539004916822303832;486453;412140;473141;172304;
2024-05-15T22:05:03.726;539004916840458990;486014;411881;472775;172339;
2024-05-15T22:05:03.745;539004916858614148;485877;411808;472678;172379;
2024-05-15T22:05:03.763;539004916876769306;486049;411840;472781;172334;
2024-05-15T22:05:03.781;539004916894924464;486328;411967;472939;172379;
2024-05-15T22:05:03.799;539004916913079622;486664;412199;473230;172317;
2024-05-15T22:05:03.817;539004916931234780;487177;412473;473629;172342;
2024-05-15T22:05:03.835;539004916949389938;487715;412770;474016;172357;
2024-05-15T22:05:03.853;539004916967545096;488077;413012;474333;172348;
2024-05-15T22:05:03.872;539004916985700254;488422;413185;474583;172342;
2024-05-15T22:05:03.890;539004917003855412;488602;413314;474762;172379;
2024-05-15T22:05:03.908;539004917022010570;488758;413368;474908;172323;
2024-05-15T22:05:03.926;539004917040165728;488784;413427;474908;172373;
2024-05-15T22:05:03.944;539004917058320886;488709;413367;474901;172360;
2024-05-15T22:05:03.962;539004917076476044;488702;413395;474914;172336;
2024-05-15T22:05:03.981;539004917094631202;488719;413360;474914;172278;
2024-05-15T22:05:03.999;539004917112786360;488793;413388;474936;172323;
2024-05-15T22:05:04.017;539004917130941518;488836;413422;474990;172320;
2024-05-15T22:05:04.035;539004917149096676;489018;413528;475077;172344;
2024-05-15T22:05:04.053;539004917167251530;489195;413582;475247;172334;
2024-05-15T22:05:04.071;539004917185406383;489499;413741;475418;172318;
2024-05-15T22:05:04.089;539004917203561236;489727;413976;475634;172295;
2024-05-15T22:05:04.108;539004917221716089;489676;413906;475635;172351;
2024-05-15T22:05:04.126;539004917239870942;489277;413636;475384;172329;
2024-05-15T22:05:04.144;539004917258025795;488587;413261;474873;172327;
2024-05-15T22:05:04.162;539004917276180648;487888;412767;474279;172375;
2024-05-15T22:05:04.180;539004917294335501;487053;412300;473643;172375;
2024-05-15T22:05:04.198;539004917312490354;486388;411935;473183;172325;
2024-05-15T22:05:04.217;539004917330645207;485897;411639;472719;172306;
2024-05-15T22:05:04.235;539004917348800060;485661;411420;472506;172319;
2024-05-15T22:05:04.253;539004917366954913;485701;411363;472466;172336;
2024-05-15T22:05:04.271;539004917385109766;485912;411536;472606;172332;
2024-05-15T22:05:04.289;539004917403264619;486235;411738;472795;172306;
2024-05-15T22:05:04.307;539004917421419472;486664;411982;473215;172358;
2024-05-15T22:05:04.325;539004917439574325;487126;412279;473569;172336;
2024-05-15T22:05:04.344;539004917457729178;487545;412540;473885;172329;
2024-05-15T22:05:04.362;539004917475884031;487915;412741;474167;172411;
2024-05-15T22:05:04.380;539004917494038884;488206;412830;474341;172345;
2024-05-15T22:05:04.398;539004917512193737;488240;412924;474447;172357;
2024-05-15T22:05:04.416;539004917530348590;488256;412893;474434;172346;
2024-05-15T22:05:04.434;539004917548503443;488228;412885;474386;172328;
2024-05-15T22:05:04.453;539004917566658296;488199;412846;474397;172346;
2024-05-15T22:05:04.471;539004917584813149;488129;412762;474294;172379;
2024-05-15T22:05:04.489;539004917602968002;488104;412822;474378;172370;
2024-05-15T22:05:04.507;539004917621122855;488163;412830;474375;172354;
2024-05-15T22:05:04.525;539004917639277708;488233;412878;474390;172324;
2024-05-15T22:05:04.543;539004917657432561;488372;412916;474500;172312;
2024-05-15T22:05:04.562;539004917675587414;488596;413081;474702;172308;
2024-05-15T22:05:04.580;539004917693742267;488838;413188;474874;172349;
2024-05-15T22:05:04.598;539004917711897120;488944;413299;474934;172380;
2024-05-15T22:05:04.616;539004917730051973;488758;413122;474781;172399;
2024-05-15T22:05:04.634;539004917748206826;488160;412786;474345;172368;
2024-05-15T22:05:04.652;539004917766361679;487477;412391;473913;172366;
2024-05-15T22:05:04.670;539004917784516532;486674;411903;473337;172331;
2024-05-15T22:05:04.689;539004917802671147;486000;411476;472689;172361;
2024-05-15T22:05:04.707;539004917820825754;485454;411130;472267;172315;
2024-05-15T22:05:04.725;539004917838980361;485161;410940;472022;172293;
2024-05-15T22:05:04.743;539004917857134968;485101;410876;471866;172299;
2024-05-15T22:05:04.761;539004917875289575;485252;410950;472032;172345;
2024-05-15T22:05:04.779;539004917893444182;485521;411086;472224;172341;
2024-05-15T22:05:04.798;539004917911598789;485983;411360;472497;172358;
2024-05-15T22:05:04.816;539004917929753396;486458;411613;472842;172385;
2024-05-15T22:05:04.834;539004917947908003;486906;411868;473145;172402;
2024-05-15T22:05:04.852;539004917966062610;487281;412086;473425;172371;
2024-05-15T22:05:04.870;539004917984217217;487575;412293;473713;172356;
2024-05-15T22:05:04.888;539004918002371824;487723;412401;473849;172346;
2024-05-15T22:05:04.906;539004918020526431;487771;412389;473880;172341;
2024-05-15T22:05:04.925;539004918038681038;487776;412418;473914;172311;
2024-05-15T22:05:04.943;539004918056835645;487720;412420;473854;172337;
2024-05-15T22:05:04.961;539004918074990252;487746;412444;473869;172334;
2024-05-15T22:05:04.979;539004918093144859;487737;412308;473833;172337;
2024-05-15T22:05:04.997;539004918111299466;487769;412374;473870;172367;
2024-05-15T22:05:05.015;539004918129454073;487775;412418;473894;172335;
2024-05-15T22:05:05.034;539004918147608680;487929;412471;473998;172341;
2024-05-15T22:05:05.052;539004918165763287;488164;412642;474137;172410;
2024-05-15T22:05:05.070;539004918183917894;488434;412823;474332;172376;
2024-05-15T22:05:05.088;539004918202072501;488476;412869;474399;172321;
2024-05-15T22:05:05.106;539004918220227108;488165;412685;474222;172367;
2024-05-15T22:05:05.124;539004918238381715;487651;412364;473819;172332;
2024-05-15T22:05:05.142;539004918256536322;486910;411968;473253;172377;
2024-05-15T22:05:05.161;539004918274690929;486117;411520;472632;172353;
2024-05-15T22:05:05.179;539004918292845536;485476;411090;472104;172355;
2024-05-15T22:05:05.197;539004918311000143;485007;410764;471714;172350;
2024-05-15T22:05:05.215;539004918329154750;484688;410554;471421;172340;
2024-05-15T22:05:05.233;539004918347309357;484650;410498;471356;172389;
2024-05-15T22:05:05.251;539004918365463964;484892;410601;471431;172358;
2024-05-15T22:05:05.270;539004918383618571;485258;410838;471736;172346;
2024-05-15T22:05:05.288;539004918401773178;485708;411117;471999;172334;
2024-05-15T22:05:05.306;539004918419927785;486218;411460;472438;172343;
2024-05-15T22:05:05.324;539004918438082392;486703;411798;472858;172317;
2024-05-15T22:05:05.342;539004918456235951;487077;412013;473137;172341;
2024-05-15T22:05:05.360;539004918474389498;487330;412155;473360;172332;
2024-05-15T22:05:05.378;539004918492543045;487506;412244;473494;172288;
2024-05-15T22:05:05.397;539004918510696592;487647;412341;473594;172361;
2024-05-15T22:05:05.415;539004918528850139;487681;412344;473564;172346;
2024-05-15T22:05:05.433;539004918547003686;487570;412301;473545;172303;
2024-05-15T22:05:05.451;539004918565157233;487573;412356;473539;172283;
2024-05-15T22:05:05.469;539004918583310780;487602;412417;473540;172353;
2024-05-15T22:05:05.487;539004918601464327;487620;412447;473622;172295;
2024-05-15T22:05:05.506;539004918619617874;487800;412490;473700;172310;
2024-05-15T22:05:05.524;539004918637771421;488015;412666;473881;172269;
2024-05-15T22:05:05.542;539004918655924968;488352;412811;474051;172335;
2024-05-15T22:05:05.560;539004918674078515;488537;412949;474227;172302;
2024-05-15T22:05:05.578;539004918692232062;488506;412921;474288;172292;
2024-05-15T22:05:05.596;539004918710385609;488076;412667;473934;172375;
2024-05-15T22:05:05.614;539004918728539156;487318;412266;473362;172321;
2024-05-15T22:05:05.633;539004918746692703;486460;411805;472788;172361;
2024-05-15T22:05:05.651;539004918764846250;485628;411305;472088;172345;
2024-05-15T22:05:05.669;539004918782999797;484974;410917;471541;172352;
2024-05-15T22:05:05.687;539004918801153344;484516;410650;471198;172358;
2024-05-15T22:05:05.705;539004918819306891;484322;410483;470952;172352;
2024-05-15T22:05:05.723;539004918837460438;484424;410569;471008;172401;
2024-05-15T22:05:05.742;539004918855613985;484655;410700;471116;172353;
2024-05-15T22:05:05.760;539004918873767532;484978;410911;471376;172338;
2024-05-15T22:05:05.778;539004918891921079;485508;411191;471737;172276;
2024-05-15T22:05:05.796;539004918910074626;486001;411486;472113;172295;
2024-05-15T22:05:05.814;539004918928228173;486471;411763;472423;172285;
2024-05-15T22:05:05.832;539004918946381720;486828;412035;472756;172305;
2024-05-15T22:05:05.850;539004918964535267;487055;412215;473004;172362;
2024-05-15T22:05:05.869;539004918982688814;487185;412277;472992;172326;
2024-05-15T22:05:05.887;539004919000842361;487189;412275;473099;172312;
2024-05-15T22:05:05.905;539004919018995908;487285;412319;473157;172335;
2024-05-15T22:05:05.923;539004919037149455;487254;412366;473157;172389;
2024-05-15T22:05:05.941;539004919055303002;487262;412379;473203;172362;
2024-05-15T22:05:05.959;539004919073456549;487305;412409;473141;172325;
2024-05-15T22:05:05.978;539004919091610096;487477;412431;473284;172306;
2024-05-15T22:05:05.996;539004919109763264;487693;412594;473454;172362;
2024-05-15T22:05:06.014;539004919127916430;487885;412801;473614;172295;
2024-05-15T22:05:06.032;539004919146069596;488126;412958;473871;172302;
2024-05-15T22:05:06.050;539004919164222762;488469;413115;474084;172374;
2024-05-15T22:05:06.068;539004919182375928;488491;413166;474101;172343;
2024-05-15T22:05:06.086;539004919200529094;488070;412935;473803;172328;
2024-05-15T22:05:06.105;539004919218682260;487271;412482;473204;172305;
2024-05-15T22:05:06.123;539004919236835426;486456;412016;472631;172371;
2024-05-15T22:05:06.141;539004919254988592;485641;411559;471953;172352;
2024-05-15T22:05:06.159;539004919273141758;485009;411164;471465;172341;
2024-05-15T22:05:06.177;539004919291294924;484654;410926;471093;172353;
2024-05-15T22:05:06.195;539004919309448090;484475;410848;470926;172325;
2024-05-15T22:05:06.214;539004919327601256;484538;410920;470862;172318;
2024-05-15T22:05:06.232;539004919345754422;484869;411045;471107;172354;
2024-05-15T22:05:06.250;539004919363907588;485382;411304;471429;172383;
2024-05-15T22:05:06.268;539004919382060754;485809;411554;471756;172355;
2024-05-15T22:05:06.286;539004919400213920;486216;411835;472083;172325;
2024-05-15T22:05:06.304;539004919418367086;486598;412070;472452;172288;
2024-05-15T22:05:06.322;539004919436520252;486921;412266;472736;172337;
2024-05-15T22:05:06.341;539004919454673418;487157;412423;472856;172345;
2024-05-15T22:05:06.359;539004919472826584;487265;412495;472943;172337;
2024-05-15T22:05:06.377;539004919490979750;487301;412607;473011;172282;
2024-05-15T22:05:06.395;539004919509132916;487296;412626;473036;172304;
2024-05-15T22:05:06.413;539004919527286082;487344;412547;473015;172323;
2024-05-15T22:05:06.431;539004919545439248;487416;412647;473105;172351;
2024-05-15T22:05:06.450;539004919563592414;487490;412654;473160;172410;
2024-05-15T22:05:06.468;539004919581745580;487588;412845;473235;172344;
2024-05-15T22:05:06.486;539004919599898746;487803;412935;473458;172332;
2024-05-15T22:05:06.504;539004919618051912;488047;413131;473601;172322;
2024-05-15T22:05:06.522;539004919636205078;488410;413274;473811;172366;
2024-05-15T22:05:06.540;539004919654358244;488604;413498;474068;172376;
2024-05-15T22:05:06.558;539004919672511410;488759;413551;474209;172375;
2024-05-15T22:05:06.577;539004919690664576;488455;413364;474010;172335;
2024-05-15T22:05:06.595;539004919708817742;487898;413078;473540;172291;
2024-05-15T22:05:06.613;539004919726970908;487174;412628;472942;172348;
2024-05-15T22:05:06.631;539004919745124074;486328;412220;472304;172316;
2024-05-15T22:05:06.649;539004919763279437;485659;411776;471780;172319;
2024-05-15T22:05:06.667;539004919781434796;485186;411606;471423;172304;
2024-05-15T22:05:06.686;539004919799590155;484997;411401;471284;172308;
2024-05-15T22:05:06.704;539004919817745514;485134;411459;471251;172295;
2024-05-15T22:05:06.722;539004919835900873;485333;411588;471414;172340;
2024-05-15T22:05:06.740;539004919854056232;485727;411804;471671;172322;
2024-05-15T22:05:06.758;539004919872211591;486182;412070;472024;172360;
2024-05-15T22:05:06.776;539004919890366950;486688;412377;472344;172320;
2024-05-15T22:05:06.794;539004919908522309;487019;412578;472675;172320;
2024-05-15T22:05:06.813;539004919926677668;487384;412805;472992;172286;
2024-05-15T22:05:06.831;539004919944833027;487625;412976;473183;172384;
2024-05-15T22:05:06.849;539004919962988386;487749;413081;473298;172346;
2024-05-15T22:05:06.867;539004919981143745;487774;413113;473326;172350;
2024-05-15T22:05:06.885;539004919999299104;487857;413155;473353;172339;
2024-05-15T22:05:06.903;539004920017454463;487833;413103;473370;172310;
2024-05-15T22:05:06.922;539004920035609822;487888;413190;473395;172311;
2024-05-15T22:05:06.940;539004920053765181;487995;413265;473468;172331;
2024-05-15T22:05:06.958;539004920071920540;488150;413363;473542;172325;
2024-05-15T22:05:06.976;539004920090075899;488245;413466;473681;172301;
2024-05-15T22:05:06.994;539004920108231258;488485;413588;473832;172310;
2024-05-15T22:05:07.012;539004920126386617;488714;413711;473965;172300;
2024-05-15T22:05:07.030;539004920144541976;488949;413861;474180;172378;
2024-05-15T22:05:07.049;539004920162697335;489151;413996;474369;172256;
2024-05-15T22:05:07.067;539004920180852694;489157;414000;474349;172308;
2024-05-15T22:05:07.085;539004920199008053;488747;413771;474039;172342;
2024-05-15T22:05:07.103;539004920217163412;488126;413385;473580;172312;
2024-05-15T22:05:07.121;539004920235318771;487366;413060;472989;172306;
