Phone timestamp;sensor timestamp [ns];channel 0;channel 1;channel 2;ambient
2024-05-16T23:17:00.937;539095634514114375;577783;481746;502656;172352;
2024-05-16T23:17:00.955;539095634532274812;578813;482968;504045;172339;
2024-05-16T23:17:00.973;539095634550435249;579747;484364;505468;172297;
2024-05-16T23:17:00.991;539095634568595686;580863;485948;507302;172326;
2024-05-16T23:17:01.009;539095634586756123;581999;487422;508917;172320;
2024-05-16T23:17:01.027;539095634604916560;582882;488543;510189;172299;
2024-05-16T23:17:01.045;539095634623076997;583562;489126;510954;172327;
2024-05-16T23:17:01.064;539095634641237434;583973;489343;511332;172338;
2024-05-16T23:17:01.082;539095634659397871;584310;489593;511608;172316;
2024-05-16T23:17:01.100;539095634677558308;584858;490030;512069;172304;
2024-05-16T23:17:01.118;539095634695718745;585610;490749;512615;172355;
2024-05-16T23:17:01.136;539095634713879182;586425;491374;513217;172357;
2024-05-16T23:17:01.154;539095634732039619;587207;492007;513823;172337;
2024-05-16T23:17:01.173;539095634750200056;587849;492733;514473;172346;
2024-05-16T23:17:01.191;539095634768360493;588715;493569;515339;172367;
2024-05-16T23:17:01.209;539095634786520930;589173;494114;516060;172342;
2024-05-16T23:17:01.227;539095634804681367;589492;494456;516664;172342;
2024-05-16T23:17:01.245;539095634822841804;589735;494787;517047;172368;
2024-05-16T23:17:01.263;539095634841002241;589901;494905;517434;172393;
2024-05-16T23:17:01.282;539095634859162678;589922;495053;517622;172395;
2024-05-16T23:17:01.300;539095634877323115;589982;495097;517746;172329;
2024-05-16T23:17:01.318;539095634895483552;590019;495080;517817;172391;
2024-05-16T23:17:01.336;539095634913643989;590021;495004;517747;172386;
2024-05-16T23:17:01.354;539095634931804426;590016;494855;517713;172393;
2024-05-16T23:17:01.372;539095634949964863;590068;494762;517700;172468;
2024-05-16T23:17:01.391;539095634968125300;590045;494706;517616;172385;
2024-05-16T23:17:01.409;539095634986285737;590100;494752;517717;172433;
2024-05-16T23:17:01.427;539095635004446174;590232;494837;517805;172407;
2024-05-16T23:17:01.445;539095635022606611;590273;495037;518021;172417;
2024-05-16T23:17:01.463;539095635040767048;590565;495232;518311;172445;
2024-05-16T23:17:01.481;539095635058927485;590725;495429;518637;172369;
2024-05-16T23:17:01.499;539095635077087922;590987;495675;518905;172386;
2024-05-16T23:17:01.518;539095635095248359;591346;496111;519266;172350;
2024-05-16T23:17:01.536;539095635113408796;591700;496468;519708;172346;
2024-05-16T23:17:01.554;539095635131569233;591934;496805;520054;172354;
2024-05-16T23:17:01.572;539095635149729670;592265;497175;520475;172424;
2024-05-16T23:17:01.590;539095635167890107;592549;497449;520818;172395;
2024-05-16T23:17:01.608;539095635186050546;592875;497823;521077;172459;
2024-05-16T23:17:01.627;539095635204210983;592973;497847;521143;172365;
2024-05-16T23:17:01.645;539095635222371420;592896;497702;520922;172341;
2024-05-16T23:17:01.663;539095635240531857;592585;497295;520613;172375;
2024-05-16T23:17:01.681;539095635258692294;592128;496801;520117;172421;
2024-05-16T23:17:01.699;539095635276852731;591666;496284;519681;172412;
2024-05-16T23:17:01.717;539095635295013168;591117;495813;519241;172385;
2024-05-16T23:17:01.736;539095635313173605;590739;495536;518896;172318;
2024-05-16T23:17:01.754;539095635331334042;590496;495317;518731;172401;
2024-05-16T23:17:01.772;539095635349494479;590326;495316;518727;172390;
2024-05-16T23:17:01.790;539095635367654916;590428;495615;519177;172376;
2024-05-16T23:17:01.808;539095635385815353;590899;496211;519807;172369;
2024-05-16T23:17:01.826;539095635403975790;591539;496901;520554;172341;
2024-05-16T23:17:01.845;539095635422136227;592224;497731;521235;172298;
2024-05-16T23:17:01.863;539095635440296664;592931;498507;521983;172332;
2024-05-16T23:17:01.881;539095635458457101;593503;499021;522602;172367;
2024-05-16T23:17:01.899;539095635476617538;594063;499596;523038;172342;
2024-05-16T23:17:01.917;539095635494777975;594537;500036;523439;172343;
2024-05-16T23:17:01.935;539095635512938412;594927;500449;523751;172321;
2024-05-16T23:17:01.953;539095635531098849;595219;500725;524131;172360;
2024-05-16T23:17:01.972;539095635549259286;595404;500966;524341;172342;
2024-05-16T23:17:01.990;539095635567419723;595615;501165;524525;172373;
2024-05-16T23:17:02.008;539095635585580160;595666;501239;524548;172379;
2024-05-16T23:17:02.026;539095635603740597;595793;501248;524504;172315;
2024-05-16T23:17:02.044;539095635621901034;595927;501408;524581;172350;
2024-05-16T23:17:02.062;539095635640061471;596055;501545;524701;172338;
2024-05-16T23:17:02.081;539095635658221908;596135;501633;524832;172346;
2024-05-16T23:17:02.099;539095635676382345;596223;501683;524905;172399;
2024-05-16T23:17:02.117;539095635694542782;596303;501786;524903;172352;
2024-05-16T23:17:02.135;539095635712703219;596445;501846;524976;172318;
2024-05-16T23:17:02.153;539095635730863656;596382;501782;524950;172343;
2024-05-16T23:17:02.171;539095635749024093;596247;501615;524699;172353;
2024-05-16T23:17:02.190;539095635767184530;595956;501262;524450;172367;
2024-05-16T23:17:02.208;539095635785344967;595708;500993;524140;172389;
2024-05-16T23:17:02.226;539095635803505404;595452;500619;523853;172368;
2024-05-16T23:17:02.244;539095635821665841;595211;500327;523599;172349;
2024-05-16T23:17:02.262;539095635839826278;595074;500081;523407;172340;
2024-05-16T23:17:02.280;539095635857989431;594973;499851;523336;172321;
2024-05-16T23:17:02.299;539095635876152582;594988;499789;523310;172366;
2024-05-16T23:17:02.317;539095635894315733;595004;499746;523236;172318;
2024-05-16T23:17:02.335;539095635912478884;595183;499823;523353;172346;
2024-05-16T23:17:02.353;539095635930642035;595315;499945;523441;172315;
2024-05-16T23:17:02.371;539095635948805186;595516;500087;523655;172325;
2024-05-16T23:17:02.389;539095635966968337;595751;500311;523871;172368;
2024-05-16T23:17:02.408;539095635985131488;595948;500492;524045;172338;
2024-05-16T23:17:02.426;539095636003294639;596084;500682;524286;172344;
2024-05-16T23:17:02.444;539095636021457790;596276;500941;524649;172353;
2024-05-16T23:17:02.462;539095636039620941;596383;501164;524850;172339;
2024-05-16T23:17:02.480;539095636057784092;596524;501303;525056;172343;
2024-05-16T23:17:02.498;539095636075947243;596609;501488;525252;172349;
2024-05-16T23:17:02.516;539095636094110394;596712;501688;525424;172333;
2024-05-16T23:17:02.535;539095636112273545;596861;501925;525591;172266;
2024-05-16T23:17:02.553;539095636130436696;597000;502139;525675;172323;
2024-05-16T23:17:02.571;539095636148599847;597126;502280;525837;172317;
2024-05-16T23:17:02.589;539095636166762998;597320;502544;525961;172355;
2024-05-16T23:17:02.607;539095636184926149;597516;502780;526128;172403;
2024-05-16T23:17:02.625;539095636203089300;597677;502999;526186;172363;
2024-05-16T23:17:02.644;539095636221252451;597758;503159;526215;172417;
2024-05-16T23:17:02.662;539095636239415602;597827;503356;526228;172406;
2024-05-16T23:17:02.680;539095636257578753;597675;503353;526076;172382;
2024-05-16T23:17:02.698;539095636275741904;597522;503245;525813;172336;
2024-05-16T23:17:02.716;539095636293905055;597304;503098;525606;172310;
2024-05-16T23:17:02.734;539095636312068206;597108;503102;525433;172373;
2024-05-16T23:17:02.753;539095636330231357;596983;502914;525195;172321;
2024-05-16T23:17:02.771;539095636348394508;596825;502844;525000;172389;
2024-05-16T23:17:02.789;539095636366557659;596852;502764;524794;172388;
2024-05-16T23:17:02.807;539095636384720810;596763;502678;524656;172394;
2024-05-16T23:17:02.825;539095636402883961;596816;502716;524587;172413;
2024-05-16T23:17:02.843;539095636421047112;596846;502712;524536;172371;
2024-05-16T23:17:02.862;539095636439210263;596869;502612;524490;172388;
2024-05-16T23:17:02.880;539095636457373414;596839;502457;524347;172411;
2024-05-16T23:17:02.898;539095636475536565;596962;502461;524371;172377;
2024-05-16T23:17:02.916;539095636493699716;596965;502262;524305;172309;
2024-05-16T23:17:02.934;539095636511862867;597035;502101;524377;172370;
2024-05-16T23:17:02.952;539095636530026018;597073;502006;524427;172429;
2024-05-16T23:17:02.971;539095636548189169;597230;501934;524554;172353;
2024-05-16T23:17:02.989;539095636566352320;597350;501937;524660;172372;
2024-05-16T23:17:03.007;539095636584515471;597484;501903;524804;172394;
2024-05-16T23:17:03.025;539095636602678622;597541;501866;524885;172360;
2024-05-16T23:17:03.043;539095636620841219;597551;501904;524965;172386;
2024-05-16T23:17:03.061;539095636639003788;597661;501947;525036;172374;
2024-05-16T23:17:03.080;539095636657166357;597759;501989;525051;172309;
2024-05-16T23:17:03.098;539095636675328926;597840;502048;525095;172334;
2024-05-16T23:17:03.116;539095636693491495;597984;502164;525181;172392;
2024-05-16T23:17:03.134;539095636711654064;598009;502123;525244;172343;
2024-05-16T23:17:03.152;539095636729816633;597902;502072;525101;172268;
2024-05-16T23:17:03.170;539095636747979202;597646;501737;524876;172355;
2024-05-16T23:17:03.189;539095636766141771;597318;501291;524553;172369;
2024-05-16T23:17:03.207;539095636784304340;596825;500679;524119;172285;
2024-05-16T23:17:03.225;539095636802466909;596396;500112;523704;172361;
2024-05-16T23:17:03.243;539095636820629478;595947;499566;523347;172357;
2024-05-16T23:17:03.261;539095636838792047;595589;499046;523000;172358;
2024-05-16T23:17:03.279;539095636856954616;595249;498782;522705;172309;
2024-05-16T23:17:03.298;539095636875117185;595048;498429;522440;172327;
2024-05-16T23:17:03.316;539095636893279754;594910;498131;522144;172342;
2024-05-16T23:17:03.334;539095636911442323;594782;497871;521967;172346;
2024-05-16T23:17:03.352;539095636929604892;594736;497778;521896;172343;
2024-05-16T23:17:03.370;539095636947767461;594836;497769;522006;172401;
2024-05-16T23:17:03.388;539095636965930030;594895;497859;522132;172305;
2024-05-16T23:17:03.406;539095636984092599;595129;497958;522417;172387;
2024-05-16T23:17:03.425;539095637002255168;595270;498044;522566;172384;
2024-05-16T23:17:03.443;539095637020417737;595414;498102;522711;172357;
2024-05-16T23:17:03.461;539095637038580306;595660;498327;522990;172387;
2024-05-16T23:17:03.479;539095637056742875;596008;498825;523518;172336;
2024-05-16T23:17:03.497;539095637074905444;596516;499476;524191;172352;
2024-05-16T23:17:03.515;539095637093068013;597010;500167;524870;172354;
2024-05-16T23:17:03.534;539095637111230582;597587;500628;525463;172379;
2024-05-16T23:17:03.552;539095637129393151;598137;501293;526237;172341;
2024-05-16T23:17:03.570;539095637147555720;598947;501945;527062;172325;
2024-05-16T23:17:03.588;539095637165718289;599634;502552;527955;172366;
2024-05-16T23:17:03.606;539095637183880858;600129;503081;528753;172371;
2024-05-16T23:17:03.624;539095637202043427;600585;503583;529458;172321;
2024-05-16T23:17:03.643;539095637220205996;600767;503853;529886;172292;
2024-05-16T23:17:03.661;539095637238368565;600866;504048;530158;172353;
2024-05-16T23:17:03.679;539095637256531502;600758;503877;530319;172290;
2024-05-16T23:17:03.697;539095637274694420;600556;503714;530558;172357;
2024-05-16T23:17:03.715;539095637292857338;600362;503511;530799;172306;
2024-05-16T23:17:03.733;539095637311020256;600231;503275;530997;172340;
2024-05-16T23:17:03.752;539095637329183174;600082;503000;531165;172329;
2024-05-16T23:17:03.770;539095637347346092;599815;502587;531230;172331;
2024-05-16T23:17:03.788;539095637365509010;599706;502168;531036;172344;
2024-05-16T23:17:03.806;539095637383671928;599653;501654;530609;172287;
2024-05-16T23:17:03.824;539095637401834846;599496;500409;529591;172312;
2024-05-16T23:17:03.842;539095637419997764;599016;499041;528557;172266;
2024-05-16T23:17:03.861;539095637438160682;598836;498388;528044;172356;
2024-05-16T23:17:03.879;539095637456323600;599022;498517;528018;172327;
2024-05-16T23:17:03.897;539095637474486518;599718;499428;528533;172292;
2024-05-16T23:17:03.915;539095637492649436;600328;500084;529041;172354;
2024-05-16T23:17:03.933;539095637510812354;600916;500645;529498;172314;
2024-05-16T23:17:03.951;539095637528975272;601407;501086;530173;172401;
2024-05-16T23:17:03.970;539095637547138190;601370;501180;530709;172303;
2024-05-16T23:17:03.988;539095637565301108;601384;501293;531175;172338;
2024-05-16T23:17:04.006;539095637583464026;601444;501506;531595;172263;
2024-05-16T23:17:04.024;539095637601626944;601624;501740;532085;172362;
2024-05-16T23:17:04.042;539095637619789862;601753;501819;532388;172358;
2024-05-16T23:17:04.060;539095637637952780;601833;501788;532392;172349;
2024-05-16T23:17:04.079;539095637656115698;602058;501635;532281;172385;
2024-05-16T23:17:04.097;539095637674278616;602337;501618;532230;172379;
2024-05-16T23:17:04.115;539095637692441534;602382;501464;532258;172300;
2024-05-16T23:17:04.133;539095637710604452;602386;501243;532260;172299;
2024-05-16T23:17:04.151;539095637728767370;602039;500601;531654;172295;
2024-05-16T23:17:04.169;539095637746930288;601260;499457;530650;172309;
2024-05-16T23:17:04.187;539095637765093206;600191;498312;529429;172286;
2024-05-16T23:17:04.206;539095637783256124;599405;497741;528592;172316;
2024-05-16T23:17:04.224;539095637801419042;598751;497510;528025;172358;
2024-05-16T23:17:04.242;539095637819581960;598301;497315;527546;172338;
2024-05-16T23:17:04.260;539095637837744878;597998;497190;527204;172283;
2024-05-16T23:17:04.278;539095637855907796;597880;497249;527072;172309;
2024-05-16T23:17:04.296;539095637874070714;597889;497312;527125;172333;
2024-05-16T23:17:04.315;539095637892232007;597957;497417;527172;172314;
2024-05-16T23:17:04.333;539095637910393268;598139;497443;527223;172366;
2024-05-16T23:17:04.351;539095637928554529;598206;497363;527044;172352;
2024-05-16T23:17:04.369;539095637946715790;598350;497637;527152;172307;
2024-05-16T23:17:04.387;539095637964877051;598712;498017;527483;172336;
2024-05-16T23:17:04.405;539095637983038312;599130;498477;528002;172314;
2024-05-16T23:17:04.424;539095638001199573;599518;498960;528383;172317;
2024-05-16T23:17:04.442;539095638019360834;599816;499294;528631;172320;
2024-05-16T23:17:04.460;539095638037522095;600071;499442;528806;172319;
2024-05-16T23:17:04.478;539095638055683356;600128;499287;528718;172284;
2024-05-16T23:17:04.496;539095638073844617;600098;498834;528380;172327;
2024-05-16T23:17:04.514;539095638092005878;599649;497970;527637;172302;
2024-05-16T23:17:04.533;539095638110167139;598811;496780;526473;172371;
2024-05-16T23:17:04.551;539095638128328400;597515;495124;524941;172280;
2024-05-16T23:17:04.569;539095638146489661;596197;493537;523352;172343;
2024-05-16T23:17:04.587;539095638164650922;595029;492573;521930;172306;
2024-05-16T23:17:04.605;539095638182812183;594492;492240;521246;172310;
2024-05-16T23:17:04.623;539095638200973444;594343;492338;521067;172289;
2024-05-16T23:17:04.642;539095638219134705;594534;492865;521370;172285;
2024-05-16T23:17:04.660;539095638237295966;594904;493360;521947;172271;
2024-05-16T23:17:04.678;539095638255457227;595151;493857;522532;172298;
2024-05-16T23:17:04.696;539095638273618488;595509;494430;523267;172281;
2024-05-16T23:17:04.714;539095638291779749;595831;494987;523930;172305;
2024-05-16T23:17:04.732;539095638309941010;596180;495363;524557;172389;
2024-05-16T23:17:04.750;539095638328102271;596420;495568;525030;172278;
2024-05-16T23:17:04.769;539095638346263532;596763;495814;525713;172334;
2024-05-16T23:17:04.787;539095638364424793;597317;496178;526371;172337;
2024-05-16T23:17:04.805;539095638382586054;597875;496736;527183;172300;
2024-05-16T23:17:04.823;539095638400747315;598594;497365;527975;172335;
2024-05-16T23:17:04.841;539095638418908576;599565;498646;529056;172357;
2024-05-16T23:17:04.859;539095638437069837;600531;500155;530308;172345;
2024-05-16T23:17:04.878;539095638455231098;601422;501327;531301;172334;
2024-05-16T23:17:04.896;539095638473392359;602075;502044;531896;172339;
2024-05-16T23:17:04.914;539095638491553620;602700;502484;532421;172339;
2024-05-16T23:17:04.932;539095638509714855;603029;502794;532720;172308;
2024-05-16T23:17:04.950;539095638527876077;603247;502896;532970;172332;
2024-05-16T23:17:04.968;539095638546037299;603460;502963;533295;172301;
2024-05-16T23:17:04.987;539095638564198521;603617;503032;533580;172308;
2024-05-16T23:17:05.005;539095638582359743;603700;502980;533790;172246;
2024-05-16T23:17:05.023;539095638600520965;603866;502928;533957;172251;
2024-05-16T23:17:05.041;539095638618682187;603985;502913;534085;172293;
2024-05-16T23:17:05.059;539095638636843409;604163;502884;534167;172316;
2024-05-16T23:17:05.077;539095638655004631;604266;502778;534215;172307;
2024-05-16T23:17:05.096;539095638673165853;604412;502723;534265;172336;
2024-05-16T23:17:05.114;539095638691327075;604492;502725;534312;172334;
2024-05-16T23:17:05.132;539095638709488297;604726;502747;534484;172362;
2024-05-16T23:17:05.150;539095638727649519;604828;502685;534599;172237;
2024-05-16T23:17:05.168;539095638745810741;604852;502619;534674;172332;
2024-05-16T23:17:05.186;539095638763971963;604742;502408;534476;172354;
2024-05-16T23:17:05.205;539095638782133185;604491;502113;534220;172328;
2024-05-16T23:17:05.223;539095638800294407;604211;501953;534099;172342;
2024-05-16T23:17:05.241;539095638818455629;603913;501675;533797;172307;
2024-05-16T23:17:05.259;539095638836616851;603668;501601;533643;172377;
2024-05-16T23:17:05.277;539095638854778073;603551;501572;533620;172337;
2024-05-16T23:17:05.295;539095638872939295;603491;501503;533585;172331;
2024-05-16T23:17:05.313;539095638891100517;603477;501618;533722;172362;
2024-05-16T23:17:05.332;539095638909261739;603472;501663;533904;172294;
2024-05-16T23:17:05.350;539095638927422961;603626;501937;534233;172338;
2024-05-16T23:17:05.368;539095638945584183;603825;502110;534501;172361;
2024-05-16T23:17:05.386;539095638963745405;604009;502338;534785;172319;
2024-05-16T23:17:05.404;539095638981906627;604251;502599;535076;172333;
2024-05-16T23:17:05.422;539095639000067849;604484;502887;535458;172322;
2024-05-16T23:17:05.441;539095639018229071;604899;503259;535814;172348;
2024-05-16T23:17:05.459;539095639036390293;605287;503620;536072;172307;
2024-05-16T23:17:05.477;539095639054551515;605924;504196;536455;172303;
2024-05-16T23:17:05.495;539095639072712737;606654;504921;536959;172353;
2024-05-16T23:17:05.513;539095639090873959;607462;505778;537505;172319;
2024-05-16T23:17:05.531;539095639109035181;608389;506717;538302;172338;
2024-05-16T23:17:05.550;539095639127196403;609279;507624;539110;172321;
2024-05-16T23:17:05.568;539095639145357625;610126;508528;539983;172368;
2024-05-16T23:17:05.586;539095639163518847;610875;509521;541013;172339;
2024-05-16T23:17:05.604;539095639181680069;611468;510362;541937;172300;
2024-05-16T23:17:05.622;539095639199841291;612014;510931;542875;172333;
2024-05-16T23:17:05.640;539095639218002608;612217;511241;543641;172329;
2024-05-16T23:17:05.659;539095639236163919;612090;511236;544080;172351;
2024-05-16T23:17:05.677;539095639254325230;611697;511095;544344;172314;
2024-05-16T23:17:05.695;539095639272486541;611208;510813;544321;172305;
2024-05-16T23:17:05.713;539095639290647852;610577;510383;543971;172288;
2024-05-16T23:17:05.731;539095639308809163;609872;509754;543612;172324;
2024-05-16T23:17:05.749;539095639326970474;609623;509288;543437;172383;
2024-05-16T23:17:05.768;539095639345131785;609611;509162;543589;172401;
2024-05-16T23:17:05.786;539095639363293096;609630;509129;543812;172376;
2024-05-16T23:17:05.804;539095639381454407;609718;509115;544056;172371;
2024-05-16T23:17:05.822;539095639399615718;609728;509023;544058;172435;
2024-05-16T23:17:05.840;539095639417777029;609926;509028;544143;172425;
2024-05-16T23:17:05.858;539095639435938340;610417;509187;544439;172393;
2024-05-16T23:17:05.876;539095639454099651;611005;509600;544965;172394;
2024-05-16T23:17:05.895;539095639472260962;611710;510225;545599;172333;
2024-05-16T23:17:05.913;539095639490422273;612538;510826;546145;172295;
2024-05-16T23:17:05.931;539095639508583584;613382;511523;546834;172375;
2024-05-16T23:17:05.949;539095639526744895;614272;512228;547661;172418;
2024-05-16T23:17:05.967;539095639544906206;615194;512985;548543;172373;
2024-05-16T23:17:05.985;539095639563067517;616051;513593;549465;172387;
2024-05-16T23:17:06.004;539095639581228828;617003;514326;550408;172406;
2024-05-16T23:17:06.022;539095639599390139;617840;515086;551402;172403;
2024-05-16T23:17:06.040;539095639617551450;618604;515707;552417;172400;
2024-05-16T23:17:06.058;539095639635712761;619221;516257;553357;172341;
2024-05-16T23:17:06.076;539095639653874072;619948;516866;554414;172399;
2024-05-16T23:17:06.094;539095639672035383;620559;517297;555356;172434;
2024-05-16T23:17:06.113;539095639690196694;621145;517667;556191;172376;
2024-05-16T23:17:06.131;539095639708358005;621633;517986;556945;172376;
2024-05-16T23:17:06.149;539095639726519316;622023;518156;557585;172337;
2024-05-16T23:17:06.167;539095639744680627;622283;518228;558019;172394;
2024-05-16T23:17:06.185;539095639762841938;622365;518064;558207;172417;
2024-05-16T23:17:06.203;539095639781002274;622326;517727;558120;172380;
2024-05-16T23:17:06.222;539095639799162596;622196;517321;557923;172375;
2024-05-16T23:17:06.240;539095639817322918;622061;516779;557644;172333;
2024-05-16T23:17:06.258;539095639835483240;621913;516119;557374;172389;
2024-05-16T23:17:06.276;539095639853643562;621833;515688;556822;172384;
2024-05-16T23:17:06.294;539095639871803884;621791;514983;556363;172383;
2024-05-16T23:17:06.312;539095639889964206;621787;514272;555679;172304;
2024-05-16T23:17:06.331;539095639908124528;621988;513298;554842;172355;
2024-05-16T23:17:06.349;539095639926284850;622077;511630;553545;172335;
2024-05-16T23:17:06.367;539095639944445172;621942;508520;551200;172346;
2024-05-16T23:17:06.385;539095639962605494;620167;504047;547222;172370;
2024-05-16T23:17:06.403;539095639980765816;618252;499400;542511;172404;
2024-05-16T23:17:06.421;539095639998926138;616818;494918;537756;172374;
2024-05-16T23:17:06.439;539095640017086460;616176;491281;533837;172356;
2024-05-16T23:17:06.458;539095640035246782;616249;488220;530533;172308;
2024-05-16T23:17:06.476;539095640053407104;617084;485739;527728;172304;
2024-05-16T23:17:06.494;539095640071567426;618431;483943;525395;172307;
2024-05-16T23:17:06.512;539095640089727748;619976;482625;523718;172310;
2024-05-16T23:17:06.530;539095640107888070;621702;481914;522777;172285;
2024-05-16T23:17:06.548;539095640126048392;623381;481762;522148;172285;
2024-05-16T23:17:06.567;539095640144208714;625979;482503;522042;172384;
2024-05-16T23:17:06.585;539095640162369036;629254;484467;522819;172341;
2024-05-16T23:17:06.603;539095640180529358;632345;487192;524282;172323;
2024-05-16T23:17:06.621;539095640198689680;635142;490446;526235;172303;
2024-05-16T23:17:06.639;539095640216850002;637384;493482;528096;172328;
2024-05-16T23:17:06.657;539095640235010324;639511;496350;529898;172278;
2024-05-16T23:17:06.676;539095640253170068;641398;498705;531504;172311;
2024-05-16T23:17:06.694;539095640271329804;642936;500615;532749;172325;
2024-05-16T23:17:06.712;539095640289489540;643931;501765;533403;172396;
2024-05-16T23:17:06.730;539095640307649276;644371;502343;533567;172331;
2024-05-16T23:17:06.748;539095640325809012;644516;502731;533582;172356;
2024-05-16T23:17:06.766;539095640343968748;644835;503389;533667;172337;
2024-05-16T23:17:06.785;539095640362128484;645477;504180;534040;172338;
2024-05-16T23:17:06.803;539095640380288220;646246;505156;534505;172387;
2024-05-16T23:17:06.821;539095640398447956;647463;506360;535412;172368;
2024-05-16T23:17:06.839;539095640416607692;648987;508100;537004;172344;
2024-05-16T23:17:06.857;539095640434767428;650475;509836;538844;172331;
2024-05-16T23:17:06.875;539095640452927164;651601;511422;540800;172328;
2024-05-16T23:17:06.893;539095640471086900;652179;512832;542886;172368;
2024-05-16T23:17:06.912;539095640489246636;652337;514098;544534;172327;
2024-05-16T23:17:06.930;539095640507406372;652714;515059;545472;172373;
2024-05-16T23:17:06.948;539095640525566108;653166;515707;546262;172362;
2024-05-16T23:17:06.966;539095640543725844;653394;516017;547211;172344;
2024-05-16T23:17:06.984;539095640561885580;653346;516304;548359;172371;
2024-05-16T23:17:07.002;539095640580045316;653001;516716;549297;172375;
2024-05-16T23:17:07.021;539095640598205052;652696;517190;549781;172286;
2024-05-16T23:17:07.039;539095640616364788;652538;517407;549983;172382;
2024-05-16T23:17:07.057;539095640634524524;652443;517725;550176;172355;
2024-05-16T23:17:07.075;539095640652684260;652435;518020;550304;172369;
2024-05-16T23:17:07.093;539095640670843996;652480;518455;550567;172361;
2024-05-16T23:17:07.111;539095640689003732;652535;518948;550684;172320;
2024-05-16T23:17:07.130;539095640707163468;652647;519408;550768;172340;
2024-05-16T23:17:07.148;539095640725323204;652700;519861;550908;172358;
2024-05-16T23:17:07.166;539095640743482940;652725;520208;551018;172348;
2024-05-16T23:17:07.184;539095640761644370;652510;520383;551038;172357;
2024-05-16T23:17:07.202;539095640779805784;652312;520458;550985;172385;
2024-05-16T23:17:07.220;539095640797967198;651951;520445;550724;172373;
2024-05-16T23:17:07.239;539095640816128612;651505;520276;550531;172323;
2024-05-16T23:17:07.257;539095640834290026;651242;520191;550326;172329;
2024-05-16T23:17:07.275;539095640852451440;651039;520246;550101;172336;
2024-05-16T23:17:07.293;539095640870612854;650944;520213;549798;172348;
2024-05-16T23:17:07.311;539095640888774268;650904;520263;549465;172299;
2024-05-16T23:17:07.329;539095640906935682;651040;520493;549327;172363;
2024-05-16T23:17:07.347;539095640925097096;651174;520676;549242;172341;
2024-05-16T23:17:07.366;539095640943258510;651234;520890;549113;172357;
2024-05-16T23:17:07.384;539095640961419924;651169;520970;548956;172329;
2024-05-16T23:17:07.402;539095640979581338;650949;521010;548654;172303;
2024-05-16T23:17:07.420;539095640997742752;650816;521006;548409;172338;
2024-05-16T23:17:07.438;539095641015904166;650538;520993;548053;172305;
2024-05-16T23:17:07.456;539095641034065580;650264;520958;547659;172349;
2024-05-16T23:17:07.475;539095641052226994;650038;520928;547464;172356;
2024-05-16T23:17:07.493;539095641070388408;649805;520868;547484;172308;
2024-05-16T23:17:07.511;539095641088549822;649567;520650;547638;172309;
2024-05-16T23:17:07.529;539095641106711236;649467;520435;547745;172317;
2024-05-16T23:17:07.547;539095641124872650;649654;520312;548018;172352;
2024-05-16T23:17:07.565;539095641143034064;649970;520236;548399;172345;
2024-05-16T23:17:07.584;539095641161195478;650300;520452;548867;172345;
2024-05-16T23:17:07.602;539095641179356892;650683;520549;549238;172326;
2024-05-16T23:17:07.620;539095641197518306;650972;520873;549629;172370;
2024-05-16T23:17:07.638;539095641215679720;651254;521021;549931;172346;
2024-05-16T23:17:07.656;539095641233841134;651391;521109;550146;172425;
2024-05-16T23:17:07.674;539095641252002548;651248;520905;550241;172299;
2024-05-16T23:17:07.693;539095641270163962;651136;520594;550295;172333;
2024-05-16T23:17:07.711;539095641288325376;650991;520383;550261;172339;
2024-05-16T23:17:07.729;539095641306486790;651279;520362;550531;172294;
2024-05-16T23:17:07.747;539095641324648204;651609;520459;550977;172396;
2024-05-16T23:17:07.765;539095641342809618;651788;520591;551486;172339;
2024-05-16T23:17:07.783;539095641360971032;651910;520636;551873;172359;
2024-05-16T23:17:07.802;539095641379132446;652143;520804;552112;172363;
2024-05-16T23:17:07.820;539095641397293860;652377;521007;552410;172331;
2024-05-16T23:17:07.838;539095641415455274;652736;521344;552763;172333;
2024-05-16T23:17:07.856;539095641433616688;653157;521793;553193;172416;
2024-05-16T23:17:07.874;539095641451778102;653665;522328;553615;172386;
2024-05-16T23:17:07.892;539095641469939516;654111;522955;554266;172384;
2024-05-16T23:17:07.910;539095641488102443;654470;523446;554806;172316;
2024-05-16T23:17:07.929;539095641506265361;654801;523987;555284;172397;
2024-05-16T23:17:07.947;539095641524428279;655303;524521;555759;172369;
2024-05-16T23:17:07.965;539095641542591197;655649;524839;556189;172387;
2024-05-16T23:17:07.983;539095641560754115;655906;525170;556595;172382;
2024-05-16T23:17:08.001;539095641578917033;655981;525335;556771;172394;
2024-05-16T23:17:08.019;539095641597079951;655924;525202;556853;172345;
2024-05-16T23:17:08.038;539095641615242869;655922;525061;556910;172351;
2024-05-16T23:17:08.056;539095641633405787;655767;524897;556960;172322;
2024-05-16T23:17:08.074;539095641651568705;655785;524701;556890;172277;
2024-05-16T23:17:08.092;539095641669731623;655913;524474;556829;172309;
2024-05-16T23:17:08.110;539095641687894541;655837;524028;556547;172308;
2024-05-16T23:17:08.128;539095641706057459;655643;523378;556142;172355;
2024-05-16T23:17:08.147;539095641724220377;655294;522371;555362;172340;
2024-05-16T23:17:08.165;539095641742383295;654833;521239;554436;172356;
2024-05-16T23:17:08.183;539095641760546213;654246;520010;553416;172353;
2024-05-16T23:17:08.201;539095641778709131;653820;518646;552286;172373;
2024-05-16T23:17:08.219;539095641796872049;653496;517251;551080;172361;
2024-05-16T23:17:08.237;539095641815034967;653476;515801;550049;172311;
2024-05-16T23:17:08.256;539095641833197885;653950;514442;549163;172385;
2024-05-16T23:17:08.274;539095641851360803;654622;513509;548422;172365;
2024-05-16T23:17:08.292;539095641869523721;655189;512837;547612;172300;
2024-05-16T23:17:08.310;539095641887686639;655621;512650;546984;172340;
2024-05-16T23:17:08.328;539095641905849557;655955;512928;546645;172376;
2024-05-16T23:17:08.346;539095641924012475;656267;513595;546481;172340;
2024-05-16T23:17:08.365;539095641942175393;656481;514314;546449;172370;
2024-05-16T23:17:08.383;539095641960338311;656835;514995;546629;172343;
2024-05-16T23:17:08.401;539095641978501229;657255;515515;546831;172356;
2024-05-16T23:17:08.419;539095641996664147;657683;515915;547067;172331;
2024-05-16T23:17:08.437;539095642014827065;658146;516384;547307;172390;
2024-05-16T23:17:08.455;539095642032989983;658442;516711;547550;172400;
2024-05-16T23:17:08.474;539095642051152901;658768;517041;547716;172387;
2024-05-16T23:17:08.492;539095642069315819;658970;517309;547973;172374;
2024-05-16T23:17:08.510;539095642087478737;659099;517440;548138;172370;
2024-05-16T23:17:08.528;539095642105641655;658988;517508;548227;172342;
2024-05-16T23:17:08.546;539095642123803628;658859;517553;548246;172366;
2024-05-16T23:17:08.564;539095642141965587;658614;517625;548265;172334;
2024-05-16T23:17:08.583;539095642160127546;658314;517738;548266;172365;
2024-05-16T23:17:08.601;539095642178289505;658028;517721;548144;172369;
2024-05-16T23:17:08.619;539095642196451464;657436;517283;547884;172337;
2024-05-16T23:17:08.637;539095642214613423;656694;516781;547469;172301;
2024-05-16T23:17:08.655;539095642232775382;655842;516280;546892;172317;
2024-05-16T23:17:08.673;539095642250937341;655146;515993;546457;172333;
2024-05-16T23:17:08.691;539095642269099300;654672;515874;546087;172359;
2024-05-16T23:17:08.710;539095642287261259;654129;515779;545866;172386;
2024-05-16T23:17:08.728;539095642305423218;653804;515775;545685;172373;
2024-05-16T23:17:08.746;539095642323585177;653446;515720;545563;172340;
2024-05-16T23:17:08.764;539095642341747136;653263;515684;545476;172326;
2024-05-16T23:17:08.782;539095642359909095;653149;515817;545398;172377;
2024-05-16T23:17:08.800;539095642378071054;653198;515908;545411;172378;
2024-05-16T23:17:08.819;539095642396233013;653200;516093;545445;172309;
2024-05-16T23:17:08.837;539095642414394972;653200;516338;545582;172390;
2024-05-16T23:17:08.855;539095642432556931;653304;516530;545761;172343;
2024-05-16T23:17:08.873;539095642450718890;653311;516675;545914;172357;
2024-05-16T23:17:08.891;539095642468880849;653354;516713;545994;172371;
2024-05-16T23:17:08.909;539095642487042808;653346;516706;546098;172368;
2024-05-16T23:17:08.928;539095642505204767;653316;516630;546103;172433;
2024-05-16T23:17:08.946;539095642523366726;653316;516688;546035;172388;
2024-05-16T23:17:08.964;539095642541528685;653536;516803;546080;172334;
2024-05-16T23:17:08.982;539095642559690644;653812;516934;546240;172324;
2024-05-16T23:17:09.000;539095642577852603;654119;516925;546402;172291;
2024-05-16T23:17:09.018;539095642596014562;654393;516750;546884;172337;
2024-05-16T23:17:09.037;539095642614176521;654352;516495;547359;172346;
2024-05-16T23:17:09.055;539095642632338480;654122;516356;548002;172324;
2024-05-16T23:17:09.073;539095642650500439;653565;516229;548445;172314;
2024-05-16T23:17:09.091;539095642668662398;653017;516260;548630;172287;
2024-05-16T23:17:09.109;539095642686824357;652633;516295;548695;172310;
2024-05-16T23:17:09.127;539095642704986316;652406;516557;548800;172352;
2024-05-16T23:17:09.146;539095642723148275;652373;516851;548832;172373;
2024-05-16T23:17:09.164;539095642741310234;652517;517137;548727;172423;
2024-05-16T23:17:09.182;539095642759471773;652521;517304;548616;172383;
2024-05-16T23:17:09.200;539095642777633296;652330;517455;548562;172293;
2024-05-16T23:17:09.218;539095642795794819;651843;517362;548749;172317;
2024-05-16T23:17:09.236;539095642813956342;651261;517150;548862;172334;
2024-05-16T23:17:09.255;539095642832117865;650586;516811;548979;172240;
2024-05-16T23:17:09.273;539095642850279388;650160;516619;549122;172391;
2024-05-16T23:17:09.291;539095642868440911;649612;516227;549256;172317;
2024-05-16T23:17:09.309;539095642886602434;649121;515773;549416;172334;
2024-05-16T23:17:09.327;539095642904763957;648707;515225;549453;172300;
2024-05-16T23:17:09.345;539095642922925480;648398;514546;549386;172293;
2024-05-16T23:17:09.363;539095642941087003;648177;514081;549277;172341;
2024-05-16T23:17:09.382;539095642959248526;647926;513727;549164;172344;
2024-05-16T23:17:09.400;539095642977410049;647870;513596;548997;172355;
2024-05-16T23:17:09.418;539095642995571572;647892;513524;548849;172345;
2024-05-16T23:17:09.436;539095643013733095;648086;513618;548684;172298;
2024-05-16T23:17:09.454;539095643031894618;648437;513790;548682;172335;
2024-05-16T23:17:09.472;539095643050056141;648676;513711;548534;172324;
2024-05-16T23:17:09.491;539095643068217664;648883;513763;548529;172336;
2024-05-16T23:17:09.509;539095643086379187;649179;513869;548672;172341;
2024-05-16T23:17:09.527;539095643104540710;649371;513925;548788;172297;
2024-05-16T23:17:09.545;539095643122702233;649537;514098;548907;172371;
2024-05-16T23:17:09.563;539095643140863756;649533;514140;548733;172349;
2024-05-16T23:17:09.581;539095643159025279;649477;514083;548577;172352;
2024-05-16T23:17:09.600;539095643177186802;649250;513941;548371;172350;
2024-05-16T23:17:09.618;539095643195348325;649047;513971;548483;172370;
2024-05-16T23:17:09.636;539095643213509848;648901;513909;548725;172351;
2024-05-16T23:17:09.654;539095643231671371;648932;513834;549049;172371;
2024-05-16T23:17:09.672;539095643249832894;648829;513830;549346;172326;
2024-05-16T23:17:09.690;539095643267994417;648914;514001;549824;172329;
2024-05-16T23:17:09.709;539095643286155940;649228;514286;550331;172339;
2024-05-16T23:17:09.727;539095643304317463;649582;514788;550890;172341;
2024-05-16T23:17:09.745;539095643322478986;650149;515442;551539;172374;
2024-05-16T23:17:09.763;539095643340640509;650811;516125;552231;172391;
2024-05-16T23:17:09.781;539095643358802032;651653;516737;552980;172397;
2024-05-16T23:17:09.799;539095643376963555;652491;517417;553885;172368;
2024-05-16T23:17:09.818;539095643395125002;653497;518329;554928;172373;
2024-05-16T23:17:09.836;539095643413286438;654310;519247;555545;172400;
2024-05-16T23:17:09.854;539095643431447874;654828;519881;555629;172357;
2024-05-16T23:17:09.872;539095643449609310;655043;520044;555210;172357;
2024-05-16T23:17:09.890;539095643467770746;655171;520100;554518;172325;
2024-05-16T23:17:09.908;539095643485932182;655123;519909;553637;172367;
2024-05-16T23:17:09.926;539095643504093618;655053;519581;552678;172285;
2024-05-16T23:17:09.945;539095643522255054;654791;519139;551924;172277;
2024-05-16T23:17:09.963;539095643540416490;654476;518725;551391;172336;
2024-05-16T23:17:09.981;539095643558577926;654203;518415;551011;172353;
2024-05-16T23:17:09.999;539095643576739362;653729;517921;550457;172341;
2024-05-16T23:17:10.017;539095643594900798;653137;517401;549836;172344;
2024-05-16T23:17:10.035;539095643613062234;652403;516711;549106;172386;
2024-05-16T23:17:10.054;539095643631223670;651452;515831;548439;172375;
2024-05-16T23:17:10.072;539095643649385106;650423;514943;547799;172369;
2024-05-16T23:17:10.090;539095643667546542;649378;513967;547260;172316;
2024-05-16T23:17:10.108;539095643685707978;648351;513133;546684;172370;
2024-05-16T23:17:10.126;539095643703869414;647339;512306;546063;172353;
2024-05-16T23:17:10.144;539095643722030850;646546;511648;545444;172389;
2024-05-16T23:17:10.163;539095643740192286;645856;511218;544875;172385;
2024-05-16T23:17:10.181;539095643758353722;645368;510827;544310;172453;
2024-05-16T23:17:10.199;539095643776515158;645034;510523;543740;172394;
2024-05-16T23:17:10.217;539095643794676594;644733;510305;543142;172394;
2024-05-16T23:17:10.235;539095643812838030;644558;510106;542731;172416;
2024-05-16T23:17:10.253;539095643830999466;644427;509903;542274;172412;
2024-05-16T23:17:10.272;539095643849160902;644304;509697;541974;172378;
2024-05-16T23:17:10.290;539095643867322338;644115;509506;541800;172418;
2024-05-16T23:17:10.308;539095643885483774;644120;509354;541687;172342;
2024-05-16T23:17:10.326;539095643903645210;643969;509172;541543;172359;
2024-05-16T23:17:10.344;539095643921806646;643692;509073;541393;172329;
2024-05-16T23:17:10.362;539095643939968082;643268;508810;541191;172331;
2024-05-16T23:17:10.381;539095643958129518;642682;508673;540995;172424;
2024-05-16T23:17:10.399;539095643976290954;642119;508411;540761;172349;
2024-05-16T23:17:10.417;539095643994452390;641616;508172;540457;172403;
2024-05-16T23:17:10.435;539095644012613826;641069;507877;540196;172377;
2024-05-16T23:17:10.453;539095644030775768;640486;507479;539849;172362;
2024-05-16T23:17:10.471;539095644048937708;639837;507004;539362;172395;
2024-05-16T23:17:10.489;539095644067099648;638954;506327;538779;172376;
2024-05-16T23:17:10.508;539095644085261588;637906;505521;538115;172375;
2024-05-16T23:17:10.526;539095644103423528;636826;504644;537432;172413;
2024-05-16T23:17:10.544;539095644121585468;635722;503726;536652;172419;
2024-05-16T23:17:10.562;539095644139747408;634584;502871;535865;172372;
2024-05-16T23:17:10.580;539095644157909348;633658;502139;535204;172309;
2024-05-16T23:17:10.598;539095644176071288;632811;501435;534484;172304;
2024-05-16T23:17:10.617;539095644194233228;632056;500864;533861;172334;
2024-05-16T23:17:10.635;539095644212395168;631429;500432;533375;172326;
2024-05-16T23:17:10.653;539095644230557108;630945;500070;533017;172366;
2024-05-16T23:17:10.671;539095644248719048;630576;499864;532709;172359;
2024-05-16T23:17:10.689;539095644266880988;630186;499625;532542;172341;
2024-05-16T23:17:10.707;539095644285042928;629822;499394;532279;172327;
2024-05-16T23:17:10.726;539095644303204868;629419;499176;532083;172324;
2024-05-16T23:17:10.744;539095644321366808;628996;498956;531777;172306;
2024-05-16T23:17:10.762;539095644339528748;628625;498675;531578;172328;
2024-05-16T23:17:10.780;539095644357690688;628272;498390;531371;172367;
2024-05-16T23:17:10.798;539095644375852628;627917;498093;531014;172365;
2024-05-16T23:17:10.816;539095644394014568;627528;497836;530686;172345;
2024-05-16T23:17:10.835;539095644412176508;627337;497765;530505;172349;
2024-05-16T23:17:10.853;539095644430338448;627030;497546;530170;172356;
2024-05-16T23:17:10.871;539095644448500388;626783;497453;529932;172352;
2024-05-16T23:17:10.889;539095644466662328;626613;497242;529733;172311;
2024-05-16T23:17:10.907;539095644484824268;626407;497156;529521;172352;
2024-05-16T23:17:10.925;539095644502986208;626149;497055;529336;172301;
2024-05-16T23:17:10.944;539095644521148148;626097;497084;529215;172344;
2024-05-16T23:17:10.962;539095644539310088;625845;497061;529025;172404;
2024-05-16T23:17:10.980;539095644557472028;625513;496901;528746;172317;
2024-05-16T23:17:10.998;539095644575633968;625037;496552;528218;172354;
2024-05-16T23:17:11.016;539095644593795908;624445;496283;527726;172365;
2024-05-16T23:17:11.034;539095644611957848;623880;496018;527199;172406;
2024-05-16T23:17:11.053;539095644630119788;623277;495868;526714;172339;
2024-05-16T23:17:11.071;539095644648281728;622835;495857;526400;172357;
2024-05-16T23:17:11.089;539095644666443668;622415;495921;526232;172342;
2024-05-16T23:17:11.107;539095644684605752;621943;496007;526039;172366;
2024-05-16T23:17:11.125;539095644702767816;621653;496148;526032;172331;
2024-05-16T23:17:11.143;539095644720929880;621554;496389;526186;172294;
2024-05-16T23:17:11.161;539095644739091944;621418;496576;526224;172342;
2024-05-16T23:17:11.180;539095644757254008;621246;496885;526354;172346;
2024-05-16T23:17:11.198;539095644775416072;621089;496937;526367;172375;
2024-05-16T23:17:11.216;539095644793578136;620850;497040;526270;172316;
2024-05-16T23:17:11.234;539095644811740200;620648;497083;526289;172336;
2024-05-16T23:17:11.252;539095644829902264;620381;496979;526136;172337;
2024-05-16T23:17:11.270;539095644848064328;620160;496924;526146;172369;
2024-05-16T23:17:11.289;539095644866226392;619899;496825;526017;172373;
2024-05-16T23:17:11.307;539095644884388456;619642;496621;525960;172346;
2024-05-16T23:17:11.325;539095644902550520;619303;496383;525885;172367;
2024-05-16T23:17:11.343;539095644920712584;619004;496053;525918;172320;
2024-05-16T23:17:11.361;539095644938874648;618827;495836;525938;172370;
2024-05-16T23:17:11.379;539095644957036712;618494;495693;525836;172370;
2024-05-16T23:17:11.398;539095644975198776;618076;495487;525668;172343;
2024-05-16T23:17:11.416;539095644993360840;617776;495380;525566;172316;
2024-05-16T23:17:11.434;539095645011522904;617586;495218;525519;172383;
2024-05-16T23:17:11.452;539095645029684968;617197;494914;525255;172443;
2024-05-16T23:17:11.470;539095645047847032;616489;494191;524895;172363;
2024-05-16T23:17:11.488;539095645066009096;615531;493388;524220;172343;
2024-05-16T23:17:11.507;539095645084171160;614568;492494;523520;172300;
2024-05-16T23:17:11.525;539095645102333224;613638;491708;522764;172299;
2024-05-16T23:17:11.543;539095645120495288;612905;491170;522011;172337;
2024-05-16T23:17:11.561;539095645138657352;612224;490634;521354;172342;
2024-05-16T23:17:11.579;539095645156819416;611737;490335;520871;172383;
2024-05-16T23:17:11.597;539095645174981480;611265;490138;520480;172333;
2024-05-16T23:17:11.616;539095645193143544;611086;490100;520357;172338;
2024-05-16T23:17:11.634;539095645211305608;610963;490193;520239;172318;
2024-05-16T23:17:11.652;539095645229467672;610839;490273;520112;172311;
2024-05-16T23:17:11.670;539095645247629736;610816;490349;520124;172251;
2024-05-16T23:17:11.688;539095645265791800;610795;490478;520246;172368;
2024-05-16T23:17:11.706;539095645283953864;610713;490568;520307;172271;
2024-05-16T23:17:11.725;539095645302115928;610670;490734;520458;172295;
2024-05-16T23:17:11.743;539095645320277992;610655;490832;520628;172276;
2024-05-16T23:17:11.761;539095645338440056;610658;491027;520677;172337;
2024-05-16T23:17:11.779;539095645356602120;610670;491119;520731;172344;
2024-05-16T23:17:11.797;539095645374764381;610821;491268;520790;172320;
2024-05-16T23:17:11.815;539095645392926627;610909;491459;520918;172272;
2024-05-16T23:17:11.833;539095645411088873;611089;491563;521076;172293;
2024-05-16T23:17:11.852;539095645429251119;611316;491681;521214;172335;
2024-05-16T23:17:11.870;539095645447413365;611404;491664;521325;172275;
2024-05-16T23:17:11.888;539095645465575611;611562;491712;521461;172300;
2024-05-16T23:17:11.906;539095645483737857;611682;491694;521622;172291;
2024-05-16T23:17:11.924;539095645501900103;611750;491563;521781;172266;
2024-05-16T23:17:11.942;539095645520062349;611593;491300;521710;172297;
2024-05-16T23:17:11.961;539095645538224595;611227;490859;521410;172275;
2024-05-16T23:17:11.979;539095645556386841;610697;490318;520946;172323;
2024-05-16T23:17:11.997;539095645574549087;609973;489671;520504;172253;
2024-05-16T23:17:12.015;539095645592711333;609282;488906;519837;172292;
2024-05-16T23:17:12.033;539095645610873579;608656;488341;519420;172328;
2024-05-16T23:17:12.051;539095645629035825;608071;487794;518894;172284;
2024-05-16T23:17:12.070;539095645647198071;607638;487417;518543;172305;
2024-05-16T23:17:12.088;539095645665360317;607332;487083;518268;172340;
2024-05-16T23:17:12.106;539095645683522563;607139;486783;517980;172305;
2024-05-16T23:17:12.124;539095645701684809;606995;486639;517802;172299;
2024-05-16T23:17:12.142;539095645719847055;606901;486606;517666;172342;
2024-05-16T23:17:12.160;539095645738009301;606801;486546;517597;172283;
2024-05-16T23:17:12.179;539095645756171547;606757;486469;517512;172316;
2024-05-16T23:17:12.197;539095645774333793;606740;486424;517515;172320;
2024-05-16T23:17:12.215;539095645792496039;606580;486260;517435;172328;
2024-05-16T23:17:12.233;539095645810658285;606447;485965;517345;172365;
2024-05-16T23:17:12.251;539095645828820531;606274;485609;517176;172336;
2024-05-16T23:17:12.269;539095645846982777;606097;485157;516910;172345;
2024-05-16T23:17:12.288;539095645865145023;605845;484313;516399;172275;
2024-05-16T23:17:12.306;539095645883307269;605392;483057;515541;172268;
2024-05-16T23:17:12.324;539095645901469515;604470;481262;514220;172315;
2024-05-16T23:17:12.342;539095645919631761;602670;479000;512541;172270;
2024-05-16T23:17:12.360;539095645937793474;600580;476705;510536;172322;
2024-05-16T23:17:12.378;539095645955955159;598988;474798;508676;172223;
2024-05-16T23:17:12.397;539095645974116844;597979;473715;507246;172304;
2024-05-16T23:17:12.415;539095645992278529;597206;472921;506177;172274;
2024-05-16T23:17:12.433;539095646010440214;596549;472324;505342;172263;
2024-05-16T23:17:12.451;539095646028601899;595759;471669;504585;172281;
2024-05-16T23:17:12.469;539095646046763584;594965;471093;503979;172217;
2024-05-16T23:17:12.487;539095646064925269;594277;470574;503440;172278;
2024-05-16T23:17:12.505;539095646083086954;593720;470219;503064;172284;
2024-05-16T23:17:12.524;539095646101248639;593258;469837;502667;172226;
2024-05-16T23:17:12.542;539095646119410324;592850;469597;502402;172259;
2024-05-16T23:17:12.560;539095646137572009;592804;469577;502239;172309;
2024-05-16T23:17:12.578;539095646155733694;592761;469606;502101;172357;
2024-05-16T23:17:12.596;539095646173895379;592736;469677;501986;172278;
2024-05-16T23:17:12.614;539095646192057064;592839;469807;501931;172295;
2024-05-16T23:17:12.633;539095646210218749;592970;469921;501928;172311;
2024-05-16T23:17:12.651;539095646228380434;593141;470210;501962;172268;
2024-05-16T23:17:12.669;539095646246542119;593406;470472;502084;172271;
2024-05-16T23:17:12.687;539095646264703804;593585;470671;502152;172284;
2024-05-16T23:17:12.705;539095646282865489;593713;470714;502021;172327;
2024-05-16T23:17:12.723;539095646301027174;593614;470522;501683;172315;
2024-05-16T23:17:12.742;539095646319188859;593186;470135;501210;172338;
2024-05-16T23:17:12.760;539095646337350544;592520;469516;500378;172300;
2024-05-16T23:17:12.778;539095646355512229;591652;468919;499527;172268;
2024-05-16T23:17:12.796;539095646373673914;590819;468218;498702;172277;
2024-05-16T23:17:12.814;539095646391835599;590027;467552;497904;172315;
2024-05-16T23:17:12.832;539095646409997284;589410;466966;497223;172331;
2024-05-16T23:17:12.851;539095646428158969;588840;466498;496628;172259;
2024-05-16T23:17:12.869;539095646446320654;588363;466171;496156;172292;
2024-05-16T23:17:12.887;539095646464482339;587954;465860;495804;172285;
2024-05-16T23:17:12.905;539095646482644024;587641;465587;495517;172314;
2024-05-16T23:17:12.923;539095646500805709;587161;465239;495039;172249;
2024-05-16T23:17:12.941;539095646518967394;586421;464766;494474;172268;
2024-05-16T23:17:12.960;539095646537129079;585544;464053;493826;172267;
2024-05-16T23:17:12.978;539095646555290764;584688;463437;493143;172310;
2024-05-16T23:17:12.996;539095646573452449;583833;462764;492489;172334;
2024-05-16T23:17:13.014;539095646591615046;582979;462220;491846;172309;
2024-05-16T23:17:13.032;539095646609777615;582178;461637;491323;172234;
2024-05-16T23:17:13.050;539095646627940184;581539;461243;490895;172286;
2024-05-16T23:17:13.068;539095646646102753;581135;460966;490542;172335;
2024-05-16T23:17:13.087;539095646664265322;580720;460697;490230;172290;
2024-05-16T23:17:13.105;539095646682427891;580361;460537;490018;172284;
2024-05-16T23:17:13.123;539095646700590460;580148;460457;489809;172302;
2024-05-16T23:17:13.141;539095646718753029;579965;460326;489672;172257;
2024-05-16T23:17:13.159;539095646736915598;579653;460145;489480;172247;
2024-05-16T23:17:13.177;539095646755078167;579418;460040;489329;172319;
2024-05-16T23:17:13.196;539095646773240736;579106;459809;489029;172275;
2024-05-16T23:17:13.214;539095646791403305;578826;459652;488899;172318;
2024-05-16T23:17:13.232;539095646809565874;578457;459411;488587;172319;
2024-05-16T23:17:13.250;539095646827728443;578096;459204;488318;172281;
2024-05-16T23:17:13.268;539095646845891012;577813;459016;488159;172325;
2024-05-16T23:17:13.286;539095646864053581;577543;458879;487920;172288;
2024-05-16T23:17:13.305;539095646882216150;577251;458751;487712;172272;
2024-05-16T23:17:13.323;539095646900378719;577000;458613;487516;172356;
2024-05-16T23:17:13.341;539095646918541288;576729;458453;487346;172293;
2024-05-16T23:17:13.359;539095646936703857;576553;458358;487217;172263;
2024-05-16T23:17:13.377;539095646954866426;576333;458243;487046;172303;
2024-05-16T23:17:13.395;539095646973028995;576137;458126;486993;172324;
2024-05-16T23:17:13.414;539095646991191564;575849;457902;486742;172335;
2024-05-16T23:17:13.432;539095647009354133;575290;457503;486220;172340;
2024-05-16T23:17:13.450;539095647027516702;574563;456995;485724;172309;
2024-05-16T23:17:13.468;539095647045679271;573763;456431;485143;172291;
2024-05-16T23:17:13.486;539095647063841840;572843;455811;484511;172326;
2024-05-16T23:17:13.504;539095647082004409;572067;455282;483968;172310;
2024-05-16T23:17:13.523;539095647100166978;571305;454800;483475;172314;
2024-05-16T23:17:13.541;539095647118329547;570754;454450;483036;172320;
2024-05-16T23:17:13.559;539095647136492116;570290;454141;482712;172285;
2024-05-16T23:17:13.577;539095647154654685;569781;453924;482433;172282;
2024-05-16T23:17:13.595;539095647172817254;569454;453736;482259;172321;
2024-05-16T23:17:13.613;539095647190979823;569166;453636;482034;172328;
2024-05-16T23:17:13.632;539095647209142392;568909;453593;481854;172287;
2024-05-16T23:17:13.650;539095647227305879;568630;453468;481665;172293;
2024-05-16T23:17:13.668;539095647245469344;568292;453300;481456;172269;
2024-05-16T23:17:13.686;539095647263632809;567877;453084;481240;172237;
2024-05-16T23:17:13.704;539095647281796274;567624;452859;480940;172275;
2024-05-16T23:17:13.722;539095647299959739;567257;452664;480670;172302;
2024-05-16T23:17:13.741;539095647318123204;566876;452465;480491;172333;
2024-05-16T23:17:13.759;539095647336286669;566479;452299;480250;172325;
2024-05-16T23:17:13.777;539095647354450134;566143;452100;479998;172291;
2024-05-16T23:17:13.795;539095647372613599;565809;451900;479758;172276;
2024-05-16T23:17:13.813;539095647390777064;565466;451787;479526;172259;
2024-05-16T23:17:13.831;539095647408940529;565201;451661;479308;172307;
2024-05-16T23:17:13.849;539095647427103994;564962;451507;479076;172232;
2024-05-16T23:17:13.868;539095647445267459;564751;451397;479012;172298;
2024-05-16T23:17:13.886;539095647463430924;564598;451301;478854;172257;
2024-05-16T23:17:13.904;539095647481594389;564383;451213;478716;172344;
2024-05-16T23:17:13.922;539095647499757854;564002;450927;478426;172274;
2024-05-16T23:17:13.940;539095647517921319;563538;450620;478088;172297;
2024-05-16T23:17:13.958;539095647536084784;562912;450207;477649;172315;
2024-05-16T23:17:13.977;539095647554248249;562166;449722;477119;172269;
2024-05-16T23:17:13.995;539095647572411714;561464;449333;476645;172268;
2024-05-16T23:17:14.013;539095647590575179;560830;448916;476189;172284;
2024-05-16T23:17:14.031;539095647608738644;560261;448545;475789;172246;
2024-05-16T23:17:14.049;539095647626902109;559788;448251;475489;172215;
2024-05-16T23:17:14.067;539095647645065574;559442;448068;475226;172297;
2024-05-16T23:17:14.086;539095647663229039;559209;447892;475051;172260;
2024-05-16T23:17:14.104;539095647681392504;559007;447778;474941;172257;
2024-05-16T23:17:14.122;539095647699555969;558854;447869;474849;172305;
2024-05-16T23:17:14.140;539095647717719434;558746;447774;474785;172278;
2024-05-16T23:17:14.158;539095647735882899;558675;447783;474618;172280;
2024-05-16T23:17:14.176;539095647754046364;558655;447878;474599;172228;
2024-05-16T23:17:14.195;539095647772209829;558702;447873;474568;172236;
2024-05-16T23:17:14.213;539095647790373294;558870;448112;474670;172191;
2024-05-16T23:17:14.231;539095647808536759;559359;448455;474942;172275;
2024-05-16T23:17:14.249;539095647826700224;560055;449063;475358;172287;
2024-05-16T23:17:14.267;539095647844863689;561080;449778;476019;172299;
2024-05-16T23:17:14.285;539095647863027154;562322;450803;476826;172223;
2024-05-16T23:17:14.304;539095647881189690;564046;452028;477871;172312;
2024-05-16T23:17:14.322;539095647899352208;565816;453262;479081;172317;
2024-05-16T23:17:14.340;539095647917514726;567642;454572;480258;172337;
2024-05-16T23:17:14.358;539095647935677244;569367;455751;481510;172315;
2024-05-16T23:17:14.376;539095647953839762;570911;456815;482684;172338;
2024-05-16T23:17:14.394;539095647972002280;572177;457696;483570;172383;
2024-05-16T23:17:14.413;539095647990164798;573117;458333;484222;172306;
2024-05-16T23:17:14.431;539095648008327316;573648;458791;484618;172256;
2024-05-16T23:17:14.449;539095648026489834;573821;458925;484750;172305;
2024-05-16T23:17:14.467;539095648044652352;573684;458904;484674;172365;
2024-05-16T23:17:14.485;539095648062814870;573257;458670;484313;172295;
2024-05-16T23:17:14.503;539095648080977388;572762;458174;483901;172303;
2024-05-16T23:17:14.522;539095648099139906;572273;457723;483493;172342;
2024-05-16T23:17:14.540;539095648117302424;571807;457323;483147;172343;
2024-05-16T23:17:14.558;539095648135464942;571402;456987;482897;172322;
2024-05-16T23:17:14.576;539095648153627460;571075;456737;482617;172291;
2024-05-16T23:17:14.594;539095648171789978;570868;456615;482460;172284;
2024-05-16T23:17:14.612;539095648189952496;570635;456487;482272;172263;
2024-05-16T23:17:14.631;539095648208115014;570489;456394;482112;172335;
2024-05-16T23:17:14.649;539095648226277532;570290;456268;481986;172290;
2024-05-16T23:17:14.667;539095648244440050;570049;456266;481749;172273;
2024-05-16T23:17:14.685;539095648262602568;569731;456109;481532;172303;
2024-05-16T23:17:14.703;539095648280765086;569426;455963;481232;172288;
2024-05-16T23:17:14.721;539095648298927604;569045;455784;480933;172306;
2024-05-16T23:17:14.739;539095648317090122;568669;455492;480538;172288;
2024-05-16T23:17:14.758;539095648335252640;568322;455378;480279;172344;
2024-05-16T23:17:14.776;539095648353415158;568097;455293;479973;172327;
2024-05-16T23:17:14.794;539095648371577676;568013;455217;479840;172299;
2024-05-16T23:17:14.812;539095648389740194;568104;455377;479827;172275;
2024-05-16T23:17:14.830;539095648407902712;568329;455609;479977;172288;
2024-05-16T23:17:14.848;539095648426065230;568842;456009;480221;172327;
2024-05-16T23:17:14.867;539095648444227748;569557;456671;480735;172338;
2024-05-16T23:17:14.885;539095648462390266;570491;457532;481342;172282;
2024-05-16T23:17:14.903;539095648480552784;571827;458631;482242;172270;
2024-05-16T23:17:14.921;539095648498718089;573842;460058;483555;172284;
2024-05-16T23:17:14.939;539095648516883387;576264;461750;485206;172231;
2024-05-16T23:17:14.957;539095648535048685;578751;463476;487025;172306;
2024-05-16T23:17:14.976;539095648553213983;580944;464991;488723;172290;
2024-05-16T23:17:14.994;539095648571379281;582687;466255;490139;172333;
2024-05-16T23:17:15.012;539095648589544579;584013;467188;491227;172392;
2024-05-16T23:17:15.030;539095648607709877;584975;467923;491999;172306;
2024-05-16T23:17:15.048;539095648625875175;585807;468512;492626;172333;
2024-05-16T23:17:15.066;539095648644040473;586462;468902;493108;172299;
2024-05-16T23:17:15.085;539095648662205771;586898;469126;493389;172323;
2024-05-16T23:17:15.103;539095648680371069;586922;468907;493228;172268;
2024-05-16T23:17:15.121;539095648698536367;586514;468441;492728;172245;
2024-05-16T23:17:15.139;539095648716701665;585722;467754;492141;172304;
2024-05-16T23:17:15.157;539095648734866963;585137;467330;491563;172306;
2024-05-16T23:17:15.175;539095648753032261;584684;466973;491035;172310;
2024-05-16T23:17:15.194;539095648771197559;584346;466816;490795;172297;
2024-05-16T23:17:15.212;539095648789362857;583917;466596;490610;172258;
2024-05-16T23:17:15.230;539095648807528155;583482;466370;490446;172288;
2024-05-16T23:17:15.248;539095648825693453;582975;466094;490372;172286;
2024-05-16T23:17:15.266;539095648843858751;582471;465724;490142;172247;
2024-05-16T23:17:15.284;539095648862024049;581970;465453;489927;172280;
2024-05-16T23:17:15.303;539095648880189347;581452;465170;489767;172254;
2024-05-16T23:17:15.321;539095648898354645;580945;464954;489537;172308;
2024-05-16T23:17:15.339;539095648916519943;580493;464689;489318;172314;
2024-05-16T23:17:15.357;539095648934685241;579884;464442;489101;172286;
2024-05-16T23:17:15.375;539095648952850539;579378;464188;488906;172271;
2024-05-16T23:17:15.393;539095648971015837;578837;463955;488655;172247;
2024-05-16T23:17:15.412;539095648989181135;578342;463658;488307;172299;
2024-05-16T23:17:15.430;539095649007346433;577634;463255;487959;172297;
2024-05-16T23:17:15.448;539095649025511731;576892;462868;487518;172308;
2024-05-16T23:17:15.466;539095649043677029;576077;462254;486930;172310;
2024-05-16T23:17:15.484;539095649061841354;575215;461740;486439;172299;
2024-05-16T23:17:15.502;539095649080005667;574418;461126;485896;172254;
2024-05-16T23:17:15.521;539095649098169980;573569;460639;485434;172225;
2024-05-16T23:17:15.539;539095649116334293;572982;460279;484975;172311;
2024-05-16T23:17:15.557;539095649134498606;572353;459943;484677;172355;
2024-05-16T23:17:15.575;539095649152662919;571834;459652;484351;172309;
2024-05-16T23:17:15.593;539095649170827232;571400;459400;484061;172317;
2024-05-16T23:17:15.611;539095649188991545;571101;459247;483878;172307;
2024-05-16T23:17:15.630;539095649207155858;570758;459056;483603;172269;
2024-05-16T23:17:15.648;539095649225320171;570427;458916;483374;172204;
2024-05-16T23:17:15.666;539095649243484484;570123;458816;483175;172304;
2024-05-16T23:17:15.684;539095649261648797;569821;458567;482974;172278;
2024-05-16T23:17:15.702;539095649279813110;569537;458394;482790;172283;
2024-05-16T23:17:15.720;539095649297977423;569144;458163;482447;172300;
2024-05-16T23:17:15.739;539095649316141736;568793;457910;482061;172269;
2024-05-16T23:17:15.757;539095649334306049;568433;457689;481795;172259;
2024-05-16T23:17:15.775;539095649352470362;568079;457411;481466;172234;
2024-05-16T23:17:15.793;539095649370634675;567695;457305;481196;172242;
2024-05-16T23:17:15.811;539095649388798988;567407;457006;480864;172243;
2024-05-16T23:17:15.829;539095649406963301;567119;456818;480612;172236;
2024-05-16T23:17:15.848;539095649425127614;566814;456636;480424;172190;
2024-05-16T23:17:15.866;539095649443291927;566629;456560;480208;172230;
2024-05-16T23:17:15.884;539095649461456240;566498;456343;480032;172239;
2024-05-16T23:17:15.902;539095649479620553;566328;456212;479835;172270;
2024-05-16T23:17:15.920;539095649497784866;566042;455947;479522;172235;
2024-05-16T23:17:15.938;539095649515949179;565730;455626;479171;172283;
2024-05-16T23:17:15.956;539095649534113492;565333;455274;478828;172317;
2024-05-16T23:17:15.975;539095649552277805;564897;454927;478368;172336;
2024-05-16T23:17:15.993;539095649570442118;564522;454571;478049;172315;
2024-05-16T23:17:16.011;539095649588606431;564234;454388;477881;172274;
2024-05-16T23:17:16.029;539095649606770744;564129;454299;477683;172280;
2024-05-16T23:17:16.047;539095649624935057;564141;454299;477654;172298;
2024-05-16T23:17:16.065;539095649643099370;564260;454351;477696;172256;
2024-05-16T23:17:16.084;539095649661263683;564478;454462;477841;172320;
2024-05-16T23:17:16.102;539095649679427996;564655;454527;478018;172272;
2024-05-16T23:17:16.120;539095649697592309;564751;454594;478084;172306;
2024-05-16T23:17:16.138;539095649715756622;564977;454777;478254;172316;
2024-05-16T23:17:16.156;539095649733920935;565116;454877;478364;172275;
2024-05-16T23:17:16.174;539095649752084642;565180;454918;478407;172235;
2024-05-16T23:17:16.193;539095649770248329;565288;454951;478498;172298;
2024-05-16T23:17:16.211;539095649788412016;565258;454908;478391;172307;
2024-05-16T23:17:16.229;539095649806575703;565144;454855;478309;172245;
2024-05-16T23:17:16.247;539095649824739390;564999;454734;478220;172345;
2024-05-16T23:17:16.265;539095649842903077;564834;454597;477999;172285;
2024-05-16T23:17:16.283;539095649861066764;564778;454523;477951;172306;
2024-05-16T23:17:16.302;539095649879230451;564662;454452;477865;172340;
2024-05-16T23:17:16.320;539095649897394138;564476;454276;477773;172316;
2024-05-16T23:17:16.338;539095649915557825;564291;454139;477573;172254;
2024-05-16T23:17:16.356;539095649933721512;564148;454035;477439;172256;
2024-05-16T23:17:16.374;539095649951885199;564054;453943;477329;172305;
2024-05-16T23:17:16.392;539095649970048886;563789;453849;477191;172326;
2024-05-16T23:17:16.411;539095649988212573;563410;453475;476867;172285;
2024-05-16T23:17:16.429;539095650006376260;562955;453117;476516;172321;
2024-05-16T23:17:16.447;539095650024539947;562411;452755;476132;172329;
2024-05-16T23:17:16.465;539095650042703634;561954;452371;475761;172310;
2024-05-16T23:17:16.483;539095650060867321;561447;452021;475391;172291;
2024-05-16T23:17:16.501;539095650079031008;561039;451746;475081;172285;
2024-05-16T23:17:16.520;539095650097194695;560794;451516;474895;172305;
2024-05-16T23:17:16.538;539095650115358382;560539;451388;474817;172259;
2024-05-16T23:17:16.556;539095650133522069;560434;451386;474739;172281;
2024-05-16T23:17:16.574;539095650151685756;560306;451284;474616;172242;
2024-05-16T23:17:16.592;539095650169849443;560310;451275;474668;172324;
2024-05-16T23:17:16.610;539095650188013130;560316;451270;474597;172304;
2024-05-16T23:17:16.629;539095650206176817;560325;451347;474608;172304;
2024-05-16T23:17:16.647;539095650224340504;560317;451377;474542;172277;
2024-05-16T23:17:16.665;539095650242504191;560299;451326;474565;172258;
2024-05-16T23:17:16.683;539095650260667878;560190;451246;474452;172268;
2024-05-16T23:17:16.701;539095650278831565;560186;451266;474423;172314;
2024-05-16T23:17:16.719;539095650296995252;560093;451232;474343;172290;
2024-05-16T23:17:16.738;539095650315158939;560050;451195;474333;172283;
2024-05-16T23:17:16.756;539095650333322626;559987;451196;474275;172245;
2024-05-16T23:17:16.774;539095650351486313;559952;451100;474134;172267;
2024-05-16T23:17:16.792;539095650369650000;559868;451094;474145;172290;
2024-05-16T23:17:16.810;539095650387813687;559829;451036;474120;172318;
2024-05-16T23:17:16.828;539095650405977374;559868;451083;474142;172239;
2024-05-16T23:17:16.847;539095650424141061;559851;451137;474147;172291;
2024-05-16T23:17:16.865;539095650442304748;559855;451026;474073;172283;
2024-05-16T23:17:16.883;539095650460470405;559578;450856;473903;172298;
2024-05-16T23:17:16.901;539095650478636026;559356;450671;473708;172281;
2024-05-16T23:17:16.919;539095650496801647;558970;450394;473455;172266;
2024-05-16T23:17:16.937;539095650514967268;558540;450114;473165;172270;
2024-05-16T23:17:16.956;539095650533132889;558081;449750;472752;172242;
2024-05-16T23:17:16.974;539095650551298510;557626;449491;472461;172264;
2024-05-16T23:17:16.992;539095650569464131;557310;449165;472144;172272;
2024-05-16T23:17:17.010;539095650587629752;557063;449056;472089;172327;
2024-05-16T23:17:17.028;539095650605795373;556846;448974;471894;172297;
2024-05-16T23:17:17.046;539095650623960994;556793;448934;471898;172327;
2024-05-16T23:17:17.065;539095650642126615;556758;448977;471882;172333;
2024-05-16T23:17:17.083;539095650660292236;556835;448949;471929;172285;
2024-05-16T23:17:17.101;539095650678457857;556958;448989;471927;172280;
2024-05-16T23:17:17.119;539095650696623478;556976;449077;471991;172282;
2024-05-16T23:17:17.137;539095650714789099;557047;449191;472061;172298;
2024-05-16T23:17:17.155;539095650732954720;557059;449155;472065;172318;
2024-05-16T23:17:17.174;539095650751120341;557020;449122;471919;172325;
2024-05-16T23:17:17.192;539095650769285962;556883;449057;471943;172335;
2024-05-16T23:17:17.210;539095650787451583;556864;449069;471917;172351;
2024-05-16T23:17:17.228;539095650805617204;556751;449043;471876;172378;
2024-05-16T23:17:17.246;539095650823782825;556712;448975;471758;172346;
2024-05-16T23:17:17.264;539095650841948446;556657;448980;471634;172363;
2024-05-16T23:17:17.282;539095650860114067;556574;448937;471650;172298;
2024-05-16T23:17:17.301;539095650878279688;556518;448949;471587;172285;
2024-05-16T23:17:17.319;539095650896445309;556552;448957;471631;172323;
2024-05-16T23:17:17.337;539095650914610930;556559;448935;471605;172351;
2024-05-16T23:17:17.355;539095650932776551;556471;448912;471548;172281;
2024-05-16T23:17:17.373;539095650950942172;556331;448842;471382;172263;
2024-05-16T23:17:17.391;539095650969107793;556083;448551;471153;172280;
2024-05-16T23:17:17.410;539095650987273414;555695;448322;470819;172343;
2024-05-16T23:17:17.428;539095651005439035;555249;448018;470521;172348;
2024-05-16T23:17:17.446;539095651023604656;554810;447656;470155;172393;
2024-05-16T23:17:17.464;539095651041770277;554360;447393;469836;172307;
2024-05-16T23:17:17.482;539095651059935898;554029;447108;469654;172327;
2024-05-16T23:17:17.500;539095651078101519;553844;446938;469463;172345;
2024-05-16T23:17:17.519;539095651096267140;553649;446810;469384;172384;
2024-05-16T23:17:17.537;539095651114432761;553593;446838;469333;172348;
2024-05-16T23:17:17.555;539095651132598382;553541;446799;469291;172317;
2024-05-16T23:17:17.573;539095651150764003;553678;446928;469367;172352;
2024-05-16T23:17:17.591;539095651168929624;553719;447037;469416;172325;
2024-05-16T23:17:17.609;539095651187095245;553823;447128;469466;172369;
2024-05-16T23:17:17.628;539095651205260866;553911;447243;469532;172352;
2024-05-16T23:17:17.646;539095651223425203;553897;447223;469522;172325;
2024-05-16T23:17:17.664;539095651241589516;553843;447210;469493;172255;
2024-05-16T23:17:17.682;539095651259753829;553736;447077;469478;172276;
2024-05-16T23:17:17.700;539095651277918142;553674;447020;469415;172277;
2024-05-16T23:17:17.718;539095651296082455;553656;447035;469343;172303;
2024-05-16T23:17:17.737;539095651314246768;553636;446935;469312;172259;
2024-05-16T23:17:17.755;539095651332411081;553504;446938;469278;172286;
2024-05-16T23:17:17.773;539095651350575394;553457;446947;469201;172349;
2024-05-16T23:17:17.791;539095651368739707;553382;446897;469141;172295;
2024-05-16T23:17:17.809;539095651386904020;553385;446954;469141;172306;
2024-05-16T23:17:17.827;539095651405068333;553406;446930;469179;172300;
2024-05-16T23:17:17.846;539095651423232646;553468;446894;469105;172326;
2024-05-16T23:17:17.864;539095651441396959;553286;446779;468992;172253;
2024-05-16T23:17:17.882;539095651459561272;553054;446561;468803;172320;
2024-05-16T23:17:17.900;539095651477725585;552639;446269;468503;172326;
2024-05-16T23:17:17.918;539095651495889898;552163;445959;468146;172290;
2024-05-16T23:17:17.936;539095651514054211;551710;445685;467770;172294;
2024-05-16T23:17:17.955;539095651532218524;551268;445239;467432;172301;
2024-05-16T23:17:17.973;539095651550382837;550953;445028;467200;172303;
2024-05-16T23:17:17.991;539095651568547150;550569;444887;467037;172269;
2024-05-16T23:17:18.009;539095651586711463;550371;444740;466874;172292;
2024-05-16T23:17:18.027;539095651604875776;550244;444670;466871;172258;
2024-05-16T23:17:18.045;539095651623040089;550312;444697;466844;172327;
2024-05-16T23:17:18.064;539095651641204402;550351;444760;466918;172298;
2024-05-16T23:17:18.082;539095651659368715;550444;444811;466900;172333;
2024-05-16T23:17:18.100;539095651677533028;550499;444866;467035;172304;
2024-05-16T23:17:18.118;539095651695697341;550512;444894;467027;172231;
2024-05-16T23:17:18.136;539095651713861654;550519;444904;467015;172245;
2024-05-16T23:17:18.154;539095651732025967;550494;444913;466984;172196;
2024-05-16T23:17:18.173;539095651750190280;550431;444860;466966;172248;
2024-05-16T23:17:18.191;539095651768354593;550450;444854;466986;172284;
2024-05-16T23:17:18.209;539095651786518906;550292;444798;466837;172294;
2024-05-16T23:17:18.227;539095651804683219;550235;444693;466780;172352;
2024-05-16T23:17:18.245;539095651822847532;550175;444684;466755;172314;
2024-05-16T23:17:18.263;539095651841011845;550056;444589;466657;172288;
2024-05-16T23:17:18.282;539095651859176158;550049;444580;466628;172278;
2024-05-16T23:17:18.300;539095651877340471;550083;444615;466626;172302;
2024-05-16T23:17:18.318;539095651895504784;550099;444550;466620;172322;
2024-05-16T23:17:18.336;539095651913669097;550048;444548;466587;172243;
2024-05-16T23:17:18.354;539095651931833410;549846;444402;466426;172254;
2024-05-16T23:17:18.372;539095651949996211;549538;444092;466242;172298;
2024-05-16T23:17:18.391;539095651968158998;549071;443825;465862;172283;
2024-05-16T23:17:18.409;539095651986321785;548598;443441;465495;172301;
2024-05-16T23:17:18.427;539095652004484572;548068;443070;465070;172253;
2024-05-16T23:17:18.445;539095652022647359;547606;442767;464809;172275;
2024-05-16T23:17:18.463;539095652040810146;547245;442465;464555;172271;
2024-05-16T23:17:18.481;539095652058972933;547003;442298;464366;172303;
2024-05-16T23:17:18.500;539095652077135720;546758;442168;464264;172303;
2024-05-16T23:17:18.518;539095652095298507;546662;442110;464223;172260;
2024-05-16T23:17:18.536;539095652113461294;546644;442228;464245;172250;
2024-05-16T23:17:18.554;539095652131624081;546748;442284;464378;172293;
2024-05-16T23:17:18.572;539095652149786868;546871;442353;464414;172255;
2024-05-16T23:17:18.590;539095652167949655;546965;442404;464503;172309;
2024-05-16T23:17:18.608;539095652186112442;547079;442499;464509;172276;
2024-05-16T23:17:18.627;539095652204275229;547168;442602;464640;172327;
2024-05-16T23:17:18.645;539095652222438016;547196;442604;464670;172299;
2024-05-16T23:17:18.663;539095652240600803;547191;442604;464616;172259;
2024-05-16T23:17:18.681;539095652258763590;547181;442527;464683;172297;
2024-05-16T23:17:18.699;539095652276926377;547168;442440;464630;172354;
2024-05-16T23:17:18.717;539095652295089164;546972;442403;464577;172345;
2024-05-16T23:17:18.736;539095652313251951;546985;442328;464556;172303;
2024-05-16T23:17:18.754;539095652331414738;546955;442291;464544;172284;
2024-05-16T23:17:18.772;539095652349577525;546934;442304;464486;172229;
2024-05-16T23:17:18.790;539095652367740312;547023;442348;464546;172272;
2024-05-16T23:17:18.808;539095652385903099;547072;442404;464617;172274;
2024-05-16T23:17:18.826;539095652404065886;547007;442408;464597;172267;
2024-05-16T23:17:18.845;539095652422228673;546909;442306;464514;172283;
2024-05-16T23:17:18.863;539095652440391460;546595;442041;464306;172316;
2024-05-16T23:17:18.881;539095652458554247;546171;441700;463973;172278;
2024-05-16T23:17:18.899;539095652476717034;545561;441256;463523;172207;
2024-05-16T23:17:18.917;539095652494879821;545067;440886;463157;172237;
2024-05-16T23:17:18.935;539095652513042608;544569;440546;462791;172299;
2024-05-16T23:17:18.954;539095652531205395;544187;440251;462623;172278;
2024-05-16T23:17:18.972;539095652549368182;543935;440086;462421;172292;
2024-05-16T23:17:18.990;539095652567530969;543728;440010;462342;172311;
2024-05-16T23:17:19.008;539095652585694324;543680;439949;462286;172306;
2024-05-16T23:17:19.026;539095652603857659;543790;440063;462430;172280;
2024-05-16T23:17:19.044;539095652622020994;543873;440182;462463;172340;
2024-05-16T23:17:19.063;539095652640184329;544099;440277;462592;172357;
2024-05-16T23:17:19.081;539095652658347664;544172;440354;462705;172336;
2024-05-16T23:17:19.099;539095652676510999;544304;440483;462795;172342;
2024-05-16T23:17:19.117;539095652694674334;544411;440473;462874;172355;
2024-05-16T23:17:19.135;539095652712837669;544423;440524;462830;172298;
2024-05-16T23:17:19.153;539095652731001004;544454;440509;462800;172332;
2024-05-16T23:17:19.172;539095652749164339;544261;440346;462762;172267;
2024-05-16T23:17:19.190;539095652767327674;544338;440340;462745;172241;
2024-05-16T23:17:19.208;539095652785491009;544345;440345;462741;172271;
2024-05-16T23:17:19.226;539095652803654344;544290;440375;462762;172303;
2024-05-16T23:17:19.244;539095652821817679;544257;440327;462779;172333;
2024-05-16T23:17:19.262;539095652839981014;544261;440353;462807;172310;
2024-05-16T23:17:19.281;539095652858144349;544367;440436;462890;172293;
2024-05-16T23:17:19.299;539095652876307684;544409;440487;462910;172276;
2024-05-16T23:17:19.317;539095652894471019;544434;440490;462902;172283;
2024-05-16T23:17:19.335;539095652912634354;544339;440430;462856;172303;
2024-05-16T23:17:19.353;539095652930797689;544047;440082;462561;172289;
2024-05-16T23:17:19.371;539095652948961024;543543;439691;462225;172288;
2024-05-16T23:17:19.390;539095652967124359;543009;439281;461881;172292;
2024-05-16T23:17:19.408;539095652985287694;542443;438907;461465;172314;
2024-05-16T23:17:19.426;539095653003451029;541932;438504;461097;172277;
2024-05-16T23:17:19.444;539095653021614364;541491;438247;460897;172249;
2024-05-16T23:17:19.462;539095653039777699;541206;438080;460773;172308;
2024-05-16T23:17:19.480;539095653057941034;541106;438011;460710;172315;
2024-05-16T23:17:19.498;539095653076104369;541086;437974;460711;172317;
2024-05-16T23:17:19.517;539095653094267704;541158;438059;460820;172287;
2024-05-16T23:17:19.535;539095653112431039;541299;438183;460917;172305;
2024-05-16T23:17:19.553;539095653130594374;541447;438219;460984;172297;
2024-05-16T23:17:19.571;539095653148757709;541601;438348;461114;172308;
2024-05-16T23:17:19.589;539095653166921044;541742;438399;461154;172278;
2024-05-16T23:17:19.607;539095653185084379;541773;438513;461288;172314;
2024-05-16T23:17:19.626;539095653203247714;541830;438497;461285;172346;
2024-05-16T23:17:19.644;539095653221411049;541785;438456;461292;172318;
2024-05-16T23:17:19.662;539095653239574384;541806;438455;461287;172366;
2024-05-16T23:17:19.680;539095653257737719;541690;438501;461228;172344;
2024-05-16T23:17:19.698;539095653275901054;541742;438429;461233;172317;
2024-05-16T23:17:19.716;539095653294063678;541715;438372;461197;172327;
2024-05-16T23:17:19.735;539095653312226296;541710;438473;461243;172353;
2024-05-16T23:17:19.753;539095653330388914;541822;438480;461271;172346;
2024-05-16T23:17:19.771;539095653348551532;541917;438501;461339;172317;
2024-05-16T23:17:19.789;539095653366714150;541979;438645;461421;172345;
2024-05-16T23:17:19.807;539095653384876768;542071;438682;461435;172316;
2024-05-16T23:17:19.825;539095653403039386;542053;438619;461422;172321;
2024-05-16T23:17:19.844;539095653421202004;541779;438415;461202;172317;
2024-05-16T23:17:19.862;539095653439364622;541400;437992;460952;172310;
2024-05-16T23:17:19.880;539095653457527240;540884;437626;460605;172348;
2024-05-16T23:17:19.898;539095653475689858;540297;437255;460248;172322;
2024-05-16T23:17:19.916;539095653493852476;539800;436920;459906;172315;
2024-05-16T23:17:19.934;539095653512015094;539362;436597;459572;172256;
2024-05-16T23:17:19.953;539095653530177712;539073;436349;459400;172301;
2024-05-16T23:17:19.971;539095653548340330;538861;436248;459367;172269;
2024-05-16T23:17:19.989;539095653566502948;538897;436319;459390;172289;
2024-05-16T23:17:20.007;539095653584665566;538920;436333;459428;172281;
2024-05-16T23:17:20.025;539095653602828184;539066;436416;459552;172294;
2024-05-16T23:17:20.043;539095653620990802;539288;436583;459650;172311;
2024-05-16T23:17:20.062;539095653639153420;539392;436664;459742;172310;
2024-05-16T23:17:20.080;539095653657316038;539517;436743;459853;172310;
2024-05-16T23:17:20.098;539095653675478656;539585;436786;459886;172269;
2024-05-16T23:17:20.116;539095653693641274;539597;436840;459933;172267;
2024-05-16T23:17:20.134;539095653711803892;539638;436839;459997;172350;
2024-05-16T23:17:20.152;539095653729966510;539620;436805;459875;172312;
2024-05-16T23:17:20.171;539095653748129128;539592;436757;459914;172305;
2024-05-16T23:17:20.189;539095653766291746;539571;436820;459924;172317;
2024-05-16T23:17:20.207;539095653784454364;539612;436810;459906;172327;
2024-05-16T23:17:20.225;539095653802616982;539637;436755;459922;172333;
2024-05-16T23:17:20.243;539095653820779600;539621;436748;459898;172286;
2024-05-16T23:17:20.261;539095653838942218;539650;436791;459899;172268;
2024-05-16T23:17:20.279;539095653857104836;539712;436885;459973;172289;
2024-05-16T23:17:20.298;539095653875267454;539802;436905;460034;172251;
2024-05-16T23:17:20.316;539095653893430072;539849;436928;460017;172260;
2024-05-16T23:17:20.334;539095653911592690;539715;436744;459933;172271;
2024-05-16T23:17:20.352;539095653929755308;539425;436523;459789;172266;
2024-05-16T23:17:20.370;539095653947918081;539032;436242;459461;172249;
2024-05-16T23:17:20.388;539095653966080829;538538;435865;459109;172284;
2024-05-16T23:17:20.407;539095653984243577;538129;435524;458806;172328;
2024-05-16T23:17:20.425;539095654002406325;537583;435211;458529;172277;
2024-05-16T23:17:20.443;539095654020569073;537283;434950;458274;172226;
2024-05-16T23:17:20.461;539095654038731821;536997;434831;458098;172225;
2024-05-16T23:17:20.479;539095654056894569;536898;434793;458063;172285;
2024-05-16T23:17:20.497;539095654075057317;537005;434848;458261;172315;
2024-05-16T23:17:20.516;539095654093220065;537097;434904;458326;172248;
2024-05-16T23:17:20.534;539095654111382813;537184;435022;458374;172267;
2024-05-16T23:17:20.552;539095654129545561;537454;435149;458453;172254;
2024-05-16T23:17:20.570;539095654147708309;537543;435253;458493;172213;
2024-05-16T23:17:20.588;539095654165871057;537705;435313;458574;172298;
2024-05-16T23:17:20.606;539095654184033805;537708;435340;458669;172267;
2024-05-16T23:17:20.625;539095654202196553;537722;435340;458653;172309;
2024-05-16T23:17:20.643;539095654220359301;537805;435409;458737;172293;
2024-05-16T23:17:20.661;539095654238522049;537802;435380;458698;172284;
2024-05-16T23:17:20.679;539095654256684797;537831;435337;458657;172294;
2024-05-16T23:17:20.697;539095654274847545;537768;435329;458637;172259;
2024-05-16T23:17:20.715;539095654293010293;537758;435367;458721;172255;
2024-05-16T23:17:20.734;539095654311173041;537797;435344;458745;172208;
2024-05-16T23:17:20.752;539095654329335789;537896;435406;458805;172248;
2024-05-16T23:17:20.770;539095654347498537;537997;435509;458882;172314;
2024-05-16T23:17:20.788;539095654365661285;538113;435571;458978;172322;
2024-05-16T23:17:20.806;539095654383824033;538239;435661;459037;172304;
2024-05-16T23:17:20.824;539095654401986781;538222;435620;458954;172306;
2024-05-16T23:17:20.843;539095654420149529;538040;435436;458811;172273;
2024-05-16T23:17:20.861;539095654438312277;537710;435206;458603;172277;
2024-05-16T23:17:20.879;539095654456475025;537343;434962;458335;172303;
2024-05-16T23:17:20.897;539095654474637773;536915;434596;458001;172295;
2024-05-16T23:17:20.915;539095654492800521;536542;434269;457769;172267;
2024-05-16T23:17:20.933;539095654510963269;536198;434050;457549;172274;
2024-05-16T23:17:20.952;539095654529126017;536022;433878;457477;172302;
2024-05-16T23:17:20.970;539095654547288765;535899;433783;457368;172281;
2024-05-16T23:17:20.988;539095654565451513;535895;433780;457407;172269;
2024-05-16T23:17:21.006;539095654583614261;536019;433936;457516;172312;
2024-05-16T23:17:21.024;539095654601777009;536201;434074;457662;172344;
2024-05-16T23:17:21.042;539095654619939757;536399;434129;457786;172321;
2024-05-16T23:17:21.060;539095654638102505;536550;434311;457872;172297;
2024-05-16T23:17:21.079;539095654656265704;536712;434432;458013;172272;
2024-05-16T23:17:21.097;539095654674428891;536795;434485;458078;172254;
2024-05-16T23:17:21.115;539095654692592078;536903;434611;458126;172277;
2024-05-16T23:17:21.133;539095654710755265;536922;434587;458158;172255;
2024-05-16T23:17:21.151;539095654728918452;536877;434509;458104;172253;
2024-05-16T23:17:21.169;539095654747081639;536896;434484;458115;172263;
2024-05-16T23:17:21.188;539095654765244826;536931;434496;458150;172283;
2024-05-16T23:17:21.206;539095654783408013;537019;434549;458184;172242;
2024-05-16T23:17:21.224;539095654801571200;537094;434644;458264;172232;
2024-05-16T23:17:21.242;539095654819734387;537248;434696;458354;172310;
2024-05-16T23:17:21.260;539095654837897574;537357;434799;458402;172306;
2024-05-16T23:17:21.278;539095654856060761;537505;434871;458568;172314;
2024-05-16T23:17:21.297;539095654874223948;537610;435025;458644;172293;
2024-05-16T23:17:21.315;539095654892387135;537715;435120;458734;172293;
2024-05-16T23:17:21.333;539095654910550322;537674;434934;458634;172314;
2024-05-16T23:17:21.351;539095654928713509;537390;434702;458454;172315;
2024-05-16T23:17:21.369;539095654946876696;537065;434413;458174;172284;
2024-05-16T23:17:21.387;539095654965039883;536622;434091;457909;172317;
2024-05-16T23:17:21.406;539095654983203070;536279;433826;457653;172349;
2024-05-16T23:17:21.424;539095655001366257;535940;433640;457472;172336;
2024-05-16T23:17:21.442;539095655019529444;535851;433486;457332;172311;
2024-05-16T23:17:21.460;539095655037692631;535780;433484;457338;172247;
2024-05-16T23:17:21.478;539095655055855818;535805;433539;457403;172282;
2024-05-16T23:17:21.496;539095655074019005;535943;433626;457494;172225;
2024-05-16T23:17:21.515;539095655092182192;536147;433798;457643;172299;
2024-05-16T23:17:21.533;539095655110345379;536356;434019;457825;172294;
2024-05-16T23:17:21.551;539095655128508566;536552;434109;457951;172320;
2024-05-16T23:17:21.569;539095655146671753;536803;434246;458073;172318;
2024-05-16T23:17:21.587;539095655164834940;537018;434378;458189;172269;
2024-05-16T23:17:21.605;539095655182998127;537123;434483;458292;172357;
2024-05-16T23:17:21.624;539095655201161314;537132;434521;458323;172297;
2024-05-16T23:17:21.642;539095655219324501;537285;434554;458393;172339;
2024-05-16T23:17:21.660;539095655237487688;537434;434696;458464;172357;
2024-05-16T23:17:21.678;539095655255650875;537513;434670;458559;172339;
2024-05-16T23:17:21.696;539095655273814062;537612;434744;458652;172338;
2024-05-16T23:17:21.714;539095655291977249;537729;434850;458708;172337;
2024-05-16T23:17:21.733;539095655310140436;537884;434921;458846;172340;
2024-05-16T23:17:21.751;539095655328303623;538049;435059;458998;172323;
2024-05-16T23:17:21.769;539095655346466810;538287;435214;459096;172350;
2024-05-16T23:17:21.787;539095655364629997;538444;435336;459240;172321;
2024-05-16T23:17:21.805;539095655382793184;538582;435464;459360;172372;
2024-05-16T23:17:21.823;539095655400956371;538545;435470;459266;172359;
2024-05-16T23:17:21.842;539095655419118700;538373;435202;459129;172358;
2024-05-16T23:17:21.860;539095655437281015;538072;434871;458878;172365;
2024-05-16T23:17:21.878;539095655455443330;537673;434627;458625;172309;
2024-05-16T23:17:21.896;539095655473605645;537289;434257;458375;172305;
2024-05-16T23:17:21.914;539095655491767960;537029;434046;458141;172322;
2024-05-16T23:17:21.932;539095655509930275;536799;433906;458022;172299;
2024-05-16T23:17:21.950;539095655528092590;536788;433861;457961;172299;
2024-05-16T23:17:21.969;539095655546254905;536748;433912;458010;172292;
2024-05-16T23:17:21.987;539095655564417220;536850;433984;458099;172273;
2024-05-16T23:17:22.005;539095655582579535;537050;434177;458220;172280;
2024-05-16T23:17:22.023;539095655600741850;537220;434284;458395;172291;
2024-05-16T23:17:22.041;539095655618904165;537456;434411;458509;172280;
2024-05-16T23:17:22.059;539095655637066480;537626;434544;458720;172287;
2024-05-16T23:17:22.078;539095655655228795;537822;434758;458807;172318;
2024-05-16T23:17:22.096;539095655673391110;537983;434741;458891;172301;
2024-05-16T23:17:22.114;539095655691553425;538033;434903;458958;172286;
2024-05-16T23:17:22.132;539095655709715740;538121;434959;459024;172291;
2024-05-16T23:17:22.150;539095655727878055;538231;434966;459087;172339;
2024-05-16T23:17:22.168;539095655746040370;538316;434977;459077;172323;
2024-05-16T23:17:22.187;539095655764202685;538467;435072;459235;172333;
2024-05-16T23:17:22.205;539095655782365000;538575;435186;459246;172306;
2024-05-16T23:17:22.223;539095655800527315;538780;435329;459422;172333;
2024-05-16T23:17:22.241;539095655818689630;538871;435431;459476;172340;
2024-05-16T23:17:22.259;539095655836851945;539089;435552;459586;172325;
2024-05-16T23:17:22.277;539095655855014260;539215;435664;459781;172286;
2024-05-16T23:17:22.296;539095655873176575;539487;435852;459920;172314;
2024-05-16T23:17:22.314;539095655891338890;539606;435908;459949;172269;
2024-05-16T23:17:22.332;539095655909501205;539563;435832;459877;172318;
2024-05-16T23:17:22.350;539095655927663520;539388;435667;459772;172281;
2024-05-16T23:17:22.368;539095655945825835;539104;435509;459557;172308;
2024-05-16T23:17:22.386;539095655963988150;538763;435150;459317;172305;
2024-05-16T23:17:22.405;539095655982150465;538463;434889;459109;172352;
2024-05-16T23:17:22.423;539095656000312780;538123;434707;458917;172311;
2024-05-16T23:17:22.441;539095656018475095;538024;434604;458831;172278;
2024-05-16T23:17:22.459;539095656036637410;537993;434567;458893;172314;
2024-05-16T23:17:22.477;539095656054799725;538004;434629;458914;172331;
2024-05-16T23:17:22.495;539095656072962040;538122;434680;458950;172282;
2024-05-16T23:17:22.514;539095656091124355;538314;434837;459117;172310;
2024-05-16T23:17:22.532;539095656109286670;538543;434996;459212;172294;
2024-05-16T23:17:22.550;539095656127448985;538740;435120;459395;172318;
2024-05-16T23:17:22.568;539095656145611300;538944;435289;459512;172391;
2024-05-16T23:17:22.586;539095656163773615;539093;435424;459607;172341;
2024-05-16T23:17:22.604;539095656181934908;539219;435461;459638;172328;
2024-05-16T23:17:22.622;539095656200096169;539303;435495;459702;172305;
2024-05-16T23:17:22.641;539095656218257430;539435;435595;459776;172409;
2024-05-16T23:17:22.659;539095656236418691;539514;435700;459792;172357;
2024-05-16T23:17:22.677;539095656254579952;539606;435737;459889;172339;
2024-05-16T23:17:22.695;539095656272741213;539806;435793;459980;172350;
2024-05-16T23:17:22.713;539095656290902474;539948;435921;460102;172283;
2024-05-16T23:17:22.731;539095656309063735;540063;436019;460248;172308;
2024-05-16T23:17:22.750;539095656327224996;540225;436110;460310;172309;
2024-05-16T23:17:22.768;539095656345386257;540445;436222;460441;172264;
2024-05-16T23:17:22.786;539095656363547518;540690;436426;460629;172301;
2024-05-16T23:17:22.804;539095656381708779;540834;436579;460689;172331;
2024-05-16T23:17:22.822;539095656399870040;540993;436718;460801;172301;
2024-05-16T23:17:22.840;539095656418031301;541096;436727;460800;172340;
2024-05-16T23:17:22.859;539095656436192562;540926;436479;460670;172305;
2024-05-16T23:17:22.877;539095656454353823;540707;436346;460525;172340;
2024-05-16T23:17:22.895;539095656472515084;540463;436062;460302;172318;
2024-05-16T23:17:22.913;539095656490676345;540162;435886;460126;172320;
2024-05-16T23:17:22.931;539095656508837606;539948;435693;459998;172363;
2024-05-16T23:17:22.949;539095656526998867;539762;435588;459830;172335;
2024-05-16T23:17:22.968;539095656545160128;539721;435539;459830;172350;
2024-05-16T23:17:22.986;539095656563321389;539712;435566;459915;172300;
2024-05-16T23:17:23.004;539095656581482650;539829;435703;460043;172363;
2024-05-16T23:17:23.022;539095656599643911;540002;435776;460103;172308;
2024-05-16T23:17:23.040;539095656617805172;540189;435922;460196;172260;
2024-05-16T23:17:23.058;539095656635966433;540352;436086;460293;172283;
2024-05-16T23:17:23.077;539095656654127694;540632;436208;460453;172265;
2024-05-16T23:17:23.095;539095656672288955;540750;436314;460571;172257;
2024-05-16T23:17:23.113;539095656690450216;540844;436379;460659;172291;
2024-05-16T23:17:23.131;539095656708611477;541047;436534;460762;172343;
2024-05-16T23:17:23.149;539095656726772738;541146;436559;460748;172315;
2024-05-16T23:17:23.167;539095656744933999;541269;436646;460887;172333;
2024-05-16T23:17:23.185;539095656763095260;541271;436699;460923;172318;
2024-05-16T23:17:23.204;539095656781256521;541420;436783;461007;172350;
2024-05-16T23:17:23.222;539095656799417782;541564;436831;461045;172335;
2024-05-16T23:17:23.240;539095656817579043;541738;436950;461234;172335;
2024-05-16T23:17:23.258;539095656835740304;541862;437050;461257;172354;
2024-05-16T23:17:23.276;539095656853901565;542095;437213;461395;172309;
2024-05-16T23:17:23.294;539095656872062826;542149;437298;461430;172263;
2024-05-16T23:17:23.313;539095656890224087;542363;437468;461611;172315;
2024-05-16T23:17:23.331;539095656908385348;542441;437524;461742;172333;
2024-05-16T23:17:23.349;539095656926546609;542563;437620;461779;172282;
2024-05-16T23:17:23.367;539095656944709969;542550;437508;461718;172306;
2024-05-16T23:17:23.385;539095656962873301;542382;437363;461578;172340;
2024-05-16T23:17:23.403;539095656981036633;542150;437114;461338;172325;
2024-05-16T23:17:23.422;539095656999199965;541769;436807;461097;172257;
2024-05-16T23:17:23.440;539095657017363297;541543;436643;460909;172298;
2024-05-16T23:17:23.458;539095657035526629;541318;436461;460704;172295;
2024-05-16T23:17:23.476;539095657053689961;541233;436465;460664;172335;
2024-05-16T23:17:23.494;539095657071853293;541098;436390;460627;172333;
2024-05-16T23:17:23.512;539095657090016625;541145;436410;460619;172315;
2024-05-16T23:17:23.531;539095657108179957;541281;436561;460795;172342;
2024-05-16T23:17:23.549;539095657126343289;541419;436694;460894;172336;
2024-05-16T23:17:23.567;539095657144506621;541644;436840;461004;172340;
2024-05-16T23:17:23.585;539095657162669953;541773;436887;461002;172295;
2024-05-16T23:17:23.603;539095657180833285;541896;437021;461144;172328;
2024-05-16T23:17:23.621;539095657198996617;542014;437065;461243;172349;
2024-05-16T23:17:23.640;539095657217159949;542089;437053;461225;172283;
2024-05-16T23:17:23.658;539095657235323281;542132;437095;461287;172310;
2024-05-16T23:17:23.676;539095657253486613;542174;437152;461305;172274;
2024-05-16T23:17:23.694;539095657271649945;542315;437185;461347;172263;
2024-05-16T23:17:23.712;539095657289813277;542340;437221;461361;172320;
2024-05-16T23:17:23.730;539095657307976609;542407;437258;461389;172274;
2024-05-16T23:17:23.749;539095657326139941;542519;437376;461458;172326;
2024-05-16T23:17:23.767;539095657344303273;542676;437503;461552;172311;
2024-05-16T23:17:23.785;539095657362466605;542767;437558;461632;172295;
2024-05-16T23:17:23.803;539095657380629937;542965;437659;461712;172276;
2024-05-16T23:17:23.821;539095657398793269;543119;437794;461901;172307;
2024-05-16T23:17:23.839;539095657416956601;543257;438000;462043;172306;
2024-05-16T23:17:23.858;539095657435119933;543347;437917;461995;172270;
2024-05-16T23:17:23.876;539095657453283265;543278;437843;461942;172287;
2024-05-16T23:17:23.894;539095657471446597;543163;437694;461760;172268;
2024-05-16T23:17:23.912;539095657489609929;542972;437548;461595;172331;
2024-05-16T23:17:23.930;539095657507773261;542684;437281;461339;172312;
2024-05-16T23:17:23.948;539095657525936593;542482;437149;461213;172327;
2024-05-16T23:17:23.966;539095657544099925;542290;437027;461079;172317;
2024-05-16T23:17:23.985;539095657562263257;542138;436937;461041;172316;
2024-05-16T23:17:24.003;539095657580426589;542148;436924;460981;172287;
2024-05-16T23:17:24.021;539095657598589921;542221;437029;461056;172312;
2024-05-16T23:17:24.039;539095657616753253;542300;437114;461197;172257;
2024-05-16T23:17:24.057;539095657634916585;542534;437256;461314;172365;
2024-05-16T23:17:24.075;539095657653079917;542738;437400;461466;172263;
2024-05-16T23:17:24.094;539095657671243249;542933;437500;461587;172318;
2024-05-16T23:17:24.112;539095657689406581;543119;437608;461650;172307;
2024-05-16T23:17:24.130;539095657707568644;543151;437664;461647;172297;
2024-05-16T23:17:24.148;539095657725730705;543309;437750;461751;172327;
2024-05-16T23:17:24.166;539095657743892766;543376;437804;461781;172376;
2024-05-16T23:17:24.184;539095657762054827;543488;437850;461926;172348;
2024-05-16T23:17:24.203;539095657780216888;543589;437888;461964;172311;
2024-05-16T23:17:24.221;539095657798378949;543696;438049;462094;172344;
2024-05-16T23:17:24.239;539095657816541010;543824;438145;462167;172283;
2024-05-16T23:17:24.257;539095657834703071;543960;438239;462282;172300;
2024-05-16T23:17:24.275;539095657852865132;544137;438313;462399;172281;
2024-05-16T23:17:24.293;539095657871027193;544304;438463;462473;172276;
2024-05-16T23:17:24.312;539095657889189254;544486;438547;462611;172324;
2024-05-16T23:17:24.330;539095657907351315;544743;438809;462798;172324;
2024-05-16T23:17:24.348;539095657925513376;544985;438918;462981;172327;
2024-05-16T23:17:24.366;539095657943675437;545142;438998;463059;172332;
2024-05-16T23:17:24.384;539095657961837498;545146;438943;463062;172269;
2024-05-16T23:17:24.402;539095657979999559;545073;438820;462914;172331;
2024-05-16T23:17:24.421;539095657998161620;544922;438688;462741;172362;
2024-05-16T23:17:24.439;539095658016323681;544680;438444;462500;172308;
2024-05-16T23:17:24.457;539095658034485742;544502;438302;462374;172318;
2024-05-16T23:17:24.475;539095658052647803;544260;438124;462207;172314;
2024-05-16T23:17:24.493;539095658070809864;544177;438079;462145;172361;
2024-05-16T23:17:24.511;539095658088971925;544121;438042;462146;172333;
2024-05-16T23:17:24.530;539095658107133986;544174;438128;462158;172298;
2024-05-16T23:17:24.548;539095658125296047;544303;438268;462285;172301;
2024-05-16T23:17:24.566;539095658143458108;544501;438323;462447;172312;
2024-05-16T23:17:24.584;539095658161620169;544729;438511;462527;172309;
2024-05-16T23:17:24.602;539095658179782230;544940;438662;462703;172280;
2024-05-16T23:17:24.620;539095658197944291;545083;438730;462806;172335;
2024-05-16T23:17:24.638;539095658216106352;545196;438841;462852;172273;
2024-05-16T23:17:24.657;539095658234268413;545276;438885;462893;172291;
2024-05-16T23:17:24.675;539095658252430474;545414;438943;462991;172315;
2024-05-16T23:17:24.693;539095658270592535;545498;439023;463018;172304;
2024-05-16T23:17:24.711;539095658288754596;545624;439090;463087;172319;
2024-05-16T23:17:24.729;539095658306916657;545789;439206;463234;172327;
2024-05-16T23:17:24.747;539095658325078718;545927;439291;463267;172303;
2024-05-16T23:17:24.766;539095658343240779;546106;439456;463447;172282;
2024-05-16T23:17:24.784;539095658361402840;546291;439633;463600;172316;
2024-05-16T23:17:24.802;539095658379564901;546495;439727;463719;172256;
2024-05-16T23:17:24.820;539095658397726962;546712;439883;463900;172357;
2024-05-16T23:17:24.838;539095658415889023;546901;440032;463999;172366;
2024-05-16T23:17:24.856;539095658434051084;547257;440207;464166;172356;
2024-05-16T23:17:24.875;539095658452213145;547421;440350;464314;172339;
2024-05-16T23:17:24.893;539095658470378048;547557;440389;464377;172340;
2024-05-16T23:17:24.911;539095658488542943;547498;440374;464345;172294;
2024-05-16T23:17:24.929;539095658506707838;547420;440173;464145;172294;
2024-05-16T23:17:24.947;539095658524872733;547232;439993;463992;172305;
2024-05-16T23:17:24.965;539095658543037628;547058;439775;463815;172323;
2024-05-16T23:17:24.984;539095658561202523;546887;439660;463663;172318;
2024-05-16T23:17:25.002;539095658579367418;546714;439530;463610;172325;
2024-05-16T23:17:25.020;539095658597532313;546608;439467;463543;172271;
2024-05-16T23:17:25.038;539095658615697208;546631;439537;463575;172286;
2024-05-16T23:17:25.056;539095658633862103;546740;439609;463614;172289;
2024-05-16T23:17:25.074;539095658652026998;546796;439650;463626;172270;
2024-05-16T23:17:25.093;539095658670191893;546968;439823;463850;172265;
2024-05-16T23:17:25.111;539095658688356788;547128;439927;463927;172273;
2024-05-16T23:17:25.129;539095658706521683;547352;440052;464052;172339;
2024-05-16T23:17:25.147;539095658724686578;547475;440148;464123;172281;
2024-05-16T23:17:25.165;539095658742851473;547609;440290;464250;172346;
2024-05-16T23:17:25.183;539095658761016368;547794;440299;464325;172257;
2024-05-16T23:17:25.202;539095658779181263;547902;440439;464401;172284;
2024-05-16T23:17:25.220;539095658797346158;548065;440530;464511;172325;
2024-05-16T23:17:25.238;539095658815511053;548225;440562;464595;172300;
2024-05-16T23:17:25.256;539095658833675948;548207;440642;464680;172281;
2024-05-16T23:17:25.274;539095658851840843;548345;440770;464726;172353;
2024-05-16T23:17:25.292;539095658870005738;548518;440906;464867;172322;
2024-05-16T23:17:25.311;539095658888170633;548735;440944;464977;172297;
2024-05-16T23:17:25.329;539095658906335528;548887;441129;465107;172257;
2024-05-16T23:17:25.347;539095658924500423;549081;441206;465195;172268;
2024-05-16T23:17:25.365;539095658942665318;549233;441363;465288;172297;
2024-05-16T23:17:25.383;539095658960830213;549379;441540;465371;172274;
2024-05-16T23:17:25.401;539095658978995108;549646;441659;465508;172249;
2024-05-16T23:17:25.420;539095658997160003;549778;441761;465697;172305;
2024-05-16T23:17:25.438;539095659015324898;549782;441703;465692;172312;
2024-05-16T23:17:25.456;539095659033489793;549682;441608;465621;172266;
2024-05-16T23:17:25.474;539095659051654688;549442;441400;465355;172292;
2024-05-16T23:17:25.492;539095659069819583;549279;441231;465201;172316;
2024-05-16T23:17:25.510;539095659087984478;549112;441012;464996;172323;
2024-05-16T23:17:25.529;539095659106149373;548889;440883;464834;172282;
2024-05-16T23:17:25.547;539095659124314268;548800;440815;464787;172274;
2024-05-16T23:17:25.565;539095659142479163;548722;440715;464749;172255;
2024-05-16T23:17:25.583;539095659160644058;548821;440749;464805;172292;
2024-05-16T23:17:25.601;539095659178808953;548905;440900;464813;172270;
2024-05-16T23:17:25.619;539095659196973848;549015;440991;464976;172247;
2024-05-16T23:17:25.638;539095659215138743;549194;441107;465130;172235;
2024-05-16T23:17:25.656;539095659233300154;549345;441223;465224;172258;
2024-05-16T23:17:25.674;539095659251461561;549432;441423;465287;172276;
2024-05-16T23:17:25.692;539095659269622968;549561;441486;465358;172326;
2024-05-16T23:17:25.710;539095659287784375;549765;441544;465447;172337;
2024-05-16T23:17:25.728;539095659305945782;549864;441625;465504;172299;
2024-05-16T23:17:25.746;539095659324107189;550016;441723;465613;172316;
2024-05-16T23:17:25.765;539095659342268596;550063;441785;465699;172249;
2024-05-16T23:17:25.783;539095659360430003;550165;441864;465741;172322;
2024-05-16T23:17:25.801;539095659378591410;550301;441976;465826;172302;
2024-05-16T23:17:25.819;539095659396752817;550404;442032;465937;172253;
2024-05-16T23:17:25.837;539095659414914224;550536;442135;466077;172306;
2024-05-16T23:17:25.855;539095659433075631;550682;442222;466150;172317;
2024-05-16T23:17:25.874;539095659451237038;550907;442401;466227;172316;
2024-05-16T23:17:25.892;539095659469398445;551084;442525;466382;172303;
2024-05-16T23:17:25.910;539095659487559852;551264;442706;466562;172340;
2024-05-16T23:17:25.928;539095659505721259;551397;442829;466565;172263;
2024-05-16T23:17:25.946;539095659523882666;551651;442965;466701;172274;
2024-05-16T23:17:25.964;539095659542044073;551773;443032;466823;172249;
2024-05-16T23:17:25.983;539095659560205480;551845;443086;466870;172282;
2024-05-16T23:17:26.001;539095659578366887;551782;443014;466843;172288;
2024-05-16T23:17:26.019;539095659596528294;551603;442844;466647;172276;
2024-05-16T23:17:26.037;539095659614689701;551421;442591;466480;172242;
2024-05-16T23:17:26.055;539095659632851108;551216;442490;466262;172304;
2024-05-16T23:17:26.073;539095659651012515;551071;442377;466199;172235;
2024-05-16T23:17:26.092;539095659669173922;550972;442312;466148;172338;
2024-05-16T23:17:26.110;539095659687335329;550921;442193;466052;172256;
2024-05-16T23:17:26.128;539095659705496736;550972;442266;466138;172315;
2024-05-16T23:17:26.146;539095659723658143;551004;442320;466126;172270;
2024-05-16T23:17:26.164;539095659741819550;551103;442451;466303;172267;
2024-05-16T23:17:26.182;539095659759980957;551336;442602;466410;172309;
2024-05-16T23:17:26.201;539095659778142364;551475;442683;466498;172294;
2024-05-16T23:17:26.219;539095659796303771;551609;442785;466602;172311;
2024-05-16T23:17:26.237;539095659814465178;551756;442897;466683;172291;
2024-05-16T23:17:26.255;539095659832626585;551876;442962;466724;172298;
2024-05-16T23:17:26.273;539095659850787992;551944;442972;466784;172273;
2024-05-16T23:17:26.291;539095659868949399;552030;443028;466866;172263;
2024-05-16T23:17:26.309;539095659887110806;552156;443115;466929;172246;
2024-05-16T23:17:26.328;539095659905272213;552285;443160;466979;172256;
2024-05-16T23:17:26.346;539095659923433620;552362;443279;467121;172314;
2024-05-16T23:17:26.364;539095659941595027;552464;443373;467171;172269;
2024-05-16T23:17:26.382;539095659959756434;552588;443469;467241;172324;
2024-05-16T23:17:26.400;539095659977917841;552713;443621;467359;172284;
2024-05-16T23:17:26.418;539095659996079904;552930;443751;467478;172336;
2024-05-16T23:17:26.437;539095660014241965;553049;443848;467575;172266;
2024-05-16T23:17:26.455;539095660032404026;553257;443994;467730;172319;
2024-05-16T23:17:26.473;539095660050566087;553416;444139;467871;172317;
2024-05-16T23:17:26.491;539095660068728148;553607;444237;467951;172307;
2024-05-16T23:17:26.509;539095660086890209;553740;444353;468061;172243;
2024-05-16T23:17:26.527;539095660105052270;553832;444393;468103;172312;
2024-05-16T23:17:26.546;539095660123214331;553845;444384;468106;172278;
2024-05-16T23:17:26.564;539095660141376392;553727;444235;467912;172257;
2024-05-16T23:17:26.582;539095660159538453;553535;444025;467789;172323;
2024-05-16T23:17:26.600;539095660177700514;553236;443902;467602;172281;
2024-05-16T23:17:26.618;539095660195862575;553167;443720;467464;172350;
2024-05-16T23:17:26.636;539095660214024636;552961;443631;467376;172318;
2024-05-16T23:17:26.655;539095660232186697;552905;443539;467263;172322;
2024-05-16T23:17:26.673;539095660250348758;552817;443552;467320;172301;
2024-05-16T23:17:26.691;539095660268510819;552878;443586;467359;172254;
2024-05-16T23:17:26.709;539095660286672880;552925;443651;467425;172264;
2024-05-16T23:17:26.727;539095660304834941;553027;443774;467456;172267;
2024-05-16T23:17:26.745;539095660322997002;553237;443960;467567;172292;
2024-05-16T23:17:26.764;539095660341159063;553329;444000;467689;172300;
2024-05-16T23:17:26.782;539095660359321124;553406;444019;467722;172242;
2024-05-16T23:17:26.800;539095660377483185;553601;444173;467831;172228;
2024-05-16T23:17:26.818;539095660395645246;553659;444222;467834;172306;
2024-05-16T23:17:26.836;539095660413807307;553659;444263;467870;172252;
2024-05-16T23:17:26.854;539095660431969368;553776;444285;467990;172298;
2024-05-16T23:17:26.873;539095660450131429;553829;444288;468014;172253;
2024-05-16T23:17:26.891;539095660468293490;553940;444362;468030;172308;
2024-05-16T23:17:26.909;539095660486455551;553927;444453;468045;172254;
2024-05-16T23:17:26.927;539095660504617612;554038;444526;468153;172265;
2024-05-16T23:17:26.945;539095660522779673;554130;444557;468249;172216;
2024-05-16T23:17:26.963;539095660540941734;554165;444603;468249;172233;
2024-05-16T23:17:26.981;539095660559103795;554336;444725;468333;172293;
2024-05-16T23:17:27.000;539095660577265856;554520;444856;468465;172280;
2024-05-16T23:17:27.018;539095660595427917;554622;444965;468453;172277;
2024-05-16T23:17:27.036;539095660613589978;554707;445082;468612;172295;
2024-05-16T23:17:27.054;539095660631752039;554758;445084;468607;172280;
2024-05-16T23:17:27.072;539095660649914100;554653;445019;468564;172283;
2024-05-16T23:17:27.090;539095660668076161;554483;444802;468447;172285;
2024-05-16T23:17:27.109;539095660686238222;554242;444640;468248;172301;
2024-05-16T23:17:27.127;539095660704400283;554012;444450;468044;172278;
2024-05-16T23:17:27.145;539095660722562344;553738;444195;467854;172214;
2024-05-16T23:17:27.163;539095660740724405;553595;444077;467697;172298;
2024-05-16T23:17:27.181;539095660758887004;553366;443998;467628;172256;
2024-05-16T23:17:27.199;539095660777049573;553236;443915;467552;172178;
2024-05-16T23:17:27.218;539095660795212142;553236;443960;467508;172191;
2024-05-16T23:17:27.236;539095660813374711;553266;443947;467522;172247;
2024-05-16T23:17:27.254;539095660831537280;553365;444063;467657;172259;
2024-05-16T23:17:27.272;539095660849699849;553416;444107;467683;172207;
2024-05-16T23:17:27.290;539095660867862418;553510;444121;467723;172239;
2024-05-16T23:17:27.308;539095660886024987;553589;444245;467763;172305;
2024-05-16T23:17:27.327;539095660904187556;553553;444322;467875;172278;
2024-05-16T23:17:27.345;539095660922350125;553622;444363;467846;172297;
2024-05-16T23:17:27.363;539095660940512694;553657;444366;467874;172276;
2024-05-16T23:17:27.381;539095660958675263;553636;444313;467896;172276;
2024-05-16T23:17:27.399;539095660976837832;553665;444321;467875;172257;
2024-05-16T23:17:27.417;539095660995000401;553620;444337;467907;172280;
2024-05-16T23:17:27.436;539095661013162970;553636;444364;467932;172312;
2024-05-16T23:17:27.454;539095661031325539;553718;444433;467970;172284;
2024-05-16T23:17:27.472;539095661049488108;553756;444483;467933;172263;
2024-05-16T23:17:27.490;539095661067650677;553907;444543;468014;172294;
2024-05-16T23:17:27.508;539095661085813246;553972;444594;468058;172288;
2024-05-16T23:17:27.526;539095661103975815;554031;444687;468107;172282;
2024-05-16T23:17:27.545;539095661122138384;554180;444765;468283;172243;
2024-05-16T23:17:27.563;539095661140300953;554232;444766;468367;172288;
2024-05-16T23:17:27.581;539095661158463522;554252;444844;468390;172346;
2024-05-16T23:17:27.599;539095661176626091;554118;444699;468192;172278;
2024-05-16T23:17:27.617;539095661194788660;553890;444530;468030;172257;
2024-05-16T23:17:27.635;539095661212951229;553613;444361;467788;172286;
2024-05-16T23:17:27.653;539095661231113798;553347;444213;467664;172301;
2024-05-16T23:17:27.672;539095661249276367;553111;443943;467537;172345;
2024-05-16T23:17:27.690;539095661267438936;552996;443836;467396;172339;
2024-05-16T23:17:27.708;539095661285601505;552861;443756;467336;172303;
2024-05-16T23:17:27.726;539095661303764074;552790;443807;467280;172287;
2024-05-16T23:17:27.744;539095661321926643;552861;443873;467321;172263;
2024-05-16T23:17:27.762;539095661340089212;552925;443943;467427;172239;
2024-05-16T23:17:27.781;539095661358251781;553002;444051;467486;172284;
2024-05-16T23:17:27.799;539095661376414350;553140;444156;467626;172271;
2024-05-16T23:17:27.817;539095661394576919;553297;444268;467705;172267;
2024-05-16T23:17:27.835;539095661412739488;553341;444307;467760;172254;
2024-05-16T23:17:27.853;539095661430902057;553495;444430;467912;172311;
2024-05-16T23:17:27.871;539095661449064626;553583;444439;467902;172295;
2024-05-16T23:17:27.890;539095661467227195;553705;444518;467991;172309;
2024-05-16T23:17:27.908;539095661485389764;553668;444599;468053;172331;
2024-05-16T23:17:27.926;539095661503552333;553761;444629;468014;172295;
2024-05-16T23:17:27.944;539095661521716075;553807;444668;468089;172294;
2024-05-16T23:17:27.962;539095661539879807;553790;444697;468086;172336;
2024-05-16T23:17:27.980;539095661558043539;553888;444756;468130;172306;
2024-05-16T23:17:27.999;539095661576207271;553869;444813;468143;172252;
2024-05-16T23:17:28.017;539095661594371003;553985;444846;468274;172284;
2024-05-16T23:17:28.035;539095661612534735;554134;445025;468360;172282;
2024-05-16T23:17:28.053;539095661630698467;554273;445117;468465;172290;
2024-05-16T23:17:28.071;539095661648862199;554348;445118;468435;172316;
2024-05-16T23:17:28.089;539095661667025931;554347;445120;468396;172274;
2024-05-16T23:17:28.108;539095661685189663;554196;444999;468309;172263;
2024-05-16T23:17:28.126;539095661703353395;553893;444755;468078;172228;
2024-05-16T23:17:28.144;539095661721517127;553630;444623;467860;172319;
2024-05-16T23:17:28.162;539095661739680859;553339;444352;467645;172333;
2024-05-16T23:17:28.180;539095661757844591;552965;444091;467413;172367;
2024-05-16T23:17:28.198;539095661776008323;552676;443925;467266;172350;
2024-05-16T23:17:28.217;539095661794172055;552487;443766;467103;172260;
2024-05-16T23:17:28.235;539095661812335787;552299;443711;467052;172299;
2024-05-16T23:17:28.253;539095661830499519;552266;443705;467078;172278;
2024-05-16T23:17:28.271;539095661848663251;552331;443795;467141;172274;
2024-05-16T23:17:28.289;539095661866826983;552328;443847;467178;172286;
2024-05-16T23:17:28.307;539095661884990715;552537;443913;467260;172290;
2024-05-16T23:17:28.326;539095661903154447;552677;444044;467333;172388;
2024-05-16T23:17:28.344;539095661921318179;552652;444098;467385;172328;
2024-05-16T23:17:28.362;539095661939481911;552663;444114;467317;172265;
2024-05-16T23:17:28.380;539095661957645643;552747;444128;467403;172288;
2024-05-16T23:17:28.398;539095661975809375;552691;444117;467364;172260;
2024-05-16T23:17:28.416;539095661993973107;552743;444123;467378;172267;
2024-05-16T23:17:28.435;539095662012136839;552746;444151;467365;172249;
2024-05-16T23:17:28.453;539095662030300571;552723;444174;467377;172270;
2024-05-16T23:17:28.471;539095662048464303;552860;444256;467485;172303;
2024-05-16T23:17:28.489;539095662066628035;552846;444262;467542;172309;
2024-05-16T23:17:28.507;539095662084791767;552874;444297;467589;172301;
2024-05-16T23:17:28.525;539095662102955499;552932;444353;467591;172348;
2024-05-16T23:17:28.544;539095662121119231;553089;444427;467626;172305;
2024-05-16T23:17:28.562;539095662139282963;553140;444547;467713;172303;
2024-05-16T23:17:28.580;539095662157446695;553205;444572;467740;172250;
2024-05-16T23:17:28.598;539095662175610427;553185;444514;467709;172287;
2024-05-16T23:17:28.616;539095662193774159;552979;444367;467632;172266;
2024-05-16T23:17:28.634;539095662211937891;552591;444116;467400;172290;
2024-05-16T23:17:28.652;539095662230101623;552219;443802;467103;172255;
2024-05-16T23:17:28.671;539095662248265355;551754;443512;466827;172265;
2024-05-16T23:17:28.689;539095662266429087;551325;443182;466433;172268;
2024-05-16T23:17:28.707;539095662284592352;550903;442914;466145;172277;
2024-05-16T23:17:28.725;539095662302755609;550610;442763;465971;172264;
2024-05-16T23:17:28.743;539095662320918866;550409;442693;465882;172264;
2024-05-16T23:17:28.761;539095662339082123;550407;442695;465893;172299;
2024-05-16T23:17:28.780;539095662357245380;550375;442674;465956;172281;
2024-05-16T23:17:28.798;539095662375408637;550463;442672;465944;172326;
2024-05-16T23:17:28.816;539095662393571894;550546;442849;466074;172292;
2024-05-16T23:17:28.834;539095662411735151;550563;442848;466106;172295;
2024-05-16T23:17:28.852;539095662429898408;550628;442926;466153;172281;
2024-05-16T23:17:28.870;539095662448061665;550698;442960;466193;172349;
2024-05-16T23:17:28.889;539095662466224922;550763;443011;466254;172332;
2024-05-16T23:17:28.907;539095662484388179;550730;443083;466196;172369;
2024-05-16T23:17:28.925;539095662502551436;550666;442935;466159;172348;
2024-05-16T23:17:28.943;539095662520714693;550555;442944;466117;172323;
2024-05-16T23:17:28.961;539095662538877950;550531;442868;466056;172310;
2024-05-16T23:17:28.979;539095662557041207;550509;442979;466054;172238;
2024-05-16T23:17:28.998;539095662575204464;550560;443033;466105;172272;
2024-05-16T23:17:29.016;539095662593367721;550608;443027;466136;172319;
2024-05-16T23:17:29.034;539095662611530978;550595;443101;466190;172275;
2024-05-16T23:17:29.052;539095662629694235;550615;443111;466186;172299;
2024-05-16T23:17:29.070;539095662647857492;550787;443275;466243;172323;
2024-05-16T23:17:29.088;539095662666020749;550859;443335;466321;172314;
2024-05-16T23:17:29.107;539095662684184006;550923;443310;466352;172292;
2024-05-16T23:17:29.125;539095662702347263;550770;443177;466235;172241;
2024-05-16T23:17:29.143;539095662720510520;550439;442896;465971;172256;
2024-05-16T23:17:29.161;539095662738673777;549986;442633;465682;172272;
2024-05-16T23:17:29.179;539095662756837034;549507;442311;465320;172282;
2024-05-16T23:17:29.197;539095662775000291;548948;442024;464973;172283;
2024-05-16T23:17:29.216;539095662793163548;548495;441689;464708;172287;
2024-05-16T23:17:29.234;539095662811326805;548134;441453;464509;172289;
2024-05-16T23:17:29.252;539095662829490062;547832;441299;464321;172304;
2024-05-16T23:17:29.270;539095662847653319;547632;441223;464164;172300;
2024-05-16T23:17:29.288;539095662865816576;547633;441234;464197;172318;
2024-05-16T23:17:29.306;539095662883979833;547680;441307;464238;172276;
2024-05-16T23:17:29.325;539095662902143090;547709;441400;464261;172358;
2024-05-16T23:17:29.343;539095662920306347;547813;441498;464391;172306;
2024-05-16T23:17:29.361;539095662938469604;547920;441571;464432;172362;
2024-05-16T23:17:29.379;539095662956632861;547879;441530;464459;172268;
2024-05-16T23:17:29.397;539095662974796118;547923;441595;464538;172315;
2024-05-16T23:17:29.415;539095662992958977;547844;441584;464514;172298;
2024-05-16T23:17:29.434;539095663011121803;547808;441484;464479;172285;
2024-05-16T23:17:29.452;539095663029284629;547736;441572;464413;172319;
2024-05-16T23:17:29.470;539095663047447455;547670;441498;464297;172302;
2024-05-16T23:17:29.488;539095663065610281;547629;441482;464324;172263;
2024-05-16T23:17:29.506;539095663083773107;547543;441404;464251;172260;
2024-05-16T23:17:29.524;539095663101935933;547566;441456;464329;172273;
2024-05-16T23:17:29.542;539095663120098759;547533;441467;464284;172299;
2024-05-16T23:17:29.561;539095663138261585;547501;441555;464322;172276;
2024-05-16T23:17:29.579;539095663156424411;547480;441524;464242;172242;
2024-05-16T23:17:29.597;539095663174587237;547580;441624;464362;172234;
2024-05-16T23:17:29.615;539095663192750063;547659;441637;464437;172255;
2024-05-16T23:17:29.633;539095663210912889;547639;441671;464424;172286;
2024-05-16T23:17:29.651;539095663229075715;547490;441638;464331;172304;
2024-05-16T23:17:29.670;539095663247238541;547133;441387;464069;172358;
2024-05-16T23:17:29.688;539095663265401367;546592;440975;463686;172321;
2024-05-16T23:17:29.706;539095663283564193;546087;440576;463316;172309;
2024-05-16T23:17:29.724;539095663301727019;545493;440297;463030;172273;
2024-05-16T23:17:29.742;539095663319889845;545050;439950;462728;172294;
2024-05-16T23:17:29.760;539095663338052671;544586;439683;462431;172232;
2024-05-16T23:17:29.779;539095663356215497;544340;439641;462289;172306;
2024-05-16T23:17:29.797;539095663374378323;544236;439538;462183;172277;
2024-05-16T23:17:29.815;539095663392541149;544107;439469;462160;172205;
2024-05-16T23:17:29.833;539095663410703975;544171;439495;462228;172241;
2024-05-16T23:17:29.851;539095663428866801;544262;439612;462277;172250;
2024-05-16T23:17:29.869;539095663447029627;544368;439662;462289;172229;
2024-05-16T23:17:29.888;539095663465192453;544436;439749;462374;172272;
2024-05-16T23:17:29.906;539095663483355279;544483;439777;462415;172240;
2024-05-16T23:17:29.924;539095663501518105;544524;439789;462416;172337;
2024-05-16T23:17:29.942;539095663519680931;544421;439776;462365;172307;
2024-05-16T23:17:29.960;539095663537843757;544318;439720;462363;172268;
2024-05-16T23:17:29.978;539095663556006583;544274;439671;462266;172271;
2024-05-16T23:17:29.997;539095663574169409;544205;439625;462269;172316;
2024-05-16T23:17:30.015;539095663592332235;544050;439537;462192;172307;
2024-05-16T23:17:30.033;539095663610495061;543974;439584;462209;172320;
2024-05-16T23:17:30.051;539095663628657887;543907;439515;462062;172257;
2024-05-16T23:17:30.069;539095663646820713;543913;439553;462091;172309;
2024-05-16T23:17:30.087;539095663664983539;543914;439589;462186;172277;
2024-05-16T23:17:30.106;539095663683146365;543874;439545;462101;172273;
2024-05-16T23:17:30.124;539095663701308476;543959;439664;462244;172301;
2024-05-16T23:17:30.142;539095663719470562;544024;439691;462241;172271;
2024-05-16T23:17:30.160;539095663737632648;543907;439607;462103;172286;
2024-05-16T23:17:30.178;539095663755794734;543624;439481;461955;172333;
2024-05-16T23:17:30.196;539095663773956820;543050;439106;461635;172283;
2024-05-16T23:17:30.215;539095663792118906;542553;438732;461273;172305;
2024-05-16T23:17:30.233;539095663810280992;542056;438332;460963;172283;
2024-05-16T23:17:30.251;539095663828443078;541448;438019;460623;172232;
2024-05-16T23:17:30.269;539095663846605164;541034;437759;460310;172252;
2024-05-16T23:17:30.287;539095663864767250;540803;437613;460141;172321;
2024-05-16T23:17:30.305;539095663882929336;540564;437485;459998;172270;
2024-05-16T23:17:30.323;539095663901091422;540546;437516;459994;172293;
2024-05-16T23:17:30.342;539095663919253508;540518;437496;460035;172288;
2024-05-16T23:17:30.360;539095663937415594;540575;437588;460139;172269;
2024-05-16T23:17:30.378;539095663955577680;540730;437755;460211;172233;
2024-05-16T23:17:30.396;539095663973739766;540862;437868;460290;172271;
2024-05-16T23:17:30.414;539095663991901852;541000;438008;460388;172310;
2024-05-16T23:17:30.432;539095664010063938;541035;437989;460443;172295;
2024-05-16T23:17:30.451;539095664028226024;540974;437977;460431;172319;
2024-05-16T23:17:30.469;539095664046388110;540941;437943;460356;172288;
2024-05-16T23:17:30.487;539095664064550196;540849;437909;460357;172328;
2024-05-16T23:17:30.505;539095664082712282;540803;437953;460315;172322;
2024-05-16T23:17:30.523;539095664100874368;540792;437823;460272;172246;
2024-05-16T23:17:30.541;539095664119036454;540723;437789;460265;172297;
2024-05-16T23:17:30.560;539095664137198540;540661;437818;460250;172285;
2024-05-16T23:17:30.578;539095664155360626;540679;437878;460260;172301;
2024-05-16T23:17:30.596;539095664173522712;540727;437907;460274;172265;
2024-05-16T23:17:30.614;539095664191684798;540730;437954;460315;172258;
2024-05-16T23:17:30.632;539095664209846884;540851;438021;460414;172290;
2024-05-16T23:17:30.650;539095664228008970;540893;438067;460486;172304;
2024-05-16T23:17:30.669;539095664246171056;540771;437994;460316;172307;
2024-05-16T23:17:30.687;539095664264333142;540457;437819;460192;172258;
2024-05-16T23:17:30.705;539095664282495228;540048;437534;459858;172290;
2024-05-16T23:17:30.723;539095664300657314;539493;437092;459522;172243;
2024-05-16T23:17:30.741;539095664318819400;538928;436671;459225;172246;
