Phone timestamp;sensor timestamp [ns];channel 0;channel 1;channel 2;ambient
2024-05-16T23:21:29.345;539095902903417436;627277;495113;532793;172358;
2024-05-16T23:21:29.363;539095902921575035;626203;494176;531678;172375;
2024-05-16T23:21:29.381;539095902939732634;625250;493348;530698;172357;
2024-05-16T23:21:29.399;539095902957890233;624335;492582;529780;172384;
2024-05-16T23:21:29.417;539095902976047832;623591;491970;529091;172421;
2024-05-16T23:21:29.435;539095902994205431;623062;491522;528576;172323;
2024-05-16T23:21:29.453;539095903012363030;622675;491367;528307;172387;
2024-05-16T23:21:29.472;539095903030520629;622396;491405;528167;172317;
2024-05-16T23:21:29.490;539095903048678228;622307;491588;528382;172294;
2024-05-16T23:21:29.508;539095903066835827;622504;491974;528812;172281;
2024-05-16T23:21:29.526;539095903084993426;623038;492784;529703;172312;
2024-05-16T23:21:29.544;539095903103151025;624220;494064;531215;172320;
2024-05-16T23:21:29.562;539095903121308624;626029;495690;533215;172314;
2024-05-16T23:21:29.581;539095903139466223;627777;497173;535083;172305;
2024-05-16T23:21:29.599;539095903157623822;629311;498460;536772;172334;
2024-05-16T23:21:29.617;539095903175781421;630620;499646;538376;172318;
2024-05-16T23:21:29.635;539095903193939020;631834;500942;540127;172352;
2024-05-16T23:21:29.653;539095903212096619;632860;502179;541798;172393;
2024-05-16T23:21:29.671;539095903230254218;633464;503437;542974;172409;
2024-05-16T23:21:29.689;539095903248411817;633686;504240;543774;172373;
2024-05-16T23:21:29.708;539095903266569416;633766;504818;544308;172367;
2024-05-16T23:21:29.726;539095903284727015;633688;505268;544797;172336;
2024-05-16T23:21:29.744;539095903302884614;633699;505641;545202;172309;
2024-05-16T23:21:29.762;539095903321042213;633740;505972;545571;172371;
2024-05-16T23:21:29.780;539095903339199812;633928;506476;545918;172331;
2024-05-16T23:21:29.798;539095903357357411;634220;507007;546281;172392;
2024-05-16T23:21:29.817;539095903375515010;634641;507622;546618;172359;
2024-05-16T23:21:29.835;539095903393672609;635161;508312;547019;172348;
2024-05-16T23:21:29.853;539095903411830208;635856;509163;547521;172370;
2024-05-16T23:21:29.871;539095903429987807;636531;509847;547981;172375;
2024-05-16T23:21:29.889;539095903448145406;637220;510583;548512;172375;
2024-05-16T23:21:29.907;539095903466303005;637867;511210;548971;172357;
2024-05-16T23:21:29.926;539095903484460604;638482;511757;549509;172344;
2024-05-16T23:21:29.944;539095903502618203;639099;512286;550099;172416;
2024-05-16T23:21:29.962;539095903520775802;639607;512682;550337;172352;
2024-05-16T23:21:29.980;539095903538933420;639897;512953;550516;172390;
2024-05-16T23:21:29.998;539095903557091019;639831;512602;550173;172372;
2024-05-16T23:21:30.016;539095903575248618;639595;511881;549339;172348;
2024-05-16T23:21:30.034;539095903593406217;638951;510803;548106;172331;
2024-05-16T23:21:30.053;539095903611563816;638215;509258;546707;172369;
2024-05-16T23:21:30.071;539095903629721415;637185;507209;545018;172395;
2024-05-16T23:21:30.089;539095903647879014;635940;505026;543316;172378;
2024-05-16T23:21:30.107;539095903666036613;634359;503083;541894;172414;
2024-05-16T23:21:30.125;539095903684194212;632917;501451;540598;172382;
2024-05-16T23:21:30.143;539095903702351811;631778;500226;539451;172389;
2024-05-16T23:21:30.162;539095903720509410;631096;499541;538681;172416;
2024-05-16T23:21:30.180;539095903738667009;630729;499233;538215;172377;
2024-05-16T23:21:30.198;539095903756824608;630486;499084;537936;172345;
2024-05-16T23:21:30.216;539095903774982207;630440;499090;537944;172362;
2024-05-16T23:21:30.234;539095903793139806;630254;498987;537707;172321;
2024-05-16T23:21:30.252;539095903811297405;630088;498692;537334;172332;
2024-05-16T23:21:30.271;539095903829455004;629756;498412;536980;172350;
2024-05-16T23:21:30.289;539095903847612603;629353;497962;536419;172344;
2024-05-16T23:21:30.307;539095903865770202;628972;497622;535951;172363;
2024-05-16T23:21:30.325;539095903883927801;628563;497458;535604;172319;
2024-05-16T23:21:30.343;539095903902085400;628197;497310;535381;172365;
2024-05-16T23:21:30.361;539095903920242999;627596;496888;534835;172390;
2024-05-16T23:21:30.379;539095903938400598;626993;496418;534363;172399;
2024-05-16T23:21:30.398;539095903956558197;626395;495949;533870;172419;
2024-05-16T23:21:30.416;539095903974715796;625830;495505;533485;172361;
2024-05-16T23:21:30.434;539095903992870742;625329;495077;533090;172353;
2024-05-16T23:21:30.452;539095904011025682;624962;494730;532658;172363;
2024-05-16T23:21:30.470;539095904029180622;624508;494378;532137;172373;
2024-05-16T23:21:30.488;539095904047335562;624164;494091;531691;172383;
2024-05-16T23:21:30.507;539095904065490502;623987;493823;531357;172382;
2024-05-16T23:21:30.525;539095904083645442;623699;493506;530989;172356;
2024-05-16T23:21:30.543;539095904101800382;623544;493313;530599;172369;
2024-05-16T23:21:30.561;539095904119955322;623402;493140;530305;172341;
2024-05-16T23:21:30.579;539095904138110262;623362;493064;530155;172371;
2024-05-16T23:21:30.597;539095904156265202;623538;493367;530341;172394;
2024-05-16T23:21:30.616;539095904174420142;624188;493986;530953;172370;
2024-05-16T23:21:30.634;539095904192575082;624859;494554;531752;172345;
2024-05-16T23:21:30.652;539095904210730022;625457;495057;532452;172370;
2024-05-16T23:21:30.670;539095904228884962;626050;495589;533349;172277;
2024-05-16T23:21:30.688;539095904247039902;626800;496319;534310;172377;
2024-05-16T23:21:30.706;539095904265194842;627226;496764;535067;172328;
2024-05-16T23:21:30.724;539095904283349782;627601;497088;535498;172385;
2024-05-16T23:21:30.743;539095904301504722;627884;497569;536018;172374;
2024-05-16T23:21:30.761;539095904319659662;628295;497965;536474;172409;
2024-05-16T23:21:30.779;539095904337814602;628749;498512;537021;172386;
2024-05-16T23:21:30.797;539095904355969542;629367;499325;537712;172397;
2024-05-16T23:21:30.815;539095904374124482;629933;500111;538364;172310;
2024-05-16T23:21:30.833;539095904392279422;630500;500762;538996;172312;
2024-05-16T23:21:30.852;539095904410434362;630945;501333;539452;172400;
2024-05-16T23:21:30.870;539095904428589302;631280;501854;539851;172356;
2024-05-16T23:21:30.888;539095904446744242;631696;502287;540257;172384;
2024-05-16T23:21:30.906;539095904464899182;632103;502831;540617;172348;
2024-05-16T23:21:30.924;539095904483054122;632447;503191;540957;172368;
2024-05-16T23:21:30.942;539095904501209062;632669;503511;541220;172309;
2024-05-16T23:21:30.960;539095904519364002;632814;503729;541561;172301;
2024-05-16T23:21:30.979;539095904537518942;632804;503940;541746;172371;
2024-05-16T23:21:30.997;539095904555673882;632583;504003;541725;172331;
2024-05-16T23:21:31.015;539095904573828822;632259;503932;541430;172368;
2024-05-16T23:21:31.033;539095904591983762;631899;503697;541155;172335;
2024-05-16T23:21:31.051;539095904610138702;631541;503580;540960;172428;
2024-05-16T23:21:31.069;539095904628295390;631323;503557;540810;172410;
2024-05-16T23:21:31.088;539095904646452074;631202;503604;540797;172380;
2024-05-16T23:21:31.106;539095904664608758;631248;503746;540823;172346;
2024-05-16T23:21:31.124;539095904682765442;631323;503933;540796;172316;
2024-05-16T23:21:31.142;539095904700922126;631645;504250;540998;172363;
2024-05-16T23:21:31.160;539095904719078810;631978;504595;541172;172327;
2024-05-16T23:21:31.178;539095904737235494;632370;504933;541482;172342;
2024-05-16T23:21:31.196;539095904755392178;632712;505237;541873;172283;
2024-05-16T23:21:31.215;539095904773548862;633270;505709;542327;172397;
2024-05-16T23:21:31.233;539095904791705546;633805;506142;542726;172362;
2024-05-16T23:21:31.251;539095904809862230;634341;506467;543033;172318;
2024-05-16T23:21:31.269;539095904828018914;634842;506804;543366;172386;
2024-05-16T23:21:31.287;539095904846175598;635381;507158;543717;172337;
2024-05-16T23:21:31.305;539095904864332282;635913;507468;544031;172319;
2024-05-16T23:21:31.324;539095904882488966;636304;507696;544203;172387;
2024-05-16T23:21:31.342;539095904900645650;636455;507757;544177;172292;
2024-05-16T23:21:31.360;539095904918802334;636639;507714;544044;172362;
2024-05-16T23:21:31.378;539095904936959018;636667;507649;543907;172337;
2024-05-16T23:21:31.396;539095904955115702;636835;507700;543952;172392;
2024-05-16T23:21:31.414;539095904973272386;637089;507755;543948;172373;
2024-05-16T23:21:31.433;539095904991429070;637480;507852;543897;172362;
2024-05-16T23:21:31.451;539095905009585754;637921;508142;544005;172324;
2024-05-16T23:21:31.469;539095905027742438;638509;508526;544180;172366;
2024-05-16T23:21:31.487;539095905045899122;638944;508865;544410;172359;
2024-05-16T23:21:31.505;539095905064055806;639553;509264;544773;172372;
2024-05-16T23:21:31.523;539095905082212490;640192;509663;545072;172334;
2024-05-16T23:21:31.541;539095905100369174;640806;510059;545379;172285;
2024-05-16T23:21:31.560;539095905118525858;641499;510456;545709;172292;
2024-05-16T23:21:31.578;539095905136682542;642384;510928;546026;172315;
2024-05-16T23:21:31.596;539095905154839226;643151;511370;546316;172302;
2024-05-16T23:21:31.614;539095905172995910;643718;511790;546566;172369;
2024-05-16T23:21:31.632;539095905191152594;644158;512068;546824;172320;
2024-05-16T23:21:31.650;539095905209309278;644441;512236;547064;172379;
2024-05-16T23:21:31.669;539095905227465962;644359;512202;547127;172356;
2024-05-16T23:21:31.687;539095905245622646;644223;512121;547132;172322;
2024-05-16T23:21:31.705;539095905263780141;643979;511882;547095;172382;
2024-05-16T23:21:31.723;539095905281937628;643540;511528;546919;172340;
2024-05-16T23:21:31.741;539095905300095115;643054;511228;546785;172326;
2024-05-16T23:21:31.759;539095905318252602;642629;510830;546563;172334;
2024-05-16T23:21:31.777;539095905336410089;642263;510573;546479;172318;
2024-05-16T23:21:31.796;539095905354567576;641879;510279;546347;172335;
2024-05-16T23:21:31.814;539095905372725063;641742;510121;546337;172367;
2024-05-16T23:21:31.832;539095905390882550;641673;510132;546360;172374;
2024-05-16T23:21:31.850;539095905409040037;641654;510117;546405;172402;
2024-05-16T23:21:31.868;539095905427197524;641792;510266;546505;172402;
2024-05-16T23:21:31.886;539095905445355011;641925;510420;546605;172342;
2024-05-16T23:21:31.905;539095905463512498;642224;510640;546775;172399;
2024-05-16T23:21:31.923;539095905481669985;642428;510902;546919;172416;
2024-05-16T23:21:31.941;539095905499827472;642703;511056;547034;172344;
2024-05-16T23:21:31.959;539095905517984959;642993;511201;547064;172370;
2024-05-16T23:21:31.977;539095905536142446;643407;511412;547233;172336;
2024-05-16T23:21:31.995;539095905554299933;643726;511539;547347;172380;
2024-05-16T23:21:32.014;539095905572457420;643958;511612;547434;172363;
2024-05-16T23:21:32.032;539095905590614907;644215;511562;547456;172298;
2024-05-16T23:21:32.050;539095905608772394;644442;511615;547542;172357;
2024-05-16T23:21:32.068;539095905626929881;644371;511454;547417;172348;
2024-05-16T23:21:32.086;539095905645087368;644385;511192;547043;172383;
2024-05-16T23:21:32.104;539095905663244855;644467;510991;546576;172351;
2024-05-16T23:21:32.122;539095905681402342;644670;510979;546345;172373;
2024-05-16T23:21:32.141;539095905699559829;645105;511247;546251;172344;
2024-05-16T23:21:32.159;539095905717717316;645699;511667;546299;172334;
2024-05-16T23:21:32.177;539095905735874803;646384;512148;546446;172341;
2024-05-16T23:21:32.195;539095905754032290;647016;512564;546603;172394;
2024-05-16T23:21:32.213;539095905772189777;647648;512998;546880;172326;
2024-05-16T23:21:32.231;539095905790347264;648235;513357;547223;172393;
2024-05-16T23:21:32.250;539095905808504751;648876;513725;547546;172370;
2024-05-16T23:21:32.268;539095905826662238;649523;514101;547816;172369;
2024-05-16T23:21:32.286;539095905844819725;650255;514544;548235;172422;
2024-05-16T23:21:32.304;539095905862977212;650970;514987;548543;172339;
2024-05-16T23:21:32.322;539095905881134699;651654;515517;548825;172339;
2024-05-16T23:21:32.340;539095905899292186;652218;515860;548942;172374;
2024-05-16T23:21:32.359;539095905917449673;652514;516187;549088;172386;
2024-05-16T23:21:32.377;539095905935607160;652540;516285;548976;172366;
2024-05-16T23:21:32.395;539095905953763848;652649;516476;549301;172309;
2024-05-16T23:21:32.413;539095905971920532;652618;516586;549303;172355;
2024-05-16T23:21:32.431;539095905990077216;651810;516093;548724;172366;
2024-05-16T23:21:32.449;539095906008233900;650852;515476;548317;172292;
2024-05-16T23:21:32.467;539095906026390584;650315;515230;548409;172249;
2024-05-16T23:21:32.486;539095906044547268;650339;515336;548567;172345;
2024-05-16T23:21:32.504;539095906062703952;650481;515444;548528;172345;
2024-05-16T23:21:32.522;539095906080860636;650485;515501;548655;172355;
2024-05-16T23:21:32.540;539095906099017320;650364;515549;549071;172343;
2024-05-16T23:21:32.558;539095906117174004;650406;515602;549459;172427;
2024-05-16T23:21:32.576;539095906135330688;650488;515784;549927;172372;
2024-05-16T23:21:32.595;539095906153487372;650710;516022;550223;172339;
2024-05-16T23:21:32.613;539095906171644056;651042;516182;550458;172422;
2024-05-16T23:21:32.631;539095906189800740;651170;516210;550433;172406;
2024-05-16T23:21:32.649;539095906207957424;651400;516301;550475;172422;
2024-05-16T23:21:32.667;539095906226114108;651773;516449;550497;172349;
2024-05-16T23:21:32.685;539095906244270792;652029;516539;550574;172334;
2024-05-16T23:21:32.704;539095906262427476;652265;516522;550601;172346;
2024-05-16T23:21:32.722;539095906280584160;652268;516469;550522;172333;
2024-05-16T23:21:32.740;539095906298740844;652292;516485;550457;172363;
2024-05-16T23:21:32.758;539095906316897528;652371;516466;550462;172353;
2024-05-16T23:21:32.776;539095906335054212;652590;516705;550809;172350;
2024-05-16T23:21:32.794;539095906353210896;652862;517109;551319;172306;
2024-05-16T23:21:32.812;539095906371367580;653466;517680;551977;172335;
2024-05-16T23:21:32.831;539095906389524264;654178;518403;552848;172378;
2024-05-16T23:21:32.849;539095906407680948;655155;519215;553882;172379;
2024-05-16T23:21:32.867;539095906425837632;656360;520279;555096;172418;
2024-05-16T23:21:32.885;539095906443994316;657599;521288;556214;172300;
2024-05-16T23:21:32.903;539095906462151000;658912;522398;557485;172352;
2024-05-16T23:21:32.921;539095906480307684;660264;523583;558989;172402;
2024-05-16T23:21:32.940;539095906498464368;661623;524805;560461;172373;
2024-05-16T23:21:32.958;539095906516621052;662818;525946;561804;172359;
2024-05-16T23:21:32.976;539095906534777736;663942;527079;563092;172327;
2024-05-16T23:21:32.994;539095906552934420;664900;527964;564098;172409;
2024-05-16T23:21:33.012;539095906571091104;665550;528493;564536;172328;
2024-05-16T23:21:33.030;539095906589247788;665917;528777;564495;172335;
2024-05-16T23:21:33.048;539095906607405316;665882;528463;563794;172357;
2024-05-16T23:21:33.067;539095906625562828;665747;528072;562921;172362;
2024-05-16T23:21:33.085;539095906643720340;665683;527555;562112;172348;
2024-05-16T23:21:33.103;539095906661877852;665343;527112;561335;172431;
2024-05-16T23:21:33.121;539095906680035364;664974;526614;560721;172366;
2024-05-16T23:21:33.139;539095906698192876;664509;526238;560243;172396;
2024-05-16T23:21:33.157;539095906716350388;664018;526027;560132;172368;
2024-05-16T23:21:33.176;539095906734507900;663701;525844;560035;172387;
2024-05-16T23:21:33.194;539095906752665412;663398;525885;560067;172389;
2024-05-16T23:21:33.212;539095906770822924;663247;526002;560236;172406;
2024-05-16T23:21:33.230;539095906788980436;662966;526071;560208;172396;
2024-05-16T23:21:33.248;539095906807137948;662703;526027;559965;172352;
2024-05-16T23:21:33.266;539095906825295460;662611;526028;559970;172396;
2024-05-16T23:21:33.285;539095906843452972;662727;526133;560097;172445;
2024-05-16T23:21:33.303;539095906861610484;662915;526200;560261;172397;
2024-05-16T23:21:33.321;539095906879767996;663117;526339;560522;172476;
2024-05-16T23:21:33.339;539095906897925508;663362;526621;560652;172388;
2024-05-16T23:21:33.357;539095906916083020;663578;526882;560569;172420;
2024-05-16T23:21:33.375;539095906934240532;663864;527193;560591;172392;
2024-05-16T23:21:33.393;539095906952398044;664107;527429;560558;172447;
2024-05-16T23:21:33.412;539095906970555556;664399;527755;560405;172452;
2024-05-16T23:21:33.430;539095906988713068;664750;527999;560290;172426;
2024-05-16T23:21:33.448;539095907006870580;665200;528338;560344;172445;
2024-05-16T23:21:33.466;539095907025028092;665719;528538;560375;172484;
2024-05-16T23:21:33.484;539095907043185604;666212;528835;560605;172437;
2024-05-16T23:21:33.502;539095907061343116;666543;529050;560825;172457;
2024-05-16T23:21:33.521;539095907079500628;666966;529358;561084;172473;
2024-05-16T23:21:33.539;539095907097658140;667422;529637;561356;172524;
2024-05-16T23:21:33.557;539095907115815652;667836;529998;561658;172496;
2024-05-16T23:21:33.575;539095907133973164;668255;530431;562014;172448;
2024-05-16T23:21:33.593;539095907152130676;668598;530958;562295;172420;
2024-05-16T23:21:33.611;539095907170288188;668914;531276;562499;172498;
2024-05-16T23:21:33.630;539095907188445700;669159;531671;562692;172464;
2024-05-16T23:21:33.648;539095907206603212;669379;532055;563048;172443;
2024-05-16T23:21:33.666;539095907224760724;669310;532356;563538;172460;
2024-05-16T23:21:33.684;539095907242917466;669355;532684;563734;172484;
2024-05-16T23:21:33.702;539095907261074192;669421;532648;564295;172498;
2024-05-16T23:21:33.720;539095907279230918;669382;532510;564885;172399;
2024-05-16T23:21:33.738;539095907297387644;669364;532579;565183;172426;
2024-05-16T23:21:33.757;539095907315544370;669424;532609;565405;172463;
2024-05-16T23:21:33.775;539095907333701096;669301;532654;565489;172503;
2024-05-16T23:21:33.793;539095907351857822;669307;532934;565676;172463;
2024-05-16T23:21:33.811;539095907370014548;669234;533204;565847;172383;
2024-05-16T23:21:33.829;539095907388171274;669215;533613;566120;172436;
2024-05-16T23:21:33.847;539095907406328000;669240;534049;566364;172437;
2024-05-16T23:21:33.866;539095907424484726;669205;534368;566554;172459;
2024-05-16T23:21:33.884;539095907442641452;669185;534687;566841;172524;
2024-05-16T23:21:33.902;539095907460798178;669177;534995;567066;172529;
2024-05-16T23:21:33.920;539095907478954904;669244;535182;567163;172468;
2024-05-16T23:21:33.938;539095907497111630;669327;535451;567298;172430;
2024-05-16T23:21:33.956;539095907515268356;669512;535809;567422;172457;
2024-05-16T23:21:33.975;539095907533425082;669815;536099;567558;172434;
2024-05-16T23:21:33.993;539095907551581808;670025;536376;567610;172399;
2024-05-16T23:21:34.011;539095907569738534;670236;536688;567737;172437;
2024-05-16T23:21:34.029;539095907587895260;670420;536991;567799;172431;
2024-05-16T23:21:34.047;539095907606051986;670619;537277;567902;172438;
2024-05-16T23:21:34.065;539095907624208712;670673;537531;567980;172430;
2024-05-16T23:21:34.083;539095907642365438;670788;537738;568023;172404;
2024-05-16T23:21:34.102;539095907660522164;670793;537846;568089;172450;
2024-05-16T23:21:34.120;539095907678678890;670664;537828;568109;172377;
2024-05-16T23:21:34.138;539095907696835616;670433;537816;568284;172358;
2024-05-16T23:21:34.156;539095907714992342;670153;537603;568241;172386;
2024-05-16T23:21:34.174;539095907733149068;669991;537505;568056;172384;
2024-05-16T23:21:34.192;539095907751305794;669819;537448;567900;172431;
2024-05-16T23:21:34.211;539095907769462520;669677;537454;567984;172451;
2024-05-16T23:21:34.229;539095907787619246;669606;537269;568203;172437;
2024-05-16T23:21:34.247;539095907805775972;669449;537240;568229;172461;
2024-05-16T23:21:34.265;539095907823932698;669346;537123;568208;172514;
2024-05-16T23:21:34.283;539095907842089424;669199;536834;568065;172444;
2024-05-16T23:21:34.301;539095907860246150;668992;536516;568063;172430;
2024-05-16T23:21:34.319;539095907878402876;668795;536147;568090;172431;
2024-05-16T23:21:34.338;539095907896560000;668496;535668;568083;172471;
2024-05-16T23:21:34.356;539095907914717120;668343;535268;567989;172419;
2024-05-16T23:21:34.374;539095907932874240;668040;534760;567902;172426;
2024-05-16T23:21:34.392;539095907951031360;667648;534126;567694;172427;
2024-05-16T23:21:34.410;539095907969188480;667274;533488;567381;172435;
2024-05-16T23:21:34.428;539095907987345600;666862;532810;566946;172408;
2024-05-16T23:21:34.447;539095908005502720;666415;532123;566534;172374;
2024-05-16T23:21:34.465;539095908023659840;666013;531468;566103;172426;
2024-05-16T23:21:34.483;539095908041816960;665761;530994;565769;172435;
2024-05-16T23:21:34.501;539095908059974080;665587;530581;565500;172424;
2024-05-16T23:21:34.519;539095908078131200;665531;530295;565331;172420;
2024-05-16T23:21:34.537;539095908096288320;665511;530105;565196;172434;
2024-05-16T23:21:34.556;539095908114445440;665585;530035;565196;172380;
2024-05-16T23:21:34.574;539095908132602560;665749;530064;565223;172383;
2024-05-16T23:21:34.592;539095908150759680;665832;530024;565233;172396;
2024-05-16T23:21:34.610;539095908168916800;665944;529964;565268;172451;
2024-05-16T23:21:34.628;539095908187073920;666076;530001;565328;172446;
2024-05-16T23:21:34.646;539095908205231040;666066;529989;565293;172416;
2024-05-16T23:21:34.664;539095908223388160;666110;529908;565239;172393;
2024-05-16T23:21:34.683;539095908241545280;665940;529900;565101;172390;
2024-05-16T23:21:34.701;539095908259702400;665867;529766;564956;172362;
2024-05-16T23:21:34.719;539095908277859520;665608;529541;564720;172350;
2024-05-16T23:21:34.737;539095908296016640;665304;529244;564198;172391;
2024-05-16T23:21:34.755;539095908314173760;664669;528690;563574;172407;
2024-05-16T23:21:34.773;539095908332330880;663841;527970;562580;172394;
2024-05-16T23:21:34.792;539095908350488000;663028;527251;561709;172402;
2024-05-16T23:21:34.810;539095908368645120;662181;526500;560806;172371;
2024-05-16T23:21:34.828;539095908386802240;661524;525871;559998;172414;
2024-05-16T23:21:34.846;539095908404959360;660947;525313;559314;172393;
2024-05-16T23:21:34.864;539095908423116480;660392;524899;558586;172451;
2024-05-16T23:21:34.882;539095908441273600;659843;524549;558074;172380;
2024-05-16T23:21:34.901;539095908459430720;659441;524325;557689;172402;
2024-05-16T23:21:34.919;539095908477587840;659085;524170;557351;172409;
2024-05-16T23:21:34.937;539095908495744960;658778;524007;556955;172416;
2024-05-16T23:21:34.955;539095908513902080;658417;523884;556642;172421;
2024-05-16T23:21:34.973;539095908532059202;658183;523924;556410;172409;
2024-05-16T23:21:34.991;539095908550216322;657907;523879;556142;172369;
2024-05-16T23:21:35.009;539095908568373442;657573;523805;555976;172380;
2024-05-16T23:21:35.028;539095908586530562;657271;523814;555779;172392;
2024-05-16T23:21:35.046;539095908604687682;656899;523802;555649;172363;
2024-05-16T23:21:35.064;539095908622844802;656500;523755;555282;172414;
2024-05-16T23:21:35.082;539095908641001922;655923;523479;554797;172416;
2024-05-16T23:21:35.100;539095908659159042;655120;523117;554167;172353;
2024-05-16T23:21:35.118;539095908677316162;654186;522593;553536;172382;
2024-05-16T23:21:35.137;539095908695473282;653274;522169;552815;172388;
2024-05-16T23:21:35.155;539095908713630402;652328;521612;552058;172403;
2024-05-16T23:21:35.173;539095908731787522;651499;521264;551465;172406;
2024-05-16T23:21:35.191;539095908749944642;650805;520897;550847;172409;
2024-05-16T23:21:35.209;539095908768101762;650193;520718;550514;172408;
2024-05-16T23:21:35.227;539095908786258882;649700;520582;550189;172409;
2024-05-16T23:21:35.245;539095908804416002;649324;520460;550047;172388;
2024-05-16T23:21:35.264;539095908822573122;649070;520417;549833;172385;
2024-05-16T23:21:35.282;539095908840730242;648770;520430;549817;172378;
2024-05-16T23:21:35.300;539095908858887362;648576;520349;549673;172394;
2024-05-16T23:21:35.318;539095908877044482;648400;520326;549555;172350;
2024-05-16T23:21:35.336;539095908895201602;648204;520291;549444;172371;
2024-05-16T23:21:35.354;539095908913358722;648019;520262;549388;172441;
2024-05-16T23:21:35.373;539095908931515842;647711;520136;549291;172420;
2024-05-16T23:21:35.391;539095908949672962;647393;520069;549184;172363;
2024-05-16T23:21:35.409;539095908967830082;647004;519799;549089;172394;
2024-05-16T23:21:35.427;539095908985987202;646337;519319;548709;172328;
2024-05-16T23:21:35.445;539095909004144322;645458;518706;548189;172345;
2024-05-16T23:21:35.463;539095909022301442;644362;517876;547588;172371;
2024-05-16T23:21:35.482;539095909040458562;643189;517008;546839;172389;
2024-05-16T23:21:35.500;539095909058615682;642141;516136;546210;172426;
2024-05-16T23:21:35.518;539095909076772802;641178;515464;545552;172402;
2024-05-16T23:21:35.536;539095909094929922;640296;514788;545045;172303;
2024-05-16T23:21:35.554;539095909113087042;639644;514352;544720;172372;
2024-05-16T23:21:35.572;539095909131244162;639078;513917;544486;172373;
2024-05-16T23:21:35.590;539095909149401282;638709;513754;544312;172383;
2024-05-16T23:21:35.609;539095909167558840;638365;513486;544164;172386;
2024-05-16T23:21:35.627;539095909185716396;638107;513344;543969;172357;
2024-05-16T23:21:35.645;539095909203873952;637967;513337;543887;172356;
2024-05-16T23:21:35.663;539095909222031508;637874;513405;543789;172425;
2024-05-16T23:21:35.681;539095909240189064;637801;513514;543616;172344;
2024-05-16T23:21:35.699;539095909258346620;637799;513738;543676;172370;
2024-05-16T23:21:35.718;539095909276504176;637724;513933;543702;172369;
2024-05-16T23:21:35.736;539095909294661732;637567;514055;543737;172385;
2024-05-16T23:21:35.754;539095909312819288;637218;513961;543651;172335;
2024-05-16T23:21:35.772;539095909330976844;636620;513768;543360;172355;
2024-05-16T23:21:35.790;539095909349134400;635995;513352;543080;172382;
2024-05-16T23:21:35.808;539095909367291956;635190;512902;542608;172379;
2024-05-16T23:21:35.827;539095909385449512;634383;512413;542189;172377;
2024-05-16T23:21:35.845;539095909403607068;633662;511863;541760;172367;
2024-05-16T23:21:35.863;539095909421764624;632946;511357;541461;172350;
2024-05-16T23:21:35.881;539095909439922180;632447;510925;541069;172392;
2024-05-16T23:21:35.899;539095909458079736;631961;510565;540779;172369;
2024-05-16T23:21:35.917;539095909476237292;631639;510208;540650;172435;
2024-05-16T23:21:35.935;539095909494394848;631250;509834;540483;172396;
2024-05-16T23:21:35.954;539095909512552404;630965;509488;540458;172439;
2024-05-16T23:21:35.972;539095909530709960;630605;508995;540387;172350;
2024-05-16T23:21:35.990;539095909548867516;630315;508475;540254;172351;
2024-05-16T23:21:36.008;539095909567025072;630004;507980;540131;172371;
2024-05-16T23:21:36.026;539095909585182628;629604;507424;539870;172355;
2024-05-16T23:21:36.044;539095909603340184;629219;506926;539726;172368;
2024-05-16T23:21:36.063;539095909621497740;628806;506318;539473;172340;
2024-05-16T23:21:36.081;539095909639655296;628477;505768;539198;172389;
2024-05-16T23:21:36.099;539095909657812852;627939;505155;538816;172339;
2024-05-16T23:21:36.117;539095909675970408;627135;504273;538221;172339;
2024-05-16T23:21:36.135;539095909694127964;626195;503346;537435;172403;
2024-05-16T23:21:36.153;539095909712285520;625089;502445;536640;172455;
2024-05-16T23:21:36.172;539095909730443076;623962;501442;535772;172440;
2024-05-16T23:21:36.190;539095909748600632;622834;500545;534928;172403;
2024-05-16T23:21:36.208;539095909766758188;621870;499775;534188;172385;
2024-05-16T23:21:36.226;539095909784915744;621088;499168;533545;172367;
2024-05-16T23:21:36.244;539095909803073303;620375;498677;533059;172336;
2024-05-16T23:21:36.262;539095909821230834;619810;498331;532692;172339;
2024-05-16T23:21:36.280;539095909839388365;619345;498029;532350;172395;
2024-05-16T23:21:36.299;539095909857545896;618930;497798;532018;172423;
2024-05-16T23:21:36.317;539095909875703427;618654;497607;531882;172370;
2024-05-16T23:21:36.335;539095909893860958;618377;497529;531732;172365;
2024-05-16T23:21:36.353;539095909912018489;618135;497299;531544;172350;
2024-05-16T23:21:36.371;539095909930176020;617972;497272;531473;172409;
2024-05-16T23:21:36.389;539095909948333551;617617;497100;531233;172353;
2024-05-16T23:21:36.408;539095909966491082;617356;496942;531092;172368;
2024-05-16T23:21:36.426;539095909984648613;617204;496865;530930;172404;
2024-05-16T23:21:36.444;539095910002806144;616812;496587;530691;172355;
2024-05-16T23:21:36.462;539095910020963675;616181;496146;530244;172409;
2024-05-16T23:21:36.480;539095910039121206;615386;495542;529640;172376;
2024-05-16T23:21:36.498;539095910057278737;614437;494857;528981;172409;
2024-05-16T23:21:36.517;539095910075436268;613480;494209;528172;172345;
2024-05-16T23:21:36.535;539095910093593799;612722;493764;527532;172366;
2024-05-16T23:21:36.553;539095910111751330;612040;493447;526909;172372;
2024-05-16T23:21:36.571;539095910129908861;611738;493431;526555;172355;
2024-05-16T23:21:36.589;539095910148066392;611417;493508;526231;172412;
2024-05-16T23:21:36.607;539095910166223923;611257;493620;526090;172399;
2024-05-16T23:21:36.625;539095910184381454;611125;493679;525998;172320;
2024-05-16T23:21:36.644;539095910202538985;611179;493825;526044;172405;
2024-05-16T23:21:36.662;539095910220696516;611155;493950;526123;172375;
2024-05-16T23:21:36.680;539095910238854047;611106;494030;526114;172370;
2024-05-16T23:21:36.698;539095910257011578;611163;494198;526230;172401;
2024-05-16T23:21:36.716;539095910275169109;611167;494206;526217;172395;
2024-05-16T23:21:36.734;539095910293326640;610964;494152;526205;172303;
2024-05-16T23:21:36.753;539095910311484171;610851;494058;526190;172328;
2024-05-16T23:21:36.771;539095910329641702;610676;493994;526156;172397;
2024-05-16T23:21:36.789;539095910347799233;610149;493636;525943;172379;
2024-05-16T23:21:36.807;539095910365956764;609430;492977;525447;172361;
2024-05-16T23:21:36.825;539095910384114295;608317;492207;524768;172372;
2024-05-16T23:21:36.843;539095910402271826;607083;491225;523977;172366;
2024-05-16T23:21:36.862;539095910420429357;605920;490249;523178;172354;
2024-05-16T23:21:36.880;539095910438586888;604734;489417;522441;172348;
2024-05-16T23:21:36.898;539095910456744430;603737;488652;521786;172339;
2024-05-16T23:21:36.916;539095910474901938;602808;488032;521263;172353;
2024-05-16T23:21:36.934;539095910493059446;602201;487540;520783;172356;
2024-05-16T23:21:36.952;539095910511216954;601704;487182;520480;172371;
2024-05-16T23:21:36.970;539095910529374462;601312;486977;520331;172408;
2024-05-16T23:21:36.989;539095910547531970;601080;486778;520162;172382;
2024-05-16T23:21:37.007;539095910565689478;600904;486811;520126;172388;
2024-05-16T23:21:37.025;539095910583846986;600840;486711;520067;172361;
2024-05-16T23:21:37.043;539095910602004494;600702;486651;519999;172375;
2024-05-16T23:21:37.061;539095910620162002;600596;486647;520043;172392;
2024-05-16T23:21:37.079;539095910638319510;600533;486600;519938;172391;
2024-05-16T23:21:37.098;539095910656477018;600415;486543;519879;172400;
2024-05-16T23:21:37.116;539095910674634526;600225;486429;519854;172358;
2024-05-16T23:21:37.134;539095910692792034;599860;486146;519555;172354;
2024-05-16T23:21:37.152;539095910710949542;599253;485588;519010;172345;
2024-05-16T23:21:37.170;539095910729107050;598311;484897;518336;172369;
2024-05-16T23:21:37.188;539095910747264558;597382;484226;517660;172412;
2024-05-16T23:21:37.207;539095910765422066;596406;483500;516853;172370;
2024-05-16T23:21:37.225;539095910783579574;595499;482808;516191;172384;
2024-05-16T23:21:37.243;539095910801737082;594721;482282;515642;172357;
2024-05-16T23:21:37.261;539095910819894590;594173;481908;515236;172374;
2024-05-16T23:21:37.279;539095910838052098;593721;481688;514968;172378;
2024-05-16T23:21:37.297;539095910856209606;593504;481531;514832;172362;
2024-05-16T23:21:37.315;539095910874367114;593321;481446;514748;172358;
2024-05-16T23:21:37.334;539095910892524622;593333;481474;514858;172368;
2024-05-16T23:21:37.352;539095910910682130;593426;481613;514948;172358;
2024-05-16T23:21:37.370;539095910928839638;593537;481726;515017;172349;
2024-05-16T23:21:37.388;539095910946997146;593574;481785;515054;172350;
2024-05-16T23:21:37.406;539095910965154654;593684;481871;515124;172349;
2024-05-16T23:21:37.424;539095910983312162;593706;481921;515153;172367;
2024-05-16T23:21:37.443;539095911001469670;593745;481937;515190;172338;
2024-05-16T23:21:37.461;539095911019627178;593796;481966;515265;172379;
2024-05-16T23:21:37.479;539095911037784686;593733;481911;515222;172390;
2024-05-16T23:21:37.497;539095911055942194;593266;481524;514837;172380;
2024-05-16T23:21:37.515;539095911074099702;592738;481052;514358;172395;
2024-05-16T23:21:37.533;539095911092257210;592006;480528;513811;172350;
2024-05-16T23:21:37.551;539095911110414718;591157;479981;513237;172321;
2024-05-16T23:21:37.570;539095911128571834;590516;479528;512677;172366;
2024-05-16T23:21:37.588;539095911146728930;590000;479157;512344;172405;
2024-05-16T23:21:37.606;539095911164886026;589637;478872;512108;172309;
2024-05-16T23:21:37.624;539095911183043122;589467;478752;512051;172361;
2024-05-16T23:21:37.642;539095911201200218;589442;478726;511930;172332;
2024-05-16T23:21:37.660;539095911219357314;589501;478804;512068;172390;
2024-05-16T23:21:37.679;539095911237514410;589761;478882;512165;172359;
2024-05-16T23:21:37.697;539095911255671506;589954;479074;512309;172384;
2024-05-16T23:21:37.715;539095911273828602;590218;479326;512519;172383;
2024-05-16T23:21:37.733;539095911291985698;590414;479418;512619;172340;
2024-05-16T23:21:37.751;539095911310142794;590664;479538;512805;172336;
2024-05-16T23:21:37.769;539095911328299890;590916;479664;512953;172331;
2024-05-16T23:21:37.788;539095911346456986;591093;479797;513055;172338;
2024-05-16T23:21:37.806;539095911364614082;591302;479896;513215;172365;
2024-05-16T23:21:37.824;539095911382771178;591404;479956;513205;172363;
2024-05-16T23:21:37.842;539095911400928274;591326;479822;513039;172341;
2024-05-16T23:21:37.860;539095911419085370;590886;479490;512748;172344;
2024-05-16T23:21:37.878;539095911437242466;590390;479047;512296;172323;
2024-05-16T23:21:37.896;539095911455399562;589861;478587;511819;172365;
2024-05-16T23:21:37.915;539095911473556658;589366;478208;511355;172352;
2024-05-16T23:21:37.933;539095911491713754;589097;477910;511073;172327;
2024-05-16T23:21:37.951;539095911509870850;588875;477650;510924;172340;
2024-05-16T23:21:37.969;539095911528027946;588771;477588;510775;172377;
2024-05-16T23:21:37.987;539095911546185042;588815;477554;510808;172349;
2024-05-16T23:21:38.005;539095911564342138;588993;477657;510972;172368;
2024-05-16T23:21:38.024;539095911582499234;589241;477855;511122;172361;
2024-05-16T23:21:38.042;539095911600656330;589557;478042;511306;172369;
2024-05-16T23:21:38.060;539095911618813426;589895;478219;511469;172386;
2024-05-16T23:21:38.078;539095911636970522;590262;478429;511753;172334;
2024-05-16T23:21:38.096;539095911655127618;590589;478676;511988;172374;
2024-05-16T23:21:38.114;539095911673284714;590909;478872;512153;172339;
2024-05-16T23:21:38.133;539095911691441810;591256;479023;512320;172377;
2024-05-16T23:21:38.151;539095911709598906;591593;479109;512405;172324;
2024-05-16T23:21:38.169;539095911727756002;591826;479227;512519;172358;
2024-05-16T23:21:38.187;539095911745913098;591986;479208;512508;172312;
2024-05-16T23:21:38.205;539095911764070194;591801;478997;512355;172314;
2024-05-16T23:21:38.223;539095911782227290;591515;478669;511929;172367;
2024-05-16T23:21:38.241;539095911800383481;591235;478302;511558;172311;
2024-05-16T23:21:38.260;539095911818539656;590929;477982;511167;172349;
2024-05-16T23:21:38.278;539095911836695831;590697;477685;510868;172321;
2024-05-16T23:21:38.296;539095911854852006;590533;477477;510695;172363;
2024-05-16T23:21:38.314;539095911873008181;590504;477332;510516;172390;
2024-05-16T23:21:38.332;539095911891164356;590476;477301;510473;172379;
2024-05-16T23:21:38.350;539095911909320531;590606;477333;510498;172394;
2024-05-16T23:21:38.369;539095911927476706;590882;477357;510584;172409;
2024-05-16T23:21:38.387;539095911945632881;591159;477454;510749;172395;
2024-05-16T23:21:38.405;539095911963789056;591441;477551;510767;172360;
2024-05-16T23:21:38.423;539095911981945231;591721;477777;511008;172375;
2024-05-16T23:21:38.441;539095912000101406;592054;477964;511181;172385;
2024-05-16T23:21:38.459;539095912018257581;592402;478098;511355;172377;
2024-05-16T23:21:38.477;539095912036413756;592644;478179;511456;172312;
2024-05-16T23:21:38.496;539095912054569931;593002;478314;511632;172355;
2024-05-16T23:21:38.514;539095912072726106;593293;478490;511797;172375;
2024-05-16T23:21:38.532;539095912090882281;593344;478470;511775;172363;
2024-05-16T23:21:38.550;539095912109038456;593316;478328;511575;172360;
2024-05-16T23:21:38.568;539095912127194631;593056;478045;511255;172346;
2024-05-16T23:21:38.586;539095912145350806;592654;477670;510895;172349;
2024-05-16T23:21:38.605;539095912163506981;592235;477235;510574;172344;
2024-05-16T23:21:38.623;539095912181663156;591900;476859;510199;172340;
2024-05-16T23:21:38.641;539095912199819331;591659;476593;509931;172351;
2024-05-16T23:21:38.659;539095912217975506;591483;476329;509595;172306;
2024-05-16T23:21:38.677;539095912236131681;591378;476146;509544;172339;
2024-05-16T23:21:38.695;539095912254287856;591375;476108;509429;172315;
2024-05-16T23:21:38.714;539095912272444031;591454;476019;509393;172316;
2024-05-16T23:21:38.732;539095912290600206;591537;476055;509422;172282;
2024-05-16T23:21:38.750;539095912308756381;591804;476121;509503;172358;
2024-05-16T23:21:38.768;539095912326912556;591993;476135;509575;172338;
2024-05-16T23:21:38.786;539095912345068731;592226;476272;509768;172385;
2024-05-16T23:21:38.804;539095912363224906;592435;476317;509895;172393;
2024-05-16T23:21:38.822;539095912381381081;592625;476392;509969;172378;
2024-05-16T23:21:38.841;539095912399537256;592773;476440;510013;172374;
2024-05-16T23:21:38.859;539095912417693431;592951;476513;510071;172380;
2024-05-16T23:21:38.877;539095912435849606;593051;476504;510058;172378;
2024-05-16T23:21:38.895;539095912454005781;593082;476398;509881;172377;
2024-05-16T23:21:38.913;539095912472161956;592845;476160;509599;172386;
2024-05-16T23:21:38.931;539095912490318131;592400;475751;509190;172295;
2024-05-16T23:21:38.950;539095912508474306;591968;475382;508735;172285;
2024-05-16T23:21:38.968;539095912526630481;591534;475077;508364;172327;
2024-05-16T23:21:38.986;539095912544786656;591209;474805;508125;172321;
2024-05-16T23:21:39.004;539095912562942794;591011;474600;507901;172303;
2024-05-16T23:21:39.022;539095912581098896;590916;474457;507792;172367;
2024-05-16T23:21:39.040;539095912599254998;590885;474372;507678;172338;
2024-05-16T23:21:39.058;539095912617411100;590973;474429;507733;172320;
2024-05-16T23:21:39.077;539095912635567202;591103;474496;507795;172357;
2024-05-16T23:21:39.095;539095912653723304;591311;474566;507840;172265;
2024-05-16T23:21:39.113;539095912671879406;591545;474749;508053;172324;
2024-05-16T23:21:39.131;539095912690035508;591762;474901;508158;172321;
2024-05-16T23:21:39.149;539095912708191610;591988;475049;508292;172331;
2024-05-16T23:21:39.167;539095912726347712;592316;475245;508510;172336;
2024-05-16T23:21:39.186;539095912744503814;592538;475340;508582;172343;
2024-05-16T23:21:39.204;539095912762659916;592786;475425;508693;172329;
2024-05-16T23:21:39.222;539095912780816018;592945;475584;508844;172362;
2024-05-16T23:21:39.240;539095912798972120;592881;475568;508728;172367;
2024-05-16T23:21:39.258;539095912817128222;592788;475429;508605;172377;
2024-05-16T23:21:39.276;539095912835284324;592402;475106;508196;172361;
2024-05-16T23:21:39.295;539095912853440426;592110;474816;507947;172360;
2024-05-16T23:21:39.313;539095912871596528;591645;474520;507556;172320;
2024-05-16T23:21:39.331;539095912889752630;591380;474220;507314;172301;
2024-05-16T23:21:39.349;539095912907908732;591164;474037;507149;172334;
2024-05-16T23:21:39.367;539095912926064834;591025;473976;507055;172289;
2024-05-16T23:21:39.385;539095912944220936;591001;473891;507006;172291;
2024-05-16T23:21:39.403;539095912962377038;591104;473956;506996;172322;
2024-05-16T23:21:39.422;539095912980533140;591283;474062;507097;172310;
2024-05-16T23:21:39.440;539095912998689242;591557;474187;507300;172328;
2024-05-16T23:21:39.458;539095913016845344;591749;474393;507479;172273;
2024-05-16T23:21:39.476;539095913035001446;592053;474637;507720;172339;
2024-05-16T23:21:39.494;539095913053157548;592384;474869;507903;172305;
2024-05-16T23:21:39.512;539095913071313650;592674;475060;508104;172311;
2024-05-16T23:21:39.531;539095913089469752;592947;475243;508303;172346;
2024-05-16T23:21:39.549;539095913107625854;593237;475459;508438;172336;
2024-05-16T23:21:39.567;539095913125781956;593495;475628;508610;172379;
2024-05-16T23:21:39.585;539095913143938058;593524;475662;508617;172356;
2024-05-16T23:21:39.603;539095913162094160;593456;475484;508406;172348;
2024-05-16T23:21:39.621;539095913180250262;593166;475215;508153;172338;
2024-05-16T23:21:39.639;539095913198406364;592848;474970;507798;172355;
2024-05-16T23:21:39.658;539095913216562466;592428;474611;507396;172371;
2024-05-16T23:21:39.676;539095913234718568;592112;474267;507033;172388;
2024-05-16T23:21:39.694;539095913252874670;591784;473943;506720;172343;
2024-05-16T23:21:39.712;539095913271030772;591628;473849;506506;172328;
2024-05-16T23:21:39.730;539095913289186874;591534;473765;506334;172361;
2024-05-16T23:21:39.748;539095913307342976;591507;473625;506161;172334;
2024-05-16T23:21:39.767;539095913325499200;591525;473677;506126;172310;
2024-05-16T23:21:39.785;539095913343655404;591577;473639;506086;172341;
2024-05-16T23:21:39.803;539095913361811608;591703;473659;506059;172377;
2024-05-16T23:21:39.821;539095913379967812;591803;473667;505958;172302;
2024-05-16T23:21:39.839;539095913398124016;591955;473734;505983;172388;
2024-05-16T23:21:39.857;539095913416280220;592042;473802;505872;172371;
2024-05-16T23:21:39.876;539095913434436424;592079;473745;505787;172367;
2024-05-16T23:21:39.894;539095913452592628;592086;473708;505666;172321;
2024-05-16T23:21:39.912;539095913470748832;592035;473657;505494;172356;
2024-05-16T23:21:39.930;539095913488905036;591896;473507;505329;172325;
2024-05-16T23:21:39.948;539095913507061240;591634;473257;504975;172325;
2024-05-16T23:21:39.966;539095913525217444;591270;472873;504499;172345;
2024-05-16T23:21:39.984;539095913543373648;590664;472326;503878;172283;
2024-05-16T23:21:40.003;539095913561529852;590047;471826;503349;172334;
2024-05-16T23:21:40.021;539095913579686056;589495;471351;502801;172353;
2024-05-16T23:21:40.039;539095913597842260;588932;470915;502256;172314;
2024-05-16T23:21:40.057;539095913615998464;588510;470521;501726;172323;
2024-05-16T23:21:40.075;539095913634154668;588167;470213;501242;172333;
2024-05-16T23:21:40.093;539095913652310872;587867;469982;500903;172277;
2024-05-16T23:21:40.112;539095913670467076;587685;469811;500678;172343;
2024-05-16T23:21:40.130;539095913688623280;587527;469664;500333;172312;
2024-05-16T23:21:40.148;539095913706779484;587398;469520;500146;172318;
2024-05-16T23:21:40.166;539095913724935688;587371;469484;499980;172311;
2024-05-16T23:21:40.184;539095913743091892;587385;469393;499822;172359;
2024-05-16T23:21:40.202;539095913761248096;587238;469336;499713;172339;
2024-05-16T23:21:40.220;539095913779404300;587267;469238;499539;172324;
2024-05-16T23:21:40.239;539095913797560504;587249;469201;499448;172354;
2024-05-16T23:21:40.257;539095913815716708;587171;469096;499210;172304;
2024-05-16T23:21:40.275;539095913833872912;587172;468993;499000;172329;
2024-05-16T23:21:40.293;539095913852029116;586928;468877;498828;172310;
2024-05-16T23:21:40.311;539095913870185320;586580;468534;498499;172322;
2024-05-16T23:21:40.329;539095913888341524;586173;468190;498041;172346;
2024-05-16T23:21:40.348;539095913906497728;585611;467725;497492;172327;
2024-05-16T23:21:40.366;539095913924653932;585076;467317;496951;172373;
2024-05-16T23:21:40.384;539095913942810136;584639;466903;496538;172378;
2024-05-16T23:21:40.402;539095913960967528;584171;466520;496067;172355;
2024-05-16T23:21:40.420;539095913979124913;583872;466236;495684;172312;
2024-05-16T23:21:40.438;539095913997282298;583667;466092;495477;172343;
2024-05-16T23:21:40.457;539095914015439683;583462;465968;495246;172336;
2024-05-16T23:21:40.475;539095914033597068;583488;465953;495141;172355;
2024-05-16T23:21:40.493;539095914051754453;583429;465876;495037;172289;
2024-05-16T23:21:40.511;539095914069911838;583445;465947;494971;172295;
2024-05-16T23:21:40.529;539095914088069223;583441;465867;494925;172355;
2024-05-16T23:21:40.547;539095914106226608;583430;465926;494934;172326;
2024-05-16T23:21:40.565;539095914124383993;583521;465927;494872;172390;
2024-05-16T23:21:40.584;539095914142541378;583520;465969;494848;172337;
2024-05-16T23:21:40.602;539095914160698763;583518;465972;494808;172318;
2024-05-16T23:21:40.620;539095914178856148;583618;466042;494776;172312;
2024-05-16T23:21:40.638;539095914197013533;583610;465969;494685;172338;
2024-05-16T23:21:40.656;539095914215170918;583488;465828;494499;172357;
2024-05-16T23:21:40.674;539095914233328303;583142;465589;494145;172325;
2024-05-16T23:21:40.693;539095914251485688;582709;465214;493808;172318;
2024-05-16T23:21:40.711;539095914269643073;582199;464855;493335;172342;
2024-05-16T23:21:40.729;539095914287800458;581742;464449;492891;172309;
2024-05-16T23:21:40.747;539095914305957843;581230;464128;492471;172303;
2024-05-16T23:21:40.765;539095914324115228;580844;463839;492155;172319;
2024-05-16T23:21:40.783;539095914342272613;580587;463663;491937;172322;
2024-05-16T23:21:40.802;539095914360429998;580435;463536;491717;172352;
2024-05-16T23:21:40.820;539095914378587383;580413;463539;491619;172370;
2024-05-16T23:21:40.838;539095914396744768;580323;463493;491502;172340;
2024-05-16T23:21:40.856;539095914414902153;580283;463575;491462;172356;
2024-05-16T23:21:40.874;539095914433059538;580346;463583;491423;172399;
2024-05-16T23:21:40.892;539095914451216923;580469;463680;491402;172322;
2024-05-16T23:21:40.910;539095914469374308;580472;463670;491408;172340;
2024-05-16T23:21:40.929;539095914487531693;580474;463708;491406;172335;
2024-05-16T23:21:40.947;539095914505689078;580518;463766;491378;172345;
2024-05-16T23:21:40.965;539095914523846463;580489;463769;491325;172371;
2024-05-16T23:21:40.983;539095914542003848;580484;463702;491240;172353;
2024-05-16T23:21:41.001;539095914560161233;580398;463681;491070;172355;
2024-05-16T23:21:41.019;539095914578318618;580122;463462;490864;172358;
2024-05-16T23:21:41.038;539095914596476003;579698;463140;490465;172344;
2024-05-16T23:21:41.056;539095914614633388;579209;462770;489972;172312;
2024-05-16T23:21:41.074;539095914632791745;578714;462385;489582;172326;
2024-05-16T23:21:41.092;539095914650950078;578235;462079;489182;172373;
2024-05-16T23:21:41.110;539095914669108411;577845;461728;488817;172291;
2024-05-16T23:21:41.128;539095914687266744;577591;461519;488558;172312;
2024-05-16T23:21:41.147;539095914705425077;577344;461396;488322;172293;
2024-05-16T23:21:41.165;539095914723583410;577227;461311;488155;172283;
2024-05-16T23:21:41.183;539095914741741743;577129;461275;488035;172352;
2024-05-16T23:21:41.201;539095914759900076;577124;461339;488006;172342;
2024-05-16T23:21:41.219;539095914778058409;577068;461341;488016;172346;
2024-05-16T23:21:41.237;539095914796216742;577161;461486;488039;172387;
2024-05-16T23:21:41.255;539095914814375075;577104;461395;487984;172361;
2024-05-16T23:21:41.274;539095914832533408;577129;461413;487925;172310;
2024-05-16T23:21:41.292;539095914850691741;577164;461458;487919;172326;
2024-05-16T23:21:41.310;539095914868850074;577171;461508;487912;172316;
2024-05-16T23:21:41.328;539095914887008407;577193;461516;487855;172360;
2024-05-16T23:21:41.346;539095914905166740;577137;461496;487816;172359;
2024-05-16T23:21:41.364;539095914923325073;576989;461381;487605;172360;
2024-05-16T23:21:41.383;539095914941483406;576513;461067;487312;172335;
2024-05-16T23:21:41.401;539095914959641739;576137;460759;486918;172367;
2024-05-16T23:21:41.419;539095914977800072;575594;460387;486471;172401;
2024-05-16T23:21:41.437;539095914995958405;575138;460073;486035;172377;
2024-05-16T23:21:41.455;539095915014116738;574694;459688;485646;172394;
2024-05-16T23:21:41.473;539095915032275071;574267;459415;485351;172393;
2024-05-16T23:21:41.492;539095915050433404;574010;459214;485072;172349;
2024-05-16T23:21:41.510;539095915068591737;573771;459110;484916;172343;
2024-05-16T23:21:41.528;539095915086750070;573717;459028;484788;172327;
2024-05-16T23:21:41.546;539095915104908403;573584;459046;484699;172283;
2024-05-16T23:21:41.564;539095915123066736;573632;458991;484631;172302;
2024-05-16T23:21:41.582;539095915141225069;573574;459105;484626;172350;
2024-05-16T23:21:41.600;539095915159383402;573575;459165;484690;172375;
2024-05-16T23:21:41.619;539095915177541735;573603;459191;484633;172333;
2024-05-16T23:21:41.637;539095915195700068;573569;459187;484571;172316;
2024-05-16T23:21:41.655;539095915213858401;573513;459208;484627;172315;
2024-05-16T23:21:41.673;539095915232016734;573547;459260;484521;172349;
2024-05-16T23:21:41.691;539095915250175067;573538;459233;484451;172374;
2024-05-16T23:21:41.709;539095915268333400;573429;459154;484373;172379;
2024-05-16T23:21:41.728;539095915286491733;573192;459008;484158;172304;
2024-05-16T23:21:41.746;539095915304649914;572757;458655;483795;172298;
2024-05-16T23:21:41.764;539095915322808080;572255;458271;483382;172326;
2024-05-16T23:21:41.782;539095915340966246;571717;457846;482959;172323;
2024-05-16T23:21:41.800;539095915359124412;571163;457497;482480;172302;
2024-05-16T23:21:41.818;539095915377282578;570678;457187;482144;172304;
2024-05-16T23:21:41.837;539095915395440744;570297;456968;481896;172301;
2024-05-16T23:21:41.855;539095915413598910;569965;456754;481621;172344;
2024-05-16T23:21:41.873;539095915431757076;569819;456702;481565;172343;
2024-05-16T23:21:41.891;539095915449915242;569683;456590;481399;172355;
2024-05-16T23:21:41.909;539095915468073408;569659;456566;481351;172407;
2024-05-16T23:21:41.927;539095915486231574;569620;456632;481314;172349;
2024-05-16T23:21:41.945;539095915504389740;569563;456670;481339;172355;
2024-05-16T23:21:41.964;539095915522547906;569584;456619;481311;172308;
2024-05-16T23:21:41.982;539095915540706072;569575;456633;481276;172358;
2024-05-16T23:21:42.000;539095915558864238;569526;456703;481236;172341;
2024-05-16T23:21:42.018;539095915577022404;569509;456730;481279;172374;
2024-05-16T23:21:42.036;539095915595180570;569452;456718;481288;172360;
2024-05-16T23:21:42.054;539095915613338736;569390;456721;481156;172350;
2024-05-16T23:21:42.073;539095915631496902;569077;456551;480968;172342;
2024-05-16T23:21:42.091;539095915649655068;568725;456298;480701;172350;
2024-05-16T23:21:42.109;539095915667813234;568202;455843;480288;172335;
2024-05-16T23:21:42.127;539095915685971400;567526;455408;479798;172359;
2024-05-16T23:21:42.145;539095915704129566;566851;454906;479252;172315;
2024-05-16T23:21:42.163;539095915722287732;566346;454536;478888;172405;
2024-05-16T23:21:42.182;539095915740445898;565841;454224;478511;172358;
2024-05-16T23:21:42.200;539095915758604064;565430;453975;478247;172336;
2024-05-16T23:21:42.218;539095915776762230;565217;453824;478086;172406;
2024-05-16T23:21:42.236;539095915794920396;564909;453675;477891;172319;
2024-05-16T23:21:42.254;539095915813078562;564888;453675;477894;172321;
2024-05-16T23:21:42.272;539095915831236728;564824;453663;477795;172352;
2024-05-16T23:21:42.290;539095915849394894;564746;453646;477799;172311;
2024-05-16T23:21:42.309;539095915867553060;564719;453747;477802;172335;
2024-05-16T23:21:42.327;539095915885711226;564636;453684;477729;172336;
2024-05-16T23:21:42.345;539095915903869392;564541;453697;477723;172307;
2024-05-16T23:21:42.363;539095915922027558;564478;453659;477726;172370;
2024-05-16T23:21:42.381;539095915940185387;564478;453671;477611;172306;
2024-05-16T23:21:42.399;539095915958343204;564350;453611;477616;172314;
2024-05-16T23:21:42.418;539095915976501021;564156;453410;477470;172338;
2024-05-16T23:21:42.436;539095915994658838;563712;453122;477149;172340;
2024-05-16T23:21:42.454;539095916012816655;563094;452689;476729;172395;
2024-05-16T23:21:42.472;539095916030974472;562382;452250;476176;172390;
2024-05-16T23:21:42.490;539095916049132289;561654;451755;475628;172340;
2024-05-16T23:21:42.508;539095916067290106;560958;451291;475219;172366;
2024-05-16T23:21:42.527;539095916085447923;560444;450921;474801;172343;
2024-05-16T23:21:42.545;539095916103605740;559944;450555;474417;172323;
2024-05-16T23:21:42.563;539095916121763557;559665;450375;474226;172352;
2024-05-16T23:21:42.581;539095916139921374;559379;450246;474092;172346;
2024-05-16T23:21:42.599;539095916158079191;559198;450220;474048;172335;
2024-05-16T23:21:42.617;539095916176237008;559149;450173;474006;172341;
2024-05-16T23:21:42.635;539095916194394825;559150;450209;474010;172376;
2024-05-16T23:21:42.654;539095916212552642;559194;450336;474072;172369;
2024-05-16T23:21:42.672;539095916230710459;559172;450289;474123;172362;
2024-05-16T23:21:42.690;539095916248868276;559131;450340;474066;172343;
2024-05-16T23:21:42.708;539095916267026093;559039;450351;474003;172315;
2024-05-16T23:21:42.726;539095916285183910;559020;450279;473972;172320;
2024-05-16T23:21:42.744;539095916303341727;558984;450214;473940;172312;
2024-05-16T23:21:42.763;539095916321499544;558806;450139;473865;172356;
2024-05-16T23:21:42.781;539095916339657361;558535;449911;473679;172368;
2024-05-16T23:21:42.799;539095916357815178;558051;449528;473320;172328;
2024-05-16T23:21:42.817;539095916375972995;557369;449070;472753;172315;
2024-05-16T23:21:42.835;539095916394130812;556791;448594;472356;172326;
2024-05-16T23:21:42.853;539095916412288629;556139;448170;472017;172297;
2024-05-16T23:21:42.872;539095916430446446;555545;447827;471610;172384;
2024-05-16T23:21:42.890;539095916448604263;555191;447569;471307;172360;
2024-05-16T23:21:42.908;539095916466762080;554927;447409;471076;172401;
2024-05-16T23:21:42.926;539095916484919897;554692;447215;470968;172311;
2024-05-16T23:21:42.944;539095916503077714;554603;447181;470960;172348;
2024-05-16T23:21:42.962;539095916521235531;554557;447228;470920;172302;
2024-05-16T23:21:42.980;539095916539393348;554608;447239;470993;172299;
2024-05-16T23:21:42.999;539095916557551165;554754;447350;471118;172319;
2024-05-16T23:21:43.017;539095916575710226;554824;447471;471258;172326;
2024-05-16T23:21:43.035;539095916593869264;554821;447508;471257;172328;
2024-05-16T23:21:43.053;539095916612028302;554915;447584;471257;172351;
2024-05-16T23:21:43.071;539095916630187340;554896;447564;471270;172351;
2024-05-16T23:21:43.089;539095916648346378;554916;447564;471331;172350;
2024-05-16T23:21:43.108;539095916666505416;554944;447524;471313;172348;
2024-05-16T23:21:43.126;539095916684664454;554738;447376;471143;172312;
2024-05-16T23:21:43.144;539095916702823492;554354;447107;470898;172282;
2024-05-16T23:21:43.162;539095916720982530;553890;446718;470532;172349;
2024-05-16T23:21:43.180;539095916739141568;553314;446335;470166;172384;
2024-05-16T23:21:43.198;539095916757300606;552766;445937;469762;172323;
2024-05-16T23:21:43.217;539095916775459644;552294;445557;469402;172293;
2024-05-16T23:21:43.235;539095916793618682;551813;445327;469085;172302;
2024-05-16T23:21:43.253;539095916811777720;551516;445079;468858;172288;
2024-05-16T23:21:43.271;539095916829936758;551285;444968;468778;172323;
2024-05-16T23:21:43.289;539095916848095796;551202;444960;468780;172333;
2024-05-16T23:21:43.307;539095916866254834;551245;444983;468815;172300;
2024-05-16T23:21:43.325;539095916884413872;551348;445050;468894;172323;
2024-05-16T23:21:43.344;539095916902572910;551432;445197;469006;172327;
2024-05-16T23:21:43.362;539095916920731948;551540;445254;469070;172304;
2024-05-16T23:21:43.380;539095916938890986;551627;445324;469165;172323;
2024-05-16T23:21:43.398;539095916957050024;551765;445408;469273;172318;
2024-05-16T23:21:43.416;539095916975209062;551890;445486;469334;172367;
2024-05-16T23:21:43.434;539095916993368100;551848;445530;469370;172350;
2024-05-16T23:21:43.453;539095917011527138;551831;445588;469342;172304;
2024-05-16T23:21:43.471;539095917029686176;551774;445484;469306;172348;
2024-05-16T23:21:43.489;539095917047845214;551614;445282;469175;172352;
2024-05-16T23:21:43.507;539095917066004252;551169;444931;468874;172352;
2024-05-16T23:21:43.525;539095917084163290;550620;444565;468453;172321;
2024-05-16T23:21:43.543;539095917102322328;550062;444200;468090;172366;
2024-05-16T23:21:43.562;539095917120481366;549580;443843;467690;172375;
2024-05-16T23:21:43.580;539095917138640404;548971;443450;467333;172318;
2024-05-16T23:21:43.598;539095917156799442;548619;443166;467005;172319;
2024-05-16T23:21:43.616;539095917174958480;548315;442959;466784;172341;
2024-05-16T23:21:43.634;539095917193117518;548113;442908;466661;172292;
2024-05-16T23:21:43.652;539095917211275418;548058;442874;466649;172320;
2024-05-16T23:21:43.671;539095917229433288;548041;442888;466680;172336;
2024-05-16T23:21:43.689;539095917247591158;548221;443001;466806;172354;
2024-05-16T23:21:43.707;539095917265749028;548392;443122;466976;172321;
2024-05-16T23:21:43.725;539095917283906898;548585;443274;467158;172385;
2024-05-16T23:21:43.743;539095917302064768;548712;443309;467231;172387;
2024-05-16T23:21:43.761;539095917320222638;548744;443355;467249;172407;
2024-05-16T23:21:43.779;539095917338380508;548713;443397;467226;172370;
2024-05-16T23:21:43.798;539095917356538378;548686;443359;467168;172363;
2024-05-16T23:21:43.816;539095917374696248;548550;443264;467141;172356;
2024-05-16T23:21:43.834;539095917392854118;548528;443252;467094;172416;
2024-05-16T23:21:43.852;539095917411011988;548275;443114;466861;172365;
2024-05-16T23:21:43.870;539095917429169858;547943;442792;466578;172401;
2024-05-16T23:21:43.888;539095917447327728;547379;442458;466262;172334;
2024-05-16T23:21:43.907;539095917465485598;546850;441980;465811;172356;
2024-05-16T23:21:43.925;539095917483643468;546251;441606;465408;172362;
2024-05-16T23:21:43.943;539095917501801338;545849;441296;465104;172374;
2024-05-16T23:21:43.961;539095917519959208;545531;441151;464923;172338;
2024-05-16T23:21:43.979;539095917538117078;545269;440951;464717;172331;
2024-05-16T23:21:43.997;539095917556274948;545000;440816;464533;172280;
2024-05-16T23:21:44.016;539095917574432818;545008;440803;464527;172288;
2024-05-16T23:21:44.034;539095917592590688;545072;440833;464554;172323;
2024-05-16T23:21:44.052;539095917610748558;545095;440867;464543;172271;
2024-05-16T23:21:44.070;539095917628906428;545161;440933;464612;172310;
2024-05-16T23:21:44.088;539095917647064298;545251;441074;464724;172309;
2024-05-16T23:21:44.106;539095917665222168;545270;441119;464758;172314;
2024-05-16T23:21:44.124;539095917683380038;545304;441148;464803;172308;
2024-05-16T23:21:44.143;539095917701537908;545348;441088;464771;172337;
2024-05-16T23:21:44.161;539095917719695778;545327;441147;464766;172356;
2024-05-16T23:21:44.179;539095917737853648;545324;441134;464753;172319;
2024-05-16T23:21:44.197;539095917756011518;545178;441037;464666;172343;
2024-05-16T23:21:44.215;539095917774169388;544826;440717;464349;172335;
2024-05-16T23:21:44.233;539095917792327258;544328;440360;463995;172359;
2024-05-16T23:21:44.252;539095917810485128;543764;439977;463574;172335;
2024-05-16T23:21:44.270;539095917828642998;543187;439583;463248;172375;
2024-05-16T23:21:44.288;539095917846800868;542600;439167;462868;172389;
2024-05-16T23:21:44.306;539095917864959766;542188;438923;462533;172367;
2024-05-16T23:21:44.324;539095917883118654;541805;438676;462313;172377;
2024-05-16T23:21:44.342;539095917901277542;541615;438589;462118;172375;
2024-05-16T23:21:44.361;539095917919436430;541454;438494;462077;172338;
2024-05-16T23:21:44.379;539095917937595318;541384;438524;462133;172337;
2024-05-16T23:21:44.397;539095917955754206;541438;438511;462138;172396;
2024-05-16T23:21:44.415;539095917973913094;541498;438587;462176;172362;
2024-05-16T23:21:44.433;539095917992071982;541574;438679;462235;172314;
2024-05-16T23:21:44.451;539095918010230870;541675;438721;462330;172403;
2024-05-16T23:21:44.469;539095918028389758;541737;438805;462393;172395;
2024-05-16T23:21:44.488;539095918046548646;541743;438797;462386;172351;
2024-05-16T23:21:44.506;539095918064707534;541731;438808;462437;172320;
2024-05-16T23:21:44.524;539095918082866422;541823;438858;462429;172325;
2024-05-16T23:21:44.542;539095918101025310;541793;438899;462386;172348;
2024-05-16T23:21:44.560;539095918119184198;541644;438750;462301;172346;
2024-05-16T23:21:44.578;539095918137343086;541332;438510;462078;172357;
2024-05-16T23:21:44.597;539095918155501974;540752;438076;461706;172319;
2024-05-16T23:21:44.615;539095918173660862;540217;437667;461277;172378;
2024-05-16T23:21:44.633;539095918191819750;539652;437271;460879;172354;
2024-05-16T23:21:44.651;539095918209978638;539219;436929;460543;172345;
2024-05-16T23:21:44.669;539095918228137526;538844;436758;460327;172317;
2024-05-16T23:21:44.687;539095918246296414;538600;436524;460194;172306;
2024-05-16T23:21:44.706;539095918264455302;538500;436492;460048;172323;
2024-05-16T23:21:44.724;539095918282614190;538490;436529;460100;172309;
2024-05-16T23:21:44.742;539095918300773078;538506;436650;460160;172320;
2024-05-16T23:21:44.760;539095918318931966;538601;436715;460291;172366;
2024-05-16T23:21:44.778;539095918337090854;538744;436826;460459;172363;
2024-05-16T23:21:44.796;539095918355249742;538921;436938;460624;172392;
2024-05-16T23:21:44.814;539095918373408630;539023;437059;460668;172377;
2024-05-16T23:21:44.833;539095918391567518;539243;437204;460872;172350;
2024-05-16T23:21:44.851;539095918409726406;539271;437175;460868;172323;
2024-05-16T23:21:44.869;539095918427885294;539394;437252;460913;172342;
2024-05-16T23:21:44.887;539095918446044182;539457;437284;460971;172323;
2024-05-16T23:21:44.905;539095918464203070;539440;437245;460936;172374;
2024-05-16T23:21:44.923;539095918482361958;539179;437073;460825;172348;
2024-05-16T23:21:44.942;539095918500520846;538796;436778;460568;172358;
2024-05-16T23:21:44.960;539095918518679056;538348;436454;460186;172301;
2024-05-16T23:21:44.978;539095918536837266;537878;436130;459924;172357;
2024-05-16T23:21:44.996;539095918554995476;537452;435731;459496;172377;
2024-05-16T23:21:45.014;539095918573153686;537067;435494;459294;172374;
2024-05-16T23:21:45.032;539095918591311896;536799;435285;459061;172306;
2024-05-16T23:21:45.051;539095918609470106;536623;435151;459043;172370;
2024-05-16T23:21:45.069;539095918627628316;536683;435203;459070;172378;
2024-05-16T23:21:45.087;539095918645786526;536693;435287;459105;172357;
2024-05-16T23:21:45.105;539095918663944736;536966;435430;459299;172334;
2024-05-16T23:21:45.123;539095918682102946;537200;435560;459456;172265;
2024-05-16T23:21:45.141;539095918700261156;537437;435781;459664;172393;
2024-05-16T23:21:45.160;539095918718419366;537654;435946;459779;172370;
2024-05-16T23:21:45.178;539095918736577576;537823;436021;459908;172351;
2024-05-16T23:21:45.196;539095918754735786;538048;436190;460050;172336;
2024-05-16T23:21:45.214;539095918772893996;538128;436276;460130;172365;
2024-05-16T23:21:45.232;539095918791052206;538268;436378;460226;172361;
2024-05-16T23:21:45.250;539095918809210416;538438;436425;460249;172371;
2024-05-16T23:21:45.268;539095918827368626;538331;436315;460247;172384;
2024-05-16T23:21:45.287;539095918845526836;538073;436103;460083;172328;
2024-05-16T23:21:45.305;539095918863685046;537709;435842;459708;172331;
2024-05-16T23:21:45.323;539095918881843256;537191;435431;459333;172382;
2024-05-16T23:21:45.341;539095918900001466;536695;435014;458928;172345;
2024-05-16T23:21:45.359;539095918918159676;536274;434747;458670;172316;
2024-05-16T23:21:45.377;539095918936317886;535851;434488;458432;172371;
2024-05-16T23:21:45.396;539095918954476096;535660;434301;458258;172334;
2024-05-16T23:21:45.414;539095918972634306;535602;434321;458255;172416;
2024-05-16T23:21:45.432;539095918990792516;535709;434362;458296;172317;
2024-05-16T23:21:45.450;539095919008950726;535824;434453;458409;172335;
2024-05-16T23:21:45.468;539095919027108936;536055;434635;458595;172372;
2024-05-16T23:21:45.486;539095919045267146;536321;434852;458791;172369;
2024-05-16T23:21:45.505;539095919063425356;536642;435042;459110;172411;
2024-05-16T23:21:45.523;539095919081583566;536772;435150;459183;172352;
2024-05-16T23:21:45.541;539095919099741776;536941;435312;459312;172334;
2024-05-16T23:21:45.559;539095919117899986;537114;435419;459466;172348;
2024-05-16T23:21:45.577;539095919136058196;537313;435523;459562;172325;
2024-05-16T23:21:45.595;539095919154216406;537422;435509;459612;172311;
2024-05-16T23:21:45.613;539095919172374616;537549;435643;459739;172392;
2024-05-16T23:21:45.632;539095919190532826;537500;435580;459649;172320;
2024-05-16T23:21:45.650;539095919208689614;537317;435419;459520;172329;
2024-05-16T23:21:45.668;539095919226846370;536999;435137;459187;172354;
2024-05-16T23:21:45.686;539095919245003126;536576;434804;458861;172305;
2024-05-16T23:21:45.704;539095919263159882;536181;434441;458554;172355;
2024-05-16T23:21:45.722;539095919281316638;535715;434201;458249;172345;
2024-05-16T23:21:45.741;539095919299473394;535453;433955;458009;172354;
2024-05-16T23:21:45.759;539095919317630150;535303;433892;457914;172332;
2024-05-16T23:21:45.777;539095919335786906;535319;433888;457934;172326;
2024-05-16T23:21:45.795;539095919353943662;535377;433959;458008;172339;
2024-05-16T23:21:45.813;539095919372100418;535578;434157;458205;172361;
2024-05-16T23:21:45.831;539095919390257174;535862;434377;458412;172314;
2024-05-16T23:21:45.849;539095919408413930;536154;434556;458645;172312;
2024-05-16T23:21:45.868;539095919426570686;536475;434679;458807;172334;
2024-05-16T23:21:45.886;539095919444727442;536727;434813;458971;172365;
2024-05-16T23:21:45.904;539095919462884198;536883;434953;459081;172368;
2024-05-16T23:21:45.922;539095919481040954;537149;435141;459223;172388;
2024-05-16T23:21:45.940;539095919499197710;537174;435187;459303;172397;
2024-05-16T23:21:45.958;539095919517354466;537302;435215;459353;172321;
2024-05-16T23:21:45.977;539095919535511222;537360;435298;459364;172322;
2024-05-16T23:21:45.995;539095919553667978;537368;435261;459359;172348;
2024-05-16T23:21:46.013;539095919571824734;537157;435093;459260;172321;
2024-05-16T23:21:46.031;539095919589981490;536844;434807;458942;172325;
2024-05-16T23:21:46.049;539095919608138246;536428;434449;458606;172401;
2024-05-16T23:21:46.067;539095919626295002;535931;434157;458231;172349;
2024-05-16T23:21:46.086;539095919644451758;535517;433806;457902;172349;
2024-05-16T23:21:46.104;539095919662608514;535210;433564;457728;172354;
2024-05-16T23:21:46.122;539095919680765270;534953;433354;457497;172301;
2024-05-16T23:21:46.140;539095919698922026;534935;433431;457488;172393;
2024-05-16T23:21:46.158;539095919717078782;534944;433430;457562;172350;
2024-05-16T23:21:46.176;539095919735235538;535097;433529;457674;172348;
2024-05-16T23:21:46.194;539095919753392294;535263;433675;457808;172366;
2024-05-16T23:21:46.213;539095919771549050;535428;433808;457965;172295;
2024-05-16T23:21:46.231;539095919789705806;535647;433991;458122;172334;
2024-05-16T23:21:46.249;539095919807862562;535789;434116;458206;172366;
2024-05-16T23:21:46.267;539095919826019318;535913;434125;458303;172344;
2024-05-16T23:21:46.285;539095919844176074;536049;434243;458328;172329;
2024-05-16T23:21:46.303;539095919862332830;536154;434183;458334;172306;
2024-05-16T23:21:46.322;539095919880489586;536139;434254;458361;172289;
2024-05-16T23:21:46.340;539095919898646342;536181;434244;458334;172315;
2024-05-16T23:21:46.358;539095919916803098;536120;434231;458312;172271;
2024-05-16T23:21:46.376;539095919934959854;535965;434197;458197;172333;
2024-05-16T23:21:46.394;539095919953116610;535660;433892;457937;172337;
2024-05-16T23:21:46.412;539095919971277092;535255;433543;457648;172323;
2024-05-16T23:21:46.431;539095919989437554;534798;433195;457276;172311;
2024-05-16T23:21:46.449;539095920007598016;534333;432871;456970;172282;
2024-05-16T23:21:46.467;539095920025758478;534045;432718;456748;172327;
2024-05-16T23:21:46.485;539095920043918940;533767;432523;456537;172299;
2024-05-16T23:21:46.503;539095920062079402;533755;432507;456487;172307;
2024-05-16T23:21:46.521;539095920080239864;533711;432472;456512;172306;
2024-05-16T23:21:46.539;539095920098400326;533764;432514;456575;172345;
2024-05-16T23:21:46.558;539095920116560788;533906;432682;456682;172373;
2024-05-16T23:21:46.576;539095920134721250;534040;432783;456803;172387;
2024-05-16T23:21:46.594;539095920152881712;534209;432899;456902;172378;
2024-05-16T23:21:46.612;539095920171042174;534314;432931;456944;172337;
2024-05-16T23:21:46.630;539095920189202636;534457;433078;457030;172283;
2024-05-16T23:21:46.648;539095920207363098;534599;433170;457123;172306;
2024-05-16T23:21:46.667;539095920225523560;534684;433187;457198;172349;
2024-05-16T23:21:46.685;539095920243684022;534817;433310;457214;172367;
2024-05-16T23:21:46.703;539095920261844484;534880;433362;457243;172338;
2024-05-16T23:21:46.721;539095920280004946;534791;433246;457199;172291;
2024-05-16T23:21:46.739;539095920298165408;534738;433197;457175;172373;
2024-05-16T23:21:46.757;539095920316325870;534297;432881;456834;172291;
2024-05-16T23:21:46.776;539095920334486332;533883;432538;456460;172299;
2024-05-16T23:21:46.794;539095920352646794;533409;432228;456160;172320;
2024-05-16T23:21:46.812;539095920370807256;532966;431862;455776;172319;
2024-05-16T23:21:46.830;539095920388967718;532522;431597;455517;172338;
2024-05-16T23:21:46.848;539095920407128180;532219;431379;455293;172319;
2024-05-16T23:21:46.866;539095920425288642;532062;431243;455180;172301;
2024-05-16T23:21:46.885;539095920443449104;532016;431207;455184;172344;
2024-05-16T23:21:46.903;539095920461609566;532050;431243;455205;172379;
2024-05-16T23:21:46.921;539095920479770028;532150;431371;455306;172334;
2024-05-16T23:21:46.939;539095920497930490;532226;431462;455376;172356;
2024-05-16T23:21:46.957;539095920516090952;532408;431609;455454;172297;
2024-05-16T23:21:46.975;539095920534251414;532608;431746;455688;172329;
2024-05-16T23:21:46.993;539095920552411876;532770;431886;455787;172382;
2024-05-16T23:21:47.012;539095920570572338;532907;431895;455864;172361;
2024-05-16T23:21:47.030;539095920588732800;532976;432073;455937;172351;
2024-05-16T23:21:47.048;539095920606893262;533111;432060;455971;172341;
2024-05-16T23:21:47.066;539095920625053724;533144;432093;455986;172360;
2024-05-16T23:21:47.084;539095920643214186;533243;432184;456126;172352;
2024-05-16T23:21:47.102;539095920661374648;533157;432064;456032;172310;
2024-05-16T23:21:47.121;539095920679535110;532829;431868;455790;172367;
2024-05-16T23:21:47.139;539095920697695572;532406;431558;455439;172338;
2024-05-16T23:21:47.157;539095920715856034;531970;431165;455073;172327;
2024-05-16T23:21:47.175;539095920734015650;531486;430806;454777;172370;
2024-05-16T23:21:47.193;539095920752175240;531045;430555;454480;172371;
2024-05-16T23:21:47.211;539095920770334830;530716;430314;454210;172354;
2024-05-16T23:21:47.230;539095920788494420;530535;430152;454047;172302;
2024-05-16T23:21:47.248;539095920806654010;530468;430152;454088;172355;
2024-05-16T23:21:47.266;539095920824813600;530578;430147;454075;172342;
2024-05-16T23:21:47.284;539095920842973190;530612;430261;454175;172344;
2024-05-16T23:21:47.302;539095920861132780;530825;430429;454353;172331;
2024-05-16T23:21:47.320;539095920879292370;531059;430648;454557;172320;
2024-05-16T23:21:47.339;539095920897451960;531268;430751;454734;172321;
2024-05-16T23:21:47.357;539095920915611550;531422;430913;454854;172394;
2024-05-16T23:21:47.375;539095920933771140;531631;431074;454962;172344;
2024-05-16T23:21:47.393;539095920951930730;531758;431163;455050;172358;
2024-05-16T23:21:47.411;539095920970090320;531832;431193;455014;172338;
2024-05-16T23:21:47.429;539095920988249910;531935;431301;455161;172371;
2024-05-16T23:21:47.447;539095921006409500;532037;431277;455227;172344;
2024-05-16T23:21:47.466;539095921024569090;532067;431328;455239;172345;
2024-05-16T23:21:47.484;539095921042728680;531914;431194;455129;172371;
2024-05-16T23:21:47.502;539095921060888270;531623;430935;454857;172346;
2024-05-16T23:21:47.520;539095921079047860;531182;430641;454581;172306;
2024-05-16T23:21:47.538;539095921097207450;530780;430314;454234;172357;
2024-05-16T23:21:47.556;539095921115367040;530392;430016;454027;172341;
2024-05-16T23:21:47.575;539095921133526630;530104;429802;453807;172289;
2024-05-16T23:21:47.593;539095921151686220;529981;429711;453731;172363;
2024-05-16T23:21:47.611;539095921169845810;529921;429645;453676;172337;
2024-05-16T23:21:47.629;539095921188005400;530006;429816;453788;172351;
2024-05-16T23:21:47.647;539095921206164990;530212;429988;453960;172350;
2024-05-16T23:21:47.665;539095921224324580;530454;430199;454204;172324;
2024-05-16T23:21:47.684;539095921242484170;530720;430311;454320;172315;
2024-05-16T23:21:47.702;539095921260643760;531026;430544;454601;172287;
2024-05-16T23:21:47.720;539095921278803350;531340;430801;454869;172317;
2024-05-16T23:21:47.738;539095921296962940;531562;431024;455007;172340;
2024-05-16T23:21:47.756;539095921315122530;531718;431119;455145;172338;
2024-05-16T23:21:47.774;539095921333282120;531900;431226;455239;172322;
2024-05-16T23:21:47.793;539095921351441710;532094;431299;455310;172317;
2024-05-16T23:21:47.811;539095921369601300;532308;431405;455402;172331;
2024-05-16T23:21:47.829;539095921387760890;532312;431479;455467;172285;
2024-05-16T23:21:47.847;539095921405920480;532288;431410;455404;172278;
2024-05-16T23:21:47.865;539095921424080070;532014;431201;455211;172270;
2024-05-16T23:21:47.883;539095921442239660;531671;430881;454981;172300;
2024-05-16T23:21:47.901;539095921460399250;531327;430609;454672;172335;
2024-05-16T23:21:47.920;539095921478558840;530917;430384;454380;172344;
2024-05-16T23:21:47.938;539095921496717802;530680;430190;454227;172391;
2024-05-16T23:21:47.956;539095921514876738;530476;430089;454154;172395;
2024-05-16T23:21:47.974;539095921533035674;530404;430030;454099;172334;
2024-05-16T23:21:47.992;539095921551194610;530546;430109;454222;172325;
2024-05-16T23:21:48.010;539095921569353546;530760;430262;454325;172293;
2024-05-16T23:21:48.029;539095921587512482;530997;430461;454567;172302;
2024-05-16T23:21:48.047;539095921605671418;531301;430733;454833;172305;
2024-05-16T23:21:48.065;539095921623830354;531637;430914;455079;172352;
2024-05-16T23:21:48.083;539095921641989290;531948;431108;455250;172326;
2024-05-16T23:21:48.101;539095921660148226;532117;431315;455389;172337;
2024-05-16T23:21:48.119;539095921678307162;532414;431517;455623;172337;
2024-05-16T23:21:48.138;539095921696466098;532620;431627;455741;172361;
2024-05-16T23:21:48.156;539095921714625034;532874;431757;455868;172346;
2024-05-16T23:21:48.174;539095921732783970;532971;431853;455935;172293;
2024-05-16T23:21:48.192;539095921750942906;533230;432017;456108;172374;
2024-05-16T23:21:48.210;539095921769101842;533280;432057;456176;172314;
2024-05-16T23:21:48.228;539095921787260778;533197;431912;456014;172302;
2024-05-16T23:21:48.247;539095921805419714;532960;431717;455930;172331;
2024-05-16T23:21:48.265;539095921823578650;532589;431510;455676;172420;
2024-05-16T23:21:48.283;539095921841737586;532193;431174;455382;172363;
2024-05-16T23:21:48.301;539095921859896522;531890;431011;455116;172318;
2024-05-16T23:21:48.319;539095921878055458;531639;430850;454958;172327;
2024-05-16T23:21:48.337;539095921896214394;531438;430761;454857;172277;
2024-05-16T23:21:48.355;539095921914373330;531435;430799;454840;172303;
2024-05-16T23:21:48.374;539095921932532266;531601;430916;455022;172333;
2024-05-16T23:21:48.392;539095921950691202;531841;431106;455246;172289;
2024-05-16T23:21:48.410;539095921968850138;532086;431291;455354;172280;
2024-05-16T23:21:48.428;539095921987009074;532369;431545;455630;172359;
2024-05-16T23:21:48.446;539095922005168010;532645;431693;455801;172298;
2024-05-16T23:21:48.464;539095922023326946;532900;431932;455979;172338;
2024-05-16T23:21:48.483;539095922041485882;533032;432024;456132;172285;
2024-05-16T23:21:48.501;539095922059644818;533268;432162;456260;172294;
2024-05-16T23:21:48.519;539095922077803754;533408;432255;456339;172307;
2024-05-16T23:21:48.537;539095922095962690;533636;432324;456433;172304;
2024-05-16T23:21:48.555;539095922114121626;533691;432436;456516;172360;
2024-05-16T23:21:48.573;539095922132280562;533775;432469;456555;172282;
2024-05-16T23:21:48.592;539095922150439498;533904;432577;456702;172351;
2024-05-16T23:21:48.610;539095922168598434;533682;432427;456463;172315;
2024-05-16T23:21:48.628;539095922186757370;533467;432237;456259;172325;
2024-05-16T23:21:48.646;539095922204916306;533038;431869;456020;172292;
2024-05-16T23:21:48.664;539095922223075242;532613;431530;455656;172306;
2024-05-16T23:21:48.682;539095922241234178;532202;431328;455403;172333;
2024-05-16T23:21:48.700;539095922259392111;531879;431067;455190;172300;
2024-05-16T23:21:48.719;539095922277550030;531724;430966;455034;172321;
2024-05-16T23:21:48.737;539095922295707949;531663;430970;455030;172255;
2024-05-16T23:21:48.755;539095922313865868;531743;431123;455125;172304;
2024-05-16T23:21:48.773;539095922332023787;531925;431197;455256;172326;
2024-05-16T23:21:48.791;539095922350181706;532118;431353;455463;172326;
2024-05-16T23:21:48.809;539095922368339625;532326;431539;455629;172291;
2024-05-16T23:21:48.828;539095922386497544;532586;431721;455756;172297;
2024-05-16T23:21:48.846;539095922404655463;532713;431891;455914;172270;
2024-05-16T23:21:48.864;539095922422813382;532887;432028;456014;172332;
2024-05-16T23:21:48.882;539095922440971301;532989;432091;456072;172323;
2024-05-16T23:21:48.900;539095922459129220;533084;432152;456124;172283;
2024-05-16T23:21:48.918;539095922477287139;533131;432248;456150;172288;
2024-05-16T23:21:48.937;539095922495445058;533187;432214;456157;172264;
2024-05-16T23:21:48.955;539095922513602977;533274;432238;456234;172294;
2024-05-16T23:21:48.973;539095922531760896;533229;432197;456157;172319;
2024-05-16T23:21:48.991;539095922549918815;533047;432119;456039;172350;
2024-05-16T23:21:49.009;539095922568076734;532757;431854;455835;172319;
2024-05-16T23:21:49.027;539095922586234653;532277;431508;455494;172283;
2024-05-16T23:21:49.045;539095922604392572;531809;431210;455133;172294;
2024-05-16T23:21:49.064;539095922622550491;531489;430926;454893;172280;
2024-05-16T23:21:49.082;539095922640708410;531200;430742;454743;172348;
2024-05-16T23:21:49.100;539095922658866329;530988;430651;454582;172322;
2024-05-16T23:21:49.118;539095922677024248;530886;430567;454588;172282;
2024-05-16T23:21:49.136;539095922695182167;530882;430582;454600;172327;
2024-05-16T23:21:49.154;539095922713340086;531002;430661;454699;172357;
2024-05-16T23:21:49.173;539095922731498005;531166;430729;454878;172320;
2024-05-16T23:21:49.191;539095922749655924;531403;430925;455012;172290;
2024-05-16T23:21:49.209;539095922767813843;531626;431101;455259;172293;
2024-05-16T23:21:49.227;539095922785971762;531814;431292;455390;172345;
2024-05-16T23:21:49.245;539095922804129681;532002;431422;455449;172285;
2024-05-16T23:21:49.263;539095922822287600;532202;431547;455608;172395;
2024-05-16T23:21:49.282;539095922840445519;532291;431603;455625;172303;
2024-05-16T23:21:49.300;539095922858603438;532404;431677;455747;172363;
2024-05-16T23:21:49.318;539095922876761357;532527;431766;455774;172329;
2024-05-16T23:21:49.336;539095922894919276;532653;431817;455817;172310;
2024-05-16T23:21:49.354;539095922913077195;532655;431834;455911;172328;
2024-05-16T23:21:49.372;539095922931235114;532515;431669;455702;172323;
2024-05-16T23:21:49.390;539095922949393033;532107;431425;455390;172354;
2024-05-16T23:21:49.409;539095922967550952;531685;431182;455052;172356;
2024-05-16T23:21:49.427;539095922985708871;531196;430811;454733;172340;
2024-05-16T23:21:49.445;539095923003866790;530786;430539;454480;172357;
2024-05-16T23:21:49.463;539095923022022390;530399;430341;454193;172294;
2024-05-16T23:21:49.481;539095923040177984;530124;430184;454088;172297;
2024-05-16T23:21:49.499;539095923058333578;530108;430155;454075;172362;
2024-05-16T23:21:49.518;539095923076489172;530194;430200;454153;172417;
2024-05-16T23:21:49.536;539095923094644766;530214;430318;454190;172341;
2024-05-16T23:21:49.554;539095923112800360;530374;430474;454300;172308;
2024-05-16T23:21:49.572;539095923130955954;530565;430558;454498;172326;
2024-05-16T23:21:49.590;539095923149111548;530786;430763;454607;172335;
2024-05-16T23:21:49.608;539095923167267142;530976;430899;454724;172337;
2024-05-16T23:21:49.627;539095923185422736;531067;431008;454797;172288;
2024-05-16T23:21:49.645;539095923203578330;531261;431158;454992;172349;
2024-05-16T23:21:49.663;539095923221733924;531331;431181;455059;172325;
2024-05-16T23:21:49.681;539095923239889518;531409;431205;455122;172303;
2024-05-16T23:21:49.699;539095923258045112;531485;431343;455236;172278;
2024-05-16T23:21:49.717;539095923276200706;531621;431368;455233;172323;
2024-05-16T23:21:49.735;539095923294356300;531580;431322;455214;172324;
2024-05-16T23:21:49.754;539095923312511894;531413;431214;455049;172323;
2024-05-16T23:21:49.772;539095923330667488;531063;430911;454823;172312;
2024-05-16T23:21:49.790;539095923348823082;530682;430631;454556;172346;
2024-05-16T23:21:49.808;539095923366978676;530248;430343;454265;172288;
2024-05-16T23:21:49.826;539095923385134270;529925;430083;454020;172308;
2024-05-16T23:21:49.844;539095923403289864;529662;430019;453917;172250;
2024-05-16T23:21:49.863;539095923421445458;529520;429953;453871;172343;
2024-05-16T23:21:49.881;539095923439601052;529523;429986;453882;172322;
2024-05-16T23:21:49.899;539095923457756646;529677;430126;454077;172350;
2024-05-16T23:21:49.917;539095923475912240;529903;430338;454205;172357;
2024-05-16T23:21:49.935;539095923494067834;530180;430526;454355;172336;
2024-05-16T23:21:49.953;539095923512223428;530520;430743;454600;172299;
2024-05-16T23:21:49.971;539095923530379022;530829;430931;454826;172338;
2024-05-16T23:21:49.990;539095923548534616;531049;431148;455035;172327;
2024-05-16T23:21:50.008;539095923566690210;531290;431337;455183;172321;
2024-05-16T23:21:50.026;539095923584845804;531572;431452;455343;172315;
2024-05-16T23:21:50.044;539095923603001398;531685;431541;455520;172333;
2024-05-16T23:21:50.062;539095923621156992;531848;431607;455553;172336;
2024-05-16T23:21:50.080;539095923639312586;532028;431791;455715;172307;
2024-05-16T23:21:50.099;539095923657468180;532262;431934;455834;172325;
2024-05-16T23:21:50.117;539095923675623774;532304;432008;455907;172376;
2024-05-16T23:21:50.135;539095923693779368;532197;431933;455845;172286;
2024-05-16T23:21:50.153;539095923711934962;531908;431784;455624;172349;
2024-05-16T23:21:50.171;539095923730090556;531638;431505;455382;172322;
2024-05-16T23:21:50.189;539095923748246150;531336;431288;455100;172377;
2024-05-16T23:21:50.207;539095923766401744;530995;431109;454969;172268;
2024-05-16T23:21:50.226;539095923784558098;530793;430938;454831;172280;
2024-05-16T23:21:50.244;539095923802714418;530740;430943;454819;172335;
2024-05-16T23:21:50.262;539095923820870738;530758;431017;454870;172321;
2024-05-16T23:21:50.280;539095923839027058;530885;431116;454925;172267;
2024-05-16T23:21:50.298;539095923857183378;531156;431332;455160;172310;
2024-05-16T23:21:50.316;539095923875339698;531470;431557;455392;172318;
2024-05-16T23:21:50.335;539095923893496018;531741;431793;455654;172333;
2024-05-16T23:21:50.353;539095923911652338;532042;431964;455812;172272;
2024-05-16T23:21:50.371;539095923929808658;532346;432159;456073;172317;
2024-05-16T23:21:50.389;539095923947964978;532610;432417;456212;172314;
2024-05-16T23:21:50.407;539095923966121298;532865;432585;456363;172360;
2024-05-16T23:21:50.425;539095923984277618;533026;432697;456537;172342;
2024-05-16T23:21:50.444;539095924002433938;533350;432804;456748;172303;
2024-05-16T23:21:50.462;539095924020590258;533391;432918;456785;172275;
2024-05-16T23:21:50.480;539095924038746578;533575;433131;456901;172332;
2024-05-16T23:21:50.498;539095924056902898;533729;433212;456971;172306;
2024-05-16T23:21:50.516;539095924075059218;533661;433106;456937;172314;
2024-05-16T23:21:50.534;539095924093215538;533430;432919;456780;172269;
2024-05-16T23:21:50.552;539095924111371858;533171;432685;456579;172295;
2024-05-16T23:21:50.571;539095924129528178;532796;432544;456287;172315;
2024-05-16T23:21:50.589;539095924147684498;532470;432303;456105;172304;
2024-05-16T23:21:50.607;539095924165840818;532251;432178;455983;172269;
2024-05-16T23:21:50.625;539095924183997138;532112;432135;455892;172224;
2024-05-16T23:21:50.643;539095924202153458;532153;432103;455935;172280;
2024-05-16T23:21:50.661;539095924220309778;532253;432314;456042;172361;
2024-05-16T23:21:50.680;539095924238466098;532471;432469;456196;172361;
2024-05-16T23:21:50.698;539095924256622418;532762;432636;456407;172336;
2024-05-16T23:21:50.716;539095924274778738;533068;432912;456640;172356;
2024-05-16T23:21:50.734;539095924292935058;533348;433150;456877;172303;
2024-05-16T23:21:50.752;539095924311091378;533651;433350;457105;172343;
2024-05-16T23:21:50.770;539095924329247698;533939;433514;457240;172319;
2024-05-16T23:21:50.788;539095924347404018;534186;433650;457397;172319;
2024-05-16T23:21:50.807;539095924365560338;534317;433738;457479;172361;
2024-05-16T23:21:50.825;539095924383716658;534448;433841;457634;172390;
2024-05-16T23:21:50.843;539095924401872978;534497;434005;457696;172380;
2024-05-16T23:21:50.861;539095924420029298;534617;434083;457742;172322;
2024-05-16T23:21:50.879;539095924438185618;534747;434176;457847;172346;
2024-05-16T23:21:50.897;539095924456341938;534790;434162;457873;172338;
2024-05-16T23:21:50.916;539095924474498258;534675;434055;457756;172396;
2024-05-16T23:21:50.934;539095924492654578;534384;433807;457555;172329;
2024-05-16T23:21:50.952;539095924510810898;534061;433568;457287;172323;
2024-05-16T23:21:50.970;539095924528967218;533672;433311;457024;172303;
2024-05-16T23:21:50.988;539095924547125369;533357;433112;456812;172310;
2024-05-16T23:21:51.006;539095924565283506;533135;432995;456685;172305;
2024-05-16T23:21:51.025;539095924583441643;533030;432922;456631;172365;
2024-05-16T23:21:51.043;539095924601599780;533024;432973;456634;172331;
2024-05-16T23:21:51.061;539095924619757917;533072;433108;456718;172332;
2024-05-16T23:21:51.079;539095924637916054;533208;433201;456843;172329;
2024-05-16T23:21:51.097;539095924656074191;533387;433349;456971;172276;
2024-05-16T23:21:51.115;539095924674232328;533642;433487;457143;172314;
2024-05-16T23:21:51.133;539095924692390465;533912;433725;457298;172278;
2024-05-16T23:21:51.152;539095924710548602;534102;433723;457411;172310;
2024-05-16T23:21:51.170;539095924728706739;534304;433923;457535;172361;
2024-05-16T23:21:51.188;539095924746864876;534444;433995;457652;172361;
2024-05-16T23:21:51.206;539095924765023013;534488;434106;457701;172366;
2024-05-16T23:21:51.224;539095924783181150;534577;434145;457811;172346;
2024-05-16T23:21:51.242;539095924801339287;534647;434267;457781;172352;
2024-05-16T23:21:51.261;539095924819497424;534722;434312;457863;172309;
2024-05-16T23:21:51.279;539095924837655561;534700;434332;457875;172304;
2024-05-16T23:21:51.297;539095924855813698;534660;434259;457764;172335;
2024-05-16T23:21:51.315;539095924873971835;534383;434031;457603;172368;
2024-05-16T23:21:51.333;539095924892129972;534042;433826;457318;172326;
2024-05-16T23:21:51.351;539095924910288109;533612;433533;457100;172320;
2024-05-16T23:21:51.370;539095924928446246;533249;433282;456823;172292;
2024-05-16T23:21:51.388;539095924946604383;532960;433093;456551;172293;
2024-05-16T23:21:51.406;539095924964762520;532722;432924;456406;172287;
2024-05-16T23:21:51.424;539095924982920657;532659;432912;456399;172277;
2024-05-16T23:21:51.442;539095925001078794;532666;432967;456418;172322;
2024-05-16T23:21:51.460;539095925019236931;532737;433044;456530;172336;
2024-05-16T23:21:51.478;539095925037395068;532835;433110;456566;172235;
2024-05-16T23:21:51.497;539095925055553205;533083;433286;456763;172287;
2024-05-16T23:21:51.515;539095925073711342;533238;433462;456960;172323;
2024-05-16T23:21:51.533;539095925091869479;533380;433547;456988;172312;
2024-05-16T23:21:51.551;539095925110027616;533630;433703;457173;172367;
2024-05-16T23:21:51.569;539095925128185753;533742;433818;457272;172360;
2024-05-16T23:21:51.587;539095925146343890;533801;433905;457314;172343;
2024-05-16T23:21:51.606;539095925164502027;533950;433902;457490;172375;
2024-05-16T23:21:51.624;539095925182660164;534066;434018;457509;172366;
2024-05-16T23:21:51.642;539095925200818301;534158;434122;457550;172344;
2024-05-16T23:21:51.660;539095925218976438;534282;434112;457672;172315;
2024-05-16T23:21:51.678;539095925237134575;534210;434135;457602;172354;
2024-05-16T23:21:51.696;539095925255292712;534090;433993;457494;172383;
2024-05-16T23:21:51.715;539095925273450849;533760;433755;457225;172399;
2024-05-16T23:21:51.733;539095925291608986;533339;433480;456934;172352;
2024-05-16T23:21:51.751;539095925309768311;532943;433225;456672;172309;
2024-05-16T23:21:51.769;539095925327927610;532526;432986;456477;172372;
2024-05-16T23:21:51.787;539095925346086909;532299;432868;456294;172335;
2024-05-16T23:21:51.805;539095925364246208;532165;432759;456246;172353;
2024-05-16T23:21:51.823;539095925382405507;532164;432834;456258;172348;
2024-05-16T23:21:51.842;539095925400564806;532102;432829;456241;172340;
2024-05-16T23:21:51.860;539095925418724105;532253;432952;456356;172275;
2024-05-16T23:21:51.878;539095925436883404;532379;433055;456525;172267;
2024-05-16T23:21:51.896;539095925455042703;532662;433292;456650;172288;
2024-05-16T23:21:51.914;539095925473202002;532899;433390;456783;172321;
2024-05-16T23:21:51.932;539095925491361301;533003;433537;456943;172300;
2024-05-16T23:21:51.951;539095925509520600;533298;433707;457072;172351;
2024-05-16T23:21:51.969;539095925527679899;533432;433823;457232;172345;
2024-05-16T23:21:51.987;539095925545839198;533529;433822;457295;172350;
2024-05-16T23:21:52.005;539095925563998497;533646;433968;457370;172362;
2024-05-16T23:21:52.023;539095925582157796;533711;434028;457396;172327;
2024-05-16T23:21:52.041;539095925600317095;533869;434056;457520;172320;
2024-05-16T23:21:52.060;539095925618476394;533808;434110;457559;172327;
2024-05-16T23:21:52.078;539095925636635693;533699;433969;457443;172282;
2024-05-16T23:21:52.096;539095925654794992;533396;433758;457172;172318;
2024-05-16T23:21:52.114;539095925672954291;532991;433393;456906;172289;
2024-05-16T23:21:52.132;539095925691113590;532532;433145;456648;172361;
2024-05-16T23:21:52.150;539095925709272889;532219;432881;456417;172297;
2024-05-16T23:21:52.169;539095925727432188;531915;432695;456243;172325;
2024-05-16T23:21:52.187;539095925745591487;531810;432608;456159;172317;
2024-05-16T23:21:52.205;539095925763750786;531781;432655;456185;172360;
2024-05-16T23:21:52.223;539095925781910085;531809;432666;456274;172328;
2024-05-16T23:21:52.241;539095925800069384;531998;432836;456402;172374;
2024-05-16T23:21:52.259;539095925818228683;532186;433031;456534;172346;
2024-05-16T23:21:52.277;539095925836387982;532497;433213;456787;172326;
2024-05-16T23:21:52.296;539095925854547281;532782;433458;456929;172282;
2024-05-16T23:21:52.314;539095925872706580;533063;433652;457159;172375;
2024-05-16T23:21:52.332;539095925890865879;533264;433782;457323;172345;
2024-05-16T23:21:52.350;539095925909025178;533546;433908;457498;172302;
2024-05-16T23:21:52.368;539095925927184477;533744;433996;457525;172303;
2024-05-16T23:21:52.386;539095925945343776;533876;434129;457690;172303;
2024-05-16T23:21:52.405;539095925963503075;534022;434282;457806;172353;
2024-05-16T23:21:52.423;539095925981662374;534168;434396;457948;172345;
2024-05-16T23:21:52.441;539095925999821673;534414;434497;458056;172368;
2024-05-16T23:21:52.459;539095926017980972;534304;434411;458054;172305;
2024-05-16T23:21:52.477;539095926036140271;534235;434357;457967;172383;
2024-05-16T23:21:52.495;539095926054299570;533943;434146;457729;172382;
2024-05-16T23:21:52.514;539095926072458664;533570;433879;457522;172361;
2024-05-16T23:21:52.532;539095926090617746;533126;433638;457207;172333;
2024-05-16T23:21:52.550;539095926108776828;532871;433416;457022;172322;
2024-05-16T23:21:52.568;539095926126935910;532611;433270;456849;172377;
2024-05-16T23:21:52.586;539095926145094992;532514;433152;456806;172389;
2024-05-16T23:21:52.604;539095926163254074;532477;433252;456815;172323;
2024-05-16T23:21:52.622;539095926181413156;532658;433371;456990;172360;
2024-05-16T23:21:52.641;539095926199572238;532845;433463;457136;172325;
2024-05-16T23:21:52.659;539095926217731320;533097;433684;457346;172345;
2024-05-16T23:21:52.677;539095926235890402;533369;433854;457510;172324;
2024-05-16T23:21:52.695;539095926254049484;533622;434046;457678;172307;
2024-05-16T23:21:52.713;539095926272208566;533944;434225;457919;172338;
2024-05-16T23:21:52.731;539095926290367648;534209;434358;457977;172334;
2024-05-16T23:21:52.750;539095926308526730;534391;434508;458116;172363;
2024-05-16T23:21:52.768;539095926326685812;534560;434647;458328;172358;
2024-05-16T23:21:52.786;539095926344844894;534664;434776;458391;172317;
2024-05-16T23:21:52.804;539095926363003976;534800;434816;458486;172344;
2024-05-16T23:21:52.822;539095926381163058;534992;434978;458649;172337;
2024-05-16T23:21:52.840;539095926399322140;535161;435016;458764;172327;
2024-05-16T23:21:52.859;539095926417481222;535169;435072;458827;172342;
2024-05-16T23:21:52.877;539095926435640304;535065;434978;458695;172333;
2024-05-16T23:21:52.895;539095926453799386;534751;434772;458505;172353;
2024-05-16T23:21:52.913;539095926471958468;534427;434460;458226;172365;
2024-05-16T23:21:52.931;539095926490117550;534056;434165;457987;172310;
2024-05-16T23:21:52.949;539095926508276632;533727;434008;457759;172356;
2024-05-16T23:21:52.968;539095926526435714;533505;433845;457592;172317;
2024-05-16T23:21:52.986;539095926544594796;533339;433797;457501;172358;
2024-05-16T23:21:53.004;539095926562753878;533313;433860;457561;172365;
2024-05-16T23:21:53.022;539095926580912960;533450;433906;457654;172303;
2024-05-16T23:21:53.040;539095926599072042;533664;434046;457856;172343;
2024-05-16T23:21:53.058;539095926617231124;533882;434260;457979;172332;
2024-05-16T23:21:53.076;539095926635390206;534187;434484;458220;172361;
2024-05-16T23:21:53.095;539095926653549288;534353;434564;458363;172301;
2024-05-16T23:21:53.113;539095926671708370;534639;434726;458611;172300;
2024-05-16T23:21:53.131;539095926689867452;534850;434880;458702;172254;
2024-05-16T23:21:53.149;539095926708026534;535018;435074;458825;172309;
2024-05-16T23:21:53.167;539095926726185616;535195;435156;458924;172310;
2024-05-16T23:21:53.185;539095926744344698;535284;435167;458965;172282;
2024-05-16T23:21:53.204;539095926762503780;535399;435283;459077;172305;
2024-05-16T23:21:53.222;539095926780662862;535495;435341;459201;172329;
2024-05-16T23:21:53.240;539095926798821944;535660;435438;459268;172344;
2024-05-16T23:21:53.258;539095926816981026;535658;435386;459267;172344;
2024-05-16T23:21:53.276;539095926835139236;535510;435307;459237;172338;
2024-05-16T23:21:53.294;539095926853297446;535214;435077;458940;172303;
2024-05-16T23:21:53.313;539095926871455656;534847;434848;458679;172297;
2024-05-16T23:21:53.331;539095926889613866;534480;434503;458419;172319;
2024-05-16T23:21:53.349;539095926907772076;534016;434253;458101;172306;
2024-05-16T23:21:53.367;539095926925930286;533702;434025;457931;172365;
2024-05-16T23:21:53.385;539095926944088496;533527;433956;457803;172371;
2024-05-16T23:21:53.403;539095926962246706;533394;433891;457775;172298;
2024-05-16T23:21:53.421;539095926980404916;533407;433987;457780;172306;
2024-05-16T23:21:53.440;539095926998563126;533510;434055;457935;172299;
2024-05-16T23:21:53.458;539095927016721336;533760;434220;458099;172344;
2024-05-16T23:21:53.476;539095927034879546;533958;434350;458278;172350;
2024-05-16T23:21:53.494;539095927053037756;534169;434527;458409;172343;
2024-05-16T23:21:53.512;539095927071195966;534346;434676;458576;172351;
2024-05-16T23:21:53.530;539095927089354176;534556;434782;458676;172376;
2024-05-16T23:21:53.549;539095927107512386;534732;434839;458748;172359;
2024-05-16T23:21:53.567;539095927125670596;534743;434857;458807;172335;
2024-05-16T23:21:53.585;539095927143828806;534830;434971;458889;172303;
2024-05-16T23:21:53.603;539095927161987016;534965;435006;458842;172341;
2024-05-16T23:21:53.621;539095927180145226;535008;435028;458874;172307;
2024-05-16T23:21:53.639;539095927198303436;535020;435086;458976;172343;
2024-05-16T23:21:53.658;539095927216461646;535089;435094;459009;172336;
2024-05-16T23:21:53.676;539095927234619856;535054;435114;458969;172312;
2024-05-16T23:21:53.694;539095927252778066;534727;434859;458801;172312;
2024-05-16T23:21:53.712;539095927270936276;534296;434531;458517;172328;
2024-05-16T23:21:53.730;539095927289094486;533861;434282;458186;172338;
2024-05-16T23:21:53.748;539095927307252696;533385;433929;457896;172318;
2024-05-16T23:21:53.766;539095927325410906;533012;433664;457629;172375;
2024-05-16T23:21:53.785;539095927343569116;532789;433506;457503;172374;
2024-05-16T23:21:53.803;539095927361727326;532578;433354;457391;172336;
2024-05-16T23:21:53.821;539095927379885536;532537;433381;457328;172294;
2024-05-16T23:21:53.839;539095927398043746;532595;433465;457391;172304;
2024-05-16T23:21:53.857;539095927416201956;532745;433529;457502;172301;
2024-05-16T23:21:53.875;539095927434360166;532835;433609;457577;172285;
2024-05-16T23:21:53.894;539095927452518376;533174;433845;457790;172325;
2024-05-16T23:21:53.912;539095927470676586;533394;434008;458012;172353;
2024-05-16T23:21:53.930;539095927488834796;533554;434097;458076;172335;
2024-05-16T23:21:53.948;539095927506993006;533759;434266;458170;172303;
2024-05-16T23:21:53.966;539095927525151216;533891;434371;458296;172336;
2024-05-16T23:21:53.984;539095927543309426;533960;434399;458410;172295;
2024-05-16T23:21:54.003;539095927561467636;534065;434466;458471;172284;
2024-05-16T23:21:54.021;539095927579625846;534144;434487;458483;172337;
2024-05-16T23:21:54.039;539095927597784056;534181;434527;458582;172290;
2024-05-16T23:21:54.057;539095927615942266;534284;434596;458589;172286;
2024-05-16T23:21:54.075;539095927634100476;534226;434534;458554;172359;
2024-05-16T23:21:54.093;539095927652258686;533868;434286;458303;172322;
2024-05-16T23:21:54.111;539095927670416896;533548;434009;458108;172318;
2024-05-16T23:21:54.130;539095927688575106;533072;433647;457730;172345;
2024-05-16T23:21:54.148;539095927706733316;532631;433339;457414;172318;
2024-05-16T23:21:54.166;539095927724891526;532173;433036;457130;172299;
2024-05-16T23:21:54.184;539095927743049736;531818;432831;456906;172281;
2024-05-16T23:21:54.202;539095927761207946;531655;432701;456802;172307;
2024-05-16T23:21:54.220;539095927779366156;531623;432726;456818;172349;
2024-05-16T23:21:54.239;539095927797524366;531641;432720;456832;172311;
2024-05-16T23:21:54.257;539095927815682576;531771;432812;456959;172301;
2024-05-16T23:21:54.275;539095927833840786;531952;432981;457140;172319;
2024-05-16T23:21:54.293;539095927851998996;532203;433184;457355;172355;
2024-05-16T23:21:54.311;539095927870157206;532507;433296;457430;172385;
2024-05-16T23:21:54.329;539095927888315416;532779;433457;457544;172333;
2024-05-16T23:21:54.348;539095927906473626;532950;433610;457770;172369;
2024-05-16T23:21:54.366;539095927924631836;533121;433720;457894;172395;
2024-05-16T23:21:54.384;539095927942790046;533249;433782;457954;172316;
2024-05-16T23:21:54.402;539095927960948256;533342;433829;458069;172319;
2024-05-16T23:21:54.420;539095927979106466;533430;433882;458011;172305;
2024-05-16T23:21:54.438;539095927997264676;533567;434002;458128;172392;
2024-05-16T23:21:54.457;539095928015422886;533629;434031;458205;172327;
2024-05-16T23:21:54.475;539095928033581096;533622;434071;458262;172309;
2024-05-16T23:21:54.493;539095928051739306;533363;433843;458074;172320;
2024-05-16T23:21:54.511;539095928069897516;533079;433619;457807;172286;
2024-05-16T23:21:54.529;539095928088055726;532609;433231;457494;172308;
2024-05-16T23:21:54.547;539095928106213936;532084;432912;457159;172306;
2024-05-16T23:21:54.565;539095928124372146;531617;432549;456866;172291;
2024-05-16T23:21:54.584;539095928142530356;531290;432378;456630;172338;
2024-05-16T23:21:54.602;539095928160688566;531060;432184;456504;172357;
2024-05-16T23:21:54.620;539095928178846776;530956;432099;456416;172300;
2024-05-16T23:21:54.638;539095928197004986;531070;432204;456505;172258;
2024-05-16T23:21:54.656;539095928215163196;531213;432333;456686;172311;
2024-05-16T23:21:54.674;539095928233321406;531425;432529;456817;172304;
2024-05-16T23:21:54.693;539095928251479616;531742;432711;457030;172326;
2024-05-16T23:21:54.711;539095928269637826;531949;432871;457226;172331;
2024-05-16T23:21:54.729;539095928287796836;532223;433015;457371;172357;
2024-05-16T23:21:54.747;539095928305955808;532469;433132;457542;172300;
2024-05-16T23:21:54.765;539095928324114780;532636;433316;457672;172312;
2024-05-16T23:21:54.783;539095928342273752;532834;433415;457735;172273;
2024-05-16T23:21:54.802;539095928360432724;532919;433502;457831;172281;
2024-05-16T23:21:54.820;539095928378591696;533107;433605;457948;172312;
2024-05-16T23:21:54.838;539095928396750668;533160;433637;458069;172319;
2024-05-16T23:21:54.856;539095928414909640;533310;433713;458162;172367;
2024-05-16T23:21:54.874;539095928433068612;533450;433781;458215;172325;
2024-05-16T23:21:54.892;539095928451227584;533394;433780;458140;172361;
2024-05-16T23:21:54.910;539095928469386556;533100;433563;457982;172382;
2024-05-16T23:21:54.929;539095928487545528;532696;433199;457745;172319;
2024-05-16T23:21:54.947;539095928505704500;532256;432870;457412;172429;
2024-05-16T23:21:54.965;539095928523863472;531862;432549;457049;172374;
2024-05-16T23:21:54.983;539095928542022444;531435;432347;456831;172346;
2024-05-16T23:21:55.001;539095928560181416;531244;432150;456631;172346;
2024-05-16T23:21:55.019;539095928578340388;530979;432069;456530;172358;
2024-05-16T23:21:55.038;539095928596499360;530958;432087;456580;172328;
2024-05-16T23:21:55.056;539095928614658332;531106;432115;456674;172331;
2024-05-16T23:21:55.074;539095928632817304;531316;432338;456819;172360;
2024-05-16T23:21:55.092;539095928650976276;531550;432490;457002;172404;
2024-05-16T23:21:55.110;539095928669135248;531849;432684;457199;172356;
2024-05-16T23:21:55.128;539095928687294220;532069;432761;457248;172331;
2024-05-16T23:21:55.147;539095928705453192;532254;432888;457402;172324;
2024-05-16T23:21:55.165;539095928723612164;532484;433118;457571;172321;
2024-05-16T23:21:55.183;539095928741771136;532599;433207;457657;172306;
2024-05-16T23:21:55.201;539095928759930108;532807;433240;457755;172373;
2024-05-16T23:21:55.219;539095928778089080;532841;433258;457824;172316;
2024-05-16T23:21:55.237;539095928796248052;532958;433332;457902;172323;
2024-05-16T23:21:55.255;539095928814407024;533034;433421;457967;172322;
2024-05-16T23:21:55.274;539095928832565996;533211;433455;458068;172372;
2024-05-16T23:21:55.292;539095928850724968;533238;433529;458113;172343;
2024-05-16T23:21:55.310;539095928868883940;533247;433453;458047;172401;
2024-05-16T23:21:55.328;539095928887042912;532907;433204;457811;172333;
2024-05-16T23:21:55.346;539095928905201884;532479;432890;457448;172338;
2024-05-16T23:21:55.364;539095928923360856;532011;432573;457194;172333;
2024-05-16T23:21:55.383;539095928941519828;531497;432241;456828;172295;
2024-05-16T23:21:55.401;539095928959678800;531169;431946;456552;172336;
2024-05-16T23:21:55.419;539095928977837772;530836;431839;456424;172335;
2024-05-16T23:21:55.437;539095928995996744;530652;431688;456356;172371;
2024-05-16T23:21:55.455;539095929014155647;530703;431689;456325;172301;
2024-05-16T23:21:55.473;539095929032314521;530807;431819;456392;172291;
2024-05-16T23:21:55.492;539095929050473395;530946;431933;456525;172301;
2024-05-16T23:21:55.510;539095929068632269;531185;432068;456702;172328;
2024-05-16T23:21:55.528;539095929086791143;531395;432232;456855;172363;
2024-05-16T23:21:55.546;539095929104950017;531627;432435;457048;172391;
2024-05-16T23:21:55.564;539095929123108891;531823;432515;457145;172370;
2024-05-16T23:21:55.582;539095929141267765;531986;432628;457210;172319;
2024-05-16T23:21:55.601;539095929159426639;532135;432673;457281;172315;
2024-05-16T23:21:55.619;539095929177585513;532164;432739;457343;172280;
2024-05-16T23:21:55.637;539095929195744387;532260;432773;457335;172303;
2024-05-16T23:21:55.655;539095929213903261;532302;432790;457375;172263;
2024-05-16T23:21:55.673;539095929232062135;532345;432827;457400;172318;
2024-05-16T23:21:55.691;539095929250221009;532450;432897;457504;172284;
2024-05-16T23:21:55.709;539095929268379883;532495;432943;457608;172332;
2024-05-16T23:21:55.728;539095929286538757;532431;432815;457531;172377;
2024-05-16T23:21:55.746;539095929304697631;532100;432591;457268;172325;
2024-05-16T23:21:55.764;539095929322856505;531679;432298;456972;172335;
2024-05-16T23:21:55.782;539095929341015379;531099;431956;456614;172297;
2024-05-16T23:21:55.800;539095929359174253;530637;431605;456239;172293;
2024-05-16T23:21:55.818;539095929377333127;530192;431322;455957;172311;
2024-05-16T23:21:55.837;539095929395492001;529852;431142;455771;172272;
2024-05-16T23:21:55.855;539095929413650875;529751;431043;455638;172312;
2024-05-16T23:21:55.873;539095929431809749;529708;431000;455621;172343;
2024-05-16T23:21:55.891;539095929449968623;529702;430988;455649;172307;
2024-05-16T23:21:55.909;539095929468127497;529817;431140;455810;172304;
2024-05-16T23:21:55.927;539095929486286371;529975;431285;455933;172321;
2024-05-16T23:21:55.946;539095929504445245;530197;431363;456072;172307;
2024-05-16T23:21:55.964;539095929522604119;530394;431582;456185;172357;
2024-05-16T23:21:55.982;539095929540762993;530629;431718;456248;172298;
2024-05-16T23:21:56.000;539095929558921867;530767;431785;456392;172269;
2024-05-16T23:21:56.018;539095929577080741;530840;431831;456460;172302;
2024-05-16T23:21:56.036;539095929595239615;530910;431932;456498;172355;
2024-05-16T23:21:56.054;539095929613398489;530937;431932;456532;172391;
2024-05-16T23:21:56.073;539095929631557363;531010;431982;456564;172365;
2024-05-16T23:21:56.091;539095929649716237;531059;432040;456629;172367;
2024-05-16T23:21:56.109;539095929667875111;531128;432016;456657;172327;
2024-05-16T23:21:56.127;539095929686033985;531187;432082;456641;172322;
2024-05-16T23:21:56.145;539095929704192859;531097;431921;456580;172277;
2024-05-16T23:21:56.163;539095929722350606;530737;431698;456331;172276;
2024-05-16T23:21:56.182;539095929740508334;530307;431410;456030;172290;
2024-05-16T23:21:56.200;539095929758666062;529826;431095;455681;172286;
2024-05-16T23:21:56.218;539095929776823790;529370;430695;455395;172288;
2024-05-16T23:21:56.236;539095929794981518;528954;430385;455112;172299;
2024-05-16T23:21:56.254;539095929813139246;528589;430167;454829;172281;
2024-05-16T23:21:56.272;539095929831296974;528447;430056;454791;172325;
2024-05-16T23:21:56.291;539095929849454702;528323;430018;454712;172314;
2024-05-16T23:21:56.309;539095929867612430;528362;430166;454768;172335;
2024-05-16T23:21:56.327;539095929885770158;528528;430223;454789;172358;
2024-05-16T23:21:56.345;539095929903927886;528707;430382;454981;172350;
2024-05-16T23:21:56.363;539095929922085614;528901;430510;455099;172267;
2024-05-16T23:21:56.381;539095929940243342;529149;430659;455213;172299;
2024-05-16T23:21:56.399;539095929958401070;529289;430767;455376;172321;
2024-05-16T23:21:56.418;539095929976558798;529470;430869;455443;172286;
2024-05-16T23:21:56.436;539095929994716526;529634;430898;455571;172303;
2024-05-16T23:21:56.454;539095930012874254;529684;431026;455626;172339;
2024-05-16T23:21:56.472;539095930031031982;529761;431043;455684;172322;
2024-05-16T23:21:56.490;539095930049189710;529833;431114;455740;172274;
2024-05-16T23:21:56.508;539095930067347438;529947;431154;455752;172291;
2024-05-16T23:21:56.527;539095930085505166;530057;431217;455826;172272;
2024-05-16T23:21:56.545;539095930103662894;530146;431281;455907;172349;
2024-05-16T23:21:56.563;539095930121820622;529952;431126;455803;172351;
2024-05-16T23:21:56.581;539095930139978350;529581;430787;455525;172319;
2024-05-16T23:21:56.599;539095930158136078;529137;430529;455206;172352;
2024-05-16T23:21:56.617;539095930176293806;528565;430128;454794;172358;
2024-05-16T23:21:56.636;539095930194451534;528096;429832;454478;172370;
2024-05-16T23:21:56.654;539095930212609262;527680;429525;454194;172374;
2024-05-16T23:21:56.672;539095930230766990;527351;429280;453987;172357;
2024-05-16T23:21:56.690;539095930248924718;527254;429242;453928;172327;
2024-05-16T23:21:56.708;539095930267082446;527257;429248;453942;172370;
2024-05-16T23:21:56.726;539095930285240174;527441;429391;454090;172368;
2024-05-16T23:21:56.744;539095930303397902;527627;429483;454174;172379;
2024-05-16T23:21:56.763;539095930321555630;527830;429708;454366;172378;
2024-05-16T23:21:56.781;539095930339713358;528124;429819;454583;172337;
2024-05-16T23:21:56.799;539095930357871086;528367;430058;454735;172291;
2024-05-16T23:21:56.817;539095930376028814;528616;430190;454866;172377;
2024-05-16T23:21:56.835;539095930394186542;528806;430311;454992;172361;
2024-05-16T23:21:56.853;539095930412346212;528854;430329;455104;172359;
2024-05-16T23:21:56.872;539095930430505865;528995;430505;455228;172323;
2024-05-16T23:21:56.890;539095930448665518;529135;430587;455257;172297;
2024-05-16T23:21:56.908;539095930466825171;529271;430647;455295;172309;
2024-05-16T23:21:56.926;539095930484984824;529396;430740;455360;172323;
2024-05-16T23:21:56.944;539095930503144477;529578;430873;455466;172311;
2024-05-16T23:21:56.962;539095930521304130;529568;430862;455518;172294;
2024-05-16T23:21:56.981;539095930539463783;529439;430664;455390;172386;
2024-05-16T23:21:56.999;539095930557623436;529070;430373;455080;172291;
2024-05-16T23:21:57.017;539095930575783089;528611;430064;454758;172350;
2024-05-16T23:21:57.035;539095930593942742;528080;429717;454370;172333;
2024-05-16T23:21:57.053;539095930612102395;527597;429415;454075;172306;
2024-05-16T23:21:57.071;539095930630262048;527274;429163;453814;172277;
2024-05-16T23:21:57.090;539095930648421701;527062;429074;453771;172284;
2024-05-16T23:21:57.108;539095930666581354;527017;428965;453651;172345;
2024-05-16T23:21:57.126;539095930684741007;527141;429026;453788;172298;
2024-05-16T23:21:57.144;539095930702900660;527311;429184;453833;172309;
2024-05-16T23:21:57.162;539095930721060313;527470;429397;454028;172318;
2024-05-16T23:21:57.180;539095930739219966;527777;429545;454206;172329;
2024-05-16T23:21:57.198;539095930757379619;528014;429779;454379;172292;
2024-05-16T23:21:57.217;539095930775539272;528237;429908;454548;172277;
2024-05-16T23:21:57.235;539095930793698925;528402;430006;454654;172316;
2024-05-16T23:21:57.253;539095930811858578;528584;430171;454822;172310;
2024-05-16T23:21:57.271;539095930830018231;528720;430253;454870;172345;
2024-05-16T23:21:57.289;539095930848177884;528862;430352;454933;172268;
2024-05-16T23:21:57.307;539095930866337537;528923;430407;454961;172317;
2024-05-16T23:21:57.326;539095930884497190;528993;430478;455015;172303;
2024-05-16T23:21:57.344;539095930902656843;529163;430572;455148;172275;
2024-05-16T23:21:57.362;539095930920816496;529305;430640;455228;172237;
2024-05-16T23:21:57.380;539095930938976149;529340;430628;455215;172337;
2024-05-16T23:21:57.398;539095930957135802;529153;430426;455117;172265;
2024-05-16T23:21:57.416;539095930975295455;528719;430180;454778;172277;
2024-05-16T23:21:57.435;539095930993455108;528257;429873;454420;172295;
2024-05-16T23:21:57.453;539095931011614761;527756;429561;454123;172331;
2024-05-16T23:21:57.471;539095931029774414;527352;429245;453798;172306;
2024-05-16T23:21:57.489;539095931047934067;527041;428913;453495;172294;
2024-05-16T23:21:57.507;539095931066093720;526851;428854;453336;172303;
2024-05-16T23:21:57.525;539095931084250508;526770;428867;453352;172352;
2024-05-16T23:21:57.543;539095931102407264;526819;428906;453359;172284;
2024-05-16T23:21:57.562;539095931120564020;526995;428999;453501;172273;
2024-05-16T23:21:57.580;539095931138720776;527240;429205;453709;172305;
2024-05-16T23:21:57.598;539095931156877532;527494;429382;453881;172362;
2024-05-16T23:21:57.616;539095931175034288;527778;429544;454020;172281;
2024-05-16T23:21:57.634;539095931193191044;528053;429730;454230;172372;
2024-05-16T23:21:57.652;539095931211347800;528225;429897;454294;172288;
2024-05-16T23:21:57.671;539095931229504556;528354;429957;454399;172290;
2024-05-16T23:21:57.689;539095931247661312;528487;429999;454449;172273;
2024-05-16T23:21:57.707;539095931265818068;528523;430096;454493;172298;
2024-05-16T23:21:57.725;539095931283974824;528662;430169;454577;172341;
2024-05-16T23:21:57.743;539095931302131580;528726;430208;454573;172314;
2024-05-16T23:21:57.761;539095931320288336;528863;430323;454686;172323;
2024-05-16T23:21:57.780;539095931338445092;529012;430432;454735;172326;
2024-05-16T23:21:57.798;539095931356601848;529054;430446;454806;172322;
2024-05-16T23:21:57.816;539095931374758604;528884;430300;454601;172305;
2024-05-16T23:21:57.834;539095931392915360;528538;430061;454398;172340;
2024-05-16T23:21:57.852;539095931411072116;528120;429739;454071;172327;
2024-05-16T23:21:57.870;539095931429228872;527645;429420;453764;172336;
2024-05-16T23:21:57.888;539095931447385628;527262;429110;453472;172320;
2024-05-16T23:21:57.907;539095931465542384;526905;428919;453212;172317;
2024-05-16T23:21:57.925;539095931483699140;526741;428729;453004;172331;
2024-05-16T23:21:57.943;539095931501855896;526618;428746;453040;172352;
2024-05-16T23:21:57.961;539095931520012652;526708;428758;453090;172348;
2024-05-16T23:21:57.979;539095931538169408;526921;428918;453207;172342;
2024-05-16T23:21:57.997;539095931556326164;527092;428995;453340;172354;
2024-05-16T23:21:58.016;539095931574482920;527239;429249;453432;172337;
2024-05-16T23:21:58.034;539095931592639676;527558;429381;453700;172360;
2024-05-16T23:21:58.052;539095931610796432;527765;429511;453749;172346;
2024-05-16T23:21:58.070;539095931628953188;528018;429657;453889;172320;
2024-05-16T23:21:58.088;539095931647109944;528095;429698;453954;172343;
2024-05-16T23:21:58.106;539095931665266700;528222;429777;454022;172315;
2024-05-16T23:21:58.125;539095931683423456;528233;429844;453969;172320;
2024-05-16T23:21:58.143;539095931701580212;528324;429877;454065;172335;
2024-05-16T23:21:58.161;539095931719736968;528344;429917;454095;172339;
2024-05-16T23:21:58.179;539095931737893724;528358;429913;454119;172328;
2024-05-16T23:21:58.197;539095931756050480;528497;430029;454161;172345;
2024-05-16T23:21:58.215;539095931774207236;528486;429941;454150;172290;
2024-05-16T23:21:58.233;539095931792363992;528316;429819;454076;172346;
2024-05-16T23:21:58.252;539095931810520748;527987;429640;453909;172343;
2024-05-16T23:21:58.270;539095931828677504;527573;429326;453478;172308;
2024-05-16T23:21:58.288;539095931846835714;527175;429033;453221;172305;
2024-05-16T23:21:58.306;539095931864993924;526713;428737;452868;172369;
2024-05-16T23:21:58.324;539095931883152134;526263;428423;452618;172372;
2024-05-16T23:21:58.342;539095931901310344;526079;428355;452468;172358;
2024-05-16T23:21:58.361;539095931919468554;525924;428271;452422;172382;
2024-05-16T23:21:58.379;539095931937626764;525960;428299;452364;172376;
2024-05-16T23:21:58.397;539095931955784974;526033;428377;452438;172328;
2024-05-16T23:21:58.415;539095931973943184;526230;428456;452527;172360;
2024-05-16T23:21:58.433;539095931992101394;526457;428701;452681;172403;
2024-05-16T23:21:58.451;539095932010259604;526648;428807;452785;172348;
2024-05-16T23:21:58.470;539095932028417814;526824;428939;452960;172372;
2024-05-16T23:21:58.488;539095932046576024;527004;429013;453040;172324;
2024-05-16T23:21:58.506;539095932064734234;527155;429145;453169;172326;
2024-05-16T23:21:58.524;539095932082892444;527194;429174;453121;172318;
2024-05-16T23:21:58.542;539095932101050654;527293;429173;453180;172352;
2024-05-16T23:21:58.560;539095932119208864;527268;429190;453116;172257;
2024-05-16T23:21:58.578;539095932137367074;527300;429166;453197;172298;
2024-05-16T23:21:58.597;539095932155525284;527319;429185;453225;172348;
2024-05-16T23:21:58.615;539095932173683494;527422;429267;453340;172380;
2024-05-16T23:21:58.633;539095932191841704;527480;429273;453306;172352;
2024-05-16T23:21:58.651;539095932209999914;527250;429080;453078;172318;
2024-05-16T23:21:58.669;539095932228158124;526855;428823;452728;172352;
2024-05-16T23:21:58.687;539095932246316334;526427;428536;452426;172327;
2024-05-16T23:21:58.706;539095932264474544;525982;428149;452133;172297;
2024-05-16T23:21:58.724;539095932282632754;525553;427906;451827;172300;
2024-05-16T23:21:58.742;539095932300790964;525246;427639;451625;172298;
2024-05-16T23:21:58.760;539095932318949174;524976;427571;451454;172331;
2024-05-16T23:21:58.778;539095932337107384;524962;427458;451351;172288;
2024-05-16T23:21:58.796;539095932355265594;524963;427501;451406;172294;
2024-05-16T23:21:58.815;539095932373423804;525061;427564;451516;172276;
2024-05-16T23:21:58.833;539095932391582014;525267;427745;451607;172273;
2024-05-16T23:21:58.851;539095932409740224;525451;427859;451790;172291;
2024-05-16T23:21:58.869;539095932427898434;525670;428068;451852;172348;
2024-05-16T23:21:58.887;539095932446056644;525788;428155;452012;172237;
2024-05-16T23:21:58.905;539095932464214854;525977;428232;452153;172341;
2024-05-16T23:21:58.923;539095932482373064;526019;428285;452180;172317;
2024-05-16T23:21:58.942;539095932500531274;526185;428377;452258;172309;
2024-05-16T23:21:58.960;539095932518689484;526217;428326;452212;172326;
2024-05-16T23:21:58.978;539095932536847694;526284;428414;452295;172318;
2024-05-16T23:21:58.996;539095932555005904;526358;428461;452329;172278;
2024-05-16T23:21:59.014;539095932573164987;526446;428457;452345;172268;
2024-05-16T23:21:59.032;539095932591324044;526473;428468;452380;172252;
2024-05-16T23:21:59.051;539095932609483101;526400;428439;452354;172312;
2024-05-16T23:21:59.069;539095932627642158;526096;428253;452055;172320;
2024-05-16T23:21:59.087;539095932645801215;525622;427878;451700;172338;
2024-05-16T23:21:59.105;539095932663960272;525109;427512;451375;172271;
2024-05-16T23:21:59.123;539095932682119329;524596;427134;451000;172293;
2024-05-16T23:21:59.141;539095932700278386;524221;426792;450686;172331;
