Phone timestamp;sensor timestamp [ns];channel 0;channel 1;channel 2;ambient
2024-05-17T13:18:29.030;539146122841476030;464214;462965;509410;173544;
2024-05-17T13:18:29.048;539146122859634458;464614;463214;509687;173564;
2024-05-17T13:18:29.066;539146122877792886;464919;463492;510085;173537;
2024-05-17T13:18:29.084;539146122895951314;465227;463799;510443;173493;
2024-05-17T13:18:29.102;539146122914109742;465502;463972;510716;173585;
2024-05-17T13:18:29.120;539146122932268170;465630;464089;510802;173492;
2024-05-17T13:18:29.138;539146122950426598;465751;464028;510917;173497;
2024-05-17T13:18:29.157;539146122968585026;465689;463866;510793;173491;
2024-05-17T13:18:29.175;539146122986743454;465423;463482;510478;173460;
2024-05-17T13:18:29.193;539146123004901882;465060;463063;510152;173408;
2024-05-17T13:18:29.211;539146123023060310;464716;462602;509737;173433;
2024-05-17T13:18:29.229;539146123041218738;464476;462261;509224;173428;
2024-05-17T13:18:29.247;539146123059377166;464198;461912;508857;173449;
2024-05-17T13:18:29.266;539146123077535594;464037;461743;508573;173435;
2024-05-17T13:18:29.284;539146123095694022;463919;461647;508373;173367;
2024-05-17T13:18:29.302;539146123113852450;463932;461599;508289;173373;
2024-05-17T13:18:29.320;539146123132010878;463977;461677;508263;173413;
2024-05-17T13:18:29.338;539146123150169306;463907;461629;508242;173384;
2024-05-17T13:18:29.356;539146123168327734;464006;461811;508417;173384;
2024-05-17T13:18:29.375;539146123186486162;464002;461908;508548;173434;
2024-05-17T13:18:29.393;539146123204644590;463875;461999;508535;173383;
2024-05-17T13:18:29.411;539146123222803018;463769;462079;508603;173394;
2024-05-17T13:18:29.429;539146123240961446;463588;462122;508627;173298;
2024-05-17T13:18:29.447;539146123259119874;463366;462044;508616;173327;
2024-05-17T13:18:29.465;539146123277278302;463140;462083;508490;173356;
2024-05-17T13:18:29.483;539146123295436730;462901;462067;508428;173387;
2024-05-17T13:18:29.502;539146123313595158;462412;461773;508072;173397;
2024-05-17T13:18:29.520;539146123331753586;461686;461264;507373;173357;
2024-05-17T13:18:29.538;539146123349912014;460930;460389;506395;173337;
2024-05-17T13:18:29.556;539146123368070442;459983;459546;505375;173337;
2024-05-17T13:18:29.574;539146123386228870;459009;458571;504289;173327;
2024-05-17T13:18:29.592;539146123404387298;458109;457464;503245;173342;
2024-05-17T13:18:29.611;539146123422545726;457261;456402;502249;173350;
2024-05-17T13:18:29.629;539146123440704154;456671;455492;501451;173334;
2024-05-17T13:18:29.647;539146123458862582;456023;454596;500738;173344;
2024-05-17T13:18:29.665;539146123477021010;455545;453910;500153;173301;
2024-05-17T13:18:29.683;539146123495179438;455153;453348;499723;173303;
2024-05-17T13:18:29.701;539146123513337866;454831;452984;499491;173310;
2024-05-17T13:18:29.720;539146123531496294;454590;452614;499288;173313;
2024-05-17T13:18:29.738;539146123549654722;454355;452293;499080;173339;
2024-05-17T13:18:29.756;539146123567813150;454145;451990;498924;173341;
2024-05-17T13:18:29.774;539146123585971578;453967;451789;498914;173352;
2024-05-17T13:18:29.792;539146123604130006;453694;451478;498805;173346;
2024-05-17T13:18:29.810;539146123622288434;453447;451257;498678;173362;
2024-05-17T13:18:29.828;539146123640446862;453283;451121;498620;173369;
2024-05-17T13:18:29.847;539146123658605290;452936;450922;498463;173377;
2024-05-17T13:18:29.865;539146123676763718;452420;450525;498037;173400;
2024-05-17T13:18:29.883;539146123694922146;451645;449946;497398;173358;
2024-05-17T13:18:29.901;539146123713080574;450795;449227;496626;173396;
2024-05-17T13:18:29.919;539146123731239002;449922;448405;495701;173347;
2024-05-17T13:18:29.937;539146123749397430;449070;447743;494805;173321;
2024-05-17T13:18:29.956;539146123767555858;448422;447080;494016;173344;
2024-05-17T13:18:29.974;539146123785714286;447913;446600;493475;173335;
2024-05-17T13:18:29.992;539146123803872714;447549;446222;493095;173377;
2024-05-17T13:18:30.010;539146123822031142;447443;446020;492813;173316;
2024-05-17T13:18:30.028;539146123840189570;447402;445937;492675;173431;
2024-05-17T13:18:30.046;539146123858347998;447281;445892;492592;173333;
2024-05-17T13:18:30.065;539146123876506426;447345;445973;492526;173334;
2024-05-17T13:18:30.083;539146123894664854;447410;445973;492635;173322;
2024-05-17T13:18:30.101;539146123912823282;447338;445997;492664;173366;
2024-05-17T13:18:30.119;539146123930981710;447202;446043;492666;173359;
2024-05-17T13:18:30.137;539146123949140138;447091;445935;492642;173355;
2024-05-17T13:18:30.155;539146123967298566;446888;445819;492495;173355;
2024-05-17T13:18:30.173;539146123985456994;446571;445687;492327;173349;
2024-05-17T13:18:30.192;539146124003615422;446277;445479;492153;173311;
2024-05-17T13:18:30.210;539146124021773850;445862;445182;491724;173312;
2024-05-17T13:18:30.228;539146124039932278;445164;444639;490966;173364;
2024-05-17T13:18:30.246;539146124058090706;444317;443911;490054;173325;
2024-05-17T13:18:30.264;539146124076249134;443387;443111;489002;173333;
2024-05-17T13:18:30.282;539146124094407562;442400;442292;487857;173298;
2024-05-17T13:18:30.301;539146124112565990;441488;441511;486766;173341;
2024-05-17T13:18:30.319;539146124130724942;440596;440777;485783;173307;
2024-05-17T13:18:30.337;539146124148883893;439897;440182;485019;173314;
2024-05-17T13:18:30.355;539146124167042844;439329;439760;484429;173275;
2024-05-17T13:18:30.373;539146124185201795;438929;439431;483909;173260;
2024-05-17T13:18:30.391;539146124203360746;438629;439266;483583;173288;
2024-05-17T13:18:30.410;539146124221519697;438344;439104;483386;173301;
2024-05-17T13:18:30.428;539146124239678648;438158;438991;483204;173289;
2024-05-17T13:18:30.446;539146124257837599;437946;438940;483034;173250;
2024-05-17T13:18:30.464;539146124275996550;437783;438870;482950;173249;
2024-05-17T13:18:30.482;539146124294155501;437540;438855;482797;173271;
2024-05-17T13:18:30.500;539146124312314452;437189;438664;482587;173258;
2024-05-17T13:18:30.518;539146124330473403;436904;438498;482414;173264;
2024-05-17T13:18:30.537;539146124348632354;436585;438310;482138;173237;
2024-05-17T13:18:30.555;539146124366791305;436242;438105;481906;173283;
2024-05-17T13:18:30.573;539146124384950256;435742;437795;481496;173271;
2024-05-17T13:18:30.591;539146124403109207;435209;437267;480883;173276;
2024-05-17T13:18:30.609;539146124421268158;434425;436649;480196;173258;
2024-05-17T13:18:30.627;539146124439427109;433637;435981;479384;173256;
2024-05-17T13:18:30.646;539146124457586060;432921;435287;478662;173304;
2024-05-17T13:18:30.664;539146124475745011;432188;434585;477963;173282;
2024-05-17T13:18:30.682;539146124493903962;431503;434029;477302;173270;
2024-05-17T13:18:30.700;539146124512062913;430985;433579;476872;173275;
2024-05-17T13:18:30.718;539146124530221864;430567;433243;476438;173267;
2024-05-17T13:18:30.736;539146124548380815;430193;432923;476132;173201;
2024-05-17T13:18:30.755;539146124566539766;429909;432814;475966;173245;
2024-05-17T13:18:30.773;539146124584698717;429695;432734;475823;173249;
2024-05-17T13:18:30.791;539146124602857668;429544;432651;475773;173341;
2024-05-17T13:18:30.809;539146124621016619;429414;432538;475674;173290;
2024-05-17T13:18:30.827;539146124639175570;429220;432479;475568;173270;
2024-05-17T13:18:30.845;539146124657334521;429024;432358;475458;173304;
2024-05-17T13:18:30.864;539146124675493472;428798;432211;475373;173297;
2024-05-17T13:18:30.882;539146124693652423;428526;432043;475179;173263;
2024-05-17T13:18:30.900;539146124711811374;428278;431848;474983;173250;
2024-05-17T13:18:30.918;539146124729970325;427988;431648;474760;173236;
2024-05-17T13:18:30.936;539146124748129276;427603;431296;474478;173211;
2024-05-17T13:18:30.954;539146124766289013;427101;430818;474027;173271;
2024-05-17T13:18:30.972;539146124784448749;426384;430230;473299;173220;
2024-05-17T13:18:30.991;539146124802608485;425696;429577;472602;173255;
2024-05-17T13:18:31.009;539146124820768221;424997;428880;471906;173225;
2024-05-17T13:18:31.027;539146124838927957;424324;428241;471158;173180;
2024-05-17T13:18:31.045;539146124857087693;423799;427728;470643;173211;
2024-05-17T13:18:31.063;539146124875247429;423254;427276;470176;173249;
2024-05-17T13:18:31.081;539146124893407165;422869;426983;469820;173223;
2024-05-17T13:18:31.100;539146124911566901;422588;426728;469600;173282;
2024-05-17T13:18:31.118;539146124929726637;422363;426504;469365;173271;
2024-05-17T13:18:31.136;539146124947886373;422105;426414;469213;173216;
2024-05-17T13:18:31.154;539146124966046109;422002;426274;469117;173226;
2024-05-17T13:18:31.172;539146124984205845;421859;426128;469019;173228;
2024-05-17T13:18:31.190;539146125002365581;421668;426071;468924;173182;
2024-05-17T13:18:31.209;539146125020525317;421503;426020;468870;173202;
2024-05-17T13:18:31.227;539146125038685053;421328;425848;468725;173213;
2024-05-17T13:18:31.245;539146125056844789;421157;425685;468580;173215;
2024-05-17T13:18:31.263;539146125075004525;420938;425468;468408;173209;
2024-05-17T13:18:31.281;539146125093164261;420694;425323;468246;173246;
2024-05-17T13:18:31.299;539146125111323997;420353;425022;467976;173213;
2024-05-17T13:18:31.318;539146125129483733;419935;424577;467483;173199;
2024-05-17T13:18:31.336;539146125147643469;419471;424084;466986;173243;
2024-05-17T13:18:31.354;539146125165803205;418803;423410;466273;173216;
2024-05-17T13:18:31.372;539146125183962941;418161;422825;465609;173189;
2024-05-17T13:18:31.390;539146125202122677;417582;422285;464983;173243;
2024-05-17T13:18:31.408;539146125220282413;417136;421759;464493;173220;
2024-05-17T13:18:31.426;539146125238442149;416707;421389;464032;173171;
2024-05-17T13:18:31.445;539146125256601885;416415;421128;463676;173232;
2024-05-17T13:18:31.463;539146125274761621;416133;420937;463507;173220;
2024-05-17T13:18:31.481;539146125292921357;415944;420755;463347;173238;
2024-05-17T13:18:31.499;539146125311081093;415821;420677;463247;173171;
2024-05-17T13:18:31.517;539146125329240829;415745;420658;463195;173230;
2024-05-17T13:18:31.535;539146125347400565;415646;420583;463114;173240;
2024-05-17T13:18:31.554;539146125365560301;415554;420545;463069;173272;
2024-05-17T13:18:31.572;539146125383720037;415439;420499;463056;173187;
2024-05-17T13:18:31.590;539146125401880474;415356;420495;462940;173219;
2024-05-17T13:18:31.608;539146125420040907;415298;420404;462869;173227;
2024-05-17T13:18:31.626;539146125438201340;415169;420368;462808;173199;
2024-05-17T13:18:31.644;539146125456361773;415040;420245;462615;173220;
2024-05-17T13:18:31.663;539146125474522206;414832;420080;462387;173261;
2024-05-17T13:18:31.681;539146125492682639;414367;419598;461961;173212;
2024-05-17T13:18:31.699;539146125510843072;413886;419086;461373;173208;
2024-05-17T13:18:31.717;539146125529003505;413387;418477;460756;173230;
2024-05-17T13:18:31.735;539146125547163938;412922;417928;460138;173184;
2024-05-17T13:18:31.753;539146125565324371;412449;417440;459632;173170;
2024-05-17T13:18:31.772;539146125583484804;411967;417039;459164;173205;
2024-05-17T13:18:31.790;539146125601645237;411709;416737;458833;173230;
2024-05-17T13:18:31.808;539146125619805670;411472;416534;458574;173220;
2024-05-17T13:18:31.826;539146125637966103;411351;416401;458473;173202;
2024-05-17T13:18:31.844;539146125656126536;411338;416414;458397;173236;
2024-05-17T13:18:31.862;539146125674286969;411266;416373;458356;173215;
2024-05-17T13:18:31.880;539146125692447402;411266;416298;458367;173207;
2024-05-17T13:18:31.899;539146125710607835;411255;416258;458371;173185;
2024-05-17T13:18:31.917;539146125728768268;411264;416247;458343;173228;
2024-05-17T13:18:31.935;539146125746928701;411193;416237;458289;173190;
2024-05-17T13:18:31.953;539146125765089134;411121;416244;458228;173164;
2024-05-17T13:18:31.971;539146125783249567;411109;416166;458250;173157;
2024-05-17T13:18:31.989;539146125801410000;411088;416133;458210;173184;
2024-05-17T13:18:32.008;539146125819570433;410908;415990;458103;173196;
2024-05-17T13:18:32.026;539146125837730866;410667;415742;457765;173211;
2024-05-17T13:18:32.044;539146125855891299;410248;415259;457295;173243;
2024-05-17T13:18:32.062;539146125874051732;409770;414739;456731;173213;
2024-05-17T13:18:32.080;539146125892212165;409312;414205;456055;173199;
2024-05-17T13:18:32.098;539146125910372598;408803;413635;455469;173202;
2024-05-17T13:18:32.117;539146125928533031;408426;413192;454964;173239;
2024-05-17T13:18:32.135;539146125946693464;408105;412795;454597;173231;
2024-05-17T13:18:32.153;539146125964853897;407851;412595;454411;173210;
2024-05-17T13:18:32.171;539146125983014330;407715;412520;454244;173238;
2024-05-17T13:18:32.189;539146126001174763;407670;412375;454158;173213;
2024-05-17T13:18:32.207;539146126019335196;407727;412308;454182;173184;
2024-05-17T13:18:32.226;539146126037494275;407770;412469;454216;173185;
2024-05-17T13:18:32.244;539146126055653351;407864;412528;454275;173188;
2024-05-17T13:18:32.262;539146126073812427;407902;412618;454351;173134;
2024-05-17T13:18:32.280;539146126091971503;407943;412704;454418;173173;
2024-05-17T13:18:32.298;539146126110130579;407999;412726;454455;173137;
2024-05-17T13:18:32.316;539146126128289655;408051;412766;454517;173210;
2024-05-17T13:18:32.334;539146126146448731;408061;412795;454562;173182;
2024-05-17T13:18:32.353;539146126164607807;408115;412729;454511;173159;
2024-05-17T13:18:32.371;539146126182766883;407854;412540;454259;173203;
2024-05-17T13:18:32.389;539146126200925959;407520;412222;453921;173198;
2024-05-17T13:18:32.407;539146126219085035;407072;411694;453312;173203;
2024-05-17T13:18:32.425;539146126237244111;406657;411234;452779;173145;
2024-05-17T13:18:32.443;539146126255403187;406246;410688;452285;173201;
2024-05-17T13:18:32.462;539146126273562263;405851;410289;451802;173186;
2024-05-17T13:18:32.480;539146126291721339;405570;409949;451473;173213;
2024-05-17T13:18:32.498;539146126309880415;405358;409780;451218;173220;
2024-05-17T13:18:32.516;539146126328039491;405270;409629;451057;173211;
2024-05-17T13:18:32.534;539146126346198567;405231;409579;451006;173194;
2024-05-17T13:18:32.552;539146126364357643;405325;409627;451099;173252;
2024-05-17T13:18:32.571;539146126382516719;405419;409716;451240;173225;
2024-05-17T13:18:32.589;539146126400675795;405561;409894;451338;173247;
2024-05-17T13:18:32.607;539146126418834871;405640;410036;451478;173181;
2024-05-17T13:18:32.625;539146126436993947;405748;410157;451613;173178;
2024-05-17T13:18:32.643;539146126455153023;405888;410221;451722;173237;
2024-05-17T13:18:32.661;539146126473312099;405981;410306;451819;173278;
2024-05-17T13:18:32.679;539146126491471175;406074;410375;451868;173246;
2024-05-17T13:18:32.698;539146126509630251;406089;410363;451892;173212;
2024-05-17T13:18:32.716;539146126527789327;406004;410291;451755;173165;
2024-05-17T13:18:32.734;539146126545948403;405799;410075;451555;173232;
2024-05-17T13:18:32.752;539146126564107479;405474;409740;451158;173174;
2024-05-17T13:18:32.770;539146126582266555;405092;409296;450671;173170;
2024-05-17T13:18:32.788;539146126600425631;404685;408810;450235;173207;
2024-05-17T13:18:32.807;539146126618584707;404387;408496;449803;173215;
2024-05-17T13:18:32.825;539146126636743783;404114;408143;449520;173235;
2024-05-17T13:18:32.843;539146126654902859;403925;407901;449250;173186;
2024-05-17T13:18:32.861;539146126673061935;403793;407836;449119;173198;
2024-05-17T13:18:32.879;539146126691221011;403791;407840;449068;173227;
2024-05-17T13:18:32.897;539146126709381327;403922;407939;449201;173220;
2024-05-17T13:18:32.916;539146126727541607;404030;408027;449390;173216;
2024-05-17T13:18:32.934;539146126745701887;404219;408258;449543;173202;
2024-05-17T13:18:32.952;539146126763862167;404429;408415;449758;173213;
2024-05-17T13:18:32.970;539146126782022447;404593;408532;449918;173253;
2024-05-17T13:18:32.988;539146126800182727;404697;408710;450025;173209;
2024-05-17T13:18:33.006;539146126818343007;404758;408734;450084;173205;
2024-05-17T13:18:33.025;539146126836503287;404852;408857;450206;173134;
2024-05-17T13:18:33.043;539146126854663567;404925;408852;450292;173177;
2024-05-17T13:18:33.061;539146126872823847;404915;408811;450275;173192;
2024-05-17T13:18:33.079;539146126890984127;404929;408759;450212;173192;
2024-05-17T13:18:33.097;539146126909144407;404663;408580;449961;173191;
2024-05-17T13:18:33.115;539146126927304687;404278;408249;449624;173170;
2024-05-17T13:18:33.133;539146126945464967;403975;407911;449196;173178;
2024-05-17T13:18:33.152;539146126963625247;403660;407514;448794;173202;
2024-05-17T13:18:33.170;539146126981785527;403340;407207;448460;173193;
2024-05-17T13:18:33.188;539146126999945807;403109;406933;448178;173228;
2024-05-17T13:18:33.206;539146127018106087;402983;406701;448003;173195;
2024-05-17T13:18:33.224;539146127036266367;402978;406643;447950;173194;
2024-05-17T13:18:33.242;539146127054426647;403033;406716;448047;173197;
2024-05-17T13:18:33.261;539146127072586927;403081;406886;448134;173223;
2024-05-17T13:18:33.279;539146127090747207;403209;406966;448267;173223;
2024-05-17T13:18:33.297;539146127108907487;403393;407169;448454;173216;
2024-05-17T13:18:33.315;539146127127067767;403538;407289;448631;173164;
2024-05-17T13:18:33.333;539146127145228047;403696;407450;448833;173190;
2024-05-17T13:18:33.351;539146127163388327;403740;407497;448853;173146;
2024-05-17T13:18:33.370;539146127181548607;403801;407658;449003;173199;
2024-05-17T13:18:33.388;539146127199708887;403878;407726;449014;173163;
2024-05-17T13:18:33.406;539146127217869167;403890;407747;449072;173160;
2024-05-17T13:18:33.424;539146127236029447;403920;407704;449087;173194;
2024-05-17T13:18:33.442;539146127254189727;403776;407571;448929;173185;
2024-05-17T13:18:33.460;539146127272350007;403495;407292;448663;173221;
2024-05-17T13:18:33.479;539146127290510287;403189;406927;448253;173215;
2024-05-17T13:18:33.497;539146127308670567;402838;406457;447779;173203;
2024-05-17T13:18:33.515;539146127326830847;402507;406113;447389;173205;
2024-05-17T13:18:33.533;539146127344991127;402171;405891;447057;173236;
2024-05-17T13:18:33.551;539146127363151407;401880;405575;446748;173176;
2024-05-17T13:18:33.569;539146127381311687;401795;405492;446633;173211;
2024-05-17T13:18:33.587;539146127399471967;401784;405456;446573;173221;
2024-05-17T13:18:33.606;539146127417632247;401783;405531;446619;173233;
2024-05-17T13:18:33.624;539146127435792527;401814;405531;446663;173167;
2024-05-17T13:18:33.642;539146127453952807;401901;405662;446812;173140;
2024-05-17T13:18:33.660;539146127472112754;402062;405797;446929;173189;
2024-05-17T13:18:33.678;539146127490272696;402220;405872;447088;173228;
2024-05-17T13:18:33.696;539146127508432638;402254;406019;447143;173193;
2024-05-17T13:18:33.715;539146127526592580;402312;406078;447304;173258;
2024-05-17T13:18:33.733;539146127544752522;402347;406138;447348;173197;
2024-05-17T13:18:33.751;539146127562912464;402282;406084;447359;173167;
2024-05-17T13:18:33.769;539146127581072406;402288;406108;447400;173236;
2024-05-17T13:18:33.787;539146127599232348;402197;406042;447324;173209;
2024-05-17T13:18:33.805;539146127617392290;402038;405828;447089;173171;
2024-05-17T13:18:33.824;539146127635552232;401708;405525;446747;173165;
2024-05-17T13:18:33.842;539146127653712174;401367;405150;446324;173227;
2024-05-17T13:18:33.860;539146127671872116;400978;404576;445823;173176;
2024-05-17T13:18:33.878;539146127690032058;400612;404295;445412;173194;
2024-05-17T13:18:33.896;539146127708192000;400383;404031;445165;173232;
2024-05-17T13:18:33.914;539146127726351942;400125;403756;444850;173236;
2024-05-17T13:18:33.933;539146127744511884;399966;403640;444745;173127;
2024-05-17T13:18:33.951;539146127762671826;399963;403614;444707;173205;
2024-05-17T13:18:33.969;539146127780831768;400023;403603;444731;173156;
2024-05-17T13:18:33.987;539146127798991710;400032;403749;444836;173155;
2024-05-17T13:18:34.005;539146127817151652;400139;403850;444960;173193;
2024-05-17T13:18:34.023;539146127835311594;400300;404010;445217;173205;
2024-05-17T13:18:34.041;539146127853471536;400392;404091;445326;173197;
2024-05-17T13:18:34.060;539146127871631478;400497;404215;445379;173168;
2024-05-17T13:18:34.078;539146127889791420;400569;404286;445426;173169;
2024-05-17T13:18:34.096;539146127907951362;400620;404295;445508;173164;
2024-05-17T13:18:34.114;539146127926111304;400713;404352;445604;173256;
2024-05-17T13:18:34.132;539146127944271246;400704;404384;445629;173206;
2024-05-17T13:18:34.150;539146127962431188;400663;404366;445567;173195;
2024-05-17T13:18:34.169;539146127980591130;400458;404127;445242;173212;
2024-05-17T13:18:34.187;539146127998751072;400121;403719;444918;173176;
2024-05-17T13:18:34.205;539146128016911014;399741;403337;444454;173170;
2024-05-17T13:18:34.223;539146128035070956;399361;402896;443946;173097;
2024-05-17T13:18:34.241;539146128053230898;399091;402624;443631;173184;
2024-05-17T13:18:34.259;539146128071390840;398773;402261;443345;173162;
2024-05-17T13:18:34.278;539146128089550782;398616;402136;443121;173100;
2024-05-17T13:18:34.296;539146128107710724;398617;402023;443081;173114;
2024-05-17T13:18:34.314;539146128125870666;398653;402124;443063;173178;
2024-05-17T13:18:34.332;539146128144029685;398675;402204;443195;173160;
2024-05-17T13:18:34.350;539146128162188694;398877;402377;443398;173175;
2024-05-17T13:18:34.368;539146128180347703;399121;402584;443644;173188;
2024-05-17T13:18:34.387;539146128198506712;399243;402704;443869;173167;
2024-05-17T13:18:34.405;539146128216665721;399471;402932;443980;173141;
2024-05-17T13:18:34.423;539146128234824730;399536;403050;444138;173106;
2024-05-17T13:18:34.441;539146128252983739;399627;403102;444299;173133;
2024-05-17T13:18:34.459;539146128271142748;399754;403161;444369;173164;
2024-05-17T13:18:34.477;539146128289301757;399866;403214;444429;173206;
2024-05-17T13:18:34.495;539146128307460766;399806;403199;444399;173184;
2024-05-17T13:18:34.514;539146128325619775;399631;402956;444200;173088;
2024-05-17T13:18:34.532;539146128343778784;399361;402683;443870;173194;
2024-05-17T13:18:34.550;539146128361937793;399020;402293;443466;173255;
2024-05-17T13:18:34.568;539146128380096802;398653;401791;442981;173172;
2024-05-17T13:18:34.586;539146128398255811;398322;401446;442587;173189;
2024-05-17T13:18:34.604;539146128416414820;398061;401194;442213;173184;
2024-05-17T13:18:34.623;539146128434573829;397855;400976;442026;173170;
2024-05-17T13:18:34.641;539146128452732838;397833;400913;441983;173184;
2024-05-17T13:18:34.659;539146128470891847;397853;400977;441983;173186;
2024-05-17T13:18:34.677;539146128489050856;398001;401079;442133;173177;
2024-05-17T13:18:34.695;539146128507209865;398194;401286;442274;173160;
2024-05-17T13:18:34.713;539146128525368874;398396;401531;442595;173198;
2024-05-17T13:18:34.732;539146128543527883;398646;401757;442882;173225;
2024-05-17T13:18:34.750;539146128561686892;398875;401960;443104;173223;
2024-05-17T13:18:34.768;539146128579845901;399013;402117;443295;173193;
2024-05-17T13:18:34.786;539146128598004910;399140;402261;443473;173202;
2024-05-17T13:18:34.804;539146128616163919;399293;402403;443629;173177;
2024-05-17T13:18:34.822;539146128634322928;399427;402473;443707;173224;
2024-05-17T13:18:34.841;539146128652481937;399469;402560;443779;173222;
2024-05-17T13:18:34.859;539146128670640946;399437;402535;443771;173156;
2024-05-17T13:18:34.877;539146128688799955;399270;402276;443515;173170;
2024-05-17T13:18:34.895;539146128706958964;398979;401995;443240;173145;
2024-05-17T13:18:34.913;539146128725117973;398622;401619;442758;173145;
2024-05-17T13:18:34.931;539146128743276982;398301;401200;442428;173133;
2024-05-17T13:18:34.949;539146128761435991;398028;400908;442021;173168;
2024-05-17T13:18:34.968;539146128779595000;397782;400681;441762;173148;
2024-05-17T13:18:34.986;539146128797754009;397658;400539;441602;173161;
2024-05-17T13:18:35.004;539146128815913018;397698;400479;441618;173201;
2024-05-17T13:18:35.022;539146128834072027;397704;400523;441723;173181;
2024-05-17T13:18:35.040;539146128852231036;397903;400729;441942;173243;
2024-05-17T13:18:35.058;539146128870390045;398068;400942;442084;173184;
2024-05-17T13:18:35.077;539146128888549054;398290;401150;442379;173167;
2024-05-17T13:18:35.095;539146128906708246;398556;401424;442718;173164;
2024-05-17T13:18:35.113;539146128924867400;398755;401614;442900;173201;
2024-05-17T13:18:35.131;539146128943026554;398995;401859;443081;173237;
2024-05-17T13:18:35.149;539146128961185708;399130;401976;443259;173226;
2024-05-17T13:18:35.167;539146128979344862;399207;402045;443380;173195;
2024-05-17T13:18:35.186;539146128997504016;399277;402146;443475;173155;
2024-05-17T13:18:35.204;539146129015663170;399386;402225;443586;173168;
2024-05-17T13:18:35.222;539146129033822324;399375;402246;443618;173199;
2024-05-17T13:18:35.240;539146129051981478;399199;402119;443426;173182;
2024-05-17T13:18:35.258;539146129070140632;398975;401757;443150;173181;
2024-05-17T13:18:35.276;539146129088299786;398624;401351;442747;173179;
2024-05-17T13:18:35.294;539146129106458940;398290;401041;442379;173178;
2024-05-17T13:18:35.313;539146129124618094;398008;400785;442031;173184;
2024-05-17T13:18:35.331;539146129142777248;397793;400491;441776;173196;
2024-05-17T13:18:35.349;539146129160936402;397681;400351;441578;173197;
2024-05-17T13:18:35.367;539146129179095556;397600;400391;441567;173145;
2024-05-17T13:18:35.385;539146129197254710;397719;400439;441635;173216;
2024-05-17T13:18:35.403;539146129215413864;397906;400593;441800;173215;
2024-05-17T13:18:35.422;539146129233573018;398021;400784;442006;173192;
2024-05-17T13:18:35.440;539146129251732172;398236;401055;442281;173171;
2024-05-17T13:18:35.458;539146129269891326;398388;401204;442466;173119;
2024-05-17T13:18:35.476;539146129288050480;398500;401331;442616;173117;
2024-05-17T13:18:35.494;539146129306209634;398605;401473;442833;173156;
2024-05-17T13:18:35.512;539146129324368788;398667;401549;442945;173169;
2024-05-17T13:18:35.531;539146129342527942;398685;401628;442969;173186;
2024-05-17T13:18:35.549;539146129360687096;398689;401617;442956;173202;
2024-05-17T13:18:35.567;539146129378846250;398666;401681;442955;173237;
2024-05-17T13:18:35.585;539146129397005404;398602;401583;442903;173179;
2024-05-17T13:18:35.603;539146129415164558;398452;401403;442722;173196;
2024-05-17T13:18:35.621;539146129433323712;398147;401090;442328;173158;
2024-05-17T13:18:35.640;539146129451482866;397769;400666;441941;173129;
2024-05-17T13:18:35.658;539146129469642020;397409;400280;441465;173165;
2024-05-17T13:18:35.676;539146129487801174;397029;399925;441034;173125;
2024-05-17T13:18:35.694;539146129505960328;396707;399616;440656;173148;
2024-05-17T13:18:35.712;539146129524119482;396518;399402;440502;173145;
2024-05-17T13:18:35.730;539146129542278636;396466;399353;440381;173160;
2024-05-17T13:18:35.748;539146129560437790;396439;399326;440410;173163;
2024-05-17T13:18:35.767;539146129578596944;396459;399338;440387;173202;
2024-05-17T13:18:35.785;539146129596756098;396489;399462;440524;173143;
2024-05-17T13:18:35.803;539146129614915252;396644;399584;440666;173207;
2024-05-17T13:18:35.821;539146129633074406;396725;399694;440767;173188;
2024-05-17T13:18:35.839;539146129651233560;396852;399843;440957;173228;
2024-05-17T13:18:35.857;539146129669390405;396909;399918;441032;173147;
2024-05-17T13:18:35.876;539146129687547234;396915;399970;441094;173143;
2024-05-17T13:18:35.894;539146129705704063;396900;400005;441123;173243;
2024-05-17T13:18:35.912;539146129723860892;396847;399927;441160;173239;
2024-05-17T13:18:35.930;539146129742017721;396925;399932;441086;173144;
2024-05-17T13:18:35.948;539146129760174550;396826;399938;441163;173185;
2024-05-17T13:18:35.966;539146129778331379;396707;399804;440978;173193;
2024-05-17T13:18:35.985;539146129796488208;396418;399501;440707;173151;
2024-05-17T13:18:36.003;539146129814645037;396106;399121;440273;173170;
2024-05-17T13:18:36.021;539146129832801866;395764;398684;439780;173198;
2024-05-17T13:18:36.039;539146129850958695;395397;398258;439352;173207;
2024-05-17T13:18:36.057;539146129869115524;395093;398026;439079;173191;
2024-05-17T13:18:36.075;539146129887272353;394872;397820;438771;173168;
2024-05-17T13:18:36.093;539146129905429182;394717;397658;438706;173165;
2024-05-17T13:18:36.112;539146129923586011;394695;397584;438654;173163;
2024-05-17T13:18:36.130;539146129941742840;394681;397626;438717;173122;
2024-05-17T13:18:36.148;539146129959899669;394771;397752;438854;173150;
2024-05-17T13:18:36.166;539146129978056498;394919;397919;439015;173190;
2024-05-17T13:18:36.184;539146129996213327;394998;398082;439202;173205;
2024-05-17T13:18:36.202;539146130014370156;395133;398162;439257;173177;
2024-05-17T13:18:36.221;539146130032526985;395277;398282;439343;173224;
2024-05-17T13:18:36.239;539146130050683814;395278;398327;439483;173121;
2024-05-17T13:18:36.257;539146130068840643;395248;398364;439523;173124;
2024-05-17T13:18:36.275;539146130086997472;395390;398415;439569;173151;
2024-05-17T13:18:36.293;539146130105154301;395372;398463;439604;173191;
2024-05-17T13:18:36.311;539146130123311130;395364;398417;439588;173168;
2024-05-17T13:18:36.329;539146130141467959;395178;398287;439396;173185;
2024-05-17T13:18:36.348;539146130159624788;394932;397945;439086;173124;
2024-05-17T13:18:36.366;539146130177781617;394589;397547;438701;173137;
2024-05-17T13:18:36.384;539146130195938446;394224;397148;438257;173131;
2024-05-17T13:18:36.402;539146130214095275;393941;396816;437923;173173;
2024-05-17T13:18:36.420;539146130232252104;393626;396498;437577;173122;
2024-05-17T13:18:36.438;539146130250408933;393488;396289;437318;173153;
2024-05-17T13:18:36.457;539146130268565762;393444;396225;437288;173191;
2024-05-17T13:18:36.475;539146130286722591;393436;396289;437305;173133;
2024-05-17T13:18:36.493;539146130304879420;393626;396410;437467;173130;
2024-05-17T13:18:36.511;539146130323036249;393811;396631;437689;173147;
2024-05-17T13:18:36.529;539146130341193078;393978;396860;437899;173130;
2024-05-17T13:18:36.547;539146130359349907;394229;397081;438194;173140;
2024-05-17T13:18:36.566;539146130377506736;394360;397281;438399;173103;
2024-05-17T13:18:36.584;539146130395663565;394599;397547;438705;173191;
2024-05-17T13:18:36.602;539146130413820394;394820;397768;438854;173184;
2024-05-17T13:18:36.620;539146130431978547;394966;397852;439071;173162;
2024-05-17T13:18:36.638;539146130450136684;395074;398026;439207;173141;
2024-05-17T13:18:36.656;539146130468294821;395258;398085;439317;173188;
2024-05-17T13:18:36.674;539146130486452958;395272;398204;439350;173205;
2024-05-17T13:18:36.693;539146130504611095;395136;398115;439303;173208;
2024-05-17T13:18:36.711;539146130522769232;394951;397849;438933;173175;
2024-05-17T13:18:36.729;539146130540927369;394689;397470;438478;173155;
2024-05-17T13:18:36.747;539146130559085506;394405;397089;438113;173131;
2024-05-17T13:18:36.765;539146130577243643;394199;396902;437777;173109;
2024-05-17T13:18:36.783;539146130595401780;394078;396734;437676;173179;
2024-05-17T13:18:36.802;539146130613559917;393948;396580;437558;173152;
2024-05-17T13:18:36.820;539146130631718054;394000;396632;437551;173186;
2024-05-17T13:18:36.838;539146130649876191;394115;396767;437710;173137;
2024-05-17T13:18:36.856;539146130668034328;394300;397028;437912;173168;
2024-05-17T13:18:36.874;539146130686192465;394583;397255;438144;173184;
2024-05-17T13:18:36.892;539146130704350602;394761;397497;438440;173126;
2024-05-17T13:18:36.911;539146130722508739;395079;397783;438747;173180;
2024-05-17T13:18:36.929;539146130740666876;395225;397926;438945;173156;
2024-05-17T13:18:36.947;539146130758825013;395441;398146;439218;173232;
2024-05-17T13:18:36.965;539146130776983150;395548;398273;439366;173202;
2024-05-17T13:18:36.983;539146130795141287;395568;398401;439438;173174;
2024-05-17T13:18:37.001;539146130813299424;395728;398484;439602;173223;
2024-05-17T13:18:37.019;539146130831457561;395784;398568;439743;173117;
2024-05-17T13:18:37.038;539146130849615698;395874;398637;439773;173170;
2024-05-17T13:18:37.056;539146130867773835;395840;398557;439727;173178;
2024-05-17T13:18:37.074;539146130885931972;395624;398258;439444;173178;
2024-05-17T13:18:37.092;539146130904090109;395336;397990;439149;173195;
2024-05-17T13:18:37.110;539146130922248246;394976;397632;438763;173121;
2024-05-17T13:18:37.128;539146130940406383;394782;397431;438506;173135;
2024-05-17T13:18:37.147;539146130958564520;394593;397240;438220;173139;
2024-05-17T13:18:37.165;539146130976722657;394495;397096;438138;173143;
2024-05-17T13:18:37.183;539146130994880794;394521;397113;438132;173185;
2024-05-17T13:18:37.201;539146131013038931;394629;397173;438216;173203;
2024-05-17T13:18:37.219;539146131031197068;394813;397456;438468;173177;
2024-05-17T13:18:37.237;539146131049355205;395073;397630;438670;173163;
2024-05-17T13:18:37.256;539146131067513342;395228;397830;438962;173171;
2024-05-17T13:18:37.274;539146131085671479;395508;398155;439313;173196;
2024-05-17T13:18:37.292;539146131103829616;395727;398379;439575;173136;
2024-05-17T13:18:37.310;539146131121987753;395913;398594;439823;173157;
2024-05-17T13:18:37.328;539146131140145890;396105;398804;440039;173180;
2024-05-17T13:18:37.346;539146131158304027;396158;398894;440147;173151;
2024-05-17T13:18:37.364;539146131176462164;396312;399046;440339;173155;
2024-05-17T13:18:37.383;539146131194621994;396367;399178;440408;173144;
2024-05-17T13:18:37.401;539146131212781802;396521;399308;440579;173159;
2024-05-17T13:18:37.419;539146131230941610;396501;399284;440579;173126;
2024-05-17T13:18:37.437;539146131249101418;396433;399211;440497;173227;
2024-05-17T13:18:37.455;539146131267261226;396182;398914;440235;173155;
2024-05-17T13:18:37.473;539146131285421034;395879;398636;439832;173190;
2024-05-17T13:18:37.492;539146131303580842;395607;398369;439534;173165;
2024-05-17T13:18:37.510;539146131321740650;395340;398024;439217;173109;
2024-05-17T13:18:37.528;539146131339900458;395169;397834;439011;173153;
2024-05-17T13:18:37.546;539146131358060266;395034;397753;438866;173135;
2024-05-17T13:18:37.564;539146131376220074;395083;397800;438925;173165;
2024-05-17T13:18:37.582;539146131394379882;395111;397860;438992;173148;
2024-05-17T13:18:37.601;539146131412539690;395230;397987;439207;173171;
2024-05-17T13:18:37.619;539146131430699498;395409;398242;439467;173230;
2024-05-17T13:18:37.637;539146131448859306;395653;398420;439599;173209;
2024-05-17T13:18:37.655;539146131467019114;395820;398559;439878;173140;
2024-05-17T13:18:37.673;539146131485178922;395978;398774;440055;173163;
2024-05-17T13:18:37.691;539146131503338730;396113;399006;440233;173091;
2024-05-17T13:18:37.710;539146131521498538;396175;399077;440370;173167;
2024-05-17T13:18:37.728;539146131539658346;396239;399099;440457;173143;
2024-05-17T13:18:37.746;539146131557818154;396276;399220;440506;173204;
2024-05-17T13:18:37.764;539146131575977962;396361;399262;440585;173229;
2024-05-17T13:18:37.782;539146131594137770;396330;399308;440597;173147;
2024-05-17T13:18:37.800;539146131612297578;396214;399207;440547;173062;
2024-05-17T13:18:37.818;539146131630457386;396101;399114;440406;173140;
2024-05-17T13:18:37.837;539146131648617194;395819;398763;440055;173139;
2024-05-17T13:18:37.855;539146131666777002;395518;398512;439752;173191;
2024-05-17T13:18:37.873;539146131684936810;395279;398182;439367;173140;
2024-05-17T13:18:37.891;539146131703096618;395015;397916;439120;173174;
2024-05-17T13:18:37.909;539146131721256426;394846;397735;438900;173190;
2024-05-17T13:18:37.927;539146131739416234;394805;397681;438889;173206;
2024-05-17T13:18:37.946;539146131757576042;394731;397724;438860;173242;
2024-05-17T13:18:37.964;539146131775735850;394708;397775;438900;173157;
2024-05-17T13:18:37.982;539146131793895658;394897;397898;439057;173185;
2024-05-17T13:18:38.000;539146131812055466;394979;398057;439219;173142;
2024-05-17T13:18:38.018;539146131830215274;395135;398256;439371;173159;
2024-05-17T13:18:38.036;539146131848375082;395236;398430;439557;173121;
2024-05-17T13:18:38.055;539146131866534890;395415;398523;439785;173197;
2024-05-17T13:18:38.073;539146131884694698;395509;398600;439950;173144;
2024-05-17T13:18:38.091;539146131902854506;395565;398679;440028;173117;
2024-05-17T13:18:38.109;539146131921014314;395704;398798;440124;173153;
2024-05-17T13:18:38.127;539146131939174122;395781;398904;440238;173204;
2024-05-17T13:18:38.145;539146131957334545;395845;398992;440322;173167;
2024-05-17T13:18:38.164;539146131975494934;395821;399046;440387;173184;
2024-05-17T13:18:38.182;539146131993655323;395723;398946;440336;173172;
2024-05-17T13:18:38.200;539146132011815712;395562;398727;440132;173124;
2024-05-17T13:18:38.218;539146132029976101;395396;398512;439877;173190;
2024-05-17T13:18:38.236;539146132048136490;395091;398179;439518;173164;
2024-05-17T13:18:38.254;539146132066296879;394830;397957;439217;173187;
2024-05-17T13:18:38.272;539146132084457268;394639;397726;438960;173145;
2024-05-17T13:18:38.291;539146132102617657;394508;397592;438884;173197;
2024-05-17T13:18:38.309;539146132120778046;394455;397532;438783;173143;
2024-05-17T13:18:38.327;539146132138938435;394600;397590;438943;173175;
2024-05-17T13:18:38.345;539146132157098824;394636;397693;439030;173135;
2024-05-17T13:18:38.363;539146132175259213;394792;397901;439192;173101;
2024-05-17T13:18:38.381;539146132193419602;395007;398099;439423;173159;
2024-05-17T13:18:38.400;539146132211579991;395215;398338;439707;173182;
2024-05-17T13:18:38.418;539146132229740380;395349;398475;439830;173157;
2024-05-17T13:18:38.436;539146132247900769;395592;398697;440130;173118;
2024-05-17T13:18:38.454;539146132266061158;395751;398876;440349;173150;
2024-05-17T13:18:38.472;539146132284221547;395906;399070;440520;173177;
2024-05-17T13:18:38.490;539146132302381936;396006;399190;440656;173170;
2024-05-17T13:18:38.509;539146132320542325;396128;399254;440786;173142;
2024-05-17T13:18:38.527;539146132338702714;396285;399411;440975;173143;
2024-05-17T13:18:38.545;539146132356863103;396288;399463;441038;173202;
2024-05-17T13:18:38.563;539146132375023492;396160;399270;440856;173085;
2024-05-17T13:18:38.581;539146132393183881;396007;399105;440604;173164;
2024-05-17T13:18:38.599;539146132411344270;395768;398878;440338;173158;
2024-05-17T13:18:38.618;539146132429504659;395544;398623;440065;173182;
2024-05-17T13:18:38.636;539146132447665048;395420;398423;439814;173135;
2024-05-17T13:18:38.654;539146132465825437;395282;398326;439685;173128;
2024-05-17T13:18:38.672;539146132483985826;395270;398286;439691;173126;
2024-05-17T13:18:38.690;539146132502146215;395314;398329;439739;173084;
2024-05-17T13:18:38.708;539146132520306604;395409;398433;439872;173100;
2024-05-17T13:18:38.726;539146132538466993;395625;398706;440149;173094;
2024-05-17T13:18:38.745;539146132556627382;395860;398912;440402;173076;
2024-05-17T13:18:38.763;539146132574787771;396134;399216;440742;173127;
2024-05-17T13:18:38.781;539146132592948160;396424;399479;441066;173123;
2024-05-17T13:18:38.799;539146132611108549;396507;399686;441256;173087;
2024-05-17T13:18:38.817;539146132629268938;396755;399876;441500;173141;
2024-05-17T13:18:38.835;539146132647429327;396980;400135;441731;173130;
2024-05-17T13:18:38.854;539146132665589716;397115;400248;441948;173103;
2024-05-17T13:18:38.872;539146132683750105;397263;400390;442061;173120;
2024-05-17T13:18:38.890;539146132701910494;397431;400545;442270;173181;
2024-05-17T13:18:38.908;539146132720070976;397493;400659;442343;173148;
2024-05-17T13:18:38.926;539146132738231438;397450;400573;442316;173164;
2024-05-17T13:18:38.944;539146132756391900;397349;400469;442198;173126;
2024-05-17T13:18:38.963;539146132774552362;397116;400263;441963;173141;
2024-05-17T13:18:38.981;539146132792712824;396981;400066;441701;173143;
2024-05-17T13:18:38.999;539146132810873286;396805;399828;441476;173160;
2024-05-17T13:18:39.017;539146132829033748;396740;399730;441327;173139;
2024-05-17T13:18:39.035;539146132847194210;396682;399725;441290;173129;
2024-05-17T13:18:39.053;539146132865354672;396722;399755;441328;173152;
2024-05-17T13:18:39.072;539146132883515134;396836;399856;441406;173131;
2024-05-17T13:18:39.090;539146132901675596;397021;400054;441640;173140;
2024-05-17T13:18:39.108;539146132919836058;397226;400286;441935;173142;
2024-05-17T13:18:39.126;539146132937996520;397447;400560;442280;173147;
2024-05-17T13:18:39.144;539146132956156982;397735;400844;442594;173169;
2024-05-17T13:18:39.162;539146132974317444;397963;401076;442854;173143;
2024-05-17T13:18:39.181;539146132992477906;398160;401324;443111;173174;
2024-05-17T13:18:39.199;539146133010638368;398275;401472;443266;173147;
2024-05-17T13:18:39.217;539146133028798830;398539;401628;443513;173168;
2024-05-17T13:18:39.235;539146133046959292;398614;401765;443680;173133;
2024-05-17T13:18:39.253;539146133065119754;398720;401917;443793;173125;
2024-05-17T13:18:39.271;539146133083280216;398779;402050;443927;173120;
2024-05-17T13:18:39.289;539146133101440678;398878;402087;443981;173155;
2024-05-17T13:18:39.308;539146133119601140;398911;402058;443981;173173;
2024-05-17T13:18:39.326;539146133137761602;398788;401921;443831;173151;
2024-05-17T13:18:39.344;539146133155922064;398577;401733;443599;173113;
2024-05-17T13:18:39.362;539146133174082526;398448;401536;443420;173145;
2024-05-17T13:18:39.380;539146133192242988;398293;401430;443279;173152;
2024-05-17T13:18:39.398;539146133210403450;398255;401307;443164;173185;
2024-05-17T13:18:39.417;539146133228563912;398184;401280;443125;173104;
2024-05-17T13:18:39.435;539146133246724374;398187;401396;443176;173120;
2024-05-17T13:18:39.453;539146133264884836;398361;401539;443357;173168;
2024-05-17T13:18:39.471;539146133283045298;398452;401730;443531;173111;
2024-05-17T13:18:39.489;539146133301205760;398684;402020;443820;173123;
2024-05-17T13:18:39.507;539146133319366222;398976;402258;444134;173176;
2024-05-17T13:18:39.526;539146133337526684;399245;402412;444361;173147;
2024-05-17T13:18:39.544;539146133355687146;399480;402751;444653;173145;
2024-05-17T13:18:39.562;539146133373847608;399677;403010;444934;173123;
2024-05-17T13:18:39.580;539146133392008070;399900;403152;445181;173178;
2024-05-17T13:18:39.598;539146133410168532;400015;403389;445349;173130;
2024-05-17T13:18:39.616;539146133428328994;400202;403472;445530;173137;
2024-05-17T13:18:39.635;539146133446489456;400377;403665;445764;173143;
2024-05-17T13:18:39.653;539146133464649918;400430;403805;445954;173130;
2024-05-17T13:18:39.671;539146133482809966;400527;403925;445994;173127;
2024-05-17T13:18:39.689;539146133500969992;400595;403884;446055;173168;
2024-05-17T13:18:39.707;539146133519130018;400470;403751;445949;173160;
2024-05-17T13:18:39.725;539146133537290044;400345;403613;445760;173139;
2024-05-17T13:18:39.743;539146133555450070;400200;403472;445593;173106;
2024-05-17T13:18:39.762;539146133573610096;399983;403292;445368;173107;
2024-05-17T13:18:39.780;539146133591770122;399871;403149;445270;173118;
2024-05-17T13:18:39.798;539146133609930148;399785;403141;445204;173193;
2024-05-17T13:18:39.816;539146133628090174;399811;403204;445174;173178;
2024-05-17T13:18:39.834;539146133646250200;399809;403207;445163;173161;
2024-05-17T13:18:39.852;539146133664410226;399956;403354;445425;173135;
2024-05-17T13:18:39.871;539146133682570252;400120;403538;445631;173144;
2024-05-17T13:18:39.889;539146133700730278;400343;403728;445855;173117;
2024-05-17T13:18:39.907;539146133718890304;400445;403965;446001;173154;
2024-05-17T13:18:39.925;539146133737050330;400645;404136;446244;173148;
2024-05-17T13:18:39.943;539146133755210356;400828;404318;446511;173139;
2024-05-17T13:18:39.961;539146133773370382;400966;404497;446686;173097;
2024-05-17T13:18:39.980;539146133791530408;401127;404689;446843;173134;
2024-05-17T13:18:39.998;539146133809690434;401287;404826;446953;173152;
2024-05-17T13:18:40.016;539146133827850460;401412;404952;447067;173157;
2024-05-17T13:18:40.034;539146133846010486;401541;405097;447282;173184;
2024-05-17T13:18:40.052;539146133864170512;401568;405133;447342;173146;
2024-05-17T13:18:40.070;539146133882330538;401596;405118;447352;173128;
2024-05-17T13:18:40.089;539146133900490564;401524;405075;447267;173150;
2024-05-17T13:18:40.107;539146133918650590;401370;404935;447027;173182;
2024-05-17T13:18:40.125;539146133936810616;401179;404692;446886;173212;
2024-05-17T13:18:40.143;539146133954970642;401007;404501;446698;173180;
2024-05-17T13:18:40.161;539146133973130668;400869;404396;446521;173210;
2024-05-17T13:18:40.179;539146133991290694;400731;404359;446432;173130;
2024-05-17T13:18:40.197;539146134009450720;400689;404328;446407;173138;
2024-05-17T13:18:40.216;539146134027610746;400682;404393;446435;173130;
2024-05-17T13:18:40.234;539146134045770772;400703;404437;446545;173128;
2024-05-17T13:18:40.252;539146134063930798;400772;404497;446596;173118;
2024-05-17T13:18:40.270;539146134082090824;400893;404692;446800;173179;
2024-05-17T13:18:40.288;539146134100250850;400993;404745;446984;173116;
2024-05-17T13:18:40.306;539146134118410876;401143;404922;447160;173145;
2024-05-17T13:18:40.325;539146134136570902;401317;405018;447297;173126;
2024-05-17T13:18:40.343;539146134154730928;401423;405164;447457;173122;
2024-05-17T13:18:40.361;539146134172890954;401486;405225;447603;173121;
2024-05-17T13:18:40.379;539146134191050980;401565;405351;447663;173140;
2024-05-17T13:18:40.397;539146134209211006;401639;405430;447750;173197;
2024-05-17T13:18:40.415;539146134227371032;401730;405594;447865;173199;
2024-05-17T13:18:40.434;539146134245531948;401732;405578;447909;173176;
2024-05-17T13:18:40.452;539146134263692846;401714;405522;447844;173169;
2024-05-17T13:18:40.470;539146134281853744;401509;405370;447658;173135;
2024-05-17T13:18:40.488;539146134300014642;401389;405158;447462;173130;
2024-05-17T13:18:40.506;539146134318175540;401173;404937;447205;173150;
2024-05-17T13:18:40.524;539146134336336438;400987;404759;446962;173147;
2024-05-17T13:18:40.543;539146134354497336;400860;404675;446802;173136;
2024-05-17T13:18:40.561;539146134372658234;400735;404577;446656;173194;
2024-05-17T13:18:40.579;539146134390819132;400709;404571;446703;173182;
2024-05-17T13:18:40.597;539146134408980030;400708;404538;446727;173168;
2024-05-17T13:18:40.615;539146134427140928;400834;404649;446869;173136;
2024-05-17T13:18:40.633;539146134445301826;400914;404766;446952;173131;
2024-05-17T13:18:40.651;539146134463462724;401021;404942;447124;173187;
2024-05-17T13:18:40.670;539146134481623622;401238;405083;447328;173187;
2024-05-17T13:18:40.688;539146134499784520;401337;405195;447457;173129;
2024-05-17T13:18:40.706;539146134517945418;401526;405341;447671;173203;
2024-05-17T13:18:40.724;539146134536106316;401584;405431;447776;173113;
2024-05-17T13:18:40.742;539146134554267214;401676;405585;447907;173172;
2024-05-17T13:18:40.760;539146134572428112;401789;405704;448027;173151;
2024-05-17T13:18:40.779;539146134590589010;401865;405805;448174;173151;
2024-05-17T13:18:40.797;539146134608749908;402018;405882;448302;173136;
2024-05-17T13:18:40.815;539146134626910806;402091;405989;448396;173171;
2024-05-17T13:18:40.833;539146134645071704;402052;405990;448324;173161;
2024-05-17T13:18:40.851;539146134663232602;401945;405807;448201;173155;
2024-05-17T13:18:40.869;539146134681393500;401821;405652;447953;173157;
2024-05-17T13:18:40.888;539146134699554398;401644;405387;447695;173168;
2024-05-17T13:18:40.906;539146134717715296;401483;405278;447519;173124;
2024-05-17T13:18:40.924;539146134735876194;401302;405069;447362;173128;
2024-05-17T13:18:40.942;539146134754037092;401279;405035;447259;173090;
2024-05-17T13:18:40.960;539146134772197990;401256;405066;447298;173135;
2024-05-17T13:18:40.978;539146134790358888;401333;405141;447414;173190;
2024-05-17T13:18:40.997;539146134808519786;401416;405308;447512;173141;
2024-05-17T13:18:41.015;539146134826680684;401636;405482;447724;173171;
2024-05-17T13:18:41.033;539146134844841582;401823;405713;447973;173180;
2024-05-17T13:18:41.051;539146134863002480;401941;405890;448149;173151;
2024-05-17T13:18:41.069;539146134881163378;402104;406038;448423;173097;
2024-05-17T13:18:41.087;539146134899324276;402287;406276;448636;173131;
2024-05-17T13:18:41.106;539146134917485174;402536;406433;448821;173140;
2024-05-17T13:18:41.124;539146134935646072;402717;406605;449025;173211;
2024-05-17T13:18:41.142;539146134953806970;402781;406797;449155;173175;
2024-05-17T13:18:41.160;539146134971967868;402927;406966;449311;173140;
2024-05-17T13:18:41.178;539146134990128766;403106;407088;449508;173192;
2024-05-17T13:18:41.196;539146135008286925;403207;407167;449588;173218;
2024-05-17T13:18:41.214;539146135026445062;403081;406963;449446;173181;
2024-05-17T13:18:41.233;539146135044603199;402982;406832;449208;173223;
2024-05-17T13:18:41.251;539146135062761336;402750;406690;449008;173181;
2024-05-17T13:18:41.269;539146135080919473;402567;406443;448748;173171;
2024-05-17T13:18:41.287;539146135099077610;402409;406235;448445;173178;
2024-05-17T13:18:41.305;539146135117235747;402251;406090;448256;173147;
2024-05-17T13:18:41.323;539146135135393884;402221;406019;448178;173156;
2024-05-17T13:18:41.342;539146135153552021;402174;406022;448159;173154;
2024-05-17T13:18:41.360;539146135171710158;402254;406133;448332;173170;
2024-05-17T13:18:41.378;539146135189868295;402343;406277;448490;173141;
2024-05-17T13:18:41.396;539146135208026432;402521;406488;448685;173170;
2024-05-17T13:18:41.414;539146135226184569;402712;406595;448869;173138;
2024-05-17T13:18:41.432;539146135244342706;402887;406911;449159;173156;
2024-05-17T13:18:41.451;539146135262500843;403086;407079;449393;173197;
2024-05-17T13:18:41.469;539146135280658980;403239;407240;449556;173171;
2024-05-17T13:18:41.487;539146135298817117;403334;407357;449691;173091;
2024-05-17T13:18:41.505;539146135316975254;403439;407564;449849;173107;
2024-05-17T13:18:41.523;539146135335133391;403590;407619;449930;173137;
2024-05-17T13:18:41.541;539146135353291528;403720;407740;450074;173134;
2024-05-17T13:18:41.559;539146135371449665;403779;407813;450203;173153;
2024-05-17T13:18:41.578;539146135389607802;403807;407857;450199;173139;
2024-05-17T13:18:41.596;539146135407765939;403737;407685;450130;173125;
2024-05-17T13:18:41.614;539146135425924076;403582;407591;449918;173151;
2024-05-17T13:18:41.632;539146135444082213;403366;407324;449684;173151;
2024-05-17T13:18:41.650;539146135462240350;403186;407128;449362;173084;
2024-05-17T13:18:41.668;539146135480398487;402980;406937;449184;173113;
2024-05-17T13:18:41.687;539146135498556624;402824;406812;449002;173121;
2024-05-17T13:18:41.705;539146135516714761;402779;406710;448902;173087;
2024-05-17T13:18:41.723;539146135534872898;402686;406679;448923;173097;
2024-05-17T13:18:41.741;539146135553031035;402771;406833;449036;173112;
2024-05-17T13:18:41.759;539146135571189172;402866;406876;449189;173144;
2024-05-17T13:18:41.777;539146135589347309;403018;407071;449329;173146;
2024-05-17T13:18:41.796;539146135607505446;403245;407260;449602;173128;
2024-05-17T13:18:41.814;539146135625663583;403404;407515;449824;173169;
2024-05-17T13:18:41.832;539146135643821720;403602;407698;450012;173108;
2024-05-17T13:18:41.850;539146135661979857;403706;407776;450167;173182;
2024-05-17T13:18:41.868;539146135680137994;403839;407853;450173;173150;
2024-05-17T13:18:41.886;539146135698296131;403838;407953;450290;173207;
2024-05-17T13:18:41.904;539146135716454268;403890;407991;450394;173210;
2024-05-17T13:18:41.923;539146135734612405;403910;408086;450553;173129;
2024-05-17T13:18:41.941;539146135752770542;403934;408130;450593;173179;
2024-05-17T13:18:41.959;539146135770928999;403928;408222;450518;173187;
2024-05-17T13:18:41.977;539146135789087426;403877;408119;450440;173159;
2024-05-17T13:18:41.995;539146135807245853;403722;407930;450241;173192;
2024-05-17T13:18:42.013;539146135825404280;403468;407630;449883;173168;
2024-05-17T13:18:42.032;539146135843562707;403186;407427;449606;173134;
2024-05-17T13:18:42.050;539146135861721134;402948;407210;449277;173133;
2024-05-17T13:18:42.068;539146135879879561;402744;406930;449055;173168;
2024-05-17T13:18:42.086;539146135898037988;402566;406823;448894;173174;
2024-05-17T13:18:42.104;539146135916196415;402462;406781;448753;173192;
2024-05-17T13:18:42.122;539146135934354842;402463;406740;448788;173189;
2024-05-17T13:18:42.141;539146135952513269;402473;406778;448835;173104;
2024-05-17T13:18:42.159;539146135970671696;402564;406910;448995;173136;
2024-05-17T13:18:42.177;539146135988830123;402685;407025;449133;173196;
2024-05-17T13:18:42.195;539146136006988550;402763;407146;449223;173139;
2024-05-17T13:18:42.213;539146136025146977;402937;407184;449431;173157;
2024-05-17T13:18:42.231;539146136043305404;402901;407329;449503;173177;
2024-05-17T13:18:42.249;539146136061463831;403002;407403;449501;173177;
2024-05-17T13:18:42.268;539146136079622258;402991;407350;449549;173157;
2024-05-17T13:18:42.286;539146136097780685;403047;407411;449620;173167;
2024-05-17T13:18:42.304;539146136115939112;403050;407486;449604;173118;
2024-05-17T13:18:42.322;539146136134097539;403018;407462;449581;173196;
2024-05-17T13:18:42.340;539146136152255966;403071;407484;449602;173124;
2024-05-17T13:18:42.358;539146136170414393;402961;407487;449528;173179;
2024-05-17T13:18:42.377;539146136188572820;402815;407227;449290;173180;
2024-05-17T13:18:42.395;539146136206731247;402561;407011;449010;173124;
2024-05-17T13:18:42.413;539146136224889674;402272;406702;448696;173164;
2024-05-17T13:18:42.431;539146136243048101;401999;406500;448377;173229;
2024-05-17T13:18:42.449;539146136261206528;401773;406200;448046;173148;
2024-05-17T13:18:42.467;539146136279364955;401567;405996;447817;173154;
2024-05-17T13:18:42.486;539146136297523382;401452;405929;447721;173151;
2024-05-17T13:18:42.504;539146136315681809;401454;405879;447669;173189;
2024-05-17T13:18:42.522;539146136333840236;401465;405921;447694;173151;
2024-05-17T13:18:42.540;539146136351998663;401546;406013;447796;173136;
2024-05-17T13:18:42.558;539146136370157090;401621;406083;447931;173102;
2024-05-17T13:18:42.576;539146136388315517;401715;406264;448139;173134;
2024-05-17T13:18:42.594;539146136406473944;401779;406294;448261;173180;
2024-05-17T13:18:42.613;539146136424632371;401856;406339;448272;173210;
2024-05-17T13:18:42.631;539146136442790798;401809;406338;448327;173122;
2024-05-17T13:18:42.649;539146136460949225;401732;406403;448232;173157;
2024-05-17T13:18:42.667;539146136479107652;401687;406339;448243;173095;
2024-05-17T13:18:42.685;539146136497266079;401693;406381;448188;173144;
2024-05-17T13:18:42.703;539146136515424506;401658;406268;448127;173107;
2024-05-17T13:18:42.722;539146136533583525;401683;406360;448194;173182;
2024-05-17T13:18:42.740;539146136551742534;401625;406305;448116;173164;
2024-05-17T13:18:42.758;539146136569901543;401468;406081;447900;173163;
2024-05-17T13:18:42.776;539146136588060552;401148;405784;447564;173184;
2024-05-17T13:18:42.794;539146136606219561;400860;405457;447168;173209;
2024-05-17T13:18:42.812;539146136624378570;400564;405189;446790;173175;
2024-05-17T13:18:42.831;539146136642537579;400334;404932;446503;173187;
2024-05-17T13:18:42.849;539146136660696588;400074;404674;446232;173138;
2024-05-17T13:18:42.867;539146136678855597;399985;404528;446141;173197;
2024-05-17T13:18:42.885;539146136697014606;399968;404555;446128;173145;
2024-05-17T13:18:42.903;539146136715173615;399962;404570;446109;173130;
2024-05-17T13:18:42.921;539146136733332624;400092;404681;446250;173150;
2024-05-17T13:18:42.940;539146136751491633;400190;404784;446379;173176;
2024-05-17T13:18:42.958;539146136769650642;400355;404904;446595;173119;
2024-05-17T13:18:42.976;539146136787809651;400503;405136;446670;173123;
2024-05-17T13:18:42.994;539146136805968660;400600;405227;446810;173126;
2024-05-17T13:18:43.012;539146136824127669;400742;405390;447034;173118;
2024-05-17T13:18:43.030;539146136842286678;400820;405511;447184;173094;
2024-05-17T13:18:43.048;539146136860445687;400921;405542;447210;173129;
2024-05-17T13:18:43.067;539146136878604696;400999;405590;447356;173157;
2024-05-17T13:18:43.085;539146136896763705;400977;405618;447388;173189;
2024-05-17T13:18:43.103;539146136914922714;401092;405749;447415;173116;
2024-05-17T13:18:43.121;539146136933081723;401060;405656;447359;173147;
2024-05-17T13:18:43.139;539146136951240732;400923;405580;447220;173134;
2024-05-17T13:18:43.157;539146136969399741;400795;405322;446973;173135;
2024-05-17T13:18:43.176;539146136987558750;400515;405020;446619;173152;
2024-05-17T13:18:43.194;539146137005717759;400144;404733;446224;173113;
2024-05-17T13:18:43.212;539146137023876768;399929;404432;445920;173173;
2024-05-17T13:18:43.230;539146137042035777;399748;404278;445767;173203;
2024-05-17T13:18:43.248;539146137060194786;399629;404178;445658;173178;
2024-05-17T13:18:43.266;539146137078353795;399645;404155;445646;173120;
2024-05-17T13:18:43.285;539146137096512804;399683;404280;445793;173135;
2024-05-17T13:18:43.303;539146137114671813;399869;404450;445928;173134;
2024-05-17T13:18:43.321;539146137132830822;400003;404648;446146;173122;
2024-05-17T13:18:43.339;539146137150989831;400252;404765;446345;173135;
2024-05-17T13:18:43.357;539146137169148840;400482;405012;446612;173186;
2024-05-17T13:18:43.375;539146137187307849;400662;405227;446812;173174;
2024-05-17T13:18:43.393;539146137205466858;400803;405406;446976;173155;
2024-05-17T13:18:43.412;539146137223625867;400922;405447;447163;173162;
2024-05-17T13:18:43.430;539146137241784876;400907;405561;447232;173123;
2024-05-17T13:18:43.448;539146137259943885;401013;405670;447250;173146;
2024-05-17T13:18:43.466;539146137278102894;401110;405742;447329;173121;
2024-05-17T13:18:43.484;539146137296261913;401185;405797;447398;173114;
2024-05-17T13:18:43.502;539146137314420922;401165;405759;447467;173180;
2024-05-17T13:18:43.521;539146137332579931;401022;405720;447239;173142;
2024-05-17T13:18:43.539;539146137350738940;400753;405448;446906;173119;
2024-05-17T13:18:43.557;539146137368897949;400517;405137;446522;173086;
2024-05-17T13:18:43.575;539146137387056958;400256;404879;446210;173159;
2024-05-17T13:18:43.593;539146137405215967;399958;404606;445935;173116;
2024-05-17T13:18:43.611;539146137423374976;399847;404460;445798;173127;
2024-05-17T13:18:43.630;539146137441533985;399764;404409;445677;173123;
2024-05-17T13:18:43.648;539146137459692994;399788;404406;445758;173114;
2024-05-17T13:18:43.666;539146137477852003;399906;404537;445930;173180;
2024-05-17T13:18:43.684;539146137496011012;400146;404740;446148;173150;
2024-05-17T13:18:43.702;539146137514170021;400320;404941;446320;173130;
2024-05-17T13:18:43.720;539146137532329030;400505;405188;446621;173133;
2024-05-17T13:18:43.739;539146137550488039;400691;405437;446809;173162;
2024-05-17T13:18:43.757;539146137568647048;400852;405614;446988;173122;
2024-05-17T13:18:43.775;539146137586806057;400966;405712;447140;173131;
2024-05-17T13:18:43.793;539146137604965066;401067;405886;447291;173173;
2024-05-17T13:18:43.811;539146137623124075;401151;405916;447395;173158;
2024-05-17T13:18:43.829;539146137641283084;401204;406070;447478;173126;
2024-05-17T13:18:43.847;539146137659442093;401243;406113;447498;173161;
2024-05-17T13:18:43.866;539146137677601102;401416;406206;447670;173205;
2024-05-17T13:18:43.884;539146137695760111;401381;406299;447664;173127;
2024-05-17T13:18:43.902;539146137713919120;401337;406167;447556;173139;
2024-05-17T13:18:43.920;539146137732078129;401134;405970;447352;173170;
2024-05-17T13:18:43.938;539146137750237138;400809;405712;446963;173136;
2024-05-17T13:18:43.956;539146137768396147;400615;405498;446724;173135;
2024-05-17T13:18:43.975;539146137786555156;400379;405228;446457;173128;
2024-05-17T13:18:43.993;539146137804714165;400233;405088;446254;173135;
2024-05-17T13:18:44.011;539146137822873174;400174;405056;446224;173117;
2024-05-17T13:18:44.029;539146137841032183;400192;405097;446263;173193;
2024-05-17T13:18:44.047;539146137859191192;400288;405226;446378;173116;
2024-05-17T13:18:44.065;539146137877350201;400454;405395;446547;173118;
2024-05-17T13:18:44.084;539146137895509210;400664;405644;446768;173135;
2024-05-17T13:18:44.102;539146137913668219;400864;405862;447016;173117;
2024-05-17T13:18:44.120;539146137931827228;401057;406077;447277;173087;
2024-05-17T13:18:44.138;539146137949986237;401254;406268;447502;173100;
2024-05-17T13:18:44.156;539146137968145246;401454;406466;447693;173137;
2024-05-17T13:18:44.174;539146137986304255;401537;406563;447773;173106;
2024-05-17T13:18:44.192;539146138004463264;401580;406656;447902;173163;
2024-05-17T13:18:44.211;539146138022622273;401597;406675;447910;173087;
2024-05-17T13:18:44.229;539146138040781282;401668;406761;448054;173148;
2024-05-17T13:18:44.247;539146138058939600;401784;406868;448151;173180;
2024-05-17T13:18:44.265;539146138077097884;401824;406978;448249;173135;
2024-05-17T13:18:44.283;539146138095256168;401763;406964;448211;173121;
2024-05-17T13:18:44.301;539146138113414452;401558;406779;448000;173095;
2024-05-17T13:18:44.320;539146138131572736;401334;406558;447741;173199;
2024-05-17T13:18:44.338;539146138149731020;401125;406271;447440;173153;
2024-05-17T13:18:44.356;539146138167889304;400889;406038;447159;173205;
2024-05-17T13:18:44.374;539146138186047588;400702;405892;446943;173205;
2024-05-17T13:18:44.392;539146138204205872;400580;405716;446764;173154;
2024-05-17T13:18:44.410;539146138222364156;400578;405703;446809;173140;
2024-05-17T13:18:44.429;539146138240522440;400596;405748;446851;173187;
2024-05-17T13:18:44.447;539146138258680724;400638;405872;446977;173188;
2024-05-17T13:18:44.465;539146138276839008;400793;406051;447126;173159;
2024-05-17T13:18:44.483;539146138294997292;400986;406235;447312;173167;
2024-05-17T13:18:44.501;539146138313155576;401116;406411;447515;173181;
2024-05-17T13:18:44.519;539146138331313860;401219;406529;447601;173147;
2024-05-17T13:18:44.537;539146138349472144;401250;406591;447712;173121;
2024-05-17T13:18:44.556;539146138367630428;401404;406706;447856;173160;
2024-05-17T13:18:44.574;539146138385788712;401382;406797;447943;173168;
2024-05-17T13:18:44.592;539146138403946996;401391;406801;447934;173130;
2024-05-17T13:18:44.610;539146138422105280;401398;406847;447960;173128;
2024-05-17T13:18:44.628;539146138440263564;401439;406845;447965;173147;
2024-05-17T13:18:44.646;539146138458421848;401459;406899;448047;173103;
2024-05-17T13:18:44.665;539146138476580132;401476;406920;448088;173125;
2024-05-17T13:18:44.683;539146138494738416;401354;406844;448066;173178;
2024-05-17T13:18:44.701;539146138512896700;401129;406656;447730;173177;
2024-05-17T13:18:44.719;539146138531054984;400919;406390;447417;173156;
2024-05-17T13:18:44.737;539146138549213268;400610;406143;447078;173158;
2024-05-17T13:18:44.755;539146138567371552;400416;405934;446785;173122;
2024-05-17T13:18:44.774;539146138585529836;400314;405720;446645;173163;
2024-05-17T13:18:44.792;539146138603688120;400134;405662;446584;173129;
2024-05-17T13:18:44.810;539146138621846404;400159;405641;446633;173131;
2024-05-17T13:18:44.828;539146138640004688;400239;405763;446734;173108;
2024-05-17T13:18:44.846;539146138658162972;400305;405913;446840;173142;
2024-05-17T13:18:44.864;539146138676321256;400444;406012;446943;173076;
2024-05-17T13:18:44.883;539146138694479540;400670;406265;447171;173120;
2024-05-17T13:18:44.901;539146138712637824;400787;406396;447380;173111;
2024-05-17T13:18:44.919;539146138730796108;400890;406514;447538;173119;
2024-05-17T13:18:44.937;539146138748954392;401015;406669;447709;173191;
2024-05-17T13:18:44.955;539146138767112676;401116;406733;447792;173169;
2024-05-17T13:18:44.973;539146138785270960;401161;406759;447848;173172;
2024-05-17T13:18:44.991;539146138803429170;401209;406822;447844;173153;
2024-05-17T13:18:45.010;539146138821587380;401181;406802;447824;173107;
2024-05-17T13:18:45.028;539146138839745590;401238;406937;447916;173105;
2024-05-17T13:18:45.046;539146138857903800;401292;407011;448024;173102;
2024-05-17T13:18:45.064;539146138876062010;401225;406971;447959;173130;
2024-05-17T13:18:45.082;539146138894220220;401029;406824;447732;173094;
2024-05-17T13:18:45.100;539146138912378430;400834;406572;447444;173142;
2024-05-17T13:18:45.119;539146138930536640;400633;406278;447156;173122;
2024-05-17T13:18:45.137;539146138948694850;400445;406145;446925;173175;
2024-05-17T13:18:45.155;539146138966853060;400328;405924;446791;173162;
2024-05-17T13:18:45.173;539146138985011270;400142;405928;446710;173140;
2024-05-17T13:18:45.191;539146139003169480;400181;405938;446747;173123;
2024-05-17T13:18:45.209;539146139021327690;400292;406023;446840;173120;
2024-05-17T13:18:45.228;539146139039485900;400411;406165;446999;173133;
2024-05-17T13:18:45.246;539146139057644110;400620;406314;447216;173179;
2024-05-17T13:18:45.264;539146139075802320;400840;406600;447421;173157;
2024-05-17T13:18:45.282;539146139093960530;400947;406692;447581;173095;
2024-05-17T13:18:45.300;539146139112118740;401134;406848;447788;173102;
2024-05-17T13:18:45.318;539146139130276950;401303;407085;447999;173130;
2024-05-17T13:18:45.336;539146139148435160;401379;407191;448136;173094;
2024-05-17T13:18:45.355;539146139166593370;401468;407294;448266;173104;
2024-05-17T13:18:45.373;539146139184751580;401573;407362;448296;173116;
2024-05-17T13:18:45.391;539146139202909790;401668;407476;448398;173147;
2024-05-17T13:18:45.409;539146139221068000;401715;407578;448515;173136;
2024-05-17T13:18:45.427;539146139239226210;401794;407658;448670;173100;
2024-05-17T13:18:45.445;539146139257384420;401761;407613;448622;173119;
2024-05-17T13:18:45.464;539146139275542630;401670;407470;448558;173084;
2024-05-17T13:18:45.482;539146139293700840;401506;407329;448252;173147;
2024-05-17T13:18:45.500;539146139311859050;401344;407122;447983;173162;
2024-05-17T13:18:45.518;539146139330017260;401143;406950;447807;173130;
2024-05-17T13:18:45.536;539146139348175470;401005;406825;447666;173150;
2024-05-17T13:18:45.554;539146139366333680;400931;406753;447624;173154;
2024-05-17T13:18:45.573;539146139384491890;400921;406782;447657;173169;
2024-05-17T13:18:45.591;539146139402650100;401044;406894;447811;173138;
2024-05-17T13:18:45.609;539146139420808310;401246;407082;448025;173103;
2024-05-17T13:18:45.627;539146139438966520;401450;407309;448246;173144;
2024-05-17T13:18:45.645;539146139457124730;401690;407583;448548;173173;
2024-05-17T13:18:45.663;539146139475282940;401873;407753;448791;173164;
2024-05-17T13:18:45.681;539146139493441150;402195;408001;449072;173189;
2024-05-17T13:18:45.700;539146139511599360;402328;408241;449239;173233;
2024-05-17T13:18:45.718;539146139529757570;402528;408391;449534;173250;
2024-05-17T13:18:45.736;539146139547915780;402727;408513;449589;173197;
2024-05-17T13:18:45.754;539146139566074137;402786;408644;449672;173168;
2024-05-17T13:18:45.772;539146139584232455;402927;408848;449941;173139;
2024-05-17T13:18:45.790;539146139602390773;403102;408978;450080;173129;
2024-05-17T13:18:45.809;539146139620549091;403182;409186;450252;173140;
2024-05-17T13:18:45.827;539146139638707409;403231;409229;450319;173127;
2024-05-17T13:18:45.845;539146139656865727;403204;409170;450243;173154;
2024-05-17T13:18:45.863;539146139675024045;403104;409031;450079;173147;
2024-05-17T13:18:45.881;539146139693182363;402901;408854;449848;173114;
2024-05-17T13:18:45.899;539146139711340681;402804;408710;449651;173126;
2024-05-17T13:18:45.918;539146139729498999;402699;408641;449505;173121;
2024-05-17T13:18:45.936;539146139747657317;402618;408506;449440;173152;
2024-05-17T13:18:45.954;539146139765815635;402614;408520;449506;173143;
2024-05-17T13:18:45.972;539146139783973953;402713;408673;449597;173133;
2024-05-17T13:18:45.990;539146139802132271;402804;408810;449774;173154;
2024-05-17T13:18:46.008;539146139820290589;403064;409005;450027;173167;
2024-05-17T13:18:46.026;539146139838448907;403287;409291;450333;173075;
2024-05-17T13:18:46.045;539146139856607225;403552;409535;450513;173155;
2024-05-17T13:18:46.063;539146139874765543;403715;409734;450837;173122;
2024-05-17T13:18:46.081;539146139892923861;403914;409917;450997;173113;
2024-05-17T13:18:46.099;539146139911082179;404082;410160;451248;173102;
2024-05-17T13:18:46.117;539146139929240497;404212;410261;451428;173182;
2024-05-17T13:18:46.135;539146139947398815;404384;410389;451525;173188;
2024-05-17T13:18:46.154;539146139965557133;404512;410530;451690;173136;
2024-05-17T13:18:46.172;539146139983715451;404608;410683;451884;173169;
2024-05-17T13:18:46.190;539146140001873769;404791;410885;452139;173184;
2024-05-17T13:18:46.208;539146140020032087;404859;411023;452229;173144;
2024-05-17T13:18:46.226;539146140038190405;404866;411056;452254;173150;
2024-05-17T13:18:46.244;539146140056348723;404832;410938;452186;173145;
2024-05-17T13:18:46.263;539146140074507041;404727;410859;452025;173190;
2024-05-17T13:18:46.281;539146140092665359;404611;410745;451898;173174;
2024-05-17T13:18:46.299;539146140110823677;404476;410550;451723;173197;
2024-05-17T13:18:46.317;539146140128981995;404347;410506;451590;173147;
2024-05-17T13:18:46.335;539146140147140313;404343;410533;451574;173177;
2024-05-17T13:18:46.353;539146140165298631;404388;410529;451581;173145;
2024-05-17T13:18:46.371;539146140183456949;404384;410564;451702;173146;
2024-05-17T13:18:46.390;539146140201615267;404549;410759;451929;173137;
2024-05-17T13:18:46.408;539146140219773585;404745;410990;452215;173137;
2024-05-17T13:18:46.426;539146140237931903;405007;411243;452454;173189;
2024-05-17T13:18:46.444;539146140256090221;405185;411429;452666;173176;
2024-05-17T13:18:46.462;539146140274248539;405396;411673;452927;173157;
2024-05-17T13:18:46.480;539146140292406857;405545;411807;453113;173102;
2024-05-17T13:18:46.499;539146140310565175;405766;411985;453286;173133;
2024-05-17T13:18:46.517;539146140328724946;405909;412113;453507;173196;
2024-05-17T13:18:46.535;539146140346884681;405971;412210;453579;173160;
2024-05-17T13:18:46.553;539146140365044416;406104;412415;453693;173187;
2024-05-17T13:18:46.571;539146140383204151;406172;412521;453866;173169;
2024-05-17T13:18:46.589;539146140401363886;406283;412669;454095;173136;
2024-05-17T13:18:46.608;539146140419523621;406401;412862;454266;173171;
2024-05-17T13:18:46.626;539146140437683356;406479;412910;454254;173178;
2024-05-17T13:18:46.644;539146140455843091;406445;412772;454218;173141;
2024-05-17T13:18:46.662;539146140474002826;406344;412705;454051;173140;
2024-05-17T13:18:46.680;539146140492162561;406157;412588;453933;173177;
2024-05-17T13:18:46.698;539146140510322296;406038;412495;453766;173181;
2024-05-17T13:18:46.717;539146140528482031;405942;412396;453650;173182;
2024-05-17T13:18:46.735;539146140546641766;405846;412304;453540;173177;
2024-05-17T13:18:46.753;539146140564801501;405839;412340;453587;173190;
2024-05-17T13:18:46.771;539146140582961236;405886;412472;453677;173180;
2024-05-17T13:18:46.789;539146140601120971;405978;412542;453761;173204;
2024-05-17T13:18:46.807;539146140619280706;406106;412681;453921;173195;
2024-05-17T13:18:46.825;539146140637440441;406227;412831;454107;173177;
2024-05-17T13:18:46.844;539146140655600176;406384;413018;454312;173194;
2024-05-17T13:18:46.862;539146140673759911;406582;413165;454472;173156;
2024-05-17T13:18:46.880;539146140691919646;406667;413268;454628;173180;
2024-05-17T13:18:46.898;539146140710079381;406712;413437;454716;173192;
2024-05-17T13:18:46.916;539146140728239116;406746;413527;454849;173088;
2024-05-17T13:18:46.934;539146140746398851;406863;413612;454915;173182;
2024-05-17T13:18:46.953;539146140764558586;406925;413598;454994;173172;
2024-05-17T13:18:46.971;539146140782718321;407043;413735;455073;173182;
2024-05-17T13:18:46.989;539146140800878056;407066;413810;455213;173139;
2024-05-17T13:18:47.007;539146140819037791;407182;413989;455367;173203;
2024-05-17T13:18:47.025;539146140837197526;407163;413999;455346;173193;
2024-05-17T13:18:47.043;539146140855357261;407073;413903;455252;173180;
2024-05-17T13:18:47.062;539146140873516996;406946;413784;455075;173148;
2024-05-17T13:18:47.080;539146140891676731;406830;413631;454952;173205;
2024-05-17T13:18:47.098;539146140909836466;406554;413424;454677;173180;
2024-05-17T13:18:47.116;539146140927996201;406399;413339;454550;173248;
2024-05-17T13:18:47.134;539146140946155936;406351;413217;454433;173169;
2024-05-17T13:18:47.152;539146140964315671;406262;413177;454376;173170;
2024-05-17T13:18:47.170;539146140982475406;406270;413156;454363;173140;
2024-05-17T13:18:47.189;539146141000635141;406360;413325;454557;173135;
2024-05-17T13:18:47.207;539146141018794876;406510;413417;454630;173172;
2024-05-17T13:18:47.225;539146141036954611;406593;413565;454840;173159;
2024-05-17T13:18:47.243;539146141055114346;406681;413650;454910;173173;
2024-05-17T13:18:47.261;539146141073274081;406780;413835;455111;173069;
2024-05-17T13:18:47.279;539146141091434302;406948;413939;455244;173143;
2024-05-17T13:18:47.298;539146141109594510;407050;414051;455447;173138;
2024-05-17T13:18:47.316;539146141127754718;407079;414141;455488;173133;
2024-05-17T13:18:47.334;539146141145914926;407192;414249;455556;173146;
2024-05-17T13:18:47.352;539146141164075134;407318;414346;455697;173136;
2024-05-17T13:18:47.370;539146141182235342;407343;414407;455769;173145;
2024-05-17T13:18:47.388;539146141200395550;407443;414475;455804;173192;
2024-05-17T13:18:47.407;539146141218555758;407455;414513;455915;173122;
2024-05-17T13:18:47.425;539146141236715966;407455;414579;455995;173213;
2024-05-17T13:18:47.443;539146141254876174;407370;414507;455950;173204;
2024-05-17T13:18:47.461;539146141273036382;407176;414341;455763;173161;
2024-05-17T13:18:47.479;539146141291196590;407068;414141;455483;173184;
2024-05-17T13:18:47.497;539146141309356798;406898;413966;455341;173143;
2024-05-17T13:18:47.516;539146141327517006;406736;413851;455184;173168;
2024-05-17T13:18:47.534;539146141345677214;406650;413767;455049;173154;
2024-05-17T13:18:47.552;539146141363837422;406647;413731;455080;173157;
2024-05-17T13:18:47.570;539146141381997630;406739;413874;455166;173187;
2024-05-17T13:18:47.588;539146141400157838;406721;413873;455154;173193;
2024-05-17T13:18:47.606;539146141418318046;406834;413960;455303;173165;
2024-05-17T13:18:47.625;539146141436478254;406986;414151;455587;173134;
2024-05-17T13:18:47.643;539146141454638462;407078;414347;455750;173216;
2024-05-17T13:18:47.661;539146141472798670;407236;414524;455922;173213;
2024-05-17T13:18:47.679;539146141490958878;407347;414572;456031;173135;
2024-05-17T13:18:47.697;539146141509119086;407495;414732;456257;173140;
2024-05-17T13:18:47.715;539146141527279294;407538;414872;456283;173104;
2024-05-17T13:18:47.733;539146141545439502;407754;414970;456491;173148;
2024-05-17T13:18:47.752;539146141563599710;407828;415064;456578;173152;
2024-05-17T13:18:47.770;539146141581759918;407972;415192;456663;173174;
2024-05-17T13:18:47.788;539146141599920126;408044;415352;456842;173113;
2024-05-17T13:18:47.806;539146141618080334;408154;415405;456998;173126;
2024-05-17T13:18:47.824;539146141636240542;408199;415492;456995;173194;
2024-05-17T13:18:47.842;539146141654400750;408138;415432;456943;173139;
2024-05-17T13:18:47.861;539146141672560958;407989;415225;456736;173147;
2024-05-17T13:18:47.879;539146141690721166;407817;415039;456562;173116;
2024-05-17T13:18:47.897;539146141708881374;407739;414908;456426;173165;
2024-05-17T13:18:47.915;539146141727041582;407635;414851;456367;173151;
2024-05-17T13:18:47.933;539146141745201790;407626;414817;456295;173171;
2024-05-17T13:18:47.951;539146141763361998;407581;414834;456337;173128;
2024-05-17T13:18:47.970;539146141781522206;407666;414898;456398;173139;
2024-05-17T13:18:47.988;539146141799682414;407753;414973;456587;173173;
2024-05-17T13:18:48.006;539146141817842622;407899;415148;456769;173146;
2024-05-17T13:18:48.024;539146141836002830;407987;415280;456938;173135;
2024-05-17T13:18:48.042;539146141854161236;408135;415481;457119;173160;
2024-05-17T13:18:48.060;539146141872319610;408249;415642;457234;173140;
2024-05-17T13:18:48.079;539146141890477984;408421;415773;457437;173163;
2024-05-17T13:18:48.097;539146141908636358;408520;415852;457541;173148;
2024-05-17T13:18:48.115;539146141926794732;408651;415971;457675;173169;
2024-05-17T13:18:48.133;539146141944953106;408715;415981;457762;173184;
2024-05-17T13:18:48.151;539146141963111480;408685;415919;457682;173091;
2024-05-17T13:18:48.169;539146141981269854;408744;415830;457574;173133;
2024-05-17T13:18:48.187;539146141999428228;408734;415800;457479;173165;
2024-05-17T13:18:48.206;539146142017586602;408801;415799;457366;173159;
2024-05-17T13:18:48.224;539146142035744976;408688;415598;457097;173156;
2024-05-17T13:18:48.242;539146142053903350;408609;415497;456744;173141;
2024-05-17T13:18:48.260;539146142072061724;408536;415305;456466;173221;
2024-05-17T13:18:48.278;539146142090220098;408437;415079;456153;173117;
2024-05-17T13:18:48.296;539146142108378472;408379;415066;456129;173178;
2024-05-17T13:18:48.315;539146142126536846;408381;415049;456081;173140;
2024-05-17T13:18:48.333;539146142144695220;408522;415175;456223;173127;
2024-05-17T13:18:48.351;539146142162853594;408755;415440;456470;173175;
2024-05-17T13:18:48.369;539146142181011968;409042;415710;456875;173141;
2024-05-17T13:18:48.387;539146142199170342;409372;416115;457353;173141;
2024-05-17T13:18:48.405;539146142217328716;409812;416592;457926;173190;
2024-05-17T13:18:48.424;539146142235487090;410237;417065;458430;173144;
2024-05-17T13:18:48.442;539146142253645464;410709;417550;459074;173157;
2024-05-17T13:18:48.460;539146142271803838;411168;417951;459570;173143;
2024-05-17T13:18:48.478;539146142289962212;411565;418444;460145;173188;
2024-05-17T13:18:48.496;539146142308120586;412020;418878;460620;173210;
2024-05-17T13:18:48.514;539146142326278960;412322;419232;461066;173211;
2024-05-17T13:18:48.532;539146142344437334;412633;419577;461480;173151;
2024-05-17T13:18:48.551;539146142362595708;413002;419967;461847;173187;
2024-05-17T13:18:48.569;539146142380754082;413274;420243;462149;173160;
2024-05-17T13:18:48.587;539146142398912456;413582;420550;462570;173197;
2024-05-17T13:18:48.605;539146142417070830;413924;420815;462902;173140;
2024-05-17T13:18:48.623;539146142435229204;414082;421068;463134;173158;
2024-05-17T13:18:48.641;539146142453387578;414176;421211;463292;173205;
2024-05-17T13:18:48.660;539146142471545952;414215;421265;463256;173124;
2024-05-17T13:18:48.678;539146142489704326;414188;421350;463306;173106;
2024-05-17T13:18:48.696;539146142507862700;414169;421388;463346;173156;
2024-05-17T13:18:48.714;539146142526021507;414079;421378;463290;173152;
2024-05-17T13:18:48.732;539146142544180298;413927;421403;463266;173150;
2024-05-17T13:18:48.750;539146142562339089;413792;421404;463208;173164;
2024-05-17T13:18:48.769;539146142580497880;413731;421401;463290;173172;
2024-05-17T13:18:48.787;539146142598656671;413792;421469;463421;173228;
2024-05-17T13:18:48.805;539146142616815462;413880;421609;463592;173219;
2024-05-17T13:18:48.823;539146142634974253;413941;421736;463742;173209;
2024-05-17T13:18:48.841;539146142653133044;414033;421847;463927;173235;
2024-05-17T13:18:48.859;539146142671291835;414132;421888;464034;173216;
2024-05-17T13:18:48.877;539146142689450626;414152;421999;464103;173174;
2024-05-17T13:18:48.896;539146142707609417;414235;422081;464179;173143;
2024-05-17T13:18:48.914;539146142725768208;414255;422100;464277;173142;
2024-05-17T13:18:48.932;539146142743926999;414281;422130;464365;173193;
2024-05-17T13:18:48.950;539146142762085790;414297;422096;464391;173179;
2024-05-17T13:18:48.968;539146142780244581;414234;422109;464405;173207;
2024-05-17T13:18:48.986;539146142798403372;414218;422133;464381;173177;
2024-05-17T13:18:49.005;539146142816562163;414181;422081;464397;173152;
2024-05-17T13:18:49.023;539146142834720954;414123;422065;464364;173172;
2024-05-17T13:18:49.041;539146142852879745;413861;421884;464169;173171;
2024-05-17T13:18:49.059;539146142871038536;413692;421642;463861;173171;
2024-05-17T13:18:49.077;539146142889197327;413396;421415;463592;173211;
2024-05-17T13:18:49.095;539146142907356118;413050;421127;463267;173189;
2024-05-17T13:18:49.114;539146142925514909;412818;420877;462976;173242;
2024-05-17T13:18:49.132;539146142943673700;412645;420682;462849;173209;
2024-05-17T13:18:49.150;539146142961832491;412429;420458;462590;173116;
2024-05-17T13:18:49.168;539146142979991282;412364;420388;462533;173156;
2024-05-17T13:18:49.186;539146142998150073;412312;420388;462502;173159;
2024-05-17T13:18:49.204;539146143016308864;412283;420380;462567;173186;
2024-05-17T13:18:49.222;539146143034467655;412282;420421;462610;173205;
2024-05-17T13:18:49.241;539146143052626446;412292;420450;462637;173182;
2024-05-17T13:18:49.259;539146143070785237;412390;420525;462723;173192;
2024-05-17T13:18:49.277;539146143088944028;412410;420587;462781;173199;
2024-05-17T13:18:49.295;539146143107102819;412420;420549;462801;173116;
2024-05-17T13:18:49.313;539146143125261610;412494;420610;462830;173153;
2024-05-17T13:18:49.331;539146143143420401;412555;420587;462849;173151;
2024-05-17T13:18:49.350;539146143161579192;412538;420612;462906;173246;
2024-05-17T13:18:49.368;539146143179737983;412545;420618;462867;173241;
2024-05-17T13:18:49.386;539146143197896774;412506;420642;462846;173195;
2024-05-17T13:18:49.404;539146143216055565;412514;420653;462863;173163;
2024-05-17T13:18:49.422;539146143234214356;412419;420658;462840;173173;
2024-05-17T13:18:49.440;539146143252373147;412334;420540;462731;173165;
2024-05-17T13:18:49.459;539146143270531938;412165;420309;462487;173219;
2024-05-17T13:18:49.477;539146143288690458;412015;420188;462304;173205;
2024-05-17T13:18:49.495;539146143306848958;411805;419913;462081;173172;
2024-05-17T13:18:49.513;539146143325007458;411590;419669;461832;173193;
2024-05-17T13:18:49.531;539146143343165958;411443;419416;461674;173185;
2024-05-17T13:18:49.549;539146143361324458;411309;419360;461597;173203;
2024-05-17T13:18:49.568;539146143379482958;411223;419353;461485;173208;
2024-05-17T13:18:49.586;539146143397641458;411199;419337;461442;173205;
2024-05-17T13:18:49.604;539146143415799958;411199;419281;461436;173173;
2024-05-17T13:18:49.622;539146143433958458;411214;419389;461518;173117;
2024-05-17T13:18:49.640;539146143452116958;411219;419420;461589;173121;
2024-05-17T13:18:49.658;539146143470275458;411304;419449;461666;173170;
2024-05-17T13:18:49.676;539146143488433958;411344;419532;461807;173126;
2024-05-17T13:18:49.695;539146143506592458;411338;419567;461796;173145;
2024-05-17T13:18:49.713;539146143524750958;411401;419632;461802;173165;
2024-05-17T13:18:49.731;539146143542909458;411472;419594;461798;173106;
2024-05-17T13:18:49.749;539146143561067958;411477;419628;461855;173128;
2024-05-17T13:18:49.767;539146143579226458;411547;419703;461887;173214;
2024-05-17T13:18:49.785;539146143597384958;411532;419679;461904;173157;
2024-05-17T13:18:49.804;539146143615543458;411552;419691;461997;173144;
2024-05-17T13:18:49.822;539146143633701958;411492;419667;461890;173139;
2024-05-17T13:18:49.840;539146143651860458;411399;419577;461772;173133;
2024-05-17T13:18:49.858;539146143670018958;411206;419339;461575;173147;
2024-05-17T13:18:49.876;539146143688177458;410981;419091;461294;173133;
2024-05-17T13:18:49.894;539146143706335958;410732;418869;461039;173133;
2024-05-17T13:18:49.913;539146143724494458;410580;418673;460797;173141;
2024-05-17T13:18:49.931;539146143742652958;410390;418468;460701;173160;
2024-05-17T13:18:49.949;539146143760811458;410313;418397;460570;173188;
2024-05-17T13:18:49.967;539146143778969958;410277;418344;460577;173213;
2024-05-17T13:18:49.985;539146143797128458;410236;418314;460539;173148;
2024-05-17T13:18:50.003;539146143815286958;410350;418377;460641;173177;
2024-05-17T13:18:50.021;539146143833445458;410465;418487;460749;173215;
2024-05-17T13:18:50.040;539146143851603958;410544;418545;460861;173170;
2024-05-17T13:18:50.058;539146143869762458;410622;418648;460878;173171;
2024-05-17T13:18:50.076;539146143887920958;410711;418771;461023;173139;
2024-05-17T13:18:50.094;539146143906079458;410793;418797;461186;173156;
2024-05-17T13:18:50.112;539146143924237958;410849;418894;461250;173126;
2024-05-17T13:18:50.130;539146143942396458;410946;419040;461244;173172;
2024-05-17T13:18:50.149;539146143960554958;411015;419030;461371;173242;
2024-05-17T13:18:50.167;539146143978713458;411080;419102;461402;173229;
2024-05-17T13:18:50.185;539146143996871958;411123;419149;461512;173189;
2024-05-17T13:18:50.203;539146144015030458;411113;419137;461492;173158;
2024-05-17T13:18:50.221;539146144033188958;411092;419155;461515;173145;
2024-05-17T13:18:50.239;539146144051346899;410980;418991;461314;173182;
2024-05-17T13:18:50.258;539146144069504818;410794;418755;461090;173198;
2024-05-17T13:18:50.276;539146144087662737;410646;418482;460792;173145;
2024-05-17T13:18:50.294;539146144105820656;410343;418281;460516;173139;
2024-05-17T13:18:50.312;539146144123978575;410276;418100;460364;173152;
2024-05-17T13:18:50.330;539146144142136494;410159;417982;460206;173159;
2024-05-17T13:18:50.348;539146144160294413;410119;417932;460182;173155;
2024-05-17T13:18:50.366;539146144178452332;410176;417919;460261;173101;
2024-05-17T13:18:50.385;539146144196610251;410175;417980;460320;173096;
2024-05-17T13:18:50.403;539146144214768170;410310;418087;460392;173127;
2024-05-17T13:18:50.421;539146144232926089;410534;418257;460571;173145;
2024-05-17T13:18:50.439;539146144251084008;410637;418436;460752;173145;
2024-05-17T13:18:50.457;539146144269241927;410766;418565;460895;173163;
2024-05-17T13:18:50.475;539146144287399846;410909;418718;461033;173141;
2024-05-17T13:18:50.494;539146144305557765;411071;418796;461201;173196;
2024-05-17T13:18:50.512;539146144323715684;411175;418938;461318;173159;
2024-05-17T13:18:50.530;539146144341873603;411208;419010;461448;173155;
2024-05-17T13:18:50.548;539146144360031522;411279;419058;461478;173168;
2024-05-17T13:18:50.566;539146144378189441;411441;419135;461566;173218;
2024-05-17T13:18:50.584;539146144396347360;411449;419303;461699;173173;
2024-05-17T13:18:50.603;539146144414505279;411468;419238;461758;173177;
2024-05-17T13:18:50.621;539146144432663198;411504;419181;461638;173215;
2024-05-17T13:18:50.639;539146144450821117;411332;419058;461482;173170;
2024-05-17T13:18:50.657;539146144468979036;411128;418823;461221;173134;
2024-05-17T13:18:50.675;539146144487136955;410899;418607;460940;173161;
2024-05-17T13:18:50.693;539146144505294874;410762;418359;460706;173186;
2024-05-17T13:18:50.711;539146144523452793;410574;418219;460649;173159;
2024-05-17T13:18:50.730;539146144541610712;410555;418144;460512;173191;
2024-05-17T13:18:50.748;539146144559768631;410489;418045;460467;173221;
2024-05-17T13:18:50.766;539146144577926550;410520;418096;460511;173165;
2024-05-17T13:18:50.784;539146144596084469;410624;418185;460650;173175;
2024-05-17T13:18:50.802;539146144614242388;410723;418312;460801;173158;
2024-05-17T13:18:50.820;539146144632400307;410843;418446;460989;173204;
2024-05-17T13:18:50.839;539146144650558226;410988;418555;461101;173152;
2024-05-17T13:18:50.857;539146144668716145;411125;418651;461252;173182;
2024-05-17T13:18:50.875;539146144686874064;411215;418825;461422;173145;
2024-05-17T13:18:50.893;539146144705031983;411311;418880;461487;173191;
2024-05-17T13:18:50.911;539146144723189902;411347;418916;461517;173181;
2024-05-17T13:18:50.929;539146144741347821;411355;418912;461557;173135;
2024-05-17T13:18:50.948;539146144759505740;411380;419000;461750;173148;
2024-05-17T13:18:50.966;539146144777663659;411494;419089;461788;173172;
2024-05-17T13:18:50.984;539146144795821578;411554;419200;461842;173139;
2024-05-17T13:18:51.002;539146144813979788;411659;419290;462002;173168;
2024-05-17T13:18:51.020;539146144832137998;411633;419140;461878;173130;
2024-05-17T13:18:51.038;539146144850296208;411506;419011;461755;173167;
2024-05-17T13:18:51.056;539146144868454418;411350;418842;461511;173173;
2024-05-17T13:18:51.075;539146144886612628;411127;418595;461264;173154;
2024-05-17T13:18:51.093;539146144904770838;410911;418432;461025;173181;
2024-05-17T13:18:51.111;539146144922929048;410735;418264;460914;173116;
2024-05-17T13:18:51.129;539146144941087258;410729;418212;460885;173198;
2024-05-17T13:18:51.147;539146144959245468;410748;418198;460883;173170;
2024-05-17T13:18:51.165;539146144977403678;410780;418250;460943;173214;
2024-05-17T13:18:51.184;539146144995561888;410826;418349;460963;173142;
2024-05-17T13:18:51.202;539146145013720098;410968;418442;461182;173142;
2024-05-17T13:18:51.220;539146145031878308;411113;418703;461417;173207;
2024-05-17T13:18:51.238;539146145050036518;411308;418817;461519;173173;
2024-05-17T13:18:51.256;539146145068194728;411386;418894;461668;173148;
2024-05-17T13:18:51.274;539146145086352938;411454;419001;461785;173194;
2024-05-17T13:18:51.293;539146145104511148;411568;419070;461872;173216;
2024-05-17T13:18:51.311;539146145122669358;411691;419111;462011;173162;
2024-05-17T13:18:51.329;539146145140827568;411692;419182;462049;173171;
2024-05-17T13:18:51.347;539146145158985778;411752;419238;462156;173215;
2024-05-17T13:18:51.365;539146145177143988;411780;419311;462248;173197;
2024-05-17T13:18:51.383;539146145195302198;411828;419384;462286;173164;
2024-05-17T13:18:51.401;539146145213460408;411902;419511;462416;173190;
2024-05-17T13:18:51.420;539146145231618618;411888;419460;462382;173137;
2024-05-17T13:18:51.438;539146145249776828;411820;419407;462315;173165;
2024-05-17T13:18:51.456;539146145267935038;411651;419170;462049;173141;
2024-05-17T13:18:51.474;539146145286093248;411475;418975;461907;173178;
2024-05-17T13:18:51.492;539146145304251458;411257;418777;461668;173155;
2024-05-17T13:18:51.510;539146145322409668;411117;418655;461479;173162;
2024-05-17T13:18:51.529;539146145340567878;410989;418540;461347;173171;
2024-05-17T13:18:51.547;539146145358726088;410956;418442;461318;173223;
2024-05-17T13:18:51.565;539146145376884298;410927;418462;461349;173175;
2024-05-17T13:18:51.583;539146145395042508;411020;418555;461409;173139;
2024-05-17T13:18:51.601;539146145413200718;411097;418645;461528;173179;
2024-05-17T13:18:51.619;539146145431358928;411209;418840;461767;173225;
2024-05-17T13:18:51.638;539146145449517138;411306;418872;461853;173190;
2024-05-17T13:18:51.656;539146145467675348;411327;418923;461954;173188;
2024-05-17T13:18:51.674;539146145485833558;411482;419031;462012;173195;
2024-05-17T13:18:51.692;539146145503991768;411543;419130;462105;173212;
2024-05-17T13:18:51.710;539146145522149978;411602;419176;462165;173214;
2024-05-17T13:18:51.728;539146145540308188;411788;419313;462459;173160;
2024-05-17T13:18:51.746;539146145558466398;412205;419499;462739;173181;
2024-05-17T13:18:51.765;539146145576624608;412844;419870;463264;173190;
2024-05-17T13:18:51.783;539146145594782818;413667;420360;463910;173186;
2024-05-17T13:18:51.801;539146145612941028;414803;421010;464729;173209;
2024-05-17T13:18:51.819;539146145631099238;415890;421666;465544;173199;
2024-05-17T13:18:51.837;539146145649257448;416846;422243;466217;173163;
2024-05-17T13:18:51.855;539146145667415658;417805;423025;466934;173211;
2024-05-17T13:18:51.874;539146145685573868;418770;423777;467597;173178;
2024-05-17T13:18:51.892;539146145703732078;419743;424560;468250;173211;
2024-05-17T13:18:51.910;539146145721890288;420791;425442;469065;173214;
2024-05-17T13:18:51.928;539146145740048498;421708;426266;469850;173215;
2024-05-17T13:18:51.946;539146145758206708;422764;427224;470847;173243;
2024-05-17T13:18:51.964;539146145776364918;423713;428153;471824;173229;
2024-05-17T13:18:51.983;539146145794523128;424630;429151;472891;173238;
2024-05-17T13:18:52.001;539146145812681338;425627;430103;473922;173233;
2024-05-17T13:18:52.019;539146145830839548;426580;431154;474964;173218;
2024-05-17T13:18:52.037;539146145848997758;427512;432065;476022;173168;
2024-05-17T13:18:52.055;539146145867155968;428537;432978;477022;173253;
2024-05-17T13:18:52.073;539146145885314178;429572;433978;478081;173191;
2024-05-17T13:18:52.091;539146145903472388;430627;434907;479143;173264;
2024-05-17T13:18:52.110;539146145921630598;431653;435899;480234;173223;
2024-05-17T13:18:52.128;539146145939788808;432604;436832;481191;173246;
2024-05-17T13:18:52.146;539146145957947018;433477;437707;482188;173291;
2024-05-17T13:18:52.164;539146145976105228;434322;438544;483154;173244;
2024-05-17T13:18:52.182;539146145994263438;435127;439266;484042;173253;
2024-05-17T13:18:52.200;539146146012421648;435874;439962;484828;173311;
2024-05-17T13:18:52.219;539146146030579858;436532;440626;485506;173265;
2024-05-17T13:18:52.237;539146146048738068;437116;441182;486137;173256;
2024-05-17T13:18:52.255;539146146066896278;437554;441664;486691;173283;
2024-05-17T13:18:52.273;539146146085054488;437870;441963;486984;173206;
2024-05-17T13:18:52.291;539146146103212698;438210;442277;487295;173216;
2024-05-17T13:18:52.309;539146146121370908;438406;442458;487466;173265;
2024-05-17T13:18:52.328;539146146139529118;438577;442781;487704;173260;
2024-05-17T13:18:52.346;539146146157687328;438652;442900;487883;173232;
2024-05-17T13:18:52.364;539146146175844668;438653;443021;487945;173253;
2024-05-17T13:18:52.382;539146146194002006;438640;443219;488081;173248;
2024-05-17T13:18:52.400;539146146212159344;438565;443401;488229;173190;
2024-05-17T13:18:52.418;539146146230316682;438484;443556;488442;173193;
2024-05-17T13:18:52.436;539146146248474020;438339;443670;488477;173176;
2024-05-17T13:18:52.455;539146146266631358;438197;443840;488521;173224;
2024-05-17T13:18:52.473;539146146284788696;437928;443827;488469;173219;
2024-05-17T13:18:52.491;539146146302946034;437599;443730;488322;173269;
2024-05-17T13:18:52.509;539146146321103372;437202;443632;488135;173241;
2024-05-17T13:18:52.527;539146146339260710;436883;443503;487893;173214;
2024-05-17T13:18:52.545;539146146357418048;436623;443347;487701;173199;
2024-05-17T13:18:52.564;539146146375575386;436376;443149;487541;173205;
2024-05-17T13:18:52.582;539146146393732724;436115;443000;487298;173212;
2024-05-17T13:18:52.600;539146146411890062;435907;442930;487233;173203;
2024-05-17T13:18:52.618;539146146430047400;435677;442836;487154;173202;
2024-05-17T13:18:52.636;539146146448204738;435345;442592;486770;173137;
2024-05-17T13:18:52.654;539146146466362076;434926;442205;486466;173176;
2024-05-17T13:18:52.673;539146146484519414;434364;441741;485947;173169;
2024-05-17T13:18:52.691;539146146502676752;433892;441344;485473;173147;
2024-05-17T13:18:52.709;539146146520834090;433465;440953;485079;173170;
2024-05-17T13:18:52.727;539146146538991428;433030;440561;484646;173162;
2024-05-17T13:18:52.745;539146146557148766;432688;440361;484461;173196;
2024-05-17T13:18:52.763;539146146575306104;432442;440187;484191;173196;
2024-05-17T13:18:52.781;539146146593463442;432211;440065;483924;173199;
2024-05-17T13:18:52.800;539146146611620780;431993;439862;483771;173190;
2024-05-17T13:18:52.818;539146146629778118;431743;439673;483590;173214;
2024-05-17T13:18:52.836;539146146647935456;431597;439630;483477;173220;
2024-05-17T13:18:52.854;539146146666092794;431380;439489;483305;173225;
2024-05-17T13:18:52.872;539146146684250132;431095;439328;483113;173222;
2024-05-17T13:18:52.890;539146146702407470;430903;439178;482913;173214;
2024-05-17T13:18:52.909;539146146720564808;430607;438870;482576;173153;
2024-05-17T13:18:52.927;539146146738722146;430312;438723;482388;173177;
2024-05-17T13:18:52.945;539146146756879484;430086;438384;482089;173191;
2024-05-17T13:18:52.963;539146146775036822;429860;438200;481932;173162;
2024-05-17T13:18:52.981;539146146793194160;429576;438004;481627;173188;
2024-05-17T13:18:52.999;539146146811351600;429341;437789;481454;173206;
2024-05-17T13:18:53.018;539146146829509010;429100;437569;481155;173145;
2024-05-17T13:18:53.036;539146146847666420;428777;437311;480866;173125;
2024-05-17T13:18:53.054;539146146865823830;428396;436905;480385;173121;
2024-05-17T13:18:53.072;539146146883981240;427939;436511;479908;173174;
2024-05-17T13:18:53.090;539146146902138650;427527;436130;479539;173182;
2024-05-17T13:18:53.108;539146146920296060;427065;435735;479066;173160;
2024-05-17T13:18:53.126;539146146938453470;426703;435435;478681;173161;
2024-05-17T13:18:53.145;539146146956610880;426359;435142;478388;173153;
2024-05-17T13:18:53.163;539146146974768290;426076;434943;478165;173161;
2024-05-17T13:18:53.181;539146146992925700;425826;434808;478009;173151;
2024-05-17T13:18:53.199;539146147011083110;425762;434784;477903;173151;
2024-05-17T13:18:53.217;539146147029240520;425659;434688;477763;173127;
2024-05-17T13:18:53.235;539146147047397930;425579;434692;477819;173159;
2024-05-17T13:18:53.254;539146147065555340;425568;434641;477806;173165;
2024-05-17T13:18:53.272;539146147083712750;425542;434660;477736;173168;
2024-05-17T13:18:53.290;539146147101870160;425459;434606;477655;173162;
2024-05-17T13:18:53.308;539146147120027570;425372;434528;477623;173154;
2024-05-17T13:18:53.326;539146147138184980;425321;434459;477598;173134;
2024-05-17T13:18:53.344;539146147156342390;425313;434382;477525;173143;
2024-05-17T13:18:53.363;539146147174499800;425228;434404;477452;173150;
2024-05-17T13:18:53.381;539146147192657210;425192;434345;477416;173146;
2024-05-17T13:18:53.399;539146147210814620;425105;434331;477452;173131;
2024-05-17T13:18:53.417;539146147228972030;425085;434266;477463;173134;
2024-05-17T13:18:53.435;539146147247129440;425091;434240;477485;173124;
2024-05-17T13:18:53.453;539146147265286850;425007;434168;477384;173128;
2024-05-17T13:18:53.471;539146147283444260;424866;433975;477166;173142;
2024-05-17T13:18:53.490;539146147301601670;424534;433666;476851;173109;
2024-05-17T13:18:53.508;539146147319759080;424338;433489;476663;173143;
2024-05-17T13:18:53.526;539146147337916490;424135;433270;476299;173102;
2024-05-17T13:18:53.544;539146147356073900;423965;433112;476178;173154;
2024-05-17T13:18:53.562;539146147374231310;423851;432909;476027;173174;
2024-05-17T13:18:53.580;539146147392388720;423681;432844;475929;173143;
2024-05-17T13:18:53.599;539146147410546130;423645;432818;475916;173131;
2024-05-17T13:18:53.617;539146147428703540;423589;432793;475936;173117;
2024-05-17T13:18:53.635;539146147446860950;423610;432830;475953;173127;
2024-05-17T13:18:53.653;539146147465018360;423666;432911;476032;173156;
2024-05-17T13:18:53.671;539146147483175770;423684;432956;476073;173138;
2024-05-17T13:18:53.689;539146147501333180;423739;433018;476184;173121;
2024-05-17T13:18:53.708;539146147519490590;423703;432965;476158;173082;
2024-05-17T13:18:53.726;539146147537648000;423708;432990;476182;173065;
2024-05-17T13:18:53.744;539146147555805410;423753;433006;476165;173104;
2024-05-17T13:18:53.762;539146147573963123;423736;433031;476226;173096;
2024-05-17T13:18:53.780;539146147592120824;423774;433078;476240;173088;
2024-05-17T13:18:53.798;539146147610278525;423760;433143;476323;173167;
2024-05-17T13:18:53.816;539146147628436226;423743;433117;476283;173137;
2024-05-17T13:18:53.835;539146147646593927;423728;433121;476325;173103;
2024-05-17T13:18:53.853;539146147664751628;423756;433169;476373;173105;
2024-05-17T13:18:53.871;539146147682909329;423789;433158;476378;173172;
2024-05-17T13:18:53.889;539146147701067030;423632;433138;476239;173118;
2024-05-17T13:18:53.907;539146147719224731;423446;432913;475996;173142;
2024-05-17T13:18:53.925;539146147737382432;423345;432747;475787;173170;
2024-05-17T13:18:53.944;539146147755540133;423095;432530;475516;173105;
2024-05-17T13:18:53.962;539146147773697834;422903;432329;475366;173123;
2024-05-17T13:18:53.980;539146147791855535;422746;432249;475319;173117;
2024-05-17T13:18:53.998;539146147810013236;422619;432097;475171;173123;
2024-05-17T13:18:54.016;539146147828170937;422579;432062;475096;173106;
2024-05-17T13:18:54.034;539146147846328638;422584;432069;475153;173133;
2024-05-17T13:18:54.053;539146147864486339;422544;432093;475200;173157;
2024-05-17T13:18:54.071;539146147882644040;422503;432174;475210;173106;
2024-05-17T13:18:54.089;539146147900801741;422644;432304;475323;173155;
2024-05-17T13:18:54.107;539146147918959442;422668;432375;475424;173102;
2024-05-17T13:18:54.125;539146147937117143;422789;432434;475494;173135;
2024-05-17T13:18:54.143;539146147955274844;422882;432434;475561;173186;
2024-05-17T13:18:54.161;539146147973432545;422834;432440;475545;173140;
2024-05-17T13:18:54.180;539146147991590246;422784;432557;475598;173162;
2024-05-17T13:18:54.198;539146148009747947;422816;432560;475590;173118;
2024-05-17T13:18:54.216;539146148027905648;422768;432534;475608;173133;
2024-05-17T13:18:54.234;539146148046063349;422801;432579;475615;173109;
2024-05-17T13:18:54.252;539146148064221050;422933;432605;475698;173095;
2024-05-17T13:18:54.270;539146148082378751;423104;432717;475903;173126;
2024-05-17T13:18:54.289;539146148100536452;423481;432953;476172;173128;
2024-05-17T13:18:54.307;539146148118694153;423785;433137;476439;173140;
2024-05-17T13:18:54.325;539146148136851854;424004;433325;476579;173146;
2024-05-17T13:18:54.343;539146148155009555;423910;433371;476549;173093;
2024-05-17T13:18:54.361;539146148173167256;423852;433290;476577;173116;
2024-05-17T13:18:54.379;539146148191324957;423678;433167;476413;173066;
2024-05-17T13:18:54.398;539146148209482658;423470;433099;476318;173074;
2024-05-17T13:18:54.416;539146148227640359;423280;432963;476180;173131;
2024-05-17T13:18:54.434;539146148245798060;423128;432909;476100;173162;
2024-05-17T13:18:54.452;539146148263955761;423028;432814;475965;173159;
2024-05-17T13:18:54.470;539146148282113462;422891;432811;475930;173187;
2024-05-17T13:18:54.488;539146148300271163;422866;432780;475915;173139;
2024-05-17T13:18:54.506;539146148318428864;422821;432820;475941;173136;
2024-05-17T13:18:54.525;539146148336587678;422829;432856;475958;173178;
2024-05-17T13:18:54.543;539146148354746455;422874;432846;476020;173178;
2024-05-17T13:18:54.561;539146148372905232;422851;432914;476048;173159;
2024-05-17T13:18:54.579;539146148391064009;422840;432875;476055;173159;
2024-05-17T13:18:54.597;539146148409222786;422792;432914;476003;173180;
2024-05-17T13:18:54.615;539146148427381563;422804;432902;475993;173128;
2024-05-17T13:18:54.634;539146148445540340;422783;432896;476001;173106;
2024-05-17T13:18:54.652;539146148463699117;422792;432967;476002;173129;
2024-05-17T13:18:54.670;539146148481857894;422758;432903;476030;173118;
2024-05-17T13:18:54.688;539146148500016671;422745;432967;476091;173150;
2024-05-17T13:18:54.706;539146148518175448;422763;433006;476101;173129;
2024-05-17T13:18:54.724;539146148536334225;422791;433004;476085;173195;
2024-05-17T13:18:54.743;539146148554493002;422689;432890;475992;173180;
2024-05-17T13:18:54.761;539146148572651779;422540;432758;475788;173182;
2024-05-17T13:18:54.779;539146148590810556;422334;432576;475534;173146;
2024-05-17T13:18:54.797;539146148608969333;422187;432395;475388;173189;
2024-05-17T13:18:54.815;539146148627128110;422007;432195;475156;173159;
2024-05-17T13:18:54.833;539146148645286887;421868;432119;475044;173188;
2024-05-17T13:18:54.851;539146148663445664;421802;432025;474936;173186;
2024-05-17T13:18:54.870;539146148681604441;421740;431978;474857;173171;
2024-05-17T13:18:54.888;539146148699763218;421774;432048;474901;173187;
2024-05-17T13:18:54.906;539146148717921995;421774;432105;474941;173154;
2024-05-17T13:18:54.924;539146148736080772;421862;432221;475098;173188;
2024-05-17T13:18:54.942;539146148754239549;421984;432301;475231;173157;
2024-05-17T13:18:54.960;539146148772398326;422045;432416;475296;173147;
2024-05-17T13:18:54.979;539146148790557103;422167;432421;475389;173145;
2024-05-17T13:18:54.997;539146148808715880;422216;432591;475442;173176;
2024-05-17T13:18:55.015;539146148826874657;422285;432608;475584;173133;
2024-05-17T13:18:55.033;539146148845033434;422302;432665;475665;173165;
2024-05-17T13:18:55.051;539146148863192211;422388;432716;475635;173188;
2024-05-17T13:18:55.069;539146148881350988;422478;432790;475788;173152;
2024-05-17T13:18:55.088;539146148899509765;422542;432842;475817;173163;
2024-05-17T13:18:55.106;539146148917668542;422633;432966;475882;173203;
2024-05-17T13:18:55.124;539146148935827319;422630;433043;475990;173163;
2024-05-17T13:18:55.142;539146148953986096;422715;433120;476053;173163;
2024-05-17T13:18:55.160;539146148972144873;422619;433050;476005;173188;
2024-05-17T13:18:55.178;539146148990303650;422472;432909;475792;173131;
2024-05-17T13:18:55.196;539146149008462427;422391;432739;475602;173154;
2024-05-17T13:18:55.215;539146149026621204;422282;432649;475498;173156;
2024-05-17T13:18:55.233;539146149044779981;422191;432553;475417;173154;
2024-05-17T13:18:55.251;539146149062938758;422181;432503;475347;173187;
2024-05-17T13:18:55.269;539146149081097535;422160;432514;475342;173172;
2024-05-17T13:18:55.287;539146149099256312;422160;432525;475376;173177;
2024-05-17T13:18:55.305;539146149117413484;422216;432590;475505;173173;
2024-05-17T13:18:55.324;539146149135570640;422367;432760;475670;173161;
2024-05-17T13:18:55.342;539146149153727796;422574;432950;475868;173240;
2024-05-17T13:18:55.360;539146149171884952;422695;433088;476011;173213;
2024-05-17T13:18:55.378;539146149190042108;422795;433234;476202;173199;
2024-05-17T13:18:55.396;539146149208199264;422932;433283;476293;173157;
2024-05-17T13:18:55.414;539146149226356420;422958;433423;476428;173236;
2024-05-17T13:18:55.433;539146149244513576;423067;433444;476476;173178;
2024-05-17T13:18:55.451;539146149262670732;423186;433573;476578;173160;
2024-05-17T13:18:55.469;539146149280827888;423229;433696;476692;173147;
2024-05-17T13:18:55.487;539146149298985044;423254;433719;476711;173129;
2024-05-17T13:18:55.505;539146149317142200;423296;433755;476738;173176;
2024-05-17T13:18:55.523;539146149335299356;423334;433853;476807;173236;
2024-05-17T13:18:55.541;539146149353456512;423363;433890;476955;173237;
2024-05-17T13:18:55.560;539146149371613668;423435;433950;476976;173212;
2024-05-17T13:18:55.578;539146149389770824;423364;433889;476960;173143;
2024-05-17T13:18:55.596;539146149407927980;423239;433836;476836;173189;
2024-05-17T13:18:55.614;539146149426085136;423023;433657;476611;173212;
2024-05-17T13:18:55.632;539146149444242292;422837;433426;476289;173252;
2024-05-17T13:18:55.650;539146149462399448;422556;433190;476081;173184;
2024-05-17T13:18:55.669;539146149480556604;422373;433050;475788;173223;
2024-05-17T13:18:55.687;539146149498713760;422175;432910;475640;173194;
2024-05-17T13:18:55.705;539146149516870916;422020;432842;475484;173194;
2024-05-17T13:18:55.723;539146149535028072;421970;432732;475489;173180;
2024-05-17T13:18:55.741;539146149553185228;421982;432768;475438;173153;
2024-05-17T13:18:55.759;539146149571342384;422004;432807;475543;173201;
2024-05-17T13:18:55.778;539146149589499540;422027;432854;475579;173154;
2024-05-17T13:18:55.796;539146149607656696;422045;432915;475676;173151;
2024-05-17T13:18:55.814;539146149625813852;422099;432947;475709;173104;
2024-05-17T13:18:55.832;539146149643971008;422117;432993;475755;173159;
2024-05-17T13:18:55.850;539146149662128164;422079;432978;475745;173216;
2024-05-17T13:18:55.868;539146149680285320;422094;432917;475697;173127;
2024-05-17T13:18:55.886;539146149698442476;422026;432887;475696;173208;
2024-05-17T13:18:55.905;539146149716599632;421909;432759;475528;173138;
2024-05-17T13:18:55.923;539146149734756788;421883;432751;475503;173160;
2024-05-17T13:18:55.941;539146149752913944;421788;432733;475436;173172;
2024-05-17T13:18:55.959;539146149771071100;421773;432766;475494;173190;
2024-05-17T13:18:55.977;539146149789228256;421824;432826;475512;173193;
2024-05-17T13:18:55.995;539146149807385412;421845;432897;475533;173168;
2024-05-17T13:18:56.014;539146149825542568;421885;432920;475568;173226;
2024-05-17T13:18:56.032;539146149843699724;421723;432770;475473;173198;
2024-05-17T13:18:56.050;539146149861856880;421607;432673;475302;173203;
2024-05-17T13:18:56.068;539146149880014030;421431;432527;475125;173177;
2024-05-17T13:18:56.086;539146149898171139;421250;432244;474832;173179;
2024-05-17T13:18:56.104;539146149916328248;421068;432107;474600;173208;
2024-05-17T13:18:56.123;539146149934485357;420912;431983;474434;173210;
2024-05-17T13:18:56.141;539146149952642466;420762;431822;474317;173184;
2024-05-17T13:18:56.159;539146149970799575;420643;431837;474248;173177;
2024-05-17T13:18:56.177;539146149988956684;420678;431786;474270;173164;
2024-05-17T13:18:56.195;539146150007113793;420617;431790;474320;173137;
2024-05-17T13:18:56.213;539146150025270902;420617;431793;474310;173107;
2024-05-17T13:18:56.231;539146150043428011;420646;431877;474366;173184;
2024-05-17T13:18:56.250;539146150061585120;420661;431935;474440;173151;
2024-05-17T13:18:56.268;539146150079742229;420733;431954;474513;173157;
2024-05-17T13:18:56.286;539146150097899338;420781;431951;474522;173156;
2024-05-17T13:18:56.304;539146150116056447;420758;431947;474512;173206;
2024-05-17T13:18:56.322;539146150134213556;420685;431937;474511;173160;
2024-05-17T13:18:56.340;539146150152370665;420615;431971;474500;173070;
2024-05-17T13:18:56.359;539146150170527774;420616;431982;474480;173114;
2024-05-17T13:18:56.377;539146150188684883;420588;431914;474432;173130;
2024-05-17T13:18:56.395;539146150206841992;420563;431859;474422;173198;
2024-05-17T13:18:56.413;539146150224999101;420503;431886;474426;173123;
2024-05-17T13:18:56.431;539146150243156210;420499;431825;474435;173145;
2024-05-17T13:18:56.449;539146150261313319;420467;431906;474430;173139;
2024-05-17T13:18:56.467;539146150279470428;420460;431847;474349;173161;
2024-05-17T13:18:56.486;539146150297627537;420326;431740;474179;173168;
2024-05-17T13:18:56.504;539146150315784646;420237;431676;474094;173158;
2024-05-17T13:18:56.522;539146150333941755;420059;431486;473811;173174;
2024-05-17T13:18:56.540;539146150352098864;419902;431279;473674;173172;
2024-05-17T13:18:56.558;539146150370255973;419788;431170;473549;173164;
2024-05-17T13:18:56.576;539146150388413082;419704;431096;473427;173129;
2024-05-17T13:18:56.595;539146150406570191;419693;431128;473434;173169;
2024-05-17T13:18:56.613;539146150424727300;419740;431195;473469;173140;
2024-05-17T13:18:56.631;539146150442884409;419842;431267;473605;173140;
2024-05-17T13:18:56.649;539146150461041518;419914;431420;473707;173123;
2024-05-17T13:18:56.667;539146150479198627;420069;431532;473854;173182;
2024-05-17T13:18:56.685;539146150497355736;420238;431682;474001;173168;
2024-05-17T13:18:56.704;539146150515512845;420376;431857;474171;173227;
2024-05-17T13:18:56.722;539146150533669954;420562;431985;474350;173204;
2024-05-17T13:18:56.740;539146150551827063;420609;432081;474396;173126;
2024-05-17T13:18:56.758;539146150569984172;420629;432181;474582;173083;
2024-05-17T13:18:56.776;539146150588141281;420738;432284;474654;173175;
2024-05-17T13:18:56.794;539146150606298390;420802;432351;474739;173152;
2024-05-17T13:18:56.812;539146150624455499;420858;432461;474840;173131;
2024-05-17T13:18:56.831;539146150642612608;420961;432522;474895;173097;
2024-05-17T13:18:56.849;539146150660771570;421149;432638;475026;173160;
2024-05-17T13:18:56.867;539146150678930506;421219;432759;475190;173120;
2024-05-17T13:18:56.885;539146150697089442;421310;432822;475306;173126;
2024-05-17T13:18:56.903;539146150715248378;421318;432934;475366;173161;
2024-05-17T13:18:56.921;539146150733407314;421337;432854;475293;173154;
2024-05-17T13:18:56.940;539146150751566250;421224;432728;475205;173111;
2024-05-17T13:18:56.958;539146150769725186;421114;432654;475065;173078;
2024-05-17T13:18:56.976;539146150787884122;421064;432474;474904;173151;
2024-05-17T13:18:56.994;539146150806043058;420934;432455;474828;173163;
2024-05-17T13:18:57.012;539146150824201994;420939;432407;474795;173142;
2024-05-17T13:18:57.030;539146150842360930;420920;432463;474827;173120;
2024-05-17T13:18:57.049;539146150860519866;420885;432463;474923;173146;
2024-05-17T13:18:57.067;539146150878678802;420973;432600;475027;173193;
2024-05-17T13:18:57.085;539146150896837738;421042;432606;475144;173122;
2024-05-17T13:18:57.103;539146150914996674;421165;432756;475276;173160;
2024-05-17T13:18:57.121;539146150933155610;421273;432896;475401;173186;
2024-05-17T13:18:57.139;539146150951314546;421379;432969;475486;173180;
2024-05-17T13:18:57.157;539146150969473482;421531;433165;475733;173199;
2024-05-17T13:18:57.176;539146150987632418;421660;433214;475796;173216;
2024-05-17T13:18:57.194;539146151005791354;421786;433339;475976;173184;
2024-05-17T13:18:57.212;539146151023950290;421840;433507;476103;173162;
2024-05-17T13:18:57.230;539146151042109226;421939;433597;476200;173185;
2024-05-17T13:18:57.248;539146151060268162;422025;433639;476365;173180;
2024-05-17T13:18:57.266;539146151078427098;422047;433738;476382;173138;
2024-05-17T13:18:57.285;539146151096586034;422194;433806;476548;173167;
2024-05-17T13:18:57.303;539146151114744970;422317;433936;476677;173145;
2024-05-17T13:18:57.321;539146151132903906;422386;433999;476751;173154;
2024-05-17T13:18:57.339;539146151151062842;422268;433846;476594;173103;
2024-05-17T13:18:57.357;539146151169221778;422195;433754;476556;173213;
2024-05-17T13:18:57.375;539146151187380714;421993;433622;476380;173108;
2024-05-17T13:18:57.394;539146151205539650;421882;433514;476200;173128;
2024-05-17T13:18:57.412;539146151223698586;421752;433396;476103;173134;
2024-05-17T13:18:57.430;539146151241857522;421747;433333;476066;173211;
2024-05-17T13:18:57.448;539146151260016458;421668;433307;476035;173174;
2024-05-17T13:18:57.466;539146151278175394;421632;433264;476048;173181;
2024-05-17T13:18:57.484;539146151296334330;421654;433372;476116;173181;
2024-05-17T13:18:57.503;539146151314493266;421761;433452;476225;173122;
2024-05-17T13:18:57.521;539146151332652202;421834;433563;476314;173135;
2024-05-17T13:18:57.539;539146151350811138;421979;433651;476483;173157;
2024-05-17T13:18:57.557;539146151368970074;422165;433793;476686;173138;
2024-05-17T13:18:57.575;539146151387129010;422246;433920;476865;173119;
2024-05-17T13:18:57.593;539146151405287946;422444;434065;477019;173123;
2024-05-17T13:18:57.611;539146151423445445;422542;434228;477205;173184;
2024-05-17T13:18:57.630;539146151441602928;422691;434346;477316;173163;
2024-05-17T13:18:57.648;539146151459760411;422851;434426;477472;173171;
2024-05-17T13:18:57.666;539146151477917894;422894;434530;477571;173158;
2024-05-17T13:18:57.684;539146151496075377;423007;434628;477722;173139;
2024-05-17T13:18:57.702;539146151514232860;423146;434772;477928;173169;
2024-05-17T13:18:57.720;539146151532390343;423265;434947;478092;173193;
2024-05-17T13:18:57.739;539146151550547826;423318;434991;478187;173138;
2024-05-17T13:18:57.757;539146151568705309;423305;435002;478154;173193;
2024-05-17T13:18:57.775;539146151586862792;423263;434935;478120;173192;
2024-05-17T13:18:57.793;539146151605020275;423102;434795;477912;173182;
2024-05-17T13:18:57.811;539146151623177758;423020;434571;477739;173144;
2024-05-17T13:18:57.829;539146151641335241;422907;434554;477683;173173;
2024-05-17T13:18:57.848;539146151659492724;422731;434371;477546;173143;
2024-05-17T13:18:57.866;539146151677650207;422655;434355;477541;173169;
2024-05-17T13:18:57.884;539146151695807690;422619;434343;477494;173124;
2024-05-17T13:18:57.902;539146151713965173;422723;434434;477559;173154;
2024-05-17T13:18:57.920;539146151732122656;422738;434443;477643;173155;
2024-05-17T13:18:57.938;539146151750280139;422789;434494;477688;173157;
2024-05-17T13:18:57.956;539146151768437622;422871;434699;477900;173182;
2024-05-17T13:18:57.975;539146151786595105;423055;434809;478061;173172;
2024-05-17T13:18:57.993;539146151804752588;423261;434933;478296;173211;
2024-05-17T13:18:58.011;539146151822910071;423308;435015;478407;173155;
2024-05-17T13:18:58.029;539146151841067554;423458;435185;478507;173171;
2024-05-17T13:18:58.047;539146151859225037;423596;435310;478710;173231;
2024-05-17T13:18:58.065;539146151877382520;423691;435422;478804;173178;
2024-05-17T13:18:58.084;539146151895540003;423788;435478;478902;173163;
2024-05-17T13:18:58.102;539146151913697486;423881;435622;479017;173161;
2024-05-17T13:18:58.120;539146151931854969;424015;435712;479161;173161;
2024-05-17T13:18:58.138;539146151950012452;424044;435789;479287;173178;
2024-05-17T13:18:58.156;539146151968169935;424131;435946;479401;173164;
2024-05-17T13:18:58.174;539146151986327418;424161;435964;479475;173241;
2024-05-17T13:18:58.193;539146152004484901;424111;435920;479447;173151;
2024-05-17T13:18:58.211;539146152022642384;424133;435879;479390;173195;
2024-05-17T13:18:58.229;539146152040799867;423963;435694;479222;173158;
2024-05-17T13:18:58.247;539146152058957350;423834;435541;479085;173176;
2024-05-17T13:18:58.265;539146152077114833;423778;435457;479020;173198;
2024-05-17T13:18:58.283;539146152095272316;423693;435350;478891;173185;
2024-05-17T13:18:58.301;539146152113429799;423503;435270;478751;173127;
2024-05-17T13:18:58.320;539146152131587282;423458;435223;478734;173154;
2024-05-17T13:18:58.338;539146152149744765;423479;435262;478838;173116;
2024-05-17T13:18:58.356;539146152167902248;423560;435357;478932;173191;
2024-05-17T13:18:58.374;539146152186061135;423646;435422;479055;173197;
2024-05-17T13:18:58.392;539146152204219998;423734;435524;479126;173137;
2024-05-17T13:18:58.410;539146152222378861;423852;435612;479292;173134;
2024-05-17T13:18:58.429;539146152240537724;423969;435779;479426;173156;
2024-05-17T13:18:58.447;539146152258696587;424088;435892;479616;173195;
2024-05-17T13:18:58.465;539146152276855450;424186;435994;479705;173137;
2024-05-17T13:18:58.483;539146152295014313;424314;436073;479884;173176;
2024-05-17T13:18:58.501;539146152313173176;424429;436210;479964;173154;
2024-05-17T13:18:58.519;539146152331332039;424502;436290;480077;173136;
2024-05-17T13:18:58.538;539146152349490902;424646;436471;480190;173219;
2024-05-17T13:18:58.556;539146152367649765;424649;436453;480193;173177;
2024-05-17T13:18:58.574;539146152385808628;424699;436471;480282;173182;
2024-05-17T13:18:58.592;539146152403967491;424775;436540;480368;173120;
2024-05-17T13:18:58.610;539146152422126354;424834;436618;480485;173206;
2024-05-17T13:18:58.628;539146152440285217;424750;436569;480417;173177;
2024-05-17T13:18:58.646;539146152458444080;424624;436482;480358;173193;
2024-05-17T13:18:58.665;539146152476602943;424443;436303;480118;173127;
2024-05-17T13:18:58.683;539146152494761806;424369;436212;480043;173145;
2024-05-17T13:18:58.701;539146152512920669;424268;436034;479956;173189;
2024-05-17T13:18:58.719;539146152531079532;424152;435950;479848;173204;
2024-05-17T13:18:58.737;539146152549238395;424075;435933;479753;173188;
2024-05-17T13:18:58.755;539146152567397258;424120;435869;479746;173175;
2024-05-17T13:18:58.774;539146152585556121;424077;435837;479773;173167;
2024-05-17T13:18:58.792;539146152603714984;424112;435859;479824;173191;
2024-05-17T13:18:58.810;539146152621873847;424147;436037;479938;173159;
2024-05-17T13:18:58.828;539146152640032710;424250;436106;480047;173136;
