Phone timestamp;sensor timestamp [ns];channel 0;channel 1;channel 2;ambient
2024-05-17T13:22:08.361;539146342187037524;489305;492019;544132;173369;
2024-05-17T13:22:08.379;539146342205194208;489198;491819;544015;173341;
2024-05-17T13:22:08.397;539146342223350892;489019;491632;543788;173312;
2024-05-17T13:22:08.415;539146342241507576;488783;491475;543602;173406;
2024-05-17T13:22:08.433;539146342259664260;488573;491209;543378;173305;
2024-05-17T13:22:08.451;539146342277820944;488480;491043;543253;173351;
2024-05-17T13:22:08.469;539146342295977628;488367;490975;543210;173389;
2024-05-17T13:22:08.488;539146342314134312;488244;490969;543210;173380;
2024-05-17T13:22:08.506;539146342332290996;488175;490981;543144;173324;
2024-05-17T13:22:08.524;539146342350447680;488125;490957;543189;173348;
2024-05-17T13:22:08.542;539146342368604364;488045;491026;543206;173386;
2024-05-17T13:22:08.560;539146342386761048;488007;491001;543174;173373;
2024-05-17T13:22:08.578;539146342404917732;487926;491037;543130;173328;
2024-05-17T13:22:08.597;539146342423074416;487843;491070;543189;173339;
2024-05-17T13:22:08.615;539146342441231100;487742;491156;543109;173389;
2024-05-17T13:22:08.633;539146342459387784;487599;491144;542966;173349;
2024-05-17T13:22:08.651;539146342477544468;487343;491048;542819;173324;
2024-05-17T13:22:08.669;539146342495701152;487158;490968;542675;173374;
2024-05-17T13:22:08.687;539146342513857836;486890;490966;542601;173351;
2024-05-17T13:22:08.705;539146342532014520;486644;490857;542464;173335;
2024-05-17T13:22:08.724;539146342550171204;486386;490734;542331;173352;
2024-05-17T13:22:08.742;539146342568327888;486219;490715;542152;173359;
2024-05-17T13:22:08.760;539146342586484572;486115;490423;541934;173344;
2024-05-17T13:22:08.778;539146342604641256;486085;490001;541677;173345;
2024-05-17T13:22:08.796;539146342622797940;485966;489640;541513;173323;
2024-05-17T13:22:08.814;539146342640954624;485908;489222;541330;173348;
2024-05-17T13:22:08.833;539146342659111308;485731;488812;541061;173312;
2024-05-17T13:22:08.851;539146342677267992;485504;488508;540842;173307;
2024-05-17T13:22:08.869;539146342695424676;485322;488172;540616;173301;
2024-05-17T13:22:08.887;539146342713581360;485198;488023;540457;173307;
2024-05-17T13:22:08.905;539146342731738044;485095;487926;540349;173298;
2024-05-17T13:22:08.923;539146342749894728;485054;487865;540332;173324;
2024-05-17T13:22:08.942;539146342768051412;485160;487947;540333;173306;
2024-05-17T13:22:08.960;539146342786208096;485221;487997;540367;173306;
2024-05-17T13:22:08.978;539146342804364780;485344;488090;540388;173282;
2024-05-17T13:22:08.996;539146342822521464;485494;488210;540550;173307;
2024-05-17T13:22:09.014;539146342840678148;485704;488321;540679;173324;
2024-05-17T13:22:09.032;539146342858834832;485881;488572;540742;173283;
2024-05-17T13:22:09.050;539146342876991516;485961;488811;540898;173241;
2024-05-17T13:22:09.069;539146342895148200;486103;488944;541043;173225;
2024-05-17T13:22:09.087;539146342913304884;486183;489123;541267;173297;
2024-05-17T13:22:09.105;539146342931461568;486336;489308;541450;173313;
2024-05-17T13:22:09.123;539146342949618254;486388;489509;541637;173275;
2024-05-17T13:22:09.141;539146342967774938;486474;489629;541782;173289;
2024-05-17T13:22:09.159;539146342985931622;486436;489823;541890;173272;
2024-05-17T13:22:09.178;539146343004088306;486338;489921;541984;173241;
2024-05-17T13:22:09.196;539146343022244990;486181;490005;542007;173260;
2024-05-17T13:22:09.214;539146343040401674;486018;490062;541964;173263;
2024-05-17T13:22:09.232;539146343058558358;485943;490087;541879;173252;
2024-05-17T13:22:09.250;539146343076715042;485837;490049;541713;173248;
2024-05-17T13:22:09.268;539146343094871726;485704;489837;541418;173259;
2024-05-17T13:22:09.286;539146343113028410;485458;489499;541059;173230;
2024-05-17T13:22:09.305;539146343131185094;485153;488900;540639;173284;
2024-05-17T13:22:09.323;539146343149341778;484449;487811;539910;173307;
2024-05-17T13:22:09.341;539146343167498462;483300;486482;538970;173277;
2024-05-17T13:22:09.359;539146343185655146;481589;485129;537783;173224;
2024-05-17T13:22:09.377;539146343203811830;479667;483858;536234;173250;
2024-05-17T13:22:09.395;539146343221968514;477869;482755;534645;173192;
2024-05-17T13:22:09.414;539146343240125198;476573;481777;533251;173247;
2024-05-17T13:22:09.432;539146343258281882;475563;481046;532026;173206;
2024-05-17T13:22:09.450;539146343276438566;474828;480483;531075;173239;
2024-05-17T13:22:09.468;539146343294595250;474264;480085;530440;173253;
2024-05-17T13:22:09.486;539146343312751934;473899;479859;529987;173231;
2024-05-17T13:22:09.504;539146343330908618;473589;479706;529623;173174;
2024-05-17T13:22:09.523;539146343349065302;473375;479597;529389;173216;
2024-05-17T13:22:09.541;539146343367221986;473169;479458;529070;173230;
2024-05-17T13:22:09.559;539146343385378670;472898;479401;528787;173208;
2024-05-17T13:22:09.577;539146343403535354;472646;479305;528497;173223;
2024-05-17T13:22:09.595;539146343421692038;472319;479121;528205;173222;
2024-05-17T13:22:09.613;539146343439848722;472029;478908;527933;173210;
2024-05-17T13:22:09.631;539146343458005406;471687;478720;527630;173206;
2024-05-17T13:22:09.650;539146343476162090;471352;478543;527302;173213;
2024-05-17T13:22:09.668;539146343494318774;471019;478327;526993;173198;
2024-05-17T13:22:09.686;539146343512475458;470779;478217;526777;173199;
2024-05-17T13:22:09.704;539146343530632142;470367;478034;526543;173152;
2024-05-17T13:22:09.722;539146343548788826;470145;477941;526397;173152;
2024-05-17T13:22:09.740;539146343566945510;469882;477786;526200;173114;
2024-05-17T13:22:09.759;539146343585103608;469671;477750;526137;173208;
2024-05-17T13:22:09.777;539146343603261694;469486;477668;526002;173186;
2024-05-17T13:22:09.795;539146343621419780;469322;477650;525917;173180;
2024-05-17T13:22:09.813;539146343639577866;469026;477474;525682;173152;
2024-05-17T13:22:09.831;539146343657735952;468682;477303;525440;173168;
2024-05-17T13:22:09.849;539146343675894038;468213;476918;525092;173112;
2024-05-17T13:22:09.868;539146343694052124;467794;476573;524595;173130;
2024-05-17T13:22:09.886;539146343712210210;467319;476191;524180;173119;
2024-05-17T13:22:09.904;539146343730368296;466801;475842;523679;173127;
2024-05-17T13:22:09.922;539146343748526382;466486;475519;523281;173187;
2024-05-17T13:22:09.940;539146343766684468;466124;475243;522978;173154;
2024-05-17T13:22:09.958;539146343784842554;465830;474996;522692;173209;
2024-05-17T13:22:09.976;539146343803000640;465644;474923;522563;173177;
2024-05-17T13:22:09.995;539146343821158726;465456;474773;522388;173199;
2024-05-17T13:22:10.013;539146343839316812;465220;474752;522308;173196;
2024-05-17T13:22:10.031;539146343857474898;465152;474705;522258;173154;
2024-05-17T13:22:10.049;539146343875632984;465055;474652;522188;173184;
2024-05-17T13:22:10.067;539146343893791070;464869;474565;522140;173196;
2024-05-17T13:22:10.085;539146343911949156;464724;474504;521986;173153;
2024-05-17T13:22:10.104;539146343930107242;464547;474366;521866;173152;
2024-05-17T13:22:10.122;539146343948265328;464360;474338;521654;173198;
2024-05-17T13:22:10.140;539146343966423414;464156;474139;521530;173165;
2024-05-17T13:22:10.158;539146343984581500;463893;473983;521399;173135;
2024-05-17T13:22:10.176;539146344002739586;463691;473823;521214;173159;
2024-05-17T13:22:10.194;539146344020897672;463554;473656;521039;173131;
2024-05-17T13:22:10.213;539146344039055758;463373;473557;520970;173160;
2024-05-17T13:22:10.231;539146344057213844;463291;473505;520792;173202;
2024-05-17T13:22:10.249;539146344075371930;463131;473399;520745;173174;
2024-05-17T13:22:10.267;539146344093530016;462986;473321;520706;173215;
2024-05-17T13:22:10.285;539146344111688102;462894;473296;520677;173156;
2024-05-17T13:22:10.303;539146344129846188;462778;473275;520630;173155;
2024-05-17T13:22:10.321;539146344148004274;462725;473228;520488;173170;
2024-05-17T13:22:10.340;539146344166162360;462434;473046;520243;173163;
2024-05-17T13:22:10.358;539146344184320446;462127;472770;519991;173170;
2024-05-17T13:22:10.376;539146344202478532;461766;472405;519625;173192;
2024-05-17T13:22:10.394;539146344220636618;461417;472082;519299;173165;
2024-05-17T13:22:10.412;539146344238794704;461077;471765;518882;173139;
2024-05-17T13:22:10.430;539146344256952782;460793;471453;518599;173154;
2024-05-17T13:22:10.449;539146344275110846;460489;471250;518406;173174;
2024-05-17T13:22:10.467;539146344293268910;460268;471101;518230;173150;
2024-05-17T13:22:10.485;539146344311426974;460108;471022;518180;173204;
2024-05-17T13:22:10.503;539146344329585038;460034;470951;518043;173156;
2024-05-17T13:22:10.521;539146344347743102;459973;470871;518025;173169;
2024-05-17T13:22:10.539;539146344365901166;459831;470867;517992;173124;
2024-05-17T13:22:10.558;539146344384059230;459726;470782;517900;173129;
2024-05-17T13:22:10.576;539146344402217294;459685;470696;517861;173101;
2024-05-17T13:22:10.594;539146344420375358;459557;470688;517823;173125;
2024-05-17T13:22:10.612;539146344438533422;459397;470506;517752;173108;
2024-05-17T13:22:10.630;539146344456691486;459249;470414;517647;173092;
2024-05-17T13:22:10.648;539146344474849550;459108;470300;517596;173109;
2024-05-17T13:22:10.666;539146344493007614;458917;470206;517386;173169;
2024-05-17T13:22:10.685;539146344511165678;458786;470047;517300;173155;
2024-05-17T13:22:10.703;539146344529323742;458627;469978;517250;173176;
2024-05-17T13:22:10.721;539146344547481806;458525;469869;517170;173135;
2024-05-17T13:22:10.739;539146344565639870;458364;469776;517021;173137;
2024-05-17T13:22:10.757;539146344583797934;458308;469771;517031;173167;
2024-05-17T13:22:10.775;539146344601955998;458231;469650;516987;173120;
2024-05-17T13:22:10.794;539146344620114062;458163;469768;516971;173156;
2024-05-17T13:22:10.812;539146344638272126;458097;469668;517002;173191;
2024-05-17T13:22:10.830;539146344656430190;458061;469561;516886;173141;
2024-05-17T13:22:10.848;539146344674588254;457840;469397;516760;173169;
2024-05-17T13:22:10.866;539146344692746318;457608;469188;516570;173146;
2024-05-17T13:22:10.884;539146344710904382;457368;468954;516371;173171;
2024-05-17T13:22:10.903;539146344729062446;457004;468660;516050;173136;
2024-05-17T13:22:10.921;539146344747220510;456664;468391;515700;173117;
2024-05-17T13:22:10.939;539146344765378574;456439;468130;515406;173172;
2024-05-17T13:22:10.957;539146344783536638;456211;467929;515271;173142;
2024-05-17T13:22:10.975;539146344801694702;456083;467806;515173;173193;
2024-05-17T13:22:10.993;539146344819852766;455929;467688;515029;173122;
2024-05-17T13:22:11.011;539146344838010830;455820;467639;515010;173136;
2024-05-17T13:22:11.030;539146344856168894;455763;467607;514942;173111;
2024-05-17T13:22:11.048;539146344874326958;455716;467559;514952;173129;
2024-05-17T13:22:11.066;539146344892485022;455649;467537;514938;173126;
2024-05-17T13:22:11.084;539146344910643086;455572;467543;514977;173092;
2024-05-17T13:22:11.102;539146344928801150;455540;467525;514943;173109;
2024-05-17T13:22:11.120;539146344946959214;455419;467406;514885;173150;
2024-05-17T13:22:11.139;539146344965117278;455284;467296;514869;173152;
2024-05-17T13:22:11.157;539146344983275342;455233;467242;514830;173156;
2024-05-17T13:22:11.175;539146345001433406;455101;467174;514725;173131;
2024-05-17T13:22:11.193;539146345019591037;454923;467046;514605;173156;
2024-05-17T13:22:11.211;539146345037748666;454839;466995;514532;173119;
2024-05-17T13:22:11.229;539146345055906295;454707;466876;514470;173100;
2024-05-17T13:22:11.248;539146345074063924;454654;466815;514438;173212;
2024-05-17T13:22:11.266;539146345092221553;454577;466776;514369;173160;
2024-05-17T13:22:11.284;539146345110379182;454545;466782;514395;173156;
2024-05-17T13:22:11.302;539146345128536811;454459;466699;514412;173125;
2024-05-17T13:22:11.320;539146345146694440;454398;466705;514387;173150;
2024-05-17T13:22:11.338;539146345164852069;454375;466703;514428;173116;
2024-05-17T13:22:11.356;539146345183009698;454246;466620;514309;173141;
2024-05-17T13:22:11.375;539146345201167327;454012;466483;514215;173122;
2024-05-17T13:22:11.393;539146345219324956;453850;466307;514008;173151;
2024-05-17T13:22:11.411;539146345237482585;453641;466046;513749;173172;
2024-05-17T13:22:11.429;539146345255640214;453402;465755;513480;173076;
2024-05-17T13:22:11.447;539146345273797843;453145;465609;513288;173103;
2024-05-17T13:22:11.465;539146345291955472;452981;465450;513143;173091;
2024-05-17T13:22:11.484;539146345310113101;452830;465326;512980;173087;
2024-05-17T13:22:11.502;539146345328270730;452766;465266;512994;173129;
2024-05-17T13:22:11.520;539146345346428359;452660;465205;512967;173108;
2024-05-17T13:22:11.538;539146345364585988;452614;465177;512961;173146;
2024-05-17T13:22:11.556;539146345382743617;452630;465238;512991;173067;
2024-05-17T13:22:11.574;539146345400901246;452583;465223;513059;173143;
2024-05-17T13:22:11.593;539146345419058875;452570;465223;513059;173079;
2024-05-17T13:22:11.611;539146345437216504;452506;465201;513062;173088;
2024-05-17T13:22:11.629;539146345455374133;452401;465158;513044;173143;
2024-05-17T13:22:11.647;539146345473531762;452416;465205;513022;173191;
2024-05-17T13:22:11.665;539146345491689391;452317;465130;512997;173138;
2024-05-17T13:22:11.683;539146345509847020;452188;465038;512937;173130;
2024-05-17T13:22:11.701;539146345528004649;452171;464988;512893;173184;
2024-05-17T13:22:11.720;539146345546162278;452007;464910;512784;173127;
2024-05-17T13:22:11.738;539146345564319907;451998;464846;512780;173117;
2024-05-17T13:22:11.756;539146345582477536;451890;464765;512667;173107;
2024-05-17T13:22:11.774;539146345600635165;451843;464816;512711;173185;
2024-05-17T13:22:11.792;539146345618792794;451754;464728;512643;173178;
2024-05-17T13:22:11.810;539146345636950423;451717;464733;512745;173182;
2024-05-17T13:22:11.829;539146345655108052;451702;464718;512763;173161;
2024-05-17T13:22:11.847;539146345673265681;451646;464682;512706;173156;
2024-05-17T13:22:11.865;539146345691423310;451571;464585;512689;173174;
2024-05-17T13:22:11.883;539146345709580939;451443;464444;512552;173130;
2024-05-17T13:22:11.901;539146345727738568;451229;464285;512346;173107;
2024-05-17T13:22:11.919;539146345745896197;451028;464162;512222;173104;
2024-05-17T13:22:11.938;539146345764053826;450847;463935;512012;173152;
2024-05-17T13:22:11.956;539146345782211324;450717;463745;511877;173130;
2024-05-17T13:22:11.974;539146345800368788;450548;463584;511748;173129;
2024-05-17T13:22:11.992;539146345818526252;450447;463555;511684;173089;
2024-05-17T13:22:12.010;539146345836683716;450394;463435;511614;173127;
2024-05-17T13:22:12.028;539146345854841180;450284;463429;511559;173105;
2024-05-17T13:22:12.046;539146345872998644;450277;463421;511514;173071;
2024-05-17T13:22:12.065;539146345891156108;450270;463438;511590;173163;
2024-05-17T13:22:12.083;539146345909313572;450218;463394;511619;173133;
2024-05-17T13:22:12.101;539146345927471036;450238;463429;511682;173136;
2024-05-17T13:22:12.119;539146345945628500;450254;463502;511649;173174;
2024-05-17T13:22:12.137;539146345963785964;450212;463401;511641;173143;
2024-05-17T13:22:12.155;539146345981943428;450120;463376;511682;173156;
2024-05-17T13:22:12.174;539146346000100892;450080;463328;511619;173178;
2024-05-17T13:22:12.192;539146346018258356;449987;463234;511550;173097;
2024-05-17T13:22:12.210;539146346036415820;449931;463240;511561;173144;
2024-05-17T13:22:12.228;539146346054573284;449914;463128;511545;173104;
2024-05-17T13:22:12.246;539146346072730748;449743;463122;511423;173055;
2024-05-17T13:22:12.264;539146346090888212;449678;463014;511397;173093;
2024-05-17T13:22:12.283;539146346109045676;449663;463035;511333;173099;
2024-05-17T13:22:12.301;539146346127203140;449587;462984;511352;173114;
2024-05-17T13:22:12.319;539146346145360604;449615;462978;511400;173102;
2024-05-17T13:22:12.337;539146346163518068;449542;462954;511403;173124;
2024-05-17T13:22:12.355;539146346181675532;449441;462943;511363;173144;
2024-05-17T13:22:12.373;539146346199832996;449336;462787;511216;173094;
2024-05-17T13:22:12.391;539146346217990460;449204;462629;511131;173154;
2024-05-17T13:22:12.410;539146346236147924;449009;462455;510831;173076;
2024-05-17T13:22:12.428;539146346254305388;448851;462242;510722;173140;
2024-05-17T13:22:12.446;539146346272462852;448665;462081;510533;173111;
2024-05-17T13:22:12.464;539146346290620316;448496;462018;510354;173126;
2024-05-17T13:22:12.482;539146346308777780;448368;461864;510313;173110;
2024-05-17T13:22:12.500;539146346326935244;448309;461828;510257;173123;
2024-05-17T13:22:12.519;539146346345092708;448302;461734;510238;173091;
2024-05-17T13:22:12.537;539146346363250172;448228;461743;510213;173075;
2024-05-17T13:22:12.555;539146346381407636;448274;461728;510278;173076;
2024-05-17T13:22:12.573;539146346399565100;448203;461734;510306;173055;
2024-05-17T13:22:12.591;539146346417722564;448259;461832;510311;173099;
2024-05-17T13:22:12.609;539146346435880028;448165;461810;510296;173087;
2024-05-17T13:22:12.627;539146346454037492;448175;461809;510403;173103;
2024-05-17T13:22:12.646;539146346472194956;448221;461769;510345;173119;
2024-05-17T13:22:12.664;539146346490352420;448076;461748;510328;173118;
2024-05-17T13:22:12.682;539146346508509884;448016;461674;510230;173059;
2024-05-17T13:22:12.700;539146346526667348;448017;461652;510228;173119;
2024-05-17T13:22:12.718;539146346544824812;447882;461543;510144;173094;
2024-05-17T13:22:12.736;539146346562982252;447825;461487;510098;173146;
2024-05-17T13:22:12.755;539146346581139662;447754;461465;510019;173124;
2024-05-17T13:22:12.773;539146346599297072;447749;461410;510034;173148;
2024-05-17T13:22:12.791;539146346617454482;447692;461385;510057;173127;
2024-05-17T13:22:12.809;539146346635611892;447642;461353;510045;173094;
2024-05-17T13:22:12.827;539146346653769302;447692;461320;509982;173082;
2024-05-17T13:22:12.845;539146346671926712;447557;461268;509883;173143;
2024-05-17T13:22:12.864;539146346690084122;447430;461069;509734;173159;
2024-05-17T13:22:12.882;539146346708241532;447187;460860;509530;173048;
2024-05-17T13:22:12.900;539146346726398942;447003;460667;509308;173096;
2024-05-17T13:22:12.918;539146346744556352;446749;460497;509120;173104;
2024-05-17T13:22:12.936;539146346762713762;446582;460295;508914;173122;
2024-05-17T13:22:12.954;539146346780871172;446378;460128;508756;173117;
2024-05-17T13:22:12.972;539146346799028582;446307;460008;508601;173144;
2024-05-17T13:22:12.991;539146346817185992;446174;459875;508519;173060;
2024-05-17T13:22:13.009;539146346835343402;446099;459922;508463;173118;
2024-05-17T13:22:13.027;539146346853500812;446033;459835;508454;173065;
2024-05-17T13:22:13.045;539146346871658222;446000;459831;508507;173100;
2024-05-17T13:22:13.063;539146346889815632;446070;459877;508450;173091;
2024-05-17T13:22:13.081;539146346907973042;446009;459831;508605;173125;
2024-05-17T13:22:13.100;539146346926130452;445951;459772;508537;173049;
2024-05-17T13:22:13.118;539146346944287862;445941;459842;508544;173108;
2024-05-17T13:22:13.136;539146346962445272;445920;459781;508525;173169;
2024-05-17T13:22:13.154;539146346980602682;445844;459722;508443;173096;
2024-05-17T13:22:13.172;539146346998760092;445827;459658;508414;173106;
2024-05-17T13:22:13.190;539146347016917502;445709;459593;508344;173061;
2024-05-17T13:22:13.209;539146347035074912;445547;459455;508274;173075;
2024-05-17T13:22:13.227;539146347053232322;445489;459402;508163;173066;
2024-05-17T13:22:13.245;539146347071389732;445441;459330;508166;173078;
2024-05-17T13:22:13.263;539146347089547142;445384;459261;508111;173050;
2024-05-17T13:22:13.281;539146347107704552;445375;459274;508167;173121;
2024-05-17T13:22:13.299;539146347125861962;445314;459273;508150;173101;
2024-05-17T13:22:13.317;539146347144019372;445271;459172;508033;173059;
2024-05-17T13:22:13.336;539146347162176782;445097;459063;507961;173067;
2024-05-17T13:22:13.354;539146347180334192;444950;458893;507740;173042;
2024-05-17T13:22:13.372;539146347198491602;444673;458686;507492;173065;
2024-05-17T13:22:13.390;539146347216649012;444471;458381;507247;173078;
2024-05-17T13:22:13.408;539146347234806422;444163;458151;506998;173052;
2024-05-17T13:22:13.426;539146347252963832;443899;457953;506768;173073;
2024-05-17T13:22:13.445;539146347271121242;443753;457736;506605;173083;
2024-05-17T13:22:13.463;539146347289278652;443500;457568;506399;173077;
2024-05-17T13:22:13.481;539146347307436062;443367;457383;506233;173056;
2024-05-17T13:22:13.499;539146347325592750;443285;457292;506191;173057;
2024-05-17T13:22:13.517;539146347343749434;443274;457284;506168;173060;
2024-05-17T13:22:13.535;539146347361906118;443211;457272;506115;173078;
2024-05-17T13:22:13.554;539146347380062802;443229;457178;506114;173052;
2024-05-17T13:22:13.572;539146347398219486;443210;457167;506071;173108;
2024-05-17T13:22:13.590;539146347416376170;443097;457190;506061;173119;
2024-05-17T13:22:13.608;539146347434532854;443015;457079;506048;173066;
2024-05-17T13:22:13.626;539146347452689538;442896;457004;505918;173088;
2024-05-17T13:22:13.644;539146347470846222;442828;456908;505825;173049;
2024-05-17T13:22:13.662;539146347489002906;442729;456794;505785;173087;
2024-05-17T13:22:13.681;539146347507159590;442584;456718;505723;173138;
2024-05-17T13:22:13.699;539146347525316274;442460;456561;505567;173126;
2024-05-17T13:22:13.717;539146347543472958;442359;456471;505370;173050;
2024-05-17T13:22:13.735;539146347561629642;442292;456360;505331;173079;
2024-05-17T13:22:13.753;539146347579786326;442205;456293;505239;173047;
2024-05-17T13:22:13.771;539146347597943010;442176;456271;505212;173067;
2024-05-17T13:22:13.790;539146347616099694;442080;456156;505150;173090;
2024-05-17T13:22:13.808;539146347634256378;441972;456034;505084;173074;
2024-05-17T13:22:13.826;539146347652413062;441861;455961;504979;173114;
2024-05-17T13:22:13.844;539146347670569746;441702;455821;504808;173104;
2024-05-17T13:22:13.862;539146347688726430;441472;455625;504561;173133;
2024-05-17T13:22:13.880;539146347706883114;441225;455230;504242;173069;
2024-05-17T13:22:13.899;539146347725039798;440882;454996;503953;173103;
2024-05-17T13:22:13.917;539146347743196482;440653;454723;503664;173095;
2024-05-17T13:22:13.935;539146347761353166;440372;454464;503432;173078;
2024-05-17T13:22:13.953;539146347779509850;440168;454335;503265;173005;
2024-05-17T13:22:13.971;539146347797666534;440022;454186;503074;173045;
2024-05-17T13:22:13.989;539146347815823218;439911;454042;502965;173047;
2024-05-17T13:22:14.007;539146347833979902;439886;453921;502907;173116;
2024-05-17T13:22:14.026;539146347852136586;439773;453890;502858;173070;
2024-05-17T13:22:14.044;539146347870293270;439790;453818;502806;173107;
2024-05-17T13:22:14.062;539146347888449954;439741;453757;502751;173068;
2024-05-17T13:22:14.080;539146347906606638;439780;453800;502736;173137;
2024-05-17T13:22:14.098;539146347924763322;439742;453745;502649;173089;
2024-05-17T13:22:14.116;539146347942920006;439577;453591;502479;173067;
2024-05-17T13:22:14.135;539146347961076690;439514;453492;502410;173061;
2024-05-17T13:22:14.153;539146347979233374;439348;453346;502325;173097;
2024-05-17T13:22:14.171;539146347997390058;439210;453214;502184;173089;
2024-05-17T13:22:14.189;539146348015546742;439132;453172;502043;173114;
2024-05-17T13:22:14.207;539146348033703426;439027;453036;501938;173103;
2024-05-17T13:22:14.225;539146348051860110;438906;452911;501783;173111;
2024-05-17T13:22:14.243;539146348070016794;438849;452787;501731;173094;
2024-05-17T13:22:14.262;539146348088172771;438825;452669;501681;173092;
2024-05-17T13:22:14.280;539146348106328728;438844;452724;501659;173076;
2024-05-17T13:22:14.298;539146348124484685;438721;452630;501505;173030;
2024-05-17T13:22:14.316;539146348142640642;438596;452533;501371;173062;
2024-05-17T13:22:14.334;539146348160796599;438506;452432;501306;173069;
2024-05-17T13:22:14.352;539146348178952556;438272;452036;500976;173084;
2024-05-17T13:22:14.371;539146348197108513;437951;451795;500636;173062;
2024-05-17T13:22:14.389;539146348215264470;437722;451538;500362;173102;
2024-05-17T13:22:14.407;539146348233420427;437409;451166;500014;173049;
2024-05-17T13:22:14.425;539146348251576384;437151;450972;499743;173039;
2024-05-17T13:22:14.443;539146348269732341;436888;450648;499428;173036;
2024-05-17T13:22:14.461;539146348287888298;436774;450529;499317;173085;
2024-05-17T13:22:14.480;539146348306044255;436620;450306;499182;173068;
2024-05-17T13:22:14.498;539146348324200212;436512;450297;499074;173048;
2024-05-17T13:22:14.516;539146348342356169;436460;450208;498946;172994;
2024-05-17T13:22:14.534;539146348360512126;436483;450251;498997;173106;
2024-05-17T13:22:14.552;539146348378668083;436475;450213;498913;173062;
2024-05-17T13:22:14.570;539146348396824040;436499;450150;498907;173108;
2024-05-17T13:22:14.588;539146348414979997;436478;450149;498816;173082;
2024-05-17T13:22:14.607;539146348433135954;436417;450049;498794;173090;
2024-05-17T13:22:14.625;539146348451291911;436390;449976;498702;173083;
2024-05-17T13:22:14.643;539146348469447868;436324;449924;498614;173076;
2024-05-17T13:22:14.661;539146348487603825;436178;449803;498427;173108;
2024-05-17T13:22:14.679;539146348505759782;436046;449636;498317;173088;
2024-05-17T13:22:14.697;539146348523915739;435924;449487;498142;173074;
2024-05-17T13:22:14.716;539146348542071696;435884;449445;498037;173106;
2024-05-17T13:22:14.734;539146348560227653;435768;449295;497927;173068;
2024-05-17T13:22:14.752;539146348578383610;435818;449266;497935;173146;
2024-05-17T13:22:14.770;539146348596539567;435700;449162;497862;173045;
2024-05-17T13:22:14.788;539146348614695524;435656;449167;497781;173091;
2024-05-17T13:22:14.806;539146348632851481;435644;449159;497754;173052;
2024-05-17T13:22:14.824;539146348651007438;435562;449028;497530;173030;
2024-05-17T13:22:14.843;539146348669163395;435452;448838;497453;173075;
2024-05-17T13:22:14.861;539146348687319352;435172;448535;497092;173071;
2024-05-17T13:22:14.879;539146348705475309;434861;448223;496746;173055;
2024-05-17T13:22:14.897;539146348723631266;434652;447932;496512;173119;
2024-05-17T13:22:14.915;539146348741787223;434382;447657;496198;173120;
2024-05-17T13:22:14.933;539146348759943180;434106;447398;495900;173064;
2024-05-17T13:22:14.952;539146348778099137;433924;447220;495673;173108;
2024-05-17T13:22:14.970;539146348796255094;433789;447066;495501;173075;
2024-05-17T13:22:14.988;539146348814411051;433706;447010;495441;173044;
2024-05-17T13:22:15.006;539146348832567008;433677;446916;495420;173043;
2024-05-17T13:22:15.024;539146348850724786;433743;446942;495390;173092;
2024-05-17T13:22:15.042;539146348868882534;433719;446893;495364;173060;
2024-05-17T13:22:15.061;539146348887040282;433742;446931;495378;173109;
2024-05-17T13:22:15.079;539146348905198030;433786;446941;495377;173102;
2024-05-17T13:22:15.097;539146348923355778;433769;446895;495339;173100;
2024-05-17T13:22:15.115;539146348941513526;433718;446829;495228;173125;
2024-05-17T13:22:15.133;539146348959671274;433649;446739;495122;173070;
2024-05-17T13:22:15.151;539146348977829022;433583;446657;495043;173125;
2024-05-17T13:22:15.169;539146348995986770;433472;446614;494944;173065;
2024-05-17T13:22:15.188;539146349014144518;433429;446508;494884;173051;
2024-05-17T13:22:15.206;539146349032302266;433305;446360;494686;173025;
2024-05-17T13:22:15.224;539146349050460014;433280;446273;494631;173043;
2024-05-17T13:22:15.242;539146349068617762;433281;446250;494628;173078;
2024-05-17T13:22:15.260;539146349086775510;433261;446310;494613;173033;
2024-05-17T13:22:15.278;539146349104933258;433358;446333;494721;173061;
2024-05-17T13:22:15.297;539146349123091006;433359;446279;494649;173091;
2024-05-17T13:22:15.315;539146349141248754;433245;446222;494546;173072;
2024-05-17T13:22:15.333;539146349159406502;433182;446047;494375;173126;
2024-05-17T13:22:15.351;539146349177564250;432958;445838;494139;173082;
2024-05-17T13:22:15.369;539146349195721998;432723;445638;493918;173074;
2024-05-17T13:22:15.387;539146349213879746;432545;445342;493684;173076;
2024-05-17T13:22:15.405;539146349232037494;432316;445085;493408;173013;
2024-05-17T13:22:15.424;539146349250195242;432121;444909;493183;173078;
2024-05-17T13:22:15.442;539146349268352990;431981;444782;493031;173024;
2024-05-17T13:22:15.460;539146349286510738;431923;444641;492910;172992;
2024-05-17T13:22:15.478;539146349304668486;431881;444636;492852;173059;
2024-05-17T13:22:15.496;539146349322826234;431907;444648;492876;172997;
2024-05-17T13:22:15.514;539146349340983982;432027;444734;492979;173045;
2024-05-17T13:22:15.533;539146349359141730;432076;444749;492970;173036;
2024-05-17T13:22:15.551;539146349377299478;432166;444793;492986;173023;
2024-05-17T13:22:15.569;539146349395457226;432230;444945;493153;173086;
2024-05-17T13:22:15.587;539146349413614974;432323;444914;493147;173093;
2024-05-17T13:22:15.605;539146349431772722;432320;444975;493175;173064;
2024-05-17T13:22:15.623;539146349449930470;432295;444894;493075;173065;
2024-05-17T13:22:15.642;539146349468088218;432314;444899;493082;173031;
2024-05-17T13:22:15.660;539146349486245966;432229;444853;493059;173027;
2024-05-17T13:22:15.678;539146349504403714;432218;444808;493001;173061;
2024-05-17T13:22:15.696;539146349522561462;432275;444808;493018;173028;
2024-05-17T13:22:15.714;539146349540719210;432253;444816;493025;172982;
2024-05-17T13:22:15.732;539146349558876958;432357;444896;493052;173037;
2024-05-17T13:22:15.750;539146349577034706;432341;444919;493009;173034;
2024-05-17T13:22:15.769;539146349595192454;432459;444950;493106;173034;
2024-05-17T13:22:15.787;539146349613350202;432525;445011;493154;173023;
2024-05-17T13:22:15.805;539146349631508412;432491;444941;493181;173068;
2024-05-17T13:22:15.823;539146349649666622;432325;444871;492955;173053;
2024-05-17T13:22:15.841;539146349667824832;432227;444656;492841;173104;
2024-05-17T13:22:15.859;539146349685983042;432078;444427;492628;173062;
2024-05-17T13:22:15.878;539146349704141252;431897;444181;492389;173037;
2024-05-17T13:22:15.896;539146349722299462;431623;443960;492177;173016;
2024-05-17T13:22:15.914;539146349740457672;431453;443796;491967;173030;
2024-05-17T13:22:15.932;539146349758615882;431367;443719;491783;173052;
2024-05-17T13:22:15.950;539146349776774092;431288;443650;491721;173082;
2024-05-17T13:22:15.968;539146349794932302;431311;443646;491786;173050;
2024-05-17T13:22:15.987;539146349813090512;431335;443653;491785;173032;
2024-05-17T13:22:16.005;539146349831248722;431437;443731;491819;173031;
2024-05-17T13:22:16.023;539146349849406932;431563;443850;491978;173041;
2024-05-17T13:22:16.041;539146349867565142;431693;443907;492051;173082;
2024-05-17T13:22:16.059;539146349885723352;431739;444021;492169;173070;
2024-05-17T13:22:16.077;539146349903881562;431788;444002;492131;173044;
2024-05-17T13:22:16.096;539146349922039772;431853;444071;492158;173066;
2024-05-17T13:22:16.114;539146349940197982;431876;444141;492243;173021;
2024-05-17T13:22:16.132;539146349958356192;431869;444082;492227;173040;
2024-05-17T13:22:16.150;539146349976514402;431827;444052;492138;173018;
2024-05-17T13:22:16.168;539146349994672612;431847;444074;492198;173034;
2024-05-17T13:22:16.186;539146350012830822;431805;444042;492171;173060;
2024-05-17T13:22:16.204;539146350030989032;431823;444085;492158;173026;
2024-05-17T13:22:16.223;539146350049147242;431854;444117;492232;173062;
2024-05-17T13:22:16.241;539146350067305452;431909;444186;492270;173051;
2024-05-17T13:22:16.259;539146350085463662;432029;444262;492364;173055;
2024-05-17T13:22:16.277;539146350103621872;432111;444317;492459;173089;
2024-05-17T13:22:16.295;539146350121780082;432176;444462;492544;173066;
2024-05-17T13:22:16.313;539146350139938292;432000;444324;492395;172965;
2024-05-17T13:22:16.332;539146350158096502;431975;444186;492335;173014;
2024-05-17T13:22:16.350;539146350176254712;431900;444041;492131;173024;
2024-05-17T13:22:16.368;539146350194412922;431726;443892;492027;173044;
2024-05-17T13:22:16.386;539146350212571132;431512;443694;491745;173052;
2024-05-17T13:22:16.404;539146350230729342;431295;443492;491512;173048;
2024-05-17T13:22:16.422;539146350248887552;431205;443384;491357;173015;
2024-05-17T13:22:16.441;539146350267045762;431150;443301;491267;173041;
2024-05-17T13:22:16.459;539146350285203972;431088;443211;491249;173040;
2024-05-17T13:22:16.477;539146350303362182;431091;443204;491328;173062;
2024-05-17T13:22:16.495;539146350321520392;431186;443336;491415;173112;
2024-05-17T13:22:16.513;539146350339678602;431312;443415;491491;173074;
2024-05-17T13:22:16.531;539146350357836812;431387;443498;491528;173109;
2024-05-17T13:22:16.549;539146350375995022;431483;443596;491636;173055;
2024-05-17T13:22:16.568;539146350394152182;431555;443732;491735;173043;
2024-05-17T13:22:16.586;539146350412309327;431605;443744;491746;173033;
2024-05-17T13:22:16.604;539146350430466472;431661;443727;491872;173050;
2024-05-17T13:22:16.622;539146350448623617;431641;443827;491902;173076;
2024-05-17T13:22:16.640;539146350466780762;431699;443820;491909;173095;
2024-05-17T13:22:16.658;539146350484937907;431717;443907;491990;173058;
2024-05-17T13:22:16.677;539146350503095052;431741;443941;491961;172991;
2024-05-17T13:22:16.695;539146350521252197;431784;443953;491969;173007;
2024-05-17T13:22:16.713;539146350539409342;431797;443968;491980;173049;
2024-05-17T13:22:16.731;539146350557566487;431855;444005;492087;173054;
2024-05-17T13:22:16.749;539146350575723632;431986;444112;492212;173044;
2024-05-17T13:22:16.767;539146350593880777;432028;444199;492297;173020;
2024-05-17T13:22:16.786;539146350612037922;432156;444367;492455;173064;
2024-05-17T13:22:16.804;539146350630195067;432241;444484;492520;173075;
2024-05-17T13:22:16.822;539146350648352212;432231;444448;492487;173053;
2024-05-17T13:22:16.840;539146350666509357;432239;444409;492407;173047;
2024-05-17T13:22:16.858;539146350684666502;432098;444344;492308;173084;
2024-05-17T13:22:16.876;539146350702823647;431995;444146;492174;173047;
2024-05-17T13:22:16.894;539146350720980792;431886;443985;492065;173048;
2024-05-17T13:22:16.913;539146350739137937;431719;443809;491918;173020;
2024-05-17T13:22:16.931;539146350757295082;431610;443720;491833;173085;
2024-05-17T13:22:16.949;539146350775452227;431480;443643;491721;173082;
2024-05-17T13:22:16.967;539146350793609372;431443;443656;491708;173055;
2024-05-17T13:22:16.985;539146350811766517;431486;443645;491727;173049;
2024-05-17T13:22:17.003;539146350829923662;431592;443783;491771;173079;
2024-05-17T13:22:17.022;539146350848080807;431670;443837;491888;173108;
2024-05-17T13:22:17.040;539146350866237952;431740;443923;491975;173054;
2024-05-17T13:22:17.058;539146350884395097;431873;444105;492124;173072;
2024-05-17T13:22:17.076;539146350902552242;431975;444164;492180;173040;
2024-05-17T13:22:17.094;539146350920709387;432039;444271;492289;173051;
2024-05-17T13:22:17.112;539146350938866532;432110;444326;492353;173022;
2024-05-17T13:22:17.130;539146350957023677;432168;444332;492409;173044;
2024-05-17T13:22:17.149;539146350975180822;432171;444452;492458;173024;
2024-05-17T13:22:17.167;539146350993337967;432288;444529;492522;173110;
2024-05-17T13:22:17.185;539146351011495112;432265;444549;492485;173016;
2024-05-17T13:22:17.203;539146351029652257;432298;444591;492633;173035;
2024-05-17T13:22:17.221;539146351047809402;432407;444670;492717;173109;
2024-05-17T13:22:17.239;539146351065966547;432428;444773;492805;173109;
2024-05-17T13:22:17.258;539146351084123692;432477;444851;492910;173088;
2024-05-17T13:22:17.276;539146351102280837;432633;445001;493050;173092;
2024-05-17T13:22:17.294;539146351120437982;432673;445015;493085;173072;
2024-05-17T13:22:17.312;539146351138595127;432785;445128;493196;173116;
2024-05-17T13:22:17.330;539146351156752272;432847;445196;493269;173096;
2024-05-17T13:22:17.348;539146351174910150;432824;445171;493239;173051;
2024-05-17T13:22:17.367;539146351193067996;432780;445132;493182;173031;
2024-05-17T13:22:17.385;539146351211225842;432639;445030;493059;173015;
2024-05-17T13:22:17.403;539146351229383688;432556;444845;492931;173043;
2024-05-17T13:22:17.421;539146351247541534;432361;444757;492771;173062;
2024-05-17T13:22:17.439;539146351265699380;432257;444623;492688;173058;
2024-05-17T13:22:17.457;539146351283857226;432199;444560;492612;173062;
2024-05-17T13:22:17.475;539146351302015072;432090;444539;492500;172988;
2024-05-17T13:22:17.494;539146351320172918;432107;444495;492578;173041;
2024-05-17T13:22:17.512;539146351338330764;432057;444451;492563;173065;
2024-05-17T13:22:17.530;539146351356488610;432166;444535;492623;173047;
2024-05-17T13:22:17.548;539146351374646456;432150;444616;492682;173019;
2024-05-17T13:22:17.566;539146351392804302;432288;444732;492722;173110;
2024-05-17T13:22:17.584;539146351410962148;432312;444821;492834;173062;
2024-05-17T13:22:17.603;539146351429119994;432437;444923;492915;173025;
2024-05-17T13:22:17.621;539146351447277840;432476;444997;492989;173035;
2024-05-17T13:22:17.639;539146351465435686;432496;445065;493004;173057;
2024-05-17T13:22:17.657;539146351483593532;432513;445048;492997;173037;
2024-05-17T13:22:17.675;539146351501751378;432478;445051;493049;173036;
2024-05-17T13:22:17.693;539146351519909224;432457;445113;493030;173031;
2024-05-17T13:22:17.712;539146351538067070;432500;445143;493059;173022;
2024-05-17T13:22:17.730;539146351556224916;432537;445195;493081;172991;
2024-05-17T13:22:17.748;539146351574382762;432612;445231;493125;173053;
2024-05-17T13:22:17.766;539146351592540608;432600;445240;493198;173051;
2024-05-17T13:22:17.784;539146351610698454;432748;445331;493317;173039;
2024-05-17T13:22:17.802;539146351628856300;432750;445403;493345;172984;
2024-05-17T13:22:17.820;539146351647014146;432843;445448;493415;173099;
2024-05-17T13:22:17.839;539146351665171992;432836;445539;493489;173045;
2024-05-17T13:22:17.857;539146351683329838;432975;445639;493572;173039;
2024-05-17T13:22:17.875;539146351701487684;432901;445711;493631;173096;
2024-05-17T13:22:17.893;539146351719645530;432930;445640;493564;173091;
2024-05-17T13:22:17.911;539146351737803376;432825;445477;493427;173061;
2024-05-17T13:22:17.929;539146351755961222;432698;445346;493308;173112;
2024-05-17T13:22:17.948;539146351774119068;432541;445235;493153;173061;
2024-05-17T13:22:17.966;539146351792276914;432408;445128;492991;173069;
2024-05-17T13:22:17.984;539146351810434760;432236;445066;492928;173079;
2024-05-17T13:22:18.002;539146351828592606;432259;445037;492886;173054;
2024-05-17T13:22:18.020;539146351846750452;432121;444908;492787;173027;
2024-05-17T13:22:18.038;539146351864908298;432189;445017;492861;173042;
2024-05-17T13:22:18.057;539146351883066144;432249;445103;492888;173094;
2024-05-17T13:22:18.075;539146351901223990;432342;445123;492982;173051;
2024-05-17T13:22:18.093;539146351919381836;432394;445224;493080;173038;
2024-05-17T13:22:18.111;539146351937540046;432513;445316;493180;173055;
2024-05-17T13:22:18.129;539146351955698256;432630;445421;493256;173028;
2024-05-17T13:22:18.147;539146351973856466;432712;445482;493371;173019;
2024-05-17T13:22:18.165;539146351992014676;432685;445562;493431;173040;
2024-05-17T13:22:18.184;539146352010172886;432725;445594;493439;173079;
2024-05-17T13:22:18.202;539146352028331096;432797;445611;493528;173060;
2024-05-17T13:22:18.220;539146352046489306;432818;445617;493557;173015;
2024-05-17T13:22:18.238;539146352064647516;432781;445663;493538;173031;
2024-05-17T13:22:18.256;539146352082805726;432787;445709;493594;173026;
2024-05-17T13:22:18.274;539146352100963936;432872;445780;493642;173010;
2024-05-17T13:22:18.293;539146352119122146;432928;445831;493766;173027;
2024-05-17T13:22:18.311;539146352137280356;433042;445898;493881;173027;
2024-05-17T13:22:18.329;539146352155438566;433122;446026;494012;173016;
2024-05-17T13:22:18.347;539146352173596776;433182;446084;494052;173059;
2024-05-17T13:22:18.365;539146352191754986;433297;446241;494169;173028;
2024-05-17T13:22:18.383;539146352209913196;433325;446254;494187;173035;
2024-05-17T13:22:18.402;539146352228071406;433392;446286;494204;173057;
2024-05-17T13:22:18.420;539146352246229616;433355;446245;494207;173042;
2024-05-17T13:22:18.438;539146352264387826;433225;446148;494116;173017;
2024-05-17T13:22:18.456;539146352282546036;433131;446096;494038;173060;
2024-05-17T13:22:18.474;539146352300704246;433049;445942;493835;173045;
2024-05-17T13:22:18.492;539146352318862456;432878;445894;493773;173013;
2024-05-17T13:22:18.510;539146352337020666;432850;445863;493765;173041;
2024-05-17T13:22:18.529;539146352355178876;432869;445843;493792;173032;
2024-05-17T13:22:18.547;539146352373337086;432811;445799;493775;172998;
2024-05-17T13:22:18.565;539146352391495296;432938;445901;493837;173033;
2024-05-17T13:22:18.583;539146352409653506;433047;446038;493934;173025;
2024-05-17T13:22:18.601;539146352427811716;433148;446170;494080;173065;
2024-05-17T13:22:18.619;539146352445969926;433305;446320;494249;173041;
2024-05-17T13:22:18.638;539146352464128136;433399;446385;494311;173060;
2024-05-17T13:22:18.656;539146352482286346;433517;446471;494465;173037;
2024-05-17T13:22:18.674;539146352500444556;433538;446477;494516;173018;
2024-05-17T13:22:18.692;539146352518602766;433601;446584;494593;173031;
2024-05-17T13:22:18.710;539146352536760976;433670;446615;494639;173024;
2024-05-17T13:22:18.728;539146352554919186;433719;446710;494722;173068;
2024-05-17T13:22:18.747;539146352573077396;433767;446748;494754;173118;
2024-05-17T13:22:18.765;539146352591235606;433799;446836;494851;173103;
2024-05-17T13:22:18.783;539146352609393816;433828;446793;494867;173011;
2024-05-17T13:22:18.801;539146352627552026;433899;446892;494935;173026;
2024-05-17T13:22:18.819;539146352645710236;433946;447018;495030;173053;
2024-05-17T13:22:18.837;539146352663868446;434062;447103;495198;173033;
2024-05-17T13:22:18.855;539146352682026656;434241;447266;495353;173045;
2024-05-17T13:22:18.874;539146352700184155;434272;447374;495433;173005;
2024-05-17T13:22:18.892;539146352718341638;434360;447426;495497;172996;
2024-05-17T13:22:18.910;539146352736499121;434404;447435;495498;173043;
2024-05-17T13:22:18.928;539146352754656604;434372;447361;495503;173066;
2024-05-17T13:22:18.946;539146352772814087;434268;447247;495377;173025;
2024-05-17T13:22:18.964;539146352790971570;434119;447218;495295;172991;
2024-05-17T13:22:18.983;539146352809129053;433975;447099;495205;173041;
2024-05-17T13:22:19.001;539146352827286536;433815;446945;495071;173071;
2024-05-17T13:22:19.019;539146352845444019;433686;446890;494989;173033;
2024-05-17T13:22:19.037;539146352863601502;433537;446805;494889;172987;
2024-05-17T13:22:19.055;539146352881758985;433535;446793;494909;173042;
2024-05-17T13:22:19.073;539146352899916468;433631;446725;494927;173049;
2024-05-17T13:22:19.092;539146352918073951;433643;446807;494972;173059;
2024-05-17T13:22:19.110;539146352936231434;433707;446950;495068;173082;
2024-05-17T13:22:19.128;539146352954388917;433829;447045;495126;173101;
2024-05-17T13:22:19.146;539146352972546400;433829;447059;495218;173022;
2024-05-17T13:22:19.164;539146352990703883;433987;447120;495267;173057;
2024-05-17T13:22:19.182;539146353008861366;434031;447248;495338;173047;
2024-05-17T13:22:19.200;539146353027018849;434085;447269;495433;173056;
2024-05-17T13:22:19.219;539146353045176332;434128;447305;495463;173011;
2024-05-17T13:22:19.237;539146353063333815;434141;447328;495509;173038;
2024-05-17T13:22:19.255;539146353081491298;434186;447364;495512;173042;
2024-05-17T13:22:19.273;539146353099648781;434172;447437;495540;173047;
2024-05-17T13:22:19.291;539146353117806264;434263;447413;495622;173043;
2024-05-17T13:22:19.309;539146353135963747;434277;447466;495726;173037;
2024-05-17T13:22:19.328;539146353154121230;434236;447507;495700;172992;
2024-05-17T13:22:19.346;539146353172278713;434358;447572;495849;173044;
2024-05-17T13:22:19.364;539146353190436196;434409;447649;495864;173035;
2024-05-17T13:22:19.382;539146353208593679;434572;447833;496067;173059;
2024-05-17T13:22:19.400;539146353226751162;434638;447879;496152;173036;
2024-05-17T13:22:19.418;539146353244908645;434680;447928;496247;173000;
2024-05-17T13:22:19.437;539146353263066128;434748;448020;496279;173044;
2024-05-17T13:22:19.455;539146353281223611;434701;447944;496186;173037;
2024-05-17T13:22:19.473;539146353299381094;434548;447851;496047;172964;
2024-05-17T13:22:19.491;539146353317538577;434429;447669;495916;172971;
2024-05-17T13:22:19.509;539146353335696060;434310;447516;495790;173010;
2024-05-17T13:22:19.527;539146353353853543;434127;447339;495642;172960;
2024-05-17T13:22:19.545;539146353372011026;434026;447288;495568;173073;
2024-05-17T13:22:19.564;539146353390168509;433933;447217;495470;173054;
2024-05-17T13:22:19.582;539146353408325992;433788;447102;495363;172996;
2024-05-17T13:22:19.600;539146353426483475;433834;447194;495471;173070;
2024-05-17T13:22:19.618;539146353444640958;433860;447222;495499;173008;
2024-05-17T13:22:19.636;539146353462798239;433933;447240;495539;173005;
2024-05-17T13:22:19.654;539146353480955504;433991;447302;495593;173015;
2024-05-17T13:22:19.673;539146353499112769;434126;447399;495687;173014;
2024-05-17T13:22:19.691;539146353517270034;434194;447475;495837;173047;
2024-05-17T13:22:19.709;539146353535427299;434247;447508;495856;173089;
2024-05-17T13:22:19.727;539146353553584564;434291;447536;495876;173040;
2024-05-17T13:22:19.745;539146353571741829;434308;447572;495912;173044;
2024-05-17T13:22:19.763;539146353589899094;434367;447619;495969;173014;
2024-05-17T13:22:19.782;539146353608056359;434313;447657;495979;173006;
2024-05-17T13:22:19.800;539146353626213624;434333;447631;495980;173085;
2024-05-17T13:22:19.818;539146353644370889;434345;447711;495997;173021;
2024-05-17T13:22:19.836;539146353662528154;434351;447746;495985;173036;
2024-05-17T13:22:19.854;539146353680685419;434422;447742;496073;173049;
2024-05-17T13:22:19.872;539146353698842684;434404;447797;496115;173011;
2024-05-17T13:22:19.890;539146353716999949;434395;447801;496152;172962;
2024-05-17T13:22:19.909;539146353735157214;434543;447869;496269;173042;
2024-05-17T13:22:19.927;539146353753314479;434567;447949;496319;173065;
2024-05-17T13:22:19.945;539146353771471744;434593;448036;496374;173019;
2024-05-17T13:22:19.963;539146353789629009;434635;448079;496454;173027;
2024-05-17T13:22:19.981;539146353807786274;434620;448019;496401;172986;
2024-05-17T13:22:19.999;539146353825943539;434577;447944;496321;173020;
2024-05-17T13:22:20.018;539146353844100804;434358;447774;496178;173038;
2024-05-17T13:22:20.036;539146353862258069;434229;447613;496060;172999;
2024-05-17T13:22:20.054;539146353880415334;434050;447337;495857;173051;
2024-05-17T13:22:20.072;539146353898572599;433814;447229;495641;173092;
2024-05-17T13:22:20.090;539146353916729864;433610;447061;495496;173059;
2024-05-17T13:22:20.108;539146353934887129;433500;446952;495362;173069;
2024-05-17T13:22:20.127;539146353953044394;433422;446876;495265;173078;
2024-05-17T13:22:20.145;539146353971201659;433407;446875;495205;173047;
2024-05-17T13:22:20.163;539146353989358924;433432;446861;495275;173076;
2024-05-17T13:22:20.181;539146354007516189;433447;446866;495304;173025;
2024-05-17T13:22:20.199;539146354025673454;433446;446888;495276;173051;
2024-05-17T13:22:20.217;539146354043830719;433563;446975;495346;173031;
2024-05-17T13:22:20.235;539146354061987984;433529;446936;495345;173038;
2024-05-17T13:22:20.254;539146354080145249;433604;447021;495385;173045;
2024-05-17T13:22:20.272;539146354098302514;433649;447005;495390;173086;
2024-05-17T13:22:20.290;539146354116459779;433583;447038;495364;173050;
2024-05-17T13:22:20.308;539146354134617044;433607;446995;495376;173019;
2024-05-17T13:22:20.326;539146354152774309;433568;446943;495338;173032;
2024-05-17T13:22:20.344;539146354170931574;433548;446940;495355;173037;
2024-05-17T13:22:20.363;539146354189088839;433565;446949;495328;173055;
2024-05-17T13:22:20.381;539146354207246104;433527;446997;495260;173018;
2024-05-17T13:22:20.399;539146354225402430;433492;446936;495276;173039;
2024-05-17T13:22:20.417;539146354243558723;433556;446949;495241;173016;
2024-05-17T13:22:20.435;539146354261715016;433576;446960;495349;173034;
2024-05-17T13:22:20.453;539146354279871309;433545;446950;495383;173009;
2024-05-17T13:22:20.471;539146354298027602;433638;446994;495367;172984;
2024-05-17T13:22:20.490;539146354316183895;433611;447064;495467;173026;
2024-05-17T13:22:20.508;539146354334340188;433673;447124;495514;172990;
2024-05-17T13:22:20.526;539146354352496481;433664;447031;495435;172992;
2024-05-17T13:22:20.544;539146354370652774;433554;446876;495349;172979;
2024-05-17T13:22:20.562;539146354388809067;433453;446773;495160;173041;
2024-05-17T13:22:20.580;539146354406965360;433243;446633;495014;172973;
2024-05-17T13:22:20.599;539146354425121653;433055;446421;494834;173014;
2024-05-17T13:22:20.617;539146354443277946;432910;446326;494666;173072;
2024-05-17T13:22:20.635;539146354461434239;432812;446159;494545;173092;
2024-05-17T13:22:20.653;539146354479590532;432705;446025;494389;173042;
2024-05-17T13:22:20.671;539146354497746825;432640;445950;494355;173015;
2024-05-17T13:22:20.689;539146354515903118;432656;445931;494336;173028;
2024-05-17T13:22:20.708;539146354534059411;432680;446003;494348;173061;
2024-05-17T13:22:20.726;539146354552215704;432782;446021;494471;173002;
2024-05-17T13:22:20.744;539146354570371997;432834;446064;494536;173015;
2024-05-17T13:22:20.762;539146354588528290;432883;446170;494643;173076;
2024-05-17T13:22:20.780;539146354606684583;432987;446274;494712;173065;
2024-05-17T13:22:20.798;539146354624840876;433105;446280;494795;173090;
2024-05-17T13:22:20.816;539146354642997169;433081;446282;494793;173062;
2024-05-17T13:22:20.835;539146354661153462;433084;446346;494793;173069;
2024-05-17T13:22:20.853;539146354679309755;433122;446347;494825;173036;
2024-05-17T13:22:20.871;539146354697466048;433075;446331;494813;173072;
2024-05-17T13:22:20.889;539146354715622341;433166;446338;494840;173047;
2024-05-17T13:22:20.907;539146354733778634;433169;446307;494785;173067;
2024-05-17T13:22:20.925;539146354751934927;433199;446363;494850;173033;
2024-05-17T13:22:20.944;539146354770091220;433208;446396;494892;173020;
2024-05-17T13:22:20.962;539146354788247513;433243;446472;494944;173014;
2024-05-17T13:22:20.980;539146354806403806;433361;446540;495022;173014;
2024-05-17T13:22:20.998;539146354824560099;433466;446595;495113;173015;
2024-05-17T13:22:21.016;539146354842716392;433586;446706;495245;173052;
2024-05-17T13:22:21.034;539146354860872685;433570;446737;495299;172981;
2024-05-17T13:22:21.052;539146354879028978;433635;446779;495333;173022;
2024-05-17T13:22:21.071;539146354897185271;433619;446671;495256;173085;
2024-05-17T13:22:21.089;539146354915341564;433480;446574;495112;173049;
2024-05-17T13:22:21.107;539146354933497857;433384;446495;494998;173038;
2024-05-17T13:22:21.125;539146354951654150;433206;446306;494807;173011;
2024-05-17T13:22:21.143;539146354969810443;433067;446158;494665;173020;
2024-05-17T13:22:21.161;539146354987966736;432970;446028;494528;173010;
2024-05-17T13:22:21.180;539146355006123214;432845;445879;494505;173021;
2024-05-17T13:22:21.198;539146355024279685;432870;445877;494457;172987;
2024-05-17T13:22:21.216;539146355042436156;432818;445840;494385;172969;
2024-05-17T13:22:21.234;539146355060592627;432870;445889;494463;173032;
2024-05-17T13:22:21.252;539146355078749098;433004;445996;494585;173031;
2024-05-17T13:22:21.270;539146355096905569;433103;446016;494618;173003;
2024-05-17T13:22:21.289;539146355115062040;433180;446082;494718;173016;
2024-05-17T13:22:21.307;539146355133218511;433262;446232;494791;172993;
2024-05-17T13:22:21.325;539146355151374982;433324;446316;494860;173049;
2024-05-17T13:22:21.343;539146355169531453;433346;446320;494789;173025;
2024-05-17T13:22:21.361;539146355187687924;433406;446378;494904;173030;
2024-05-17T13:22:21.379;539146355205844395;433393;446409;494986;173043;
2024-05-17T13:22:21.397;539146355224000866;433441;446387;494970;173030;
2024-05-17T13:22:21.416;539146355242157337;433441;446437;494987;173027;
2024-05-17T13:22:21.434;539146355260313808;433460;446435;495054;173020;
2024-05-17T13:22:21.452;539146355278470279;433529;446414;495045;173075;
2024-05-17T13:22:21.470;539146355296626750;433516;446463;495043;173042;
2024-05-17T13:22:21.488;539146355314783221;433577;446547;495139;173078;
2024-05-17T13:22:21.506;539146355332939692;433654;446618;495136;173069;
2024-05-17T13:22:21.525;539146355351096163;433700;446702;495237;172987;
2024-05-17T13:22:21.543;539146355369252634;433808;446796;495384;173024;
2024-05-17T13:22:21.561;539146355387409105;433855;446850;495337;173054;
2024-05-17T13:22:21.579;539146355405565576;433844;446777;495324;173010;
2024-05-17T13:22:21.597;539146355423722047;433717;446652;495206;173031;
2024-05-17T13:22:21.615;539146355441878518;433626;446511;495058;173044;
2024-05-17T13:22:21.633;539146355460034989;433380;446300;494863;173071;
2024-05-17T13:22:21.652;539146355478191460;433172;446042;494679;173017;
2024-05-17T13:22:21.670;539146355496347931;433007;445806;494468;173006;
2024-05-17T13:22:21.688;539146355514504402;432793;445604;494262;173041;
2024-05-17T13:22:21.706;539146355532660873;432751;445622;494110;173065;
2024-05-17T13:22:21.724;539146355550817344;432616;445506;494036;173057;
2024-05-17T13:22:21.742;539146355568973815;432644;445494;494021;173032;
2024-05-17T13:22:21.761;539146355587130286;432761;445547;494099;173058;
2024-05-17T13:22:21.779;539146355605286757;432764;445563;494118;173003;
2024-05-17T13:22:21.797;539146355623443228;432846;445626;494162;173030;
2024-05-17T13:22:21.815;539146355641599699;432967;445711;494234;173053;
2024-05-17T13:22:21.833;539146355659756170;433055;445788;494245;173056;
2024-05-17T13:22:21.851;539146355677912641;433061;445785;494289;173042;
2024-05-17T13:22:21.870;539146355696069112;433131;445811;494339;173073;
2024-05-17T13:22:21.888;539146355714225583;433042;445850;494339;173014;
2024-05-17T13:22:21.906;539146355732382054;433076;445864;494324;173025;
2024-05-17T13:22:21.924;539146355750538525;433088;445857;494320;173014;
2024-05-17T13:22:21.942;539146355768694996;433077;445857;494245;172998;
2024-05-17T13:22:21.960;539146355786850587;433075;445812;494278;173009;
2024-05-17T13:22:21.978;539146355805006144;433093;445819;494312;173066;
2024-05-17T13:22:21.997;539146355823161701;433099;445819;494388;173008;
2024-05-17T13:22:22.015;539146355841317258;433187;445839;494400;173016;
2024-05-17T13:22:22.033;539146355859472815;433259;445916;494488;173025;
2024-05-17T13:22:22.051;539146355877628372;433251;446003;494514;172984;
2024-05-17T13:22:22.069;539146355895783929;433297;446105;494616;173006;
2024-05-17T13:22:22.087;539146355913939486;433393;446159;494650;173020;
2024-05-17T13:22:22.106;539146355932095043;433377;446106;494583;173011;
2024-05-17T13:22:22.124;539146355950250600;433315;446096;494551;173050;
2024-05-17T13:22:22.142;539146355968406157;433214;445990;494413;173059;
2024-05-17T13:22:22.160;539146355986561714;433075;445723;494261;173038;
2024-05-17T13:22:22.178;539146356004717271;432782;445484;493934;172988;
2024-05-17T13:22:22.196;539146356022872828;432594;445358;493706;173005;
2024-05-17T13:22:22.214;539146356041028385;432458;445157;493529;172952;
2024-05-17T13:22:22.233;539146356059183942;432348;445029;493346;173016;
2024-05-17T13:22:22.251;539146356077339499;432316;444943;493316;173011;
2024-05-17T13:22:22.269;539146356095495056;432269;444921;493263;173005;
2024-05-17T13:22:22.287;539146356113650613;432206;444956;493229;173008;
2024-05-17T13:22:22.305;539146356131806170;432306;445048;493318;173064;
2024-05-17T13:22:22.323;539146356149961727;432336;445042;493346;172919;
2024-05-17T13:22:22.342;539146356168117284;432441;445127;493398;173002;
2024-05-17T13:22:22.360;539146356186272841;432552;445225;493518;173068;
2024-05-17T13:22:22.378;539146356204428398;432562;445284;493540;173019;
2024-05-17T13:22:22.396;539146356222583955;432623;445351;493552;173039;
2024-05-17T13:22:22.414;539146356240739512;432683;445367;493597;173039;
2024-05-17T13:22:22.432;539146356258895069;432672;445297;493528;172966;
2024-05-17T13:22:22.451;539146356277050626;432679;445348;493538;172986;
2024-05-17T13:22:22.469;539146356295206183;432685;445301;493569;173052;
2024-05-17T13:22:22.487;539146356313361740;432541;445283;493474;173006;
2024-05-17T13:22:22.505;539146356331517297;432566;445265;493513;172984;
2024-05-17T13:22:22.523;539146356349672854;432617;445349;493537;173034;
2024-05-17T13:22:22.541;539146356367828411;432610;445359;493498;173015;
2024-05-17T13:22:22.559;539146356385983968;432608;445412;493551;172959;
2024-05-17T13:22:22.578;539146356404139525;432746;445435;493572;173025;
2024-05-17T13:22:22.596;539146356422295082;432740;445516;493635;173020;
2024-05-17T13:22:22.614;539146356440450639;432800;445532;493659;173011;
2024-05-17T13:22:22.632;539146356458606196;432792;445596;493729;172986;
2024-05-17T13:22:22.650;539146356476761753;432776;445516;493606;173013;
2024-05-17T13:22:22.668;539146356494917310;432611;445391;493477;173010;
2024-05-17T13:22:22.687;539146356513072867;432489;445250;493359;173017;
2024-05-17T13:22:22.705;539146356531228424;432262;445052;493114;172986;
2024-05-17T13:22:22.723;539146356549384076;432103;444804;492870;173000;
2024-05-17T13:22:22.741;539146356567539706;431880;444658;492715;172999;
2024-05-17T13:22:22.759;539146356585695336;431668;444495;492441;172986;
2024-05-17T13:22:22.777;539146356603850966;431602;444394;492380;173005;
2024-05-17T13:22:22.795;539146356622006596;431487;444298;492227;173025;
2024-05-17T13:22:22.814;539146356640162226;431510;444307;492226;173033;
2024-05-17T13:22:22.832;539146356658317856;431541;444276;492196;173008;
2024-05-17T13:22:22.850;539146356676473486;431578;444334;492245;172966;
2024-05-17T13:22:22.868;539146356694629116;431686;444427;492308;172987;
2024-05-17T13:22:22.886;539146356712784746;431746;444501;492458;173040;
2024-05-17T13:22:22.904;539146356730940376;431723;444481;492402;172979;
2024-05-17T13:22:22.923;539146356749096006;431829;444515;492492;173032;
2024-05-17T13:22:22.941;539146356767251636;431858;444568;492520;173039;
2024-05-17T13:22:22.959;539146356785407266;431788;444537;492477;173020;
2024-05-17T13:22:22.977;539146356803562896;431797;444574;492468;172970;
2024-05-17T13:22:22.995;539146356821718526;431682;444526;492427;172982;
2024-05-17T13:22:23.013;539146356839874156;431789;444488;492359;173024;
2024-05-17T13:22:23.031;539146356858029786;431659;444447;492276;173026;
2024-05-17T13:22:23.050;539146356876185416;431676;444485;492326;173086;
2024-05-17T13:22:23.068;539146356894341046;431667;444448;492336;173014;
2024-05-17T13:22:23.086;539146356912496676;431745;444467;492345;173004;
2024-05-17T13:22:23.104;539146356930652306;431724;444576;492402;172952;
2024-05-17T13:22:23.122;539146356948807936;431825;444627;492440;172994;
2024-05-17T13:22:23.140;539146356966963566;431827;444684;492539;172974;
2024-05-17T13:22:23.159;539146356985119196;431903;444709;492597;173018;
2024-05-17T13:22:23.177;539146357003274826;431848;444623;492480;173011;
2024-05-17T13:22:23.195;539146357021430456;431821;444537;492472;173015;
2024-05-17T13:22:23.213;539146357039586086;431694;444346;492307;173011;
2024-05-17T13:22:23.231;539146357057741716;431591;444263;492127;173033;
2024-05-17T13:22:23.249;539146357075897346;431418;444142;491955;173055;
2024-05-17T13:22:23.268;539146357094052976;431266;444041;491745;173050;
2024-05-17T13:22:23.286;539146357112208606;431091;443830;491613;173005;
2024-05-17T13:22:23.304;539146357130364236;430988;443767;491528;172997;
2024-05-17T13:22:23.322;539146357148519866;430937;443775;491483;173022;
2024-05-17T13:22:23.340;539146357166675496;430972;443769;491493;173041;
2024-05-17T13:22:23.358;539146357184831126;431003;443769;491541;173059;
2024-05-17T13:22:23.376;539146357202986756;431019;443833;491551;173069;
2024-05-17T13:22:23.395;539146357221142386;431114;443871;491636;173042;
2024-05-17T13:22:23.413;539146357239298016;431148;443989;491688;173039;
2024-05-17T13:22:23.431;539146357257453646;431200;443984;491673;172992;
2024-05-17T13:22:23.449;539146357275609276;431289;444060;491777;173033;
2024-05-17T13:22:23.467;539146357293764906;431319;444136;491832;173025;
2024-05-17T13:22:23.485;539146357311921594;431296;444146;491814;172982;
2024-05-17T13:22:23.504;539146357330078278;431359;444114;491924;173009;
2024-05-17T13:22:23.522;539146357348234962;431316;444104;491816;172982;
2024-05-17T13:22:23.540;539146357366391646;431325;444105;491899;173011;
2024-05-17T13:22:23.558;539146357384548330;431250;444069;491873;172969;
2024-05-17T13:22:23.576;539146357402705014;431312;444078;491848;172943;
2024-05-17T13:22:23.594;539146357420861698;431350;444251;491901;173007;
2024-05-17T13:22:23.612;539146357439018382;431464;444296;491974;172984;
2024-05-17T13:22:23.631;539146357457175066;431567;444390;492089;172994;
2024-05-17T13:22:23.649;539146357475331750;431619;444407;492150;173006;
2024-05-17T13:22:23.667;539146357493488434;431613;444430;492169;172967;
2024-05-17T13:22:23.685;539146357511645118;431672;444526;492191;173007;
2024-05-17T13:22:23.703;539146357529801802;431668;444432;492144;173037;
2024-05-17T13:22:23.721;539146357547958486;431580;444282;491983;173008;
2024-05-17T13:22:23.740;539146357566115170;431410;444186;491915;172997;
2024-05-17T13:22:23.758;539146357584271854;431246;444002;491696;172977;
2024-05-17T13:22:23.776;539146357602428538;430987;443883;491499;172987;
2024-05-17T13:22:23.794;539146357620585222;430923;443721;491425;173018;
2024-05-17T13:22:23.812;539146357638741906;430893;443763;491350;173006;
2024-05-17T13:22:23.830;539146357656898590;430818;443662;491300;172996;
2024-05-17T13:22:23.849;539146357675055274;430830;443659;491244;172994;
2024-05-17T13:22:23.867;539146357693211958;430886;443715;491269;172970;
2024-05-17T13:22:23.885;539146357711368642;430937;443766;491379;172946;
2024-05-17T13:22:23.903;539146357729525326;431076;443887;491500;172989;
2024-05-17T13:22:23.921;539146357747682010;431197;444052;491594;172968;
2024-05-17T13:22:23.939;539146357765838694;431276;444132;491691;172982;
2024-05-17T13:22:23.957;539146357783995378;431376;444183;491851;172974;
2024-05-17T13:22:23.976;539146357802152062;431455;444296;491949;172981;
2024-05-17T13:22:23.994;539146357820308746;431468;444295;491986;172991;
2024-05-17T13:22:24.012;539146357838465430;431548;444397;492020;173034;
2024-05-17T13:22:24.030;539146357856622114;431638;444467;492053;173030;
2024-05-17T13:22:24.048;539146357874778798;431566;444454;492104;173028;
2024-05-17T13:22:24.066;539146357892935482;431595;444549;492109;172993;
2024-05-17T13:22:24.085;539146357911092166;431636;444472;492189;173010;
2024-05-17T13:22:24.103;539146357929248850;431653;444603;492233;173003;
2024-05-17T13:22:24.121;539146357947405534;431795;444682;492312;173013;
2024-05-17T13:22:24.139;539146357965562218;431868;444789;492414;173033;
2024-05-17T13:22:24.157;539146357983718902;431988;444885;492548;173055;
2024-05-17T13:22:24.175;539146358001875586;432012;444927;492589;172963;
2024-05-17T13:22:24.193;539146358020032270;432019;444946;492524;173026;
2024-05-17T13:22:24.212;539146358038188954;431921;444854;492511;173002;
2024-05-17T13:22:24.230;539146358056345638;431830;444736;492293;172981;
2024-05-17T13:22:24.248;539146358074502326;431642;444507;492121;172992;
2024-05-17T13:22:24.266;539146358092659010;431490;444400;492004;172996;
2024-05-17T13:22:24.284;539146358110815694;431288;444257;491773;173056;
2024-05-17T13:22:24.302;539146358128972378;431130;444037;491602;172975;
2024-05-17T13:22:24.321;539146358147129062;431026;443988;491473;172955;
2024-05-17T13:22:24.339;539146358165285746;430993;443960;491462;172993;
2024-05-17T13:22:24.357;539146358183442430;431049;443995;491455;173026;
2024-05-17T13:22:24.375;539146358201599114;431093;444037;491578;173061;
2024-05-17T13:22:24.393;539146358219755798;431173;444154;491665;172982;
2024-05-17T13:22:24.411;539146358237912482;431299;444217;491765;172988;
2024-05-17T13:22:24.430;539146358256069166;431333;444369;491864;173031;
2024-05-17T13:22:24.448;539146358274225850;431425;444414;491853;173004;
2024-05-17T13:22:24.466;539146358292382534;431570;444533;492017;173021;
2024-05-17T13:22:24.484;539146358310539218;431573;444549;492022;173043;
2024-05-17T13:22:24.502;539146358328695902;431665;444561;492086;172987;
2024-05-17T13:22:24.520;539146358346852586;431656;444637;492084;173025;
2024-05-17T13:22:24.538;539146358365009270;431642;444601;492090;173008;
2024-05-17T13:22:24.557;539146358383165954;431667;444604;492126;173004;
2024-05-17T13:22:24.575;539146358401322638;431651;444654;492220;172999;
2024-05-17T13:22:24.593;539146358419479322;431704;444699;492249;173006;
2024-05-17T13:22:24.611;539146358437636006;431707;444725;492236;173022;
2024-05-17T13:22:24.629;539146358455792690;431817;444821;492397;173049;
2024-05-17T13:22:24.647;539146358473949374;431905;444933;492479;173004;
2024-05-17T13:22:24.666;539146358492106058;431971;444925;492547;172987;
2024-05-17T13:22:24.684;539146358510262742;432046;445058;492666;173018;
2024-05-17T13:22:24.702;539146358528419426;432124;445131;492739;173038;
2024-05-17T13:22:24.720;539146358546576110;432120;445060;492700;173008;
2024-05-17T13:22:24.738;539146358564732794;431935;444947;492538;172987;
2024-05-17T13:22:24.756;539146358582889478;431845;444884;492401;172984;
2024-05-17T13:22:24.775;539146358601046162;431672;444680;492239;172971;
2024-05-17T13:22:24.793;539146358619202846;431541;444543;492009;172982;
2024-05-17T13:22:24.811;539146358637359530;431355;444399;491849;172969;
2024-05-17T13:22:24.829;539146358655516214;431254;444308;491767;172988;
2024-05-17T13:22:24.847;539146358673672898;431194;444236;491648;173021;
2024-05-17T13:22:24.865;539146358691829582;431138;444235;491660;173020;
2024-05-17T13:22:24.883;539146358709986266;431170;444281;491705;173004;
2024-05-17T13:22:24.902;539146358728142950;431233;444322;491733;173061;
2024-05-17T13:22:24.920;539146358746299634;431305;444456;491868;173077;
2024-05-17T13:22:24.938;539146358764456318;431340;444479;491920;173005;
2024-05-17T13:22:24.956;539146358782613002;431421;444604;492016;173007;
2024-05-17T13:22:24.974;539146358800769686;431498;444585;492063;173033;
2024-05-17T13:22:24.992;539146358818926370;431561;444677;492100;173036;
2024-05-17T13:22:25.011;539146358837083762;431566;444722;492179;173023;
2024-05-17T13:22:25.029;539146358855241136;431626;444776;492253;173024;
2024-05-17T13:22:25.047;539146358873398510;431621;444757;492214;173037;
2024-05-17T13:22:25.065;539146358891555884;431574;444815;492212;173038;
2024-05-17T13:22:25.083;539146358909713258;431597;444847;492258;173017;
2024-05-17T13:22:25.101;539146358927870632;431657;444771;492288;172979;
2024-05-17T13:22:25.119;539146358946028006;431686;444816;492329;172958;
2024-05-17T13:22:25.138;539146358964185380;431725;444868;492344;173003;
2024-05-17T13:22:25.156;539146358982342754;431764;445001;492411;173022;
2024-05-17T13:22:25.174;539146359000500128;431762;445060;492500;172966;
2024-05-17T13:22:25.192;539146359018657502;431893;445180;492596;173009;
2024-05-17T13:22:25.210;539146359036814876;431978;445241;492696;173052;
2024-05-17T13:22:25.228;539146359054972250;432043;445318;492728;173104;
2024-05-17T13:22:25.247;539146359073129624;431934;445181;492609;172972;
2024-05-17T13:22:25.265;539146359091286998;431873;445123;492591;173023;
2024-05-17T13:22:25.283;539146359109444372;431722;444975;492440;173065;
2024-05-17T13:22:25.301;539146359127601746;431548;444870;492244;173024;
2024-05-17T13:22:25.319;539146359145759120;431411;444699;492114;173018;
2024-05-17T13:22:25.337;539146359163916494;431306;444519;491970;173060;
2024-05-17T13:22:25.356;539146359182073868;431182;444470;491905;172993;
2024-05-17T13:22:25.374;539146359200231242;431089;444476;491819;173013;
2024-05-17T13:22:25.392;539146359218388616;431145;444480;491745;173011;
2024-05-17T13:22:25.410;539146359236545990;431181;444469;491845;172966;
2024-05-17T13:22:25.428;539146359254703364;431255;444578;491959;172994;
2024-05-17T13:22:25.446;539146359272860738;431334;444709;492025;173003;
2024-05-17T13:22:25.464;539146359291018112;431430;444753;492120;173027;
2024-05-17T13:22:25.483;539146359309175486;431529;444846;492259;173041;
2024-05-17T13:22:25.501;539146359327332860;431583;444844;492294;172965;
2024-05-17T13:22:25.519;539146359345490234;431600;444911;492363;173009;
2024-05-17T13:22:25.537;539146359363647608;431614;444873;492311;172997;
2024-05-17T13:22:25.555;539146359381804982;431628;445045;492450;172984;
2024-05-17T13:22:25.573;539146359399962356;431639;445010;492397;173030;
2024-05-17T13:22:25.592;539146359418119730;431649;445069;492474;173001;
2024-05-17T13:22:25.610;539146359436277104;431692;445036;492485;172985;
2024-05-17T13:22:25.628;539146359454434478;431700;445155;492579;172972;
2024-05-17T13:22:25.646;539146359472591852;431802;445168;492671;173009;
2024-05-17T13:22:25.664;539146359490749226;431786;445241;492674;172982;
2024-05-17T13:22:25.682;539146359508906600;431917;445320;492800;173019;
2024-05-17T13:22:25.701;539146359527063974;431964;445382;492887;172985;
2024-05-17T13:22:25.719;539146359545221348;432013;445419;493024;172983;
2024-05-17T13:22:25.737;539146359563378722;432022;445479;492993;172990;
2024-05-17T13:22:25.755;539146359581536096;431989;445478;492980;172994;
2024-05-17T13:22:25.773;539146359599695064;431887;445389;492839;173011;
2024-05-17T13:22:25.791;539146359617854018;431759;445194;492659;172977;
2024-05-17T13:22:25.809;539146359636012972;431589;445060;492533;172949;
2024-05-17T13:22:25.828;539146359654171926;431361;444975;492390;173008;
2024-05-17T13:22:25.846;539146359672330880;431290;444867;492299;173030;
2024-05-17T13:22:25.864;539146359690489834;431193;444727;492156;172994;
2024-05-17T13:22:25.882;539146359708648788;431147;444690;492108;172994;
2024-05-17T13:22:25.900;539146359726807742;431205;444687;492135;173014;
2024-05-17T13:22:25.918;539146359744966696;431187;444778;492163;172980;
2024-05-17T13:22:25.937;539146359763125650;431280;444826;492241;172994;
2024-05-17T13:22:25.955;539146359781284604;431314;444876;492357;173059;
2024-05-17T13:22:25.973;539146359799443558;431362;444901;492414;173026;
2024-05-17T13:22:25.991;539146359817602512;431429;444964;492495;172998;
2024-05-17T13:22:26.009;539146359835761466;431401;445002;492550;173010;
2024-05-17T13:22:26.027;539146359853920420;431519;445049;492530;173019;
2024-05-17T13:22:26.046;539146359872079374;431463;445113;492589;173015;
2024-05-17T13:22:26.064;539146359890238328;431446;445060;492589;173053;
2024-05-17T13:22:26.082;539146359908397282;431391;445066;492616;173032;
2024-05-17T13:22:26.100;539146359926556236;431376;445003;492519;172982;
2024-05-17T13:22:26.118;539146359944715190;431336;445048;492433;173021;
2024-05-17T13:22:26.136;539146359962874144;431341;445089;492526;172992;
2024-05-17T13:22:26.154;539146359981033098;431419;445034;492505;173034;
2024-05-17T13:22:26.173;539146359999192052;431423;445123;492636;172962;
2024-05-17T13:22:26.191;539146360017351006;431391;445165;492642;173004;
2024-05-17T13:22:26.209;539146360035509960;431418;445175;492662;172998;
2024-05-17T13:22:26.227;539146360053668914;431549;445197;492731;173020;
2024-05-17T13:22:26.245;539146360071827868;431454;445169;492743;173001;
2024-05-17T13:22:26.263;539146360089986822;431419;445138;492655;172996;
2024-05-17T13:22:26.282;539146360108145776;431289;444990;492558;172993;
2024-05-17T13:22:26.300;539146360126304730;431142;444863;492382;172996;
2024-05-17T13:22:26.318;539146360144463684;430987;444697;492188;172984;
2024-05-17T13:22:26.336;539146360162622638;430853;444529;492033;172988;
2024-05-17T13:22:26.354;539146360180781592;430736;444468;491967;173000;
2024-05-17T13:22:26.372;539146360198940546;430594;444341;491871;172989;
2024-05-17T13:22:26.391;539146360217099500;430530;444297;491826;172996;
2024-05-17T13:22:26.409;539146360235258454;430547;444426;491895;173009;
2024-05-17T13:22:26.427;539146360253417408;430578;444369;491874;172983;
2024-05-17T13:22:26.445;539146360271576362;430706;444444;491912;173016;
2024-05-17T13:22:26.463;539146360289735316;430767;444445;491980;172999;
2024-05-17T13:22:26.481;539146360307894270;430799;444519;492075;172992;
2024-05-17T13:22:26.500;539146360326053224;430797;444554;492129;172973;
2024-05-17T13:22:26.518;539146360344212174;430826;444611;492179;173000;
2024-05-17T13:22:26.536;539146360362371093;430899;444646;492177;173037;
2024-05-17T13:22:26.554;539146360380530012;430830;444652;492207;173028;
2024-05-17T13:22:26.572;539146360398688931;430860;444631;492189;173017;
2024-05-17T13:22:26.590;539146360416847850;430799;444577;492119;173017;
2024-05-17T13:22:26.608;539146360435006769;430777;444533;492134;173017;
2024-05-17T13:22:26.627;539146360453165688;430795;444591;492185;173037;
2024-05-17T13:22:26.645;539146360471324607;430716;444504;492120;172975;
2024-05-17T13:22:26.663;539146360489483526;430725;444475;492195;172939;
2024-05-17T13:22:26.681;539146360507642445;430762;444584;492239;172950;
2024-05-17T13:22:26.699;539146360525801364;430787;444679;492250;173027;
2024-05-17T13:22:26.717;539146360543960283;430802;444621;492212;173004;
2024-05-17T13:22:26.736;539146360562119202;430781;444535;492136;173014;
2024-05-17T13:22:26.754;539146360580278121;430691;444463;492106;173028;
2024-05-17T13:22:26.772;539146360598437040;430560;444302;491957;172951;
2024-05-17T13:22:26.790;539146360616595959;430379;444188;491813;173019;
2024-05-17T13:22:26.808;539146360634754878;430250;444028;491639;172999;
2024-05-17T13:22:26.826;539146360652913797;430100;443924;491513;172963;
2024-05-17T13:22:26.845;539146360671072716;430062;443784;491419;173036;
2024-05-17T13:22:26.863;539146360689231635;429909;443714;491317;172958;
2024-05-17T13:22:26.881;539146360707390554;429903;443736;491363;172999;
2024-05-17T13:22:26.899;539146360725549473;429964;443805;491448;173005;
2024-05-17T13:22:26.917;539146360743708392;430026;443823;491511;173044;
2024-05-17T13:22:26.935;539146360761867311;430095;443928;491604;173015;
2024-05-17T13:22:26.953;539146360780026230;430248;444046;491732;173019;
2024-05-17T13:22:26.972;539146360798185149;430351;444112;491802;172958;
2024-05-17T13:22:26.990;539146360816344068;430424;444249;491879;172959;
2024-05-17T13:22:27.008;539146360834502987;430516;444229;491949;172947;
2024-05-17T13:22:27.026;539146360852661906;430492;444326;492011;172974;
2024-05-17T13:22:27.044;539146360870820825;430550;444355;492025;173013;
2024-05-17T13:22:27.062;539146360888979744;430547;444313;492062;173013;
2024-05-17T13:22:27.081;539146360907138663;430601;444400;492077;173056;
2024-05-17T13:22:27.099;539146360925297582;430594;444384;492152;173032;
2024-05-17T13:22:27.117;539146360943456501;430601;444368;492154;172996;
2024-05-17T13:22:27.135;539146360961615420;430558;444390;492139;172953;
2024-05-17T13:22:27.153;539146360979774339;430668;444531;492294;173039;
2024-05-17T13:22:27.171;539146360997933258;430778;444529;492393;173011;
2024-05-17T13:22:27.190;539146361016092177;430788;444575;492367;173018;
2024-05-17T13:22:27.208;539146361034251096;430757;444519;492363;173030;
2024-05-17T13:22:27.226;539146361052410015;430628;444433;492264;173021;
2024-05-17T13:22:27.244;539146361070568934;430505;444286;492077;173035;
2024-05-17T13:22:27.262;539146361088727853;430350;444062;491902;173009;
2024-05-17T13:22:27.280;539146361106886772;430213;443920;491764;173034;
2024-05-17T13:22:27.299;539146361125045734;430072;443770;491604;173034;
2024-05-17T13:22:27.317;539146361143204670;429893;443644;491441;172971;
2024-05-17T13:22:27.335;539146361161363606;429813;443593;491368;173039;
2024-05-17T13:22:27.353;539146361179522542;429750;443492;491348;172984;
2024-05-17T13:22:27.371;539146361197681478;429758;443533;491351;172997;
2024-05-17T13:22:27.389;539146361215840414;429874;443615;491465;172993;
2024-05-17T13:22:27.407;539146361233999350;429990;443739;491607;173015;
2024-05-17T13:22:27.426;539146361252158286;430111;443815;491691;173006;
2024-05-17T13:22:27.444;539146361270317222;430163;443871;491800;173011;
2024-05-17T13:22:27.462;539146361288476158;430239;443936;491822;173010;
2024-05-17T13:22:27.480;539146361306635094;430336;443998;491933;173040;
2024-05-17T13:22:27.498;539146361324794030;430243;443934;491902;173010;
2024-05-17T13:22:27.516;539146361342952966;430244;443928;491931;172936;
2024-05-17T13:22:27.535;539146361361111902;430250;443960;491941;172999;
2024-05-17T13:22:27.553;539146361379270838;430239;443917;491917;172931;
2024-05-17T13:22:27.571;539146361397429774;430300;443970;491985;172985;
2024-05-17T13:22:27.589;539146361415588710;430241;444051;492018;172988;
2024-05-17T13:22:27.607;539146361433747646;430328;444078;492106;173047;
2024-05-17T13:22:27.625;539146361451906582;430447;444112;492096;173004;
2024-05-17T13:22:27.644;539146361470065518;430457;444174;492151;173004;
2024-05-17T13:22:27.662;539146361488224454;430578;444264;492281;172991;
2024-05-17T13:22:27.680;539146361506383390;430479;444253;492298;173011;
2024-05-17T13:22:27.698;539146361524542326;430561;444190;492264;172976;
2024-05-17T13:22:27.716;539146361542701262;430433;444086;492136;173028;
2024-05-17T13:22:27.734;539146361560860198;430277;443851;491959;172987;
2024-05-17T13:22:27.752;539146361579019134;430077;443689;491798;172960;
2024-05-17T13:22:27.771;539146361597178070;429926;443543;491638;172988;
2024-05-17T13:22:27.789;539146361615337006;429747;443334;491461;173016;
2024-05-17T13:22:27.807;539146361633495942;429708;443263;491367;173057;
2024-05-17T13:22:27.825;539146361651654878;429585;443142;491326;172988;
2024-05-17T13:22:27.843;539146361669813814;429535;443143;491307;172994;
2024-05-17T13:22:27.861;539146361687972750;429628;443203;491344;173005;
2024-05-17T13:22:27.880;539146361706131686;429705;443301;491426;172998;
2024-05-17T13:22:27.898;539146361724290622;429779;443413;491497;172992;
2024-05-17T13:22:27.916;539146361742449558;429876;443491;491595;172975;
2024-05-17T13:22:27.934;539146361760608494;429958;443520;491640;173013;
2024-05-17T13:22:27.952;539146361778767430;430020;443602;491738;173031;
2024-05-17T13:22:27.970;539146361796926366;430048;443610;491733;172992;
2024-05-17T13:22:27.989;539146361815085302;430046;443618;491787;172980;
2024-05-17T13:22:28.007;539146361833244238;430077;443642;491811;173019;
2024-05-17T13:22:28.025;539146361851403174;430039;443599;491818;172975;
2024-05-17T13:22:28.043;539146361869562110;429977;443580;491839;172965;
2024-05-17T13:22:28.061;539146361887720581;430105;443688;491846;172990;
2024-05-17T13:22:28.079;539146361905879045;430169;443711;491943;173003;
2024-05-17T13:22:28.097;539146361924037509;430213;443701;491951;172971;
2024-05-17T13:22:28.116;539146361942195973;430273;443820;492117;172991;
2024-05-17T13:22:28.134;539146361960354437;430357;443916;492220;173000;
2024-05-17T13:22:28.152;539146361978512901;430371;443918;492253;172988;
2024-05-17T13:22:28.170;539146361996671365;430415;443926;492268;172962;
2024-05-17T13:22:28.188;539146362014829829;430413;443918;492222;172994;
2024-05-17T13:22:28.206;539146362032988293;430351;443899;492212;173020;
2024-05-17T13:22:28.225;539146362051146757;430283;443701;492005;172984;
2024-05-17T13:22:28.243;539146362069305221;430172;443581;491924;173018;
2024-05-17T13:22:28.261;539146362087463685;429937;443339;491783;173014;
2024-05-17T13:22:28.279;539146362105622149;429741;443220;491599;172992;
2024-05-17T13:22:28.297;539146362123780613;429628;443136;491550;173002;
2024-05-17T13:22:28.315;539146362141939077;429588;443029;491471;172948;
2024-05-17T13:22:28.334;539146362160097541;429651;443059;491456;172930;
2024-05-17T13:22:28.352;539146362178256005;429644;443124;491507;172980;
2024-05-17T13:22:28.370;539146362196414469;429747;443223;491568;172937;
2024-05-17T13:22:28.388;539146362214572933;429858;443288;491698;172954;
2024-05-17T13:22:28.406;539146362232731397;429958;443349;491793;172968;
2024-05-17T13:22:28.424;539146362250889861;430075;443446;491894;172940;
2024-05-17T13:22:28.443;539146362269048325;430166;443579;492000;172957;
2024-05-17T13:22:28.461;539146362287206789;430186;443596;492089;172943;
2024-05-17T13:22:28.479;539146362305365253;430167;443609;492054;172968;
2024-05-17T13:22:28.497;539146362323523717;430176;443618;491981;172900;
2024-05-17T13:22:28.515;539146362341682181;430231;443644;492086;173033;
2024-05-17T13:22:28.533;539146362359840645;430294;443702;492135;172982;
2024-05-17T13:22:28.551;539146362377999109;430307;443731;492155;173008;
2024-05-17T13:22:28.570;539146362396157573;430344;443750;492215;173011;
2024-05-17T13:22:28.588;539146362414316037;430365;443863;492305;172959;
2024-05-17T13:22:28.606;539146362432474501;430500;443955;492394;172985;
2024-05-17T13:22:28.624;539146362450632965;430558;444010;492501;172970;
2024-05-17T13:22:28.642;539146362468791429;430616;444090;492556;172935;
2024-05-17T13:22:28.660;539146362486949893;430650;444128;492596;172986;
2024-05-17T13:22:28.679;539146362505108357;430685;444142;492669;172996;
2024-05-17T13:22:28.697;539146362523266821;430642;444058;492621;172998;
2024-05-17T13:22:28.715;539146362541425285;430527;443959;492448;172964;
2024-05-17T13:22:28.733;539146362559583749;430391;443823;492288;172982;
2024-05-17T13:22:28.751;539146362577742213;430240;443640;492138;172955;
2024-05-17T13:22:28.769;539146362595900677;430084;443476;491992;172981;
2024-05-17T13:22:28.788;539146362614059141;429911;443332;491902;172982;
2024-05-17T13:22:28.806;539146362632217605;429785;443251;491737;172994;
2024-05-17T13:22:28.824;539146362650376624;429804;443154;491759;173005;
2024-05-17T13:22:28.842;539146362668535633;429826;443120;491776;172971;
2024-05-17T13:22:28.860;539146362686694642;429862;443244;491781;172983;
2024-05-17T13:22:28.878;539146362704853651;429908;443338;491832;173006;
2024-05-17T13:22:28.896;539146362723012660;429969;443421;491886;172950;
2024-05-17T13:22:28.915;539146362741171669;430009;443498;491911;172965;
2024-05-17T13:22:28.933;539146362759330678;430154;443562;491995;172999;
2024-05-17T13:22:28.951;539146362777489687;430201;443525;492104;172970;
2024-05-17T13:22:28.969;539146362795648696;430242;443612;492202;173011;
2024-05-17T13:22:28.987;539146362813807705;430205;443581;492177;173000;
2024-05-17T13:22:29.005;539146362831966714;430297;443650;492212;173034;
2024-05-17T13:22:29.024;539146362850125723;430295;443637;492240;172991;
2024-05-17T13:22:29.042;539146362868284732;430311;443611;492198;172963;
2024-05-17T13:22:29.060;539146362886443741;430369;443693;492266;172994;
2024-05-17T13:22:29.078;539146362904602750;430330;443759;492253;172958;
2024-05-17T13:22:29.096;539146362922761759;430412;443840;492301;173019;
2024-05-17T13:22:29.114;539146362940920768;430469;443883;492338;172964;
2024-05-17T13:22:29.133;539146362959079777;430551;443983;492461;172950;
2024-05-17T13:22:29.151;539146362977238786;430558;444015;492614;173021;
2024-05-17T13:22:29.169;539146362995397795;430650;444023;492622;173049;
2024-05-17T13:22:29.187;539146363013556804;430651;444112;492662;173007;
2024-05-17T13:22:29.205;539146363031715813;430687;444093;492646;173023;
2024-05-17T13:22:29.223;539146363049874822;430683;444072;492643;173053;
2024-05-17T13:22:29.241;539146363068033831;430598;443877;492487;172963;
2024-05-17T13:22:29.260;539146363086192840;430363;443684;492307;172984;
2024-05-17T13:22:29.278;539146363104351849;430190;443583;492133;172970;
2024-05-17T13:22:29.296;539146363122510858;430061;443464;491997;172983;
2024-05-17T13:22:29.314;539146363140669867;429946;443381;491909;172972;
2024-05-17T13:22:29.332;539146363158828876;429936;443297;491869;172956;
2024-05-17T13:22:29.350;539146363176987885;429938;443286;491889;172987;
2024-05-17T13:22:29.369;539146363195146894;429969;443363;491942;172985;
2024-05-17T13:22:29.387;539146363213305903;430069;443447;492058;173015;
2024-05-17T13:22:29.405;539146363231464912;430175;443553;492162;173020;
2024-05-17T13:22:29.423;539146363249623921;430256;443643;492174;172955;
2024-05-17T13:22:29.441;539146363267782930;430361;443744;492264;172955;
2024-05-17T13:22:29.459;539146363285941939;430422;443755;492290;172998;
2024-05-17T13:22:29.478;539146363304100948;430513;443891;492497;172967;
2024-05-17T13:22:29.496;539146363322259957;430523;443853;492430;172977;
2024-05-17T13:22:29.514;539146363340418966;430530;443854;492462;173017;
2024-05-17T13:22:29.532;539146363358577975;430597;443901;492519;173019;
2024-05-17T13:22:29.550;539146363376736984;430645;443944;492584;173002;
2024-05-17T13:22:29.568;539146363394895993;430643;444035;492682;173021;
2024-05-17T13:22:29.587;539146363413054301;430662;444104;492690;172941;
2024-05-17T13:22:29.605;539146363431212583;430719;444104;492707;172938;
2024-05-17T13:22:29.623;539146363449370865;430858;444267;492863;172989;
2024-05-17T13:22:29.641;539146363467529147;430940;444347;492997;172981;
2024-05-17T13:22:29.659;539146363485687429;431043;444470;493073;173031;
2024-05-17T13:22:29.677;539146363503845711;431124;444558;493164;172985;
2024-05-17T13:22:29.695;539146363522003993;431227;444673;493283;172967;
2024-05-17T13:22:29.714;539146363540162275;431283;444666;493362;172980;
2024-05-17T13:22:29.732;539146363558320557;431231;444614;493288;172980;
2024-05-17T13:22:29.750;539146363576478839;431183;444614;493181;172991;
2024-05-17T13:22:29.768;539146363594637121;431138;444467;493141;172968;
2024-05-17T13:22:29.786;539146363612795403;431006;444354;492976;173006;
2024-05-17T13:22:29.804;539146363630953685;430920;444220;492906;173016;
2024-05-17T13:22:29.823;539146363649111967;430735;444048;492800;172973;
2024-05-17T13:22:29.841;539146363667270249;430672;444082;492735;172938;
2024-05-17T13:22:29.859;539146363685428531;430669;444092;492663;173020;
2024-05-17T13:22:29.877;539146363703586813;430771;444116;492812;173048;
2024-05-17T13:22:29.895;539146363721745095;430825;444188;492910;173044;
2024-05-17T13:22:29.913;539146363739903377;430974;444297;492939;172998;
2024-05-17T13:22:29.932;539146363758061659;431098;444445;493142;172999;
2024-05-17T13:22:29.950;539146363776219941;431201;444601;493297;172996;
2024-05-17T13:22:29.968;539146363794378223;431303;444706;493354;173011;
2024-05-17T13:22:29.986;539146363812536505;431377;444754;493439;172992;
2024-05-17T13:22:30.004;539146363830694787;431485;444881;493517;172952;
2024-05-17T13:22:30.022;539146363848853069;431585;444998;493637;172976;
2024-05-17T13:22:30.040;539146363867011351;431630;444987;493694;172976;
2024-05-17T13:22:30.059;539146363885169633;431672;445076;493815;173054;
2024-05-17T13:22:30.077;539146363903327915;431713;445163;493878;172965;
2024-05-17T13:22:30.095;539146363921486197;431739;445229;493919;173020;
2024-05-17T13:22:30.113;539146363939644479;431831;445294;494014;173007;
2024-05-17T13:22:30.131;539146363957802761;431949;445333;494093;173017;
2024-05-17T13:22:30.149;539146363975961043;432074;445379;494187;172977;
2024-05-17T13:22:30.168;539146363994119325;432143;445498;494328;172953;
2024-05-17T13:22:30.186;539146364012277607;432270;445642;494488;172932;
2024-05-17T13:22:30.204;539146364030435889;432329;445835;494573;172980;
2024-05-17T13:22:30.222;539146364048594171;432424;445911;494699;172942;
2024-05-17T13:22:30.240;539146364066752453;432534;445973;494746;173015;
2024-05-17T13:22:30.258;539146364084910735;432474;445965;494712;173007;
2024-05-17T13:22:30.277;539146364103069017;432459;445856;494639;172971;
2024-05-17T13:22:30.295;539146364121227299;432349;445727;494532;173005;
2024-05-17T13:22:30.313;539146364139385581;432199;445568;494448;173004;
2024-05-17T13:22:30.331;539146364157543863;432000;445411;494195;172985;
2024-05-17T13:22:30.349;539146364175701698;431911;445354;494116;173005;
2024-05-17T13:22:30.367;539146364193859508;431796;445226;494029;173017;
2024-05-17T13:22:30.385;539146364212017318;431712;445169;493986;173015;
2024-05-17T13:22:30.404;539146364230175128;431712;445122;493968;172987;
2024-05-17T13:22:30.422;539146364248332938;431821;445255;494007;173008;
2024-05-17T13:22:30.440;539146364266490748;431908;445369;494126;172983;
2024-05-17T13:22:30.458;539146364284648558;431949;445411;494215;172959;
2024-05-17T13:22:30.476;539146364302806368;432036;445557;494320;173003;
2024-05-17T13:22:30.494;539146364320964178;432161;445648;494404;172975;
2024-05-17T13:22:30.513;539146364339121988;432239;445730;494518;173038;
2024-05-17T13:22:30.531;539146364357279798;432241;445757;494561;172990;
2024-05-17T13:22:30.549;539146364375437608;432352;445911;494641;173022;
2024-05-17T13:22:30.567;539146364393595418;432378;445931;494602;173018;
2024-05-17T13:22:30.585;539146364411753228;432367;445969;494644;173009;
2024-05-17T13:22:30.603;539146364429911038;432364;445976;494706;172999;
2024-05-17T13:22:30.622;539146364448068848;432481;446044;494815;173023;
2024-05-17T13:22:30.640;539146364466226658;432501;446106;494843;173021;
2024-05-17T13:22:30.658;539146364484384468;432558;446143;494899;172999;
2024-05-17T13:22:30.676;539146364502542278;432607;446258;495010;173011;
2024-05-17T13:22:30.694;539146364520700088;432752;446347;495171;173007;
2024-05-17T13:22:30.712;539146364538857898;432876;446545;495258;172982;
2024-05-17T13:22:30.730;539146364557015708;432946;446603;495389;173083;
2024-05-17T13:22:30.749;539146364575173518;433040;446638;495455;173008;
2024-05-17T13:22:30.767;539146364593331328;433155;446779;495603;173034;
2024-05-17T13:22:30.785;539146364611489138;433172;446861;495642;172977;
2024-05-17T13:22:30.803;539146364629646948;433200;446857;495677;172974;
2024-05-17T13:22:30.821;539146364647804758;433140;446824;495585;173048;
2024-05-17T13:22:30.839;539146364665962568;433075;446632;495381;173001;
2024-05-17T13:22:30.858;539146364684120378;432886;446511;495252;173054;
2024-05-17T13:22:30.876;539146364702278188;432689;446376;495140;173019;
2024-05-17T13:22:30.894;539146364720435998;432558;446228;494972;173047;
2024-05-17T13:22:30.912;539146364738593808;432417;446107;494835;173009;
2024-05-17T13:22:30.930;539146364756751618;432355;446068;494780;173004;
2024-05-17T13:22:30.948;539146364774909428;432352;446107;494764;172976;
2024-05-17T13:22:30.967;539146364793067238;432342;446099;494758;173001;
2024-05-17T13:22:30.985;539146364811225048;432477;446181;494778;173009;
2024-05-17T13:22:31.003;539146364829382858;432492;446242;494894;173017;
2024-05-17T13:22:31.021;539146364847540668;432534;446325;494990;172992;
2024-05-17T13:22:31.039;539146364865698478;432651;446423;495094;172959;
2024-05-17T13:22:31.057;539146364883856288;432712;446409;495076;172979;
2024-05-17T13:22:31.075;539146364902014098;432793;446528;495189;173020;
2024-05-17T13:22:31.094;539146364920171908;432839;446530;495244;172997;
2024-05-17T13:22:31.112;539146364938329476;432898;446508;495233;172987;
2024-05-17T13:22:31.130;539146364956487007;432881;446561;495213;172987;
2024-05-17T13:22:31.148;539146364974644538;432917;446694;495258;172959;
2024-05-17T13:22:31.166;539146364992802069;432926;446730;495314;173003;
2024-05-17T13:22:31.184;539146365010959600;432947;446727;495360;172988;
2024-05-17T13:22:31.203;539146365029117131;432988;446784;495401;172992;
2024-05-17T13:22:31.221;539146365047274662;433031;446888;495463;172976;
2024-05-17T13:22:31.239;539146365065432193;433133;446950;495585;173014;
2024-05-17T13:22:31.257;539146365083589724;433197;447068;495674;173020;
2024-05-17T13:22:31.275;539146365101747255;433265;447105;495765;173022;
2024-05-17T13:22:31.293;539146365119904786;433354;447183;495819;173062;
2024-05-17T13:22:31.312;539146365138062317;433308;447289;495899;172976;
2024-05-17T13:22:31.330;539146365156219848;433462;447352;496024;173034;
2024-05-17T13:22:31.348;539146365174377379;433552;447458;496107;173020;
2024-05-17T13:22:31.366;539146365192534910;433493;447496;496067;173021;
2024-05-17T13:22:31.384;539146365210692441;433455;447393;495994;172986;
2024-05-17T13:22:31.402;539146365228849972;433360;447231;495940;173043;
2024-05-17T13:22:31.420;539146365247007503;433178;447102;495684;173001;
2024-05-17T13:22:31.439;539146365265165034;432968;446878;495469;172987;
2024-05-17T13:22:31.457;539146365283322565;432771;446747;495296;173003;
2024-05-17T13:22:31.475;539146365301480096;432571;446590;495086;173013;
2024-05-17T13:22:31.493;539146365319637627;432557;446444;495043;173032;
2024-05-17T13:22:31.511;539146365337795158;432336;446383;494911;172983;
2024-05-17T13:22:31.529;539146365355952689;432330;446384;494891;172990;
2024-05-17T13:22:31.548;539146365374110220;432397;446436;494857;173026;
2024-05-17T13:22:31.566;539146365392267751;432399;446399;494860;172987;
2024-05-17T13:22:31.584;539146365410425282;432490;446530;494907;172970;
2024-05-17T13:22:31.602;539146365428582813;432587;446647;495034;173028;
2024-05-17T13:22:31.620;539146365446740344;432560;446687;495041;173030;
2024-05-17T13:22:31.638;539146365464897875;432611;446740;495064;173025;
2024-05-17T13:22:31.657;539146365483055406;432643;446704;495107;173020;
2024-05-17T13:22:31.675;539146365501212937;432599;446750;495018;173058;
2024-05-17T13:22:31.693;539146365519370468;432510;446703;495053;173007;
2024-05-17T13:22:31.711;539146365537527999;432522;446718;494998;173035;
2024-05-17T13:22:31.729;539146365555685530;432560;446618;495001;173014;
2024-05-17T13:22:31.747;539146365573843061;432555;446631;495014;172966;
2024-05-17T13:22:31.765;539146365592000592;432563;446664;495020;172968;
2024-05-17T13:22:31.784;539146365610158123;432546;446733;495061;173040;
2024-05-17T13:22:31.802;539146365628315654;432544;446761;495062;172994;
2024-05-17T13:22:31.820;539146365646473185;432587;446800;495122;172992;
2024-05-17T13:22:31.838;539146365664630716;432624;446918;495146;172973;
2024-05-17T13:22:31.856;539146365682788247;432663;446887;495197;172999;
2024-05-17T13:22:31.874;539146365700945778;432763;446956;495257;173024;
2024-05-17T13:22:31.893;539146365719103309;432811;447032;495344;173017;
2024-05-17T13:22:31.911;539146365737260840;432903;447126;495416;173088;
2024-05-17T13:22:31.929;539146365755416860;432920;447082;495376;173025;
2024-05-17T13:22:31.947;539146365773572874;432815;447046;495309;173001;
2024-05-17T13:22:31.965;539146365791728888;432690;446927;495129;173019;
2024-05-17T13:22:31.983;539146365809884902;432536;446809;495022;173006;
2024-05-17T13:22:32.002;539146365828040916;432326;446635;494812;172966;
2024-05-17T13:22:32.020;539146365846196930;432216;446505;494567;172946;
2024-05-17T13:22:32.038;539146365864352944;431994;446299;494396;172984;
2024-05-17T13:22:32.056;539146365882508958;431862;446184;494264;172998;
2024-05-17T13:22:32.074;539146365900664972;431813;446158;494225;173084;
2024-05-17T13:22:32.092;539146365918820986;431747;446142;494150;172976;
2024-05-17T13:22:32.110;539146365936977000;431770;446165;494153;172989;
2024-05-17T13:22:32.129;539146365955133014;431878;446216;494219;173032;
2024-05-17T13:22:32.147;539146365973289028;431909;446216;494235;173022;
2024-05-17T13:22:32.165;539146365991445042;431910;446296;494303;172977;
2024-05-17T13:22:32.183;539146366009601056;432045;446331;494372;173014;
2024-05-17T13:22:32.201;539146366027757070;432051;446418;494412;172985;
2024-05-17T13:22:32.219;539146366045913084;432122;446433;494494;173022;
2024-05-17T13:22:32.238;539146366064069098;432130;446488;494483;173021;
2024-05-17T13:22:32.256;539146366082225112;432145;446511;494473;173016;
2024-05-17T13:22:32.274;539146366100381126;432128;446536;494472;173027;
2024-05-17T13:22:32.292;539146366118537140;432141;446530;494428;172993;
2024-05-17T13:22:32.310;539146366136693154;432131;446568;494497;173019;
2024-05-17T13:22:32.328;539146366154849168;432117;446537;494462;173055;
2024-05-17T13:22:32.346;539146366173005182;432236;446600;494568;173030;
2024-05-17T13:22:32.365;539146366191161196;432278;446680;494600;172994;
2024-05-17T13:22:32.383;539146366209317210;432334;446724;494619;173037;
2024-05-17T13:22:32.401;539146366227473224;432364;446812;494731;173002;
2024-05-17T13:22:32.419;539146366245629238;432408;446880;494780;172958;
2024-05-17T13:22:32.437;539146366263785252;432545;446929;494900;173007;
2024-05-17T13:22:32.455;539146366281941266;432582;446988;494970;173032;
2024-05-17T13:22:32.474;539146366300097280;432576;447022;495004;172991;
2024-05-17T13:22:32.492;539146366318253294;432568;447003;494873;172955;
2024-05-17T13:22:32.510;539146366336409308;432525;446914;494776;172991;
2024-05-17T13:22:32.528;539146366354565322;432376;446804;494612;172983;
2024-05-17T13:22:32.546;539146366372721336;432189;446640;494422;173021;
2024-05-17T13:22:32.564;539146366390877350;432019;446499;494240;173030;
2024-05-17T13:22:32.582;539146366409033364;431888;446380;494153;172996;
2024-05-17T13:22:32.601;539146366427189378;431759;446312;494085;172988;
2024-05-17T13:22:32.619;539146366445345392;431760;446220;493964;172981;
2024-05-17T13:22:32.637;539146366463501406;431717;446181;493902;172972;
2024-05-17T13:22:32.655;539146366481657420;431760;446245;493897;172966;
2024-05-17T13:22:32.673;539146366499815623;431818;446325;493987;172971;
2024-05-17T13:22:32.691;539146366517973796;431939;446402;494115;172987;
2024-05-17T13:22:32.710;539146366536131969;432040;446561;494207;172965;
2024-05-17T13:22:32.728;539146366554290142;432148;446647;494322;172983;
2024-05-17T13:22:32.746;539146366572448315;432228;446684;494364;173027;
2024-05-17T13:22:32.764;539146366590606488;432270;446783;494412;173034;
2024-05-17T13:22:32.782;539146366608764661;432347;446782;494480;172986;
2024-05-17T13:22:32.800;539146366626922834;432365;446879;494532;173000;
2024-05-17T13:22:32.819;539146366645081007;432411;446915;494509;173016;
2024-05-17T13:22:32.837;539146366663239180;432383;446877;494499;173014;
2024-05-17T13:22:32.855;539146366681397353;432449;446933;494522;173058;
2024-05-17T13:22:32.873;539146366699555526;432492;446992;494612;173044;
2024-05-17T13:22:32.891;539146366717713699;432504;447051;494622;173066;
2024-05-17T13:22:32.909;539146366735871872;432545;447089;494677;172967;
2024-05-17T13:22:32.927;539146366754030045;432593;447171;494788;173018;
2024-05-17T13:22:32.946;539146366772188218;432725;447247;494902;173066;
2024-05-17T13:22:32.964;539146366790346391;432768;447325;494975;173014;
2024-05-17T13:22:32.982;539146366808504564;432920;447481;495075;173014;
2024-05-17T13:22:33.000;539146366826662737;433054;447561;495176;173066;
2024-05-17T13:22:33.018;539146366844820910;432964;447544;495159;173030;
2024-05-17T13:22:33.036;539146366862979083;432970;447443;495054;173025;
2024-05-17T13:22:33.055;539146366881137256;432835;447337;494940;173027;
2024-05-17T13:22:33.073;539146366899295429;432680;447233;494751;173042;
2024-05-17T13:22:33.091;539146366917453602;432404;446929;494494;173021;
2024-05-17T13:22:33.109;539146366935611775;432222;446739;494280;173028;
2024-05-17T13:22:33.127;539146366953769948;431986;446527;493956;173006;
2024-05-17T13:22:33.145;539146366971928121;431855;446414;493798;173048;
2024-05-17T13:22:33.164;539146366990086294;431828;446421;493788;173065;
2024-05-17T13:22:33.182;539146367008244467;431740;446361;493735;173035;
2024-05-17T13:22:33.200;539146367026402640;431759;446346;493708;173020;
2024-05-17T13:22:33.218;539146367044560813;431860;446432;493752;173076;
2024-05-17T13:22:33.236;539146367062718986;431929;446457;493839;173034;
2024-05-17T13:22:33.254;539146367080877159;432030;446601;493939;173002;
2024-05-17T13:22:33.272;539146367099035332;432102;446665;493966;173042;
2024-05-17T13:22:33.291;539146367117193505;432130;446685;494011;172986;
2024-05-17T13:22:33.309;539146367135351678;432159;446709;494039;172972;
2024-05-17T13:22:33.327;539146367153509851;432142;446742;494027;173022;
2024-05-17T13:22:33.345;539146367171668024;432128;446720;493978;173031;
2024-05-17T13:22:33.363;539146367189826197;432184;446757;493989;173025;
2024-05-17T13:22:33.381;539146367207984370;432100;446642;493970;173000;
2024-05-17T13:22:33.400;539146367226142543;432039;446625;493934;172973;
2024-05-17T13:22:33.418;539146367244300716;432025;446630;493996;173013;
2024-05-17T13:22:33.436;539146367262458106;432005;446665;493974;173038;
2024-05-17T13:22:33.454;539146367280615480;432070;446708;493996;172998;
2024-05-17T13:22:33.472;539146367298772854;432130;446718;494084;173030;
2024-05-17T13:22:33.490;539146367316930228;432201;446740;494148;173024;
2024-05-17T13:22:33.509;539146367335087602;432265;446815;494145;173035;
2024-05-17T13:22:33.527;539146367353244976;432320;446860;494226;172997;
2024-05-17T13:22:33.545;539146367371402350;432385;446950;494258;173056;
2024-05-17T13:22:33.563;539146367389559724;432340;446958;494226;173033;
2024-05-17T13:22:33.581;539146367407717098;432266;446792;494139;172934;
2024-05-17T13:22:33.599;539146367425874472;432124;446653;493986;172948;
2024-05-17T13:22:33.617;539146367444031846;431964;446450;493744;172958;
2024-05-17T13:22:33.636;539146367462189220;431766;446277;493512;172970;
2024-05-17T13:22:33.654;539146367480346594;431453;446000;493166;172965;
2024-05-17T13:22:33.672;539146367498503968;431178;445772;492939;172990;
2024-05-17T13:22:33.690;539146367516661342;431085;445595;492789;172970;
2024-05-17T13:22:33.708;539146367534818716;430961;445524;492630;173053;
2024-05-17T13:22:33.726;539146367552976090;430892;445421;492563;173003;
2024-05-17T13:22:33.745;539146367571133464;430920;445442;492560;172999;
2024-05-17T13:22:33.763;539146367589290838;430859;445430;492521;172990;
2024-05-17T13:22:33.781;539146367607448212;431010;445446;492608;173025;
2024-05-17T13:22:33.799;539146367625605586;431081;445550;492704;172973;
2024-05-17T13:22:33.817;539146367643762960;431113;445594;492726;172975;
2024-05-17T13:22:33.835;539146367661920334;431192;445616;492833;172972;
2024-05-17T13:22:33.854;539146367680077708;431206;445592;492811;173003;
2024-05-17T13:22:33.872;539146367698235082;431183;445643;492812;172989;
2024-05-17T13:22:33.890;539146367716392456;431180;445614;492733;172980;
2024-05-17T13:22:33.908;539146367734549830;431149;445701;492796;173017;
2024-05-17T13:22:33.926;539146367752707204;431113;445570;492730;173030;
2024-05-17T13:22:33.944;539146367770864578;431080;445527;492631;173039;
2024-05-17T13:22:33.962;539146367789021952;430998;445588;492585;173052;
2024-05-17T13:22:33.981;539146367807179326;431075;445529;492636;173058;
2024-05-17T13:22:33.999;539146367825336700;431051;445510;492647;173004;
2024-05-17T13:22:34.017;539146367843494074;431037;445518;492594;172983;
2024-05-17T13:22:34.035;539146367861651448;431034;445554;492619;172967;
2024-05-17T13:22:34.053;539146367879808822;431045;445580;492658;172984;
2024-05-17T13:22:34.071;539146367897966196;431006;445576;492638;172979;
2024-05-17T13:22:34.090;539146367916123570;431111;445592;492713;173010;
2024-05-17T13:22:34.108;539146367934280944;430986;445542;492637;172941;
2024-05-17T13:22:34.126;539146367952438318;431001;445413;492536;172955;
2024-05-17T13:22:34.144;539146367970595692;430745;445206;492328;173006;
2024-05-17T13:22:34.162;539146367988753066;430486;444951;492019;172994;
2024-05-17T13:22:34.180;539146368006910440;430191;444656;491759;172971;
2024-05-17T13:22:34.199;539146368025067671;429951;444458;491455;172965;
2024-05-17T13:22:34.217;539146368043224900;429684;444096;491149;172979;
2024-05-17T13:22:34.235;539146368061382129;429467;443934;490973;173008;
2024-05-17T13:22:34.253;539146368079539358;429322;443747;490764;173014;
2024-05-17T13:22:34.271;539146368097696587;429260;443683;490598;173014;
2024-05-17T13:22:34.289;539146368115853816;429266;443697;490616;172993;
2024-05-17T13:22:34.307;539146368134011045;429271;443694;490629;172990;
2024-05-17T13:22:34.326;539146368152168274;429329;443753;490728;172967;
2024-05-17T13:22:34.344;539146368170325503;429431;443788;490795;173013;
2024-05-17T13:22:34.362;539146368188482732;429473;443831;490802;173020;
2024-05-17T13:22:34.380;539146368206639961;429505;443813;490869;172979;
2024-05-17T13:22:34.398;539146368224797190;429507;443844;490860;173024;
2024-05-17T13:22:34.416;539146368242954419;429608;443852;490917;173016;
2024-05-17T13:22:34.435;539146368261111648;429504;443783;490781;172971;
2024-05-17T13:22:34.453;539146368279268877;429452;443789;490763;173005;
2024-05-17T13:22:34.471;539146368297426106;429389;443694;490658;172999;
2024-05-17T13:22:34.489;539146368315583335;429382;443620;490600;173032;
2024-05-17T13:22:34.507;539146368333740564;429300;443575;490624;173027;
2024-05-17T13:22:34.525;539146368351897793;429198;443524;490513;172970;
2024-05-17T13:22:34.544;539146368370055022;429158;443460;490525;173008;
2024-05-17T13:22:34.562;539146368388212251;429238;443482;490455;172992;
2024-05-17T13:22:34.580;539146368406369480;429207;443416;490451;172985;
2024-05-17T13:22:34.598;539146368424526709;429270;443508;490543;173006;
2024-05-17T13:22:34.616;539146368442683938;429275;443580;490590;172988;
2024-05-17T13:22:34.634;539146368460841167;429250;443529;490559;172954;
2024-05-17T13:22:34.652;539146368478998396;429205;443480;490480;173059;
2024-05-17T13:22:34.671;539146368497155625;429011;443308;490290;172994;
2024-05-17T13:22:34.689;539146368515312854;428846;443010;489986;172977;
2024-05-17T13:22:34.707;539146368533470083;428638;442780;489732;172947;
2024-05-17T13:22:34.725;539146368551627312;428359;442526;489445;172973;
2024-05-17T13:22:34.743;539146368569784541;428103;442253;489187;172941;
2024-05-17T13:22:34.761;539146368587941770;427939;442073;488987;172982;
2024-05-17T13:22:34.780;539146368606098999;427768;441925;488891;173069;
2024-05-17T13:22:34.798;539146368624256228;427593;441743;488687;173052;
2024-05-17T13:22:34.816;539146368642413457;427583;441706;488627;172999;
2024-05-17T13:22:34.834;539146368660570686;427553;441676;488630;172969;
2024-05-17T13:22:34.852;539146368678727915;427633;441777;488755;173005;
2024-05-17T13:22:34.870;539146368696885144;427702;441773;488814;173017;
2024-05-17T13:22:34.889;539146368715042373;427735;441808;488814;173040;
2024-05-17T13:22:34.907;539146368733199602;427837;441837;488910;173031;
2024-05-17T13:22:34.925;539146368751356831;427879;441889;488914;173042;
2024-05-17T13:22:34.943;539146368769514060;427804;441868;488927;172948;
2024-05-17T13:22:34.961;539146368787669966;427797;441793;488894;172963;
2024-05-17T13:22:34.979;539146368805825833;427801;441770;488879;173034;
2024-05-17T13:22:34.997;539146368823981700;427783;441746;488896;173020;
2024-05-17T13:22:35.016;539146368842137567;427695;441671;488801;173007;
2024-05-17T13:22:35.034;539146368860293434;427736;441656;488766;173007;
2024-05-17T13:22:35.052;539146368878449301;427732;441626;488775;173014;
2024-05-17T13:22:35.070;539146368896605168;427691;441595;488734;172982;
2024-05-17T13:22:35.088;539146368914761035;427659;441570;488801;172945;
2024-05-17T13:22:35.106;539146368932916902;427668;441626;488798;172984;
2024-05-17T13:22:35.125;539146368951072769;427761;441692;488846;173037;
2024-05-17T13:22:35.143;539146368969228636;427795;441599;488854;173003;
2024-05-17T13:22:35.161;539146368987384503;427740;441512;488775;172980;
2024-05-17T13:22:35.179;539146369005540370;427545;441360;488589;172993;
2024-05-17T13:22:35.197;539146369023696237;427435;441144;488366;172987;
2024-05-17T13:22:35.215;539146369041852104;427153;440934;488121;172979;
2024-05-17T13:22:35.233;539146369060007971;426962;440610;487877;172970;
2024-05-17T13:22:35.252;539146369078163838;426713;440362;487587;173024;
2024-05-17T13:22:35.270;539146369096319705;426535;440170;487407;173016;
2024-05-17T13:22:35.288;539146369114475572;426321;439958;487199;172968;
2024-05-17T13:22:35.306;539146369132631439;426219;439814;487024;172926;
2024-05-17T13:22:35.324;539146369150787306;426155;439786;486977;172916;
2024-05-17T13:22:35.342;539146369168943173;426266;439855;487158;172991;
2024-05-17T13:22:35.361;539146369187099040;426286;439893;487140;172979;
2024-05-17T13:22:35.379;539146369205254907;426391;440007;487295;172972;
2024-05-17T13:22:35.397;539146369223410774;426550;440009;487398;172955;
2024-05-17T13:22:35.415;539146369241566641;426665;440125;487426;172976;
2024-05-17T13:22:35.433;539146369259722508;426723;440164;487465;173038;
2024-05-17T13:22:35.451;539146369277878375;426716;440157;487501;173010;
2024-05-17T13:22:35.469;539146369296034242;426705;440202;487524;172954;
2024-05-17T13:22:35.488;539146369314190109;426704;440202;487535;173019;
2024-05-17T13:22:35.506;539146369332345976;426738;440193;487497;173026;
2024-05-17T13:22:35.524;539146369350501843;426643;440110;487422;172994;
2024-05-17T13:22:35.542;539146369368657710;426562;440099;487442;172970;
2024-05-17T13:22:35.560;539146369386813577;426576;440043;487408;172954;
2024-05-17T13:22:35.578;539146369404969444;426596;440039;487400;173008;
2024-05-17T13:22:35.597;539146369423125311;426664;440118;487515;172960;
2024-05-17T13:22:35.615;539146369441281178;426742;440116;487558;172971;
2024-05-17T13:22:35.633;539146369459437045;426778;440212;487644;172977;
2024-05-17T13:22:35.651;539146369477592912;426780;440222;487552;173030;
2024-05-17T13:22:35.669;539146369495748779;426733;440129;487500;173069;
2024-05-17T13:22:35.687;539146369513904646;426570;439924;487370;173007;
2024-05-17T13:22:35.706;539146369532060513;426354;439638;487039;173019;
2024-05-17T13:22:35.724;539146369550216380;426080;439315;486675;172993;
2024-05-17T13:22:35.742;539146369568371923;425755;438966;486373;172980;
2024-05-17T13:22:35.760;539146369586527444;425473;438655;486114;172997;
2024-05-17T13:22:35.778;539146369604682965;425184;438474;485807;172987;
2024-05-17T13:22:35.796;539146369622838486;425087;438292;485601;173044;
2024-05-17T13:22:35.814;539146369640994007;424993;438135;485592;173016;
2024-05-17T13:22:35.833;539146369659149528;424946;438115;485526;172976;
2024-05-17T13:22:35.851;539146369677305049;424982;438184;485609;173024;
2024-05-17T13:22:35.869;539146369695460570;425115;438305;485685;173011;
2024-05-17T13:22:35.887;539146369713616091;425152;438361;485731;173020;
2024-05-17T13:22:35.905;539146369731771612;425244;438465;485875;173077;
2024-05-17T13:22:35.923;539146369749927133;425354;438466;485888;173011;
2024-05-17T13:22:35.942;539146369768082654;425351;438543;485952;173039;
2024-05-17T13:22:35.960;539146369786238175;425451;438548;486010;173014;
2024-05-17T13:22:35.978;539146369804393696;425399;438470;485958;172998;
2024-05-17T13:22:35.996;539146369822549217;425421;438415;485946;172979;
2024-05-17T13:22:36.014;539146369840704738;425419;438434;485948;173036;
2024-05-17T13:22:36.032;539146369858860259;425254;438337;485899;173007;
2024-05-17T13:22:36.050;539146369877015780;425250;438393;485873;173033;
2024-05-17T13:22:36.069;539146369895171301;425215;438358;485900;172977;
2024-05-17T13:22:36.087;539146369913326822;425270;438372;485934;172987;
2024-05-17T13:22:36.105;539146369931482343;425280;438398;485859;172998;
2024-05-17T13:22:36.123;539146369949637864;425396;438447;485977;172999;
2024-05-17T13:22:36.141;539146369967793385;425457;438565;486199;172994;
2024-05-17T13:22:36.159;539146369985948906;425516;438537;486221;172935;
2024-05-17T13:22:36.178;539146370004104427;425509;438500;486165;172993;
2024-05-17T13:22:36.196;539146370022259948;425429;438435;486032;173028;
2024-05-17T13:22:36.214;539146370040415469;425205;438229;485817;173010;
2024-05-17T13:22:36.232;539146370058570990;424873;437887;485520;172936;
2024-05-17T13:22:36.250;539146370076726511;424583;437649;485219;172990;
2024-05-17T13:22:36.268;539146370094882032;424340;437353;484933;173054;
2024-05-17T13:22:36.287;539146370113037553;424078;437073;484700;173036;
2024-05-17T13:22:36.305;539146370131193074;423923;436987;484503;172996;
2024-05-17T13:22:36.323;539146370149348595;423896;436894;484451;172966;
2024-05-17T13:22:36.341;539146370167504116;423881;436831;484358;172979;
2024-05-17T13:22:36.359;539146370185659637;423924;436923;484456;172984;
2024-05-17T13:22:36.377;539146370203815158;424026;437008;484622;173009;
2024-05-17T13:22:36.395;539146370221970679;424101;437094;484665;173008;
2024-05-17T13:22:36.414;539146370240126200;424234;437122;484830;173020;
2024-05-17T13:22:36.432;539146370258281721;424324;437271;484892;172987;
2024-05-17T13:22:36.450;539146370276437242;424324;437317;484920;172993;
2024-05-17T13:22:36.468;539146370294592763;424318;437304;484943;173016;
2024-05-17T13:22:36.486;539146370312748284;424286;437266;484956;172986;
2024-05-17T13:22:36.504;539146370330903550;424330;437271;485003;173024;
2024-05-17T13:22:36.523;539146370349058780;424291;437227;484971;172958;
2024-05-17T13:22:36.541;539146370367214010;424269;437290;484922;172957;
2024-05-17T13:22:36.559;539146370385369240;424304;437154;484913;172998;
2024-05-17T13:22:36.577;539146370403524470;424294;437223;484957;173003;
2024-05-17T13:22:36.595;539146370421679700;424320;437232;484991;172914;
2024-05-17T13:22:36.613;539146370439834930;424347;437416;485064;172988;
2024-05-17T13:22:36.631;539146370457990160;424450;437394;485144;172986;
2024-05-17T13:22:36.650;539146370476145390;424585;437572;485340;172985;
2024-05-17T13:22:36.668;539146370494300620;424656;437706;485400;172974;
2024-05-17T13:22:36.686;539146370512455850;424620;437658;485442;172994;
2024-05-17T13:22:36.704;539146370530611080;424540;437623;485336;173003;
2024-05-17T13:22:36.722;539146370548766310;424402;437348;485148;172991;
2024-05-17T13:22:36.740;539146370566921540;424148;437138;484877;173003;
2024-05-17T13:22:36.759;539146370585076770;423903;436908;484679;173005;
2024-05-17T13:22:36.777;539146370603232000;423691;436654;484447;173013;
2024-05-17T13:22:36.795;539146370621387230;423362;436396;484126;172942;
2024-05-17T13:22:36.813;539146370639542460;423208;436297;483994;172984;
2024-05-17T13:22:36.831;539146370657697690;423177;436153;483867;172948;
2024-05-17T13:22:36.849;539146370675852920;423105;436211;483851;172966;
2024-05-17T13:22:36.867;539146370694008150;423175;436281;483970;173044;
2024-05-17T13:22:36.886;539146370712163380;423222;436353;483984;173037;
2024-05-17T13:22:36.904;539146370730318610;423298;436400;484100;172959;
2024-05-17T13:22:36.922;539146370748473840;423418;436481;484148;172994;
2024-05-17T13:22:36.940;539146370766629070;423500;436588;484246;173016;
2024-05-17T13:22:36.958;539146370784784300;423600;436745;484336;173043;
2024-05-17T13:22:36.976;539146370802939530;423628;436725;484338;172983;
2024-05-17T13:22:36.995;539146370821094760;423554;436735;484305;173022;
2024-05-17T13:22:37.013;539146370839249990;423639;436732;484359;172996;
2024-05-17T13:22:37.031;539146370857405220;423598;436690;484338;172968;
2024-05-17T13:22:37.049;539146370875560450;423614;436699;484415;172964;
2024-05-17T13:22:37.067;539146370893715680;423653;436771;484404;173033;
2024-05-17T13:22:37.085;539146370911870910;423656;436790;484468;173019;
2024-05-17T13:22:37.103;539146370930026140;423653;436767;484452;172934;
2024-05-17T13:22:37.122;539146370948181370;423681;436904;484566;173053;
2024-05-17T13:22:37.140;539146370966336600;423768;436992;484614;172996;
2024-05-17T13:22:37.158;539146370984491830;423867;437045;484725;172987;
2024-05-17T13:22:37.176;539146371002647060;423898;437144;484832;172952;
2024-05-17T13:22:37.194;539146371020802290;423849;437139;484842;172985;
2024-05-17T13:22:37.212;539146371038957520;423884;437158;484828;172981;
2024-05-17T13:22:37.231;539146371057112750;423799;437086;484755;173014;
2024-05-17T13:22:37.249;539146371075267980;423638;436887;484513;172950;
2024-05-17T13:22:37.267;539146371093424173;423438;436761;484428;173037;
2024-05-17T13:22:37.285;539146371111580348;423190;436514;484136;172985;
2024-05-17T13:22:37.303;539146371129736523;423026;436367;483936;172983;
2024-05-17T13:22:37.321;539146371147892698;422973;436216;483805;173014;
2024-05-17T13:22:37.340;539146371166048873;422827;436156;483690;173013;
2024-05-17T13:22:37.358;539146371184205048;422844;436187;483697;173007;
2024-05-17T13:22:37.376;539146371202361223;422880;436176;483730;172956;
2024-05-17T13:22:37.394;539146371220517398;422935;436297;483804;172946;
2024-05-17T13:22:37.412;539146371238673573;423084;436348;483926;172989;
2024-05-17T13:22:37.430;539146371256829748;423224;436468;484105;172984;
2024-05-17T13:22:37.448;539146371274985923;423345;436618;484196;172942;
2024-05-17T13:22:37.467;539146371293142098;423460;436749;484291;172996;
2024-05-17T13:22:37.485;539146371311298273;423500;436818;484366;172980;
2024-05-17T13:22:37.503;539146371329454448;423565;436889;484452;173037;
2024-05-17T13:22:37.521;539146371347610623;423578;436888;484475;173024;
2024-05-17T13:22:37.539;539146371365766798;423596;436927;484590;173028;
2024-05-17T13:22:37.557;539146371383922973;423622;436973;484564;172989;
2024-05-17T13:22:37.576;539146371402079148;423624;437004;484611;173010;
2024-05-17T13:22:37.594;539146371420235323;423673;437062;484706;172986;
2024-05-17T13:22:37.612;539146371438391498;423745;437133;484773;172975;
2024-05-17T13:22:37.630;539146371456547673;423828;437265;484865;173024;
2024-05-17T13:22:37.648;539146371474703848;423880;437367;485001;172990;
2024-05-17T13:22:37.666;539146371492860023;424062;437491;485155;173058;
2024-05-17T13:22:37.684;539146371511016198;424145;437538;485296;172999;
2024-05-17T13:22:37.703;539146371529172373;424185;437610;485301;173048;
2024-05-17T13:22:37.721;539146371547328548;424247;437692;485332;173021;
2024-05-17T13:22:37.739;539146371565484723;424198;437605;485265;172958;
2024-05-17T13:22:37.757;539146371583640898;424106;437536;485204;173005;
2024-05-17T13:22:37.775;539146371601797073;423956;437393;485016;172981;
2024-05-17T13:22:37.793;539146371619953248;423808;437275;484858;172968;
2024-05-17T13:22:37.812;539146371638109423;423672;437185;484731;172954;
2024-05-17T13:22:37.830;539146371656265598;423648;437121;484671;172934;
2024-05-17T13:22:37.848;539146371674421773;423692;437177;484706;172994;
2024-05-17T13:22:37.866;539146371692577948;423676;437136;484756;172968;
2024-05-17T13:22:37.884;539146371710734123;423783;437308;484891;173010;
2024-05-17T13:22:37.902;539146371728890298;423959;437440;485023;172996;
2024-05-17T13:22:37.921;539146371747046473;424100;437638;485197;172987;
2024-05-17T13:22:37.939;539146371765202648;424297;437764;485354;173005;
2024-05-17T13:22:37.957;539146371783358823;424434;437936;485585;173019;
2024-05-17T13:22:37.975;539146371801514998;424527;438065;485681;173010;
2024-05-17T13:22:37.993;539146371819671173;424691;438206;485776;172998;
2024-05-17T13:22:38.011;539146371837827348;424794;438303;485894;172967;
2024-05-17T13:22:38.029;539146371855983820;424853;438376;485996;172974;
2024-05-17T13:22:38.048;539146371874140286;424934;438453;486056;173045;
2024-05-17T13:22:38.066;539146371892296752;425035;438554;486154;173043;
2024-05-17T13:22:38.084;539146371910453218;425125;438696;486269;173024;
2024-05-17T13:22:38.102;539146371928609684;425244;438810;486392;173015;
2024-05-17T13:22:38.120;539146371946766150;425319;438935;486589;172968;
2024-05-17T13:22:38.138;539146371964922616;425484;439134;486774;172998;
2024-05-17T13:22:38.157;539146371983079082;425673;439320;487003;173041;
