Phone timestamp;sensor timestamp [ns];channel 0;channel 1;channel 2;ambient
2024-05-17T13:10:03.440;539145617249969507;473648;491221;543003;173663;
2024-05-17T13:10:03.458;539145617268137562;473822;491916;543074;173640;
2024-05-17T13:10:03.476;539145617286305617;473967;492470;543211;173679;
2024-05-17T13:10:03.494;539145617304473672;474141;492890;543311;173672;
2024-05-17T13:10:03.512;539145617322641727;474400;493162;543463;173633;
2024-05-17T13:10:03.530;539145617340809782;474755;493422;543836;173656;
2024-05-17T13:10:03.549;539145617358977837;475177;493545;544320;173690;
2024-05-17T13:10:03.567;539145617377145892;475539;493413;544627;173684;
2024-05-17T13:10:03.585;539145617395313947;475888;493437;544950;173740;
2024-05-17T13:10:03.603;539145617413482002;476106;493595;545061;173667;
2024-05-17T13:10:03.621;539145617431650057;476319;493767;545114;173601;
2024-05-17T13:10:03.639;539145617449818112;476501;493922;545288;173694;
2024-05-17T13:10:03.658;539145617467986167;476592;494081;545376;173651;
2024-05-17T13:10:03.676;539145617486154222;476886;494305;545501;173715;
2024-05-17T13:10:03.694;539145617504322277;477059;494347;545464;173663;
2024-05-17T13:10:03.712;539145617522490332;477190;494432;545563;173684;
2024-05-17T13:10:03.730;539145617540658387;477190;494337;545609;173676;
2024-05-17T13:10:03.748;539145617558826442;477273;494289;545608;173625;
2024-05-17T13:10:03.767;539145617576994497;477337;494292;545613;173596;
2024-05-17T13:10:03.785;539145617595162552;477453;494322;545804;173614;
2024-05-17T13:10:03.803;539145617613330607;477459;494262;545888;173659;
2024-05-17T13:10:03.821;539145617631498662;477548;494217;545909;173579;
2024-05-17T13:10:03.839;539145617649666717;477738;494268;546149;173631;
2024-05-17T13:10:03.857;539145617667834772;477881;494017;546388;173630;
2024-05-17T13:10:03.876;539145617686002827;478002;493837;546669;173652;
2024-05-17T13:10:03.894;539145617704170882;478140;493726;546950;173614;
2024-05-17T13:10:03.912;539145617722338937;478335;493867;547243;173651;
2024-05-17T13:10:03.930;539145617740506992;478710;494151;547652;173670;
2024-05-17T13:10:03.948;539145617758675047;479027;494476;548028;173677;
2024-05-17T13:10:03.966;539145617776843102;479319;494793;548303;173691;
2024-05-17T13:10:03.985;539145617795011157;479662;495132;548721;173687;
2024-05-17T13:10:04.003;539145617813179212;479977;495343;548926;173703;
2024-05-17T13:10:04.021;539145617831347267;480300;495688;549146;173705;
2024-05-17T13:10:04.039;539145617849515322;480565;495938;549410;173603;
2024-05-17T13:10:04.057;539145617867683377;480887;496270;549721;173573;
2024-05-17T13:10:04.075;539145617885851432;481045;496578;549922;173633;
2024-05-17T13:10:04.094;539145617904019487;481259;496857;550030;173620;
2024-05-17T13:10:04.112;539145617922187572;481507;497236;549965;173597;
2024-05-17T13:10:04.130;539145617940355627;481542;497398;549964;173672;
2024-05-17T13:10:04.148;539145617958523682;481490;497373;549874;173638;
2024-05-17T13:10:04.166;539145617976691737;481355;497318;549713;173623;
2024-05-17T13:10:04.184;539145617994859792;481370;497382;549611;173650;
2024-05-17T13:10:04.203;539145618013027847;481452;497479;549646;173599;
2024-05-17T13:10:04.221;539145618031195902;481544;497544;549645;173663;
2024-05-17T13:10:04.239;539145618049363957;481748;497711;549789;173668;
2024-05-17T13:10:04.257;539145618067532012;481992;497850;550012;173647;
2024-05-17T13:10:04.275;539145618085700067;482256;498146;550319;173675;
2024-05-17T13:10:04.293;539145618103868122;482569;498399;550628;173665;
2024-05-17T13:10:04.312;539145618122036177;482854;498717;550916;173663;
2024-05-17T13:10:04.330;539145618140204232;483088;499001;551206;173672;
2024-05-17T13:10:04.348;539145618158372287;483296;499329;551404;173664;
2024-05-17T13:10:04.366;539145618176540342;483511;499633;551635;173741;
2024-05-17T13:10:04.384;539145618194708397;483658;499884;551726;173688;
2024-05-17T13:10:04.402;539145618212876452;483911;500387;551862;173750;
2024-05-17T13:10:04.421;539145618231044507;484124;500722;551973;173681;
2024-05-17T13:10:04.439;539145618249212562;484396;500993;552218;173696;
2024-05-17T13:10:04.457;539145618267380617;484607;501139;552376;173685;
2024-05-17T13:10:04.475;539145618285548672;484743;501190;552508;173671;
2024-05-17T13:10:04.493;539145618303716727;484855;501176;552703;173670;
2024-05-17T13:10:04.511;539145618321884782;484722;500975;552728;173617;
2024-05-17T13:10:04.530;539145618340052837;484728;500847;552834;173681;
2024-05-17T13:10:04.548;539145618358220892;484674;500694;552774;173650;
2024-05-17T13:10:04.566;539145618376388947;484643;500633;552705;173659;
2024-05-17T13:10:04.584;539145618394557002;484687;500730;552711;173664;
2024-05-17T13:10:04.602;539145618412725057;484702;500777;552662;173669;
2024-05-17T13:10:04.620;539145618430893112;484827;501018;552650;173622;
2024-05-17T13:10:04.639;539145618449061167;484968;501308;552770;173662;
2024-05-17T13:10:04.657;539145618467229222;485213;501625;552905;173639;
2024-05-17T13:10:04.675;539145618485397277;485301;501917;552975;173663;
2024-05-17T13:10:04.693;539145618503565332;485384;502192;553102;173662;
2024-05-17T13:10:04.711;539145618521733387;485281;502393;553192;173705;
2024-05-17T13:10:04.729;539145618539901442;485123;502547;553311;173693;
2024-05-17T13:10:04.748;539145618558069497;484944;502764;553441;173764;
2024-05-17T13:10:04.766;539145618576237552;484896;502876;553645;173737;
2024-05-17T13:10:04.784;539145618594405607;484821;502979;553889;173783;
2024-05-17T13:10:04.802;539145618612573662;484872;502854;554282;173835;
2024-05-17T13:10:04.820;539145618630741717;485136;502503;554630;173878;
2024-05-17T13:10:04.838;539145618648909772;485386;502074;554870;173911;
2024-05-17T13:10:04.857;539145618667077827;485553;501758;555188;173944;
2024-05-17T13:10:04.875;539145618685247438;485730;501403;555419;173948;
2024-05-17T13:10:04.893;539145618703417019;485901;501002;555544;173977;
2024-05-17T13:10:04.911;539145618721586600;486066;500556;555670;174035;
2024-05-17T13:10:04.929;539145618739756181;486120;500180;555654;174072;
2024-05-17T13:10:04.947;539145618757925762;486272;499834;555735;174058;
2024-05-17T13:10:04.966;539145618776095343;486550;499591;555744;174065;
2024-05-17T13:10:04.984;539145618794264924;486892;499377;555665;174120;
2024-05-17T13:10:05.002;539145618812434505;487314;499190;555711;174125;
2024-05-17T13:10:05.020;539145618830604086;487708;499201;555778;174091;
2024-05-17T13:10:05.038;539145618848773667;488172;499163;555822;174114;
2024-05-17T13:10:05.056;539145618866943248;488660;499234;555925;174112;
2024-05-17T13:10:05.075;539145618885112829;489088;499256;556111;174099;
2024-05-17T13:10:05.093;539145618903282410;489460;499368;556250;174060;
2024-05-17T13:10:05.111;539145618921451991;489770;499464;556498;174045;
2024-05-17T13:10:05.129;539145618939621572;490046;499713;556746;174078;
2024-05-17T13:10:05.147;539145618957791153;490356;499971;557020;174046;
2024-05-17T13:10:05.165;539145618975960734;490608;500154;557302;174001;
2024-05-17T13:10:05.184;539145618994130315;490822;500368;557432;174048;
2024-05-17T13:10:05.202;539145619012299896;491049;500550;557668;174057;
2024-05-17T13:10:05.220;539145619030469477;491232;500683;557814;174092;
2024-05-17T13:10:05.238;539145619048639058;491412;500796;558000;174040;
2024-05-17T13:10:05.256;539145619066808639;491581;500928;558167;173977;
2024-05-17T13:10:05.275;539145619084978220;491849;501093;558370;174045;
2024-05-17T13:10:05.293;539145619103147801;492109;501260;558532;174030;
2024-05-17T13:10:05.311;539145619121317382;492313;501376;558666;174049;
2024-05-17T13:10:05.329;539145619139486963;492648;501589;558853;174086;
2024-05-17T13:10:05.347;539145619157656544;492851;501629;558954;174009;
2024-05-17T13:10:05.365;539145619175826125;493154;501762;559101;174072;
2024-05-17T13:10:05.384;539145619193995706;493367;501727;559070;174067;
2024-05-17T13:10:05.402;539145619212165287;493483;501649;559055;174052;
2024-05-17T13:10:05.420;539145619230334868;493614;501676;559138;174072;
2024-05-17T13:10:05.438;539145619248504449;493700;501725;559136;174073;
2024-05-17T13:10:05.456;539145619266674030;493791;501694;559248;174120;
2024-05-17T13:10:05.474;539145619284843611;493861;501836;559363;174056;
2024-05-17T13:10:05.493;539145619303013192;493972;501908;559373;174020;
2024-05-17T13:10:05.511;539145619321182773;494045;501882;559482;174028;
2024-05-17T13:10:05.529;539145619339352354;494121;501979;559608;174010;
2024-05-17T13:10:05.547;539145619357521935;494158;501968;559714;174004;
2024-05-17T13:10:05.565;539145619375691516;494148;502104;559748;173991;
2024-05-17T13:10:05.583;539145619393861097;494170;502115;559795;173958;
2024-05-17T13:10:05.602;539145619412030678;494304;502280;560030;173999;
2024-05-17T13:10:05.620;539145619430200259;494328;502359;560197;173993;
2024-05-17T13:10:05.638;539145619448370772;494332;502470;560209;174056;
2024-05-17T13:10:05.656;539145619466541267;494389;502562;560310;174042;
2024-05-17T13:10:05.674;539145619484711762;494448;502673;560459;174049;
2024-05-17T13:10:05.692;539145619502882257;494523;502661;560438;174073;
2024-05-17T13:10:05.711;539145619521052752;494577;502698;560499;174020;
2024-05-17T13:10:05.729;539145619539223247;494763;502778;560566;174043;
2024-05-17T13:10:05.747;539145619557393742;494825;502814;560630;174046;
2024-05-17T13:10:05.765;539145619575564237;494833;502756;560582;173969;
2024-05-17T13:10:05.783;539145619593734732;494805;502709;560524;174029;
2024-05-17T13:10:05.801;539145619611905227;494756;502651;560390;173994;
2024-05-17T13:10:05.820;539145619630075722;494723;502464;560259;174012;
2024-05-17T13:10:05.838;539145619648246217;494663;502333;560191;173994;
2024-05-17T13:10:05.856;539145619666416712;494564;502214;560019;173953;
2024-05-17T13:10:05.874;539145619684587207;494576;502161;559928;173969;
2024-05-17T13:10:05.892;539145619702757702;494522;502112;559897;173979;
2024-05-17T13:10:05.910;539145619720928197;494383;502113;559962;173972;
2024-05-17T13:10:05.929;539145619739098692;494203;502209;559984;173947;
2024-05-17T13:10:05.947;539145619757269187;494059;502258;560087;173913;
2024-05-17T13:10:05.965;539145619775439682;493840;502340;560174;173910;
2024-05-17T13:10:05.983;539145619793610177;493646;502441;560181;173918;
2024-05-17T13:10:06.001;539145619811780672;493482;502631;560255;173901;
2024-05-17T13:10:06.019;539145619829951167;493235;502765;560283;173887;
2024-05-17T13:10:06.038;539145619848121662;493146;502856;560321;173873;
2024-05-17T13:10:06.056;539145619866292157;493022;503055;560444;173851;
2024-05-17T13:10:06.074;539145619884462652;492992;503238;560483;173842;
2024-05-17T13:10:06.092;539145619902633147;492990;503397;560528;173809;
2024-05-17T13:10:06.110;539145619920803642;493021;503511;560550;173849;
2024-05-17T13:10:06.129;539145619938974137;493034;503746;560598;173847;
2024-05-17T13:10:06.147;539145619957144632;493013;503907;560643;173807;
2024-05-17T13:10:06.165;539145619975315127;492976;503816;560481;173802;
2024-05-17T13:10:06.183;539145619993485622;492819;503587;560288;173794;
2024-05-17T13:10:06.201;539145620011656117;492577;503151;559965;173744;
2024-05-17T13:10:06.219;539145620029826612;492241;502624;559586;173762;
2024-05-17T13:10:06.238;539145620047997107;491813;502053;559134;173783;
2024-05-17T13:10:06.256;539145620066167602;491419;501502;558722;173775;
2024-05-17T13:10:06.274;539145620084338097;491008;500972;558322;173809;
2024-05-17T13:10:06.292;539145620102508592;490423;500345;558034;173805;
2024-05-17T13:10:06.310;539145620120679087;489835;499916;557783;173810;
2024-05-17T13:10:06.328;539145620138849582;489234;499535;557420;173754;
2024-05-17T13:10:06.347;539145620157017022;488783;499393;557179;173758;
2024-05-17T13:10:06.365;539145620175184460;488373;499131;556980;173765;
2024-05-17T13:10:06.383;539145620193351898;488093;499048;556745;173739;
2024-05-17T13:10:06.401;539145620211519336;487860;498933;556590;173784;
2024-05-17T13:10:06.419;539145620229686774;487501;498803;556365;173753;
2024-05-17T13:10:06.437;539145620247854212;487298;498635;556186;173752;
2024-05-17T13:10:06.456;539145620266021650;487070;498581;556013;173736;
2024-05-17T13:10:06.474;539145620284189088;486884;498539;555909;173768;
2024-05-17T13:10:06.492;539145620302356526;486675;498390;555751;173764;
2024-05-17T13:10:06.510;539145620320523964;486490;498308;555564;173782;
2024-05-17T13:10:06.528;539145620338691402;486242;498219;555430;173709;
2024-05-17T13:10:06.546;539145620356858840;486063;498173;555357;173732;
2024-05-17T13:10:06.565;539145620375026278;485849;498011;555248;173754;
2024-05-17T13:10:06.583;539145620393193716;485587;497884;555014;173713;
2024-05-17T13:10:06.601;539145620411361154;485246;497605;554627;173748;
2024-05-17T13:10:06.619;539145620429528592;484925;497368;554305;173736;
2024-05-17T13:10:06.637;539145620447696030;484579;497127;553914;173677;
2024-05-17T13:10:06.655;539145620465863468;484213;496888;553600;173720;
2024-05-17T13:10:06.674;539145620484030906;483954;496707;553392;173724;
2024-05-17T13:10:06.692;539145620502198344;483563;496484;553055;173643;
2024-05-17T13:10:06.710;539145620520365782;483366;496405;552903;173681;
2024-05-17T13:10:06.728;539145620538533220;483159;496274;552673;173690;
2024-05-17T13:10:06.746;539145620556700658;483047;496293;552614;173653;
2024-05-17T13:10:06.764;539145620574868096;482961;496208;552488;173688;
2024-05-17T13:10:06.783;539145620593035534;482828;496140;552437;173646;
2024-05-17T13:10:06.801;539145620611202972;482635;496056;552376;173624;
2024-05-17T13:10:06.819;539145620629370410;482506;495965;552263;173680;
2024-05-17T13:10:06.837;539145620647537848;482427;495936;552178;173685;
2024-05-17T13:10:06.855;539145620665705286;482277;495743;552029;173684;
2024-05-17T13:10:06.873;539145620683872724;482100;495704;551892;173671;
2024-05-17T13:10:06.892;539145620702040162;481976;495610;551753;173670;
2024-05-17T13:10:06.910;539145620720207600;481788;495502;551621;173658;
2024-05-17T13:10:06.928;539145620738375038;481666;495430;551496;173685;
2024-05-17T13:10:06.946;539145620756542476;481589;495371;551406;173658;
2024-05-17T13:10:06.964;539145620774709914;481501;495280;551342;173714;
2024-05-17T13:10:06.982;539145620792877352;481396;495167;551225;173622;
2024-05-17T13:10:07.001;539145620811044790;481152;494975;550984;173621;
2024-05-17T13:10:07.019;539145620829212228;480784;494735;550643;173630;
2024-05-17T13:10:07.037;539145620847379666;480537;494443;550329;173612;
2024-05-17T13:10:07.055;539145620865547104;480262;494168;550036;173616;
2024-05-17T13:10:07.073;539145620883714542;479964;493952;549755;173615;
2024-05-17T13:10:07.091;539145620901881980;479598;493732;549416;173620;
2024-05-17T13:10:07.110;539145620920051021;479431;493567;549175;173598;
2024-05-17T13:10:07.128;539145620938220023;479249;493472;549055;173612;
2024-05-17T13:10:07.146;539145620956389025;479121;493387;548995;173554;
2024-05-17T13:10:07.164;539145620974558027;479067;493408;548983;173594;
2024-05-17T13:10:07.182;539145620992727029;478996;493324;548971;173563;
2024-05-17T13:10:07.200;539145621010896031;479020;493318;548938;173617;
2024-05-17T13:10:07.219;539145621029065033;479024;493268;548935;173583;
2024-05-17T13:10:07.237;539145621047234035;479054;493273;548956;173549;
2024-05-17T13:10:07.255;539145621065403037;479109;493285;549017;173582;
2024-05-17T13:10:07.273;539145621083572039;479147;493427;549111;173590;
2024-05-17T13:10:07.291;539145621101741041;479050;493417;549174;173569;
2024-05-17T13:10:07.309;539145621119910043;478966;493481;549283;173639;
2024-05-17T13:10:07.328;539145621138079045;478822;493515;549216;173578;
2024-05-17T13:10:07.346;539145621156248047;478707;493570;549259;173605;
2024-05-17T13:10:07.364;539145621174417049;478609;493660;549180;173641;
2024-05-17T13:10:07.382;539145621192586051;478442;493632;549130;173577;
2024-05-17T13:10:07.400;539145621210755053;478272;493709;549163;173583;
2024-05-17T13:10:07.418;539145621228924055;478055;493774;549095;173608;
2024-05-17T13:10:07.437;539145621247093057;477818;493665;548895;173563;
2024-05-17T13:10:07.455;539145621265262059;477559;493575;548776;173674;
2024-05-17T13:10:07.473;539145621283431061;477244;493453;548518;173597;
2024-05-17T13:10:07.491;539145621301600063;476984;493441;548329;173549;
2024-05-17T13:10:07.509;539145621319769065;476705;493505;548196;173585;
2024-05-17T13:10:07.527;539145621337938067;476485;493483;548084;173549;
2024-05-17T13:10:07.546;539145621356107069;476248;493556;548090;173520;
2024-05-17T13:10:07.564;539145621374276071;476129;493740;548105;173547;
2024-05-17T13:10:07.582;539145621392445073;476062;493967;548242;173509;
2024-05-17T13:10:07.600;539145621410614075;476001;494202;548329;173514;
2024-05-17T13:10:07.618;539145621428783077;475971;494489;548439;173520;
2024-05-17T13:10:07.636;539145621446952079;475806;494737;548566;173498;
2024-05-17T13:10:07.655;539145621465121081;475878;495049;548640;173513;
2024-05-17T13:10:07.673;539145621483290083;475928;495382;548791;173512;
2024-05-17T13:10:07.691;539145621501459085;475925;495694;548842;173556;
2024-05-17T13:10:07.709;539145621519628087;475964;496054;548960;173527;
2024-05-17T13:10:07.727;539145621537797089;476049;496430;549103;173532;
2024-05-17T13:10:07.745;539145621555966091;476192;496864;549160;173561;
2024-05-17T13:10:07.764;539145621574135093;476369;497233;549179;173560;
2024-05-17T13:10:07.782;539145621592304095;476550;497596;549174;173504;
2024-05-17T13:10:07.800;539145621610473097;476855;498051;549193;173520;
2024-05-17T13:10:07.818;539145621628642099;477206;498505;549211;173519;
2024-05-17T13:10:07.836;539145621646811101;477582;499032;549272;173511;
2024-05-17T13:10:07.855;539145621664982278;478037;499462;549299;173533;
2024-05-17T13:10:07.873;539145621683153421;478356;499885;549285;173516;
2024-05-17T13:10:07.891;539145621701324564;478826;500299;549323;173582;
2024-05-17T13:10:07.909;539145621719495707;479141;500610;549312;173537;
2024-05-17T13:10:07.927;539145621737666850;479632;500991;549511;173569;
2024-05-17T13:10:07.945;539145621755837993;479925;501318;549554;173571;
2024-05-17T13:10:07.964;539145621774009136;480319;501529;549739;173580;
2024-05-17T13:10:07.982;539145621792180279;480609;501758;549992;173574;
2024-05-17T13:10:08.000;539145621810351422;480887;501495;550091;173512;
2024-05-17T13:10:08.018;539145621828522565;481269;501370;550331;173527;
2024-05-17T13:10:08.036;539145621846693708;481607;501319;550584;173555;
2024-05-17T13:10:08.054;539145621864864851;482021;501277;550839;173577;
2024-05-17T13:10:08.073;539145621883035994;482410;501406;551141;173580;
2024-05-17T13:10:08.091;539145621901207137;482676;501519;551371;173578;
2024-05-17T13:10:08.109;539145621919378280;483042;501676;551689;173602;
2024-05-17T13:10:08.127;539145621937549423;483279;501797;551827;173521;
2024-05-17T13:10:08.145;539145621955720566;483529;501916;552006;173576;
2024-05-17T13:10:08.163;539145621973891709;483847;502123;552225;173553;
2024-05-17T13:10:08.182;539145621992062852;484106;502309;552405;173509;
2024-05-17T13:10:08.200;539145622010233995;484357;502463;552531;173552;
2024-05-17T13:10:08.218;539145622028405138;484491;502601;552596;173495;
2024-05-17T13:10:08.236;539145622046576281;484542;502664;552634;173510;
2024-05-17T13:10:08.254;539145622064747424;484445;502569;552480;173510;
2024-05-17T13:10:08.272;539145622082918567;484332;502424;552263;173484;
2024-05-17T13:10:08.291;539145622101089710;484029;502195;551978;173500;
2024-05-17T13:10:08.309;539145622119260853;483785;502007;551708;173499;
2024-05-17T13:10:08.327;539145622137431996;483588;501652;551364;173518;
2024-05-17T13:10:08.345;539145622155603139;483412;501417;551197;173509;
2024-05-17T13:10:08.363;539145622173774282;483267;501239;551093;173491;
2024-05-17T13:10:08.381;539145622191945425;483227;501054;550948;173494;
2024-05-17T13:10:08.400;539145622210116568;483173;500877;550952;173535;
2024-05-17T13:10:08.418;539145622228287711;483212;500761;551060;173514;
2024-05-17T13:10:08.436;539145622246458854;483295;500688;551080;173557;
2024-05-17T13:10:08.454;539145622264629997;483330;500605;551143;173559;
2024-05-17T13:10:08.472;539145622282801140;483373;500600;551167;173533;
2024-05-17T13:10:08.491;539145622300972283;483473;500691;551299;173565;
2024-05-17T13:10:08.509;539145622319143426;483519;500653;551312;173492;
2024-05-17T13:10:08.527;539145622337314569;483627;500723;551381;173506;
2024-05-17T13:10:08.545;539145622355485712;483692;500779;551414;173520;
2024-05-17T13:10:08.563;539145622373656855;483745;500858;551517;173502;
2024-05-17T13:10:08.581;539145622391827998;483786;500799;551465;173468;
2024-05-17T13:10:08.600;539145622409999141;483895;500958;551591;173477;
2024-05-17T13:10:08.618;539145622428169566;483970;501092;551672;173491;
2024-05-17T13:10:08.636;539145622446339983;484026;501197;551676;173476;
2024-05-17T13:10:08.654;539145622464510400;484005;501182;551674;173542;
2024-05-17T13:10:08.672;539145622482680817;483837;500975;551358;173448;
2024-05-17T13:10:08.690;539145622500851234;483551;500804;551073;173514;
2024-05-17T13:10:08.709;539145622519021651;483336;500656;550820;173550;
2024-05-17T13:10:08.727;539145622537192068;483170;500422;550584;173493;
2024-05-17T13:10:08.745;539145622555362485;483024;500319;550364;173452;
2024-05-17T13:10:08.763;539145622573532902;482917;500297;550170;173514;
2024-05-17T13:10:08.781;539145622591703319;482787;500330;550018;173495;
2024-05-17T13:10:08.799;539145622609873736;482695;500358;549976;173532;
2024-05-17T13:10:08.818;539145622628044153;482625;500505;549935;173502;
2024-05-17T13:10:08.836;539145622646214570;482692;500658;549941;173501;
2024-05-17T13:10:08.854;539145622664384987;482740;500790;549979;173497;
2024-05-17T13:10:08.872;539145622682555404;482643;500824;549979;173536;
2024-05-17T13:10:08.890;539145622700725821;482624;500825;549980;173504;
2024-05-17T13:10:08.908;539145622718896238;482534;500731;549911;173513;
2024-05-17T13:10:08.927;539145622737066655;482437;500740;549809;173454;
2024-05-17T13:10:08.945;539145622755237072;482366;500650;549695;173485;
2024-05-17T13:10:08.963;539145622773407489;482207;500540;549537;173515;
2024-05-17T13:10:08.981;539145622791577906;482123;500461;549404;173525;
2024-05-17T13:10:08.999;539145622809748323;482023;500267;549303;173510;
2024-05-17T13:10:09.017;539145622827918740;481952;500201;549141;173492;
2024-05-17T13:10:09.036;539145622846089157;481914;500111;549099;173486;
2024-05-17T13:10:09.054;539145622864259574;481906;500069;548934;173500;
2024-05-17T13:10:09.072;539145622882429991;481714;499823;548823;173435;
2024-05-17T13:10:09.090;539145622900600408;481480;499649;548568;173431;
2024-05-17T13:10:09.108;539145622918770825;481187;499292;548231;173427;
2024-05-17T13:10:09.126;539145622936941242;480879;499016;547913;173474;
2024-05-17T13:10:09.145;539145622955111659;480677;498884;547663;173528;
2024-05-17T13:10:09.163;539145622973282076;480499;498883;547425;173561;
2024-05-17T13:10:09.181;539145622991452493;480264;498910;547187;173486;
2024-05-17T13:10:09.199;539145623009622910;480210;498829;547058;173445;
2024-05-17T13:10:09.217;539145623027793327;480193;498933;547154;173503;
2024-05-17T13:10:09.235;539145623045963744;480210;498947;547153;173464;
2024-05-17T13:10:09.254;539145623064134161;480255;498920;547233;173449;
2024-05-17T13:10:09.272;539145623082304578;480277;498908;547263;173505;
2024-05-17T13:10:09.290;539145623100474995;480333;498942;547355;173516;
2024-05-17T13:10:09.308;539145623118645412;480460;499040;547514;173554;
2024-05-17T13:10:09.326;539145623136815829;480483;499040;547606;173515;
2024-05-17T13:10:09.345;539145623154986246;480551;499076;547627;173484;
2024-05-17T13:10:09.363;539145623173156663;480608;499136;547640;173448;
2024-05-17T13:10:09.381;539145623191327626;480703;499235;547616;173511;
2024-05-17T13:10:09.399;539145623209498577;480827;499403;547767;173533;
2024-05-17T13:10:09.417;539145623227669528;480882;499492;547871;173521;
2024-05-17T13:10:09.435;539145623245840479;481012;499566;548038;173559;
2024-05-17T13:10:09.454;539145623264011430;481087;499540;548048;173545;
2024-05-17T13:10:09.472;539145623282182381;481107;499544;548123;173525;
2024-05-17T13:10:09.490;539145623300353332;480992;499322;548069;173516;
2024-05-17T13:10:09.508;539145623318524283;480810;499040;548049;173519;
2024-05-17T13:10:09.526;539145623336695234;480510;498646;547831;173488;
2024-05-17T13:10:09.544;539145623354866185;480266;498266;547679;173544;
2024-05-17T13:10:09.563;539145623373037136;480023;497870;547445;173536;
2024-05-17T13:10:09.581;539145623391208087;479969;497680;547257;173516;
2024-05-17T13:10:09.599;539145623409379038;480078;497808;547251;173484;
2024-05-17T13:10:09.617;539145623427549989;480306;497938;547256;173511;
2024-05-17T13:10:09.635;539145623445720940;480553;498181;547365;173548;
2024-05-17T13:10:09.653;539145623463891891;480831;498381;547480;173532;
2024-05-17T13:10:09.672;539145623482062842;481097;498669;547685;173531;
2024-05-17T13:10:09.690;539145623500233793;481433;498966;547905;173512;
2024-05-17T13:10:09.708;539145623518404744;481717;499217;548162;173496;
2024-05-17T13:10:09.726;539145623536575695;481902;499510;548414;173567;
2024-05-17T13:10:09.744;539145623554746646;482176;499715;548569;173589;
2024-05-17T13:10:09.762;539145623572917597;482487;500069;548743;173610;
2024-05-17T13:10:09.781;539145623591088548;482723;500241;548907;173583;
2024-05-17T13:10:09.799;539145623609259499;482949;500405;549028;173613;
2024-05-17T13:10:09.817;539145623627430450;482958;500403;549202;173643;
2024-05-17T13:10:09.835;539145623645601401;482903;500355;549331;173601;
2024-05-17T13:10:09.853;539145623663772352;482821;500297;549334;173589;
2024-05-17T13:10:09.871;539145623681943303;482744;500219;549440;173550;
2024-05-17T13:10:09.890;539145623700114254;482734;500187;549355;173585;
2024-05-17T13:10:09.908;539145623718285205;482785;500162;549185;173568;
2024-05-17T13:10:09.926;539145623736456156;482871;500227;549081;173539;
2024-05-17T13:10:09.944;539145623754627107;483101;500294;548861;173622;
2024-05-17T13:10:09.962;539145623772798058;483429;500505;548636;173666;
2024-05-17T13:10:09.980;539145623790969009;483843;500708;548457;173658;
2024-05-17T13:10:09.999;539145623809139960;484277;501001;548460;173610;
2024-05-17T13:10:10.017;539145623827310911;484859;501371;548502;173734;
2024-05-17T13:10:10.035;539145623845481862;485530;501827;548653;173709;
2024-05-17T13:10:10.053;539145623863652813;486113;502288;548940;173719;
2024-05-17T13:10:10.071;539145623881823764;486669;502599;549219;173705;
2024-05-17T13:10:10.090;539145623899994715;487264;503118;549620;173697;
2024-05-17T13:10:10.108;539145623918165430;487919;503762;549986;173689;
2024-05-17T13:10:10.126;539145623936336124;488518;504341;550502;173719;
2024-05-17T13:10:10.144;539145623954506818;489053;504715;550959;173728;
2024-05-17T13:10:10.162;539145623972677512;489518;505073;551222;173714;
2024-05-17T13:10:10.180;539145623990848206;489813;505193;551482;173713;
2024-05-17T13:10:10.199;539145624009018900;489876;505106;551748;173650;
2024-05-17T13:10:10.217;539145624027189594;489777;505074;551949;173646;
2024-05-17T13:10:10.235;539145624045360288;489442;505058;552177;173622;
2024-05-17T13:10:10.253;539145624063530982;489037;504679;552415;173630;
2024-05-17T13:10:10.271;539145624081701676;488385;504126;552706;173608;
2024-05-17T13:10:10.289;539145624099872370;487742;503422;552651;173604;
2024-05-17T13:10:10.308;539145624118043064;487110;502700;552456;173594;
2024-05-17T13:10:10.326;539145624136213758;486733;502170;552321;173577;
2024-05-17T13:10:10.344;539145624154384452;486438;501832;552181;173567;
2024-05-17T13:10:10.362;539145624172555146;486217;501547;552099;173551;
2024-05-17T13:10:10.380;539145624190725840;486103;501470;552038;173567;
2024-05-17T13:10:10.398;539145624208896534;486208;501767;551999;173569;
2024-05-17T13:10:10.417;539145624227067228;486685;502466;552054;173616;
2024-05-17T13:10:10.435;539145624245237922;487153;502960;552185;173654;
2024-05-17T13:10:10.453;539145624263408616;487514;503214;552443;173637;
2024-05-17T13:10:10.471;539145624281579310;487725;503261;552611;173646;
2024-05-17T13:10:10.489;539145624299750004;487846;503265;552786;173638;
2024-05-17T13:10:10.507;539145624317920698;487977;503077;552915;173660;
2024-05-17T13:10:10.526;539145624336091392;487885;502857;552921;173686;
2024-05-17T13:10:10.544;539145624354262086;487877;502789;553073;173657;
2024-05-17T13:10:10.562;539145624372432780;487820;502612;553214;173674;
2024-05-17T13:10:10.580;539145624390603474;487731;502414;553191;173656;
2024-05-17T13:10:10.598;539145624408774168;487607;502299;553325;173688;
2024-05-17T13:10:10.616;539145624426944862;487465;502311;553280;173668;
2024-05-17T13:10:10.635;539145624445115556;487552;502778;553299;173665;
2024-05-17T13:10:10.653;539145624463286250;487741;503215;553259;173686;
2024-05-17T13:10:10.671;539145624481456944;487866;503602;553333;173722;
2024-05-17T13:10:10.689;539145624499627638;487959;504014;553237;173703;
2024-05-17T13:10:10.707;539145624517797252;487962;504227;553152;173700;
2024-05-17T13:10:10.725;539145624535966866;487931;504379;553003;173743;
2024-05-17T13:10:10.744;539145624554136480;487865;504361;552876;173718;
2024-05-17T13:10:10.762;539145624572306094;487610;504108;552693;173658;
2024-05-17T13:10:10.780;539145624590475708;487400;503850;552509;173682;
2024-05-17T13:10:10.798;539145624608645322;487322;503711;552304;173706;
2024-05-17T13:10:10.816;539145624626814936;487297;503687;552142;173664;
2024-05-17T13:10:10.835;539145624644984550;487336;503667;552094;173686;
2024-05-17T13:10:10.853;539145624663154164;487562;503853;552143;173656;
2024-05-17T13:10:10.871;539145624681323778;487919;504115;552201;173700;
2024-05-17T13:10:10.889;539145624699493392;488267;504381;552451;173675;
2024-05-17T13:10:10.907;539145624717663006;488623;504635;552647;173632;
2024-05-17T13:10:10.925;539145624735832620;489023;504969;552837;173703;
2024-05-17T13:10:10.944;539145624754002234;489424;505211;552979;173711;
2024-05-17T13:10:10.962;539145624772171848;489798;505533;553179;173671;
2024-05-17T13:10:10.980;539145624790341462;490251;505837;553427;173671;
2024-05-17T13:10:10.998;539145624808511076;490652;506154;553669;173646;
2024-05-17T13:10:11.016;539145624826680690;491036;506443;553934;173715;
2024-05-17T13:10:11.034;539145624844850304;491277;506716;553949;173684;
2024-05-17T13:10:11.053;539145624863019918;491698;506992;554280;173739;
2024-05-17T13:10:11.071;539145624881189532;492131;507307;554571;173693;
2024-05-17T13:10:11.089;539145624899359146;492641;507717;554886;173748;
2024-05-17T13:10:11.107;539145624917528760;493170;508279;554857;173736;
2024-05-17T13:10:11.125;539145624935698374;493481;508671;554902;173739;
2024-05-17T13:10:11.143;539145624953867988;493684;508969;554925;173711;
2024-05-17T13:10:11.162;539145624972037602;493816;509203;554948;173745;
2024-05-17T13:10:11.180;539145624990207216;493817;509276;555199;173753;
2024-05-17T13:10:11.198;539145625008376830;493636;509166;555440;173713;
2024-05-17T13:10:11.216;539145625026546444;493413;508988;555445;173647;
2024-05-17T13:10:11.234;539145625044716058;493131;508781;555443;173596;
2024-05-17T13:10:11.252;539145625062885672;492795;508428;555570;173539;
2024-05-17T13:10:11.271;539145625081055286;492460;507889;555711;173561;
2024-05-17T13:10:11.289;539145625099224900;492010;507212;555647;173529;
2024-05-17T13:10:11.307;539145625117394514;491576;506514;555628;173543;
2024-05-17T13:10:11.325;539145625135564128;491004;505671;555501;173540;
2024-05-17T13:10:11.343;539145625153733742;490649;505097;555564;173566;
2024-05-17T13:10:11.361;539145625171903356;490399;504807;555646;173596;
2024-05-17T13:10:11.380;539145625190072970;490334;504658;555752;173583;
2024-05-17T13:10:11.398;539145625208241759;490299;504680;555848;173543;
2024-05-17T13:10:11.416;539145625226410526;490380;504932;555966;173597;
2024-05-17T13:10:11.434;539145625244579293;490572;505497;556063;173638;
2024-05-17T13:10:11.452;539145625262748060;490694;505948;556173;173636;
2024-05-17T13:10:11.470;539145625280916827;490822;506300;556258;173619;
2024-05-17T13:10:11.489;539145625299085594;490827;506538;556319;173703;
2024-05-17T13:10:11.507;539145625317254361;490749;506609;556126;173624;
2024-05-17T13:10:11.525;539145625335423128;490588;506563;556035;173739;
2024-05-17T13:10:11.543;539145625353591895;490366;506383;555811;173723;
2024-05-17T13:10:11.561;539145625371760662;490128;506264;555491;173728;
2024-05-17T13:10:11.579;539145625389929429;489822;506005;555101;173703;
2024-05-17T13:10:11.598;539145625408098196;489536;505883;554688;173755;
2024-05-17T13:10:11.616;539145625426266963;489329;505813;554380;173757;
2024-05-17T13:10:11.634;539145625444435730;489126;505853;554182;173720;
2024-05-17T13:10:11.652;539145625462604497;489015;505981;554015;173789;
2024-05-17T13:10:11.670;539145625480773264;488862;506003;553919;173785;
2024-05-17T13:10:11.688;539145625498942031;488883;505954;553860;173735;
2024-05-17T13:10:11.707;539145625517110798;488825;506043;553814;173757;
2024-05-17T13:10:11.725;539145625535279565;488779;506013;553795;173759;
2024-05-17T13:10:11.743;539145625553448332;488691;506053;553774;173728;
2024-05-17T13:10:11.761;539145625571617099;488630;506028;553818;173765;
2024-05-17T13:10:11.779;539145625589785866;488587;505998;553861;173777;
2024-05-17T13:10:11.797;539145625607954633;488484;505961;553878;173792;
2024-05-17T13:10:11.816;539145625626123400;488321;505809;553856;173833;
2024-05-17T13:10:11.834;539145625644292167;488154;505653;553851;173764;
2024-05-17T13:10:11.852;539145625662460934;487993;505399;553860;173759;
2024-05-17T13:10:11.870;539145625680629701;488013;505230;553845;173764;
2024-05-17T13:10:11.888;539145625698798468;487828;505132;553805;173791;
2024-05-17T13:10:11.906;539145625716967235;487732;504993;553845;173817;
2024-05-17T13:10:11.925;539145625735136002;487685;504791;553734;173781;
2024-05-17T13:10:11.943;539145625753304769;487504;504386;553582;173792;
2024-05-17T13:10:11.961;539145625771473536;487248;503967;553384;173816;
2024-05-17T13:10:11.979;539145625789642303;487056;503614;553038;173785;
2024-05-17T13:10:11.997;539145625807811070;486817;503335;552837;173768;
2024-05-17T13:10:12.016;539145625825979837;486657;503139;552684;173843;
2024-05-17T13:10:12.034;539145625844148604;486546;502991;552680;173816;
2024-05-17T13:10:12.052;539145625862317371;486530;502883;552632;173801;
2024-05-17T13:10:12.070;539145625880486274;486549;502957;552598;173785;
2024-05-17T13:10:12.088;539145625898655165;486513;503030;552637;173787;
2024-05-17T13:10:12.106;539145625916824056;486688;503134;552702;173811;
2024-05-17T13:10:12.125;539145625934992947;486915;503346;552904;173830;
2024-05-17T13:10:12.143;539145625953161838;487008;503532;553015;173826;
2024-05-17T13:10:12.161;539145625971330729;487107;503611;553126;173774;
2024-05-17T13:10:12.179;539145625989499620;487285;503677;553184;173810;
2024-05-17T13:10:12.197;539145626007668511;487378;503726;553265;173815;
2024-05-17T13:10:12.215;539145626025837402;487469;503816;553295;173799;
2024-05-17T13:10:12.234;539145626044006293;487574;503815;553406;173810;
2024-05-17T13:10:12.252;539145626062175184;487579;503755;553360;173783;
2024-05-17T13:10:12.270;539145626080344075;487563;503829;553358;173793;
2024-05-17T13:10:12.288;539145626098512966;487591;503779;553388;173768;
2024-05-17T13:10:12.306;539145626116681857;487524;503670;553311;173750;
2024-05-17T13:10:12.324;539145626134850748;487397;503450;553302;173762;
2024-05-17T13:10:12.343;539145626153019639;487280;503113;553065;173736;
2024-05-17T13:10:12.361;539145626171188530;487171;502857;552860;173739;
2024-05-17T13:10:12.379;539145626189357421;486884;502483;552545;173720;
2024-05-17T13:10:12.397;539145626207526312;486777;502285;552317;173761;
2024-05-17T13:10:12.415;539145626225695203;486703;502186;552246;173803;
2024-05-17T13:10:12.433;539145626243864094;486610;502122;552123;173773;
2024-05-17T13:10:12.452;539145626262032985;486442;502030;552137;173744;
2024-05-17T13:10:12.470;539145626280201876;486620;502064;552172;173784;
2024-05-17T13:10:12.488;539145626298370767;486752;502102;552263;173759;
2024-05-17T13:10:12.506;539145626316539658;486750;502243;552305;173753;
2024-05-17T13:10:12.524;539145626334708549;486880;502146;552358;173762;
2024-05-17T13:10:12.542;539145626352877440;486966;502185;552420;173755;
2024-05-17T13:10:12.561;539145626371046331;487078;502241;552530;173754;
2024-05-17T13:10:12.579;539145626389215222;487151;502390;552539;173824;
2024-05-17T13:10:12.597;539145626407384113;487261;502608;552593;173809;
2024-05-17T13:10:12.615;539145626425553004;487343;502742;552657;173761;
2024-05-17T13:10:12.633;539145626443721895;487500;502780;552729;173774;
2024-05-17T13:10:12.651;539145626461890786;487540;502786;552762;173782;
2024-05-17T13:10:12.670;539145626480059677;487554;502699;552854;173839;
2024-05-17T13:10:12.688;539145626498228568;487564;502763;552935;173841;
2024-05-17T13:10:12.706;539145626516397459;487629;502742;553035;173777;
2024-05-17T13:10:12.724;539145626534566350;487502;502546;552940;173725;
2024-05-17T13:10:12.742;539145626552735241;487342;502221;552712;173795;
2024-05-17T13:10:12.760;539145626570904132;486986;501761;552352;173742;
2024-05-17T13:10:12.779;539145626589073023;486720;501497;552117;173721;
2024-05-17T13:10:12.797;539145626607243448;486521;501289;551796;173768;
2024-05-17T13:10:12.815;539145626625413865;486353;501190;551594;173719;
2024-05-17T13:10:12.833;539145626643584282;486289;501155;551490;173738;
2024-05-17T13:10:12.851;539145626661754699;486431;501387;551453;173754;
2024-05-17T13:10:12.869;539145626679925116;486670;502018;551556;173697;
2024-05-17T13:10:12.888;539145626698095533;486964;502565;551631;173713;
2024-05-17T13:10:12.906;539145626716265950;487117;503041;551726;173697;
2024-05-17T13:10:12.924;539145626734436367;487213;503518;551781;173709;
2024-05-17T13:10:12.942;539145626752606784;487168;503878;551829;173725;
2024-05-17T13:10:12.960;539145626770777201;487107;504165;551789;173648;
2024-05-17T13:10:12.978;539145626788947618;487148;504429;551809;173723;
2024-05-17T13:10:12.997;539145626807118035;487178;504643;551870;173718;
2024-05-17T13:10:13.015;539145626825288452;487174;504816;551920;173705;
2024-05-17T13:10:13.033;539145626843458869;487181;504737;551952;173720;
2024-05-17T13:10:13.051;539145626861629286;487012;504668;552061;173679;
2024-05-17T13:10:13.069;539145626879799703;486670;504407;552069;173629;
2024-05-17T13:10:13.088;539145626897970120;486384;504184;552029;173642;
2024-05-17T13:10:13.106;539145626916140537;486175;504027;551914;173621;
2024-05-17T13:10:13.124;539145626934310954;485997;503798;551658;173594;
2024-05-17T13:10:13.142;539145626952481371;485735;503546;551345;173645;
2024-05-17T13:10:13.160;539145626970651788;485491;503157;551041;173573;
2024-05-17T13:10:13.178;539145626988822205;485218;502719;550712;173600;
2024-05-17T13:10:13.197;539145627006992622;484833;502247;550540;173579;
2024-05-17T13:10:13.215;539145627025163039;484599;501864;550342;173549;
2024-05-17T13:10:13.233;539145627043333456;484458;501646;550219;173585;
2024-05-17T13:10:13.251;539145627061503873;484408;501597;550103;173566;
2024-05-17T13:10:13.269;539145627079674290;484691;501865;550186;173608;
2024-05-17T13:10:13.287;539145627097844707;485070;502237;550238;173553;
2024-05-17T13:10:13.306;539145627116015124;485588;502630;550555;173611;
2024-05-17T13:10:13.324;539145627134185541;486068;503122;550805;173652;
2024-05-17T13:10:13.342;539145627152355958;486743;503731;551093;173704;
2024-05-17T13:10:13.360;539145627170526375;487484;504472;551357;173706;
2024-05-17T13:10:13.378;539145627188696792;488101;505160;551504;173740;
2024-05-17T13:10:13.396;539145627206867209;488808;505793;551900;173801;
2024-05-17T13:10:13.415;539145627225037626;489338;506173;552224;173861;
2024-05-17T13:10:13.433;539145627243206086;489824;506611;552513;173894;
2024-05-17T13:10:13.451;539145627261374528;490079;506932;552896;173835;
2024-05-17T13:10:13.469;539145627279542970;490336;507238;553156;173939;
2024-05-17T13:10:13.487;539145627297711412;490660;507568;553428;173908;
2024-05-17T13:10:13.505;539145627315879854;490953;507793;553807;173921;
2024-05-17T13:10:13.524;539145627334048296;491112;507824;553997;173885;
2024-05-17T13:10:13.542;539145627352216738;491157;507905;554157;173864;
2024-05-17T13:10:13.560;539145627370385180;491362;507968;554174;173880;
2024-05-17T13:10:13.578;539145627388553622;491511;508076;554165;173878;
2024-05-17T13:10:13.596;539145627406722064;491563;508168;554008;173843;
2024-05-17T13:10:13.614;539145627424890506;491614;508386;553954;173833;
2024-05-17T13:10:13.633;539145627443058948;491718;508622;554000;173868;
2024-05-17T13:10:13.651;539145627461227390;491919;509072;553889;173881;
2024-05-17T13:10:13.669;539145627479395832;492239;509779;553930;173943;
2024-05-17T13:10:13.687;539145627497564274;492782;510627;554027;173983;
2024-05-17T13:10:13.705;539145627515732716;493488;511840;554318;173993;
2024-05-17T13:10:13.723;539145627533901158;494272;513260;554658;174102;
2024-05-17T13:10:13.742;539145627552069600;494994;514746;555158;174163;
2024-05-17T13:10:13.760;539145627570238042;495820;516296;555526;174150;
2024-05-17T13:10:13.778;539145627588406484;496646;517787;556170;174134;
2024-05-17T13:10:13.796;539145627606574926;497685;519094;556920;174264;
2024-05-17T13:10:13.814;539145627624743368;498853;520178;557794;174242;
2024-05-17T13:10:13.832;539145627642911810;500004;521247;558594;174265;
2024-05-17T13:10:13.851;539145627661080252;501241;522216;559340;174242;
2024-05-17T13:10:13.869;539145627679248694;502398;523064;560072;174242;
2024-05-17T13:10:13.887;539145627697417136;503433;523815;560776;174164;
2024-05-17T13:10:13.905;539145627715585578;504251;524306;561357;174103;
2024-05-17T13:10:13.923;539145627733754020;504927;524751;561885;174063;
2024-05-17T13:10:13.941;539145627751922462;505161;524935;562217;174055;
2024-05-17T13:10:13.960;539145627770090904;505125;524898;562339;173952;
2024-05-17T13:10:13.978;539145627788259346;504880;524676;562292;173904;
2024-05-17T13:10:13.996;539145627806427788;504519;524238;562087;173945;
2024-05-17T13:10:14.014;539145627824596230;504073;523479;561913;173915;
2024-05-17T13:10:14.032;539145627842764672;503408;522219;561672;173952;
2024-05-17T13:10:14.050;539145627860932197;502583;520421;561347;173850;
2024-05-17T13:10:14.069;539145627879099720;501719;518501;560938;173893;
2024-05-17T13:10:14.087;539145627897267243;500784;516620;560506;173852;
2024-05-17T13:10:14.105;539145627915434766;499740;514487;560013;173876;
2024-05-17T13:10:14.123;539145627933602289;498894;512672;559582;173894;
2024-05-17T13:10:14.141;539145627951769812;498617;511670;559568;173880;
2024-05-17T13:10:14.159;539145627969937335;498614;511207;559651;173805;
2024-05-17T13:10:14.178;539145627988104858;498746;510892;559689;173873;
2024-05-17T13:10:14.196;539145628006272381;498839;510548;559664;173792;
2024-05-17T13:10:14.214;539145628024439904;499133;510351;559660;173836;
2024-05-17T13:10:14.232;539145628042607427;499355;510148;559573;173819;
2024-05-17T13:10:14.250;539145628060774950;499585;509873;559483;173757;
2024-05-17T13:10:14.268;539145628078942473;499781;509509;559507;173715;
2024-05-17T13:10:14.287;539145628097109996;499917;509205;559450;173707;
2024-05-17T13:10:14.305;539145628115277519;500039;508987;559397;173623;
2024-05-17T13:10:14.323;539145628133445042;500215;508923;559463;173513;
2024-05-17T13:10:14.341;539145628151612565;500172;508714;559401;173505;
2024-05-17T13:10:14.359;539145628169780088;499900;508272;559242;173481;
2024-05-17T13:10:14.377;539145628187947611;499724;507876;558978;173401;
2024-05-17T13:10:14.396;539145628206115134;499470;507442;558660;173401;
2024-05-17T13:10:14.414;539145628224282657;499186;507001;558399;173252;
2024-05-17T13:10:14.432;539145628242450180;498924;506653;558171;173270;
2024-05-17T13:10:14.450;539145628260617703;498886;506535;558148;173233;
2024-05-17T13:10:14.468;539145628278785226;498802;506447;558016;173237;
2024-05-17T13:10:14.486;539145628296952749;498951;506690;558120;173209;
2024-05-17T13:10:14.505;539145628315120272;499423;507228;558646;173154;
2024-05-17T13:10:14.523;539145628333287795;500334;508372;559259;173105;
2024-05-17T13:10:14.541;539145628351455318;501301;509480;559795;173079;
2024-05-17T13:10:14.559;539145628369622841;501742;510019;560202;173062;
2024-05-17T13:10:14.577;539145628387790782;501899;510349;560478;173062;
2024-05-17T13:10:14.595;539145628405958714;502072;510606;560761;173050;
2024-05-17T13:10:14.614;539145628424126646;502303;510643;561027;173058;
2024-05-17T13:10:14.632;539145628442294578;502502;510722;561318;173030;
2024-05-17T13:10:14.650;539145628460462510;502662;510819;561612;172985;
2024-05-17T13:10:14.668;539145628478630442;502825;510893;561807;172974;
2024-05-17T13:10:14.686;539145628496798374;502960;510995;562026;172947;
2024-05-17T13:10:14.704;539145628514966306;503108;511130;562322;173022;
2024-05-17T13:10:14.723;539145628533134238;503263;511319;562522;172990;
2024-05-17T13:10:14.741;539145628551302170;503631;511812;562795;173022;
2024-05-17T13:10:14.759;539145628569470102;504768;513547;563045;173056;
2024-05-17T13:10:14.777;539145628587638034;505708;515380;563123;173156;
2024-05-17T13:10:14.795;539145628605805966;506375;516767;563145;173170;
2024-05-17T13:10:14.814;539145628623973898;506751;517389;563055;173196;
2024-05-17T13:10:14.832;539145628642141830;506865;517442;562963;173279;
2024-05-17T13:10:14.850;539145628660309762;506741;517119;562824;173231;
2024-05-17T13:10:14.868;539145628678477694;506195;516200;562712;173254;
2024-05-17T13:10:14.886;539145628696645626;505495;514772;562570;173278;
2024-05-17T13:10:14.904;539145628714813558;505225;514156;562626;173347;
2024-05-17T13:10:14.923;539145628732981490;505088;513769;562713;173324;
2024-05-17T13:10:14.941;539145628751149422;504661;512987;562673;173362;
2024-05-17T13:10:14.959;539145628769317354;504339;512383;562792;173296;
2024-05-17T13:10:14.977;539145628787485286;504242;512280;562892;173348;
2024-05-17T13:10:14.995;539145628805653218;504337;512549;563054;173287;
2024-05-17T13:10:15.013;539145628823821150;504394;512636;563200;173325;
2024-05-17T13:10:15.032;539145628841989082;504244;512142;563287;173357;
2024-05-17T13:10:15.050;539145628860157014;504164;511661;563257;173428;
2024-05-17T13:10:15.068;539145628878324946;504082;511645;563321;173470;
2024-05-17T13:10:15.086;539145628896492878;504071;511748;563497;173440;
2024-05-17T13:10:15.104;539145628914660810;504184;512058;563597;173483;
2024-05-17T13:10:15.122;539145628932828742;505114;513879;563945;173493;
2024-05-17T13:10:15.141;539145628950996674;506047;515225;564319;173634;
2024-05-17T13:10:15.159;539145628969164606;506582;515829;564671;173690;
2024-05-17T13:10:15.177;539145628987332538;507178;516675;565046;173799;
2024-05-17T13:10:15.195;539145629005500470;507655;517320;565207;173813;
2024-05-17T13:10:15.213;539145629023667247;507886;517459;565293;173919;
2024-05-17T13:10:15.231;539145629041833993;507942;517260;565322;173953;
2024-05-17T13:10:15.250;539145629060000739;507827;516938;565269;173999;
2024-05-17T13:10:15.268;539145629078167485;507460;516175;565235;173868;
2024-05-17T13:10:15.286;539145629096334231;506378;514340;565045;173856;
2024-05-17T13:10:15.304;539145629114500977;505396;513040;564926;173832;
2024-05-17T13:10:15.322;539145629132667723;504654;512150;564841;173728;
2024-05-17T13:10:15.340;539145629150834469;504297;511707;564821;173769;
2024-05-17T13:10:15.359;539145629169001215;503963;511471;564789;173652;
2024-05-17T13:10:15.377;539145629187167961;503744;511228;564691;173645;
2024-05-17T13:10:15.395;539145629205334707;503412;510908;564578;173570;
2024-05-17T13:10:15.413;539145629223501453;503201;510589;564380;173542;
2024-05-17T13:10:15.431;539145629241668199;503097;510322;564224;173469;
2024-05-17T13:10:15.449;539145629259834945;502879;510226;564234;173430;
2024-05-17T13:10:15.468;539145629278001691;502799;510112;564090;173361;
2024-05-17T13:10:15.486;539145629296168437;502558;509875;564009;173365;
2024-05-17T13:10:15.504;539145629314335183;502432;509627;563990;173332;
2024-05-17T13:10:15.522;539145629332501929;502290;509505;563936;173288;
2024-05-17T13:10:15.540;539145629350668675;502269;509463;563957;173253;
2024-05-17T13:10:15.558;539145629368835421;502200;509443;563961;173207;
2024-05-17T13:10:15.577;539145629387002167;502275;509488;563959;173220;
2024-05-17T13:10:15.595;539145629405168913;502240;509449;563938;173147;
2024-05-17T13:10:15.613;539145629423335659;502039;509199;563802;173099;
2024-05-17T13:10:15.631;539145629441502405;501945;508960;563587;173058;
2024-05-17T13:10:15.649;539145629459669151;501839;508878;563512;173104;
2024-05-17T13:10:15.667;539145629477835897;501840;508839;563544;173090;
2024-05-17T13:10:15.686;539145629496002643;501873;508949;563503;172994;
2024-05-17T13:10:15.704;539145629514169389;502066;509179;563507;172977;
2024-05-17T13:10:15.722;539145629532336135;502408;509488;563665;173032;
2024-05-17T13:10:15.740;539145629550502881;502722;509710;563815;172973;
2024-05-17T13:10:15.758;539145629568669627;503032;509951;563947;172932;
2024-05-17T13:10:15.776;539145629586836373;503300;510156;564075;172907;
2024-05-17T13:10:15.795;539145629605003119;503605;510514;564329;172914;
2024-05-17T13:10:15.813;539145629623169865;503984;510923;564660;172884;
2024-05-17T13:10:15.831;539145629641336611;504457;511341;564985;172901;
2024-05-17T13:10:15.849;539145629659503357;504892;511690;565285;172890;
2024-05-17T13:10:15.867;539145629677670103;505347;512091;565488;172812;
2024-05-17T13:10:15.885;539145629695838136;505878;512418;565793;172817;
2024-05-17T13:10:15.904;539145629714006155;506386;512828;566198;172839;
2024-05-17T13:10:15.922;539145629732174174;506985;513487;566633;172899;
2024-05-17T13:10:15.940;539145629750342193;507624;514240;567081;172814;
2024-05-17T13:10:15.958;539145629768510212;508111;515136;567484;172832;
2024-05-17T13:10:15.976;539145629786678231;508599;515809;567813;172851;
2024-05-17T13:10:15.994;539145629804846250;508910;516326;568101;172911;
2024-05-17T13:10:16.013;539145629823014269;509043;516562;568360;172856;
2024-05-17T13:10:16.031;539145629841182288;509156;516976;568468;172835;
2024-05-17T13:10:16.049;539145629859350307;509409;517440;568650;172856;
2024-05-17T13:10:16.067;539145629877518326;509584;518027;568797;172861;
2024-05-17T13:10:16.085;539145629895686345;509818;518598;568856;172854;
2024-05-17T13:10:16.103;539145629913854364;510005;518843;569001;172835;
2024-05-17T13:10:16.122;539145629932022383;510215;519161;569132;172867;
2024-05-17T13:10:16.140;539145629950190402;510384;519308;569358;172836;
2024-05-17T13:10:16.158;539145629968358421;510519;519520;569560;172826;
2024-05-17T13:10:16.176;539145629986526440;510723;519757;569747;172862;
2024-05-17T13:10:16.194;539145630004694459;510898;519925;569841;172830;
2024-05-17T13:10:16.212;539145630022862478;511027;520025;570013;172871;
2024-05-17T13:10:16.231;539145630041030497;511071;520086;570058;172772;
2024-05-17T13:10:16.249;539145630059198516;511272;520316;570275;172855;
2024-05-17T13:10:16.267;539145630077366535;511388;520530;570374;172858;
2024-05-17T13:10:16.285;539145630095534554;511514;520642;570426;172827;
2024-05-17T13:10:16.303;539145630113702573;511616;520824;570416;172906;
2024-05-17T13:10:16.321;539145630131870592;511840;521227;570324;172886;
2024-05-17T13:10:16.340;539145630150038611;512203;521839;570127;172860;
2024-05-17T13:10:16.358;539145630168206630;512636;522379;570208;172936;
2024-05-17T13:10:16.376;539145630186374649;512879;522885;570116;172921;
2024-05-17T13:10:16.394;539145630204542668;513054;523068;570049;172899;
2024-05-17T13:10:16.412;539145630222710687;513113;522977;569901;172945;
2024-05-17T13:10:16.430;539145630240878706;513052;522717;569695;172986;
2024-05-17T13:10:16.449;539145630259046725;512869;522487;569514;173038;
2024-05-17T13:10:16.467;539145630277214744;512630;522227;569343;173085;
2024-05-17T13:10:16.485;539145630295382763;512348;522096;569185;173096;
2024-05-17T13:10:16.503;539145630313550782;512190;522129;569151;173222;
2024-05-17T13:10:16.521;539145630331718924;512011;522085;569233;173294;
2024-05-17T13:10:16.539;539145630349887052;511906;522120;569220;173483;
2024-05-17T13:10:16.558;539145630368055180;511772;522221;569176;173531;
2024-05-17T13:10:16.576;539145630386223308;511667;522323;569140;173620;
2024-05-17T13:10:16.594;539145630404391436;511458;522359;569123;173744;
2024-05-17T13:10:16.612;539145630422559564;511223;522349;568990;173803;
2024-05-17T13:10:16.630;539145630440727692;510976;522358;568856;173817;
2024-05-17T13:10:16.648;539145630458895820;510719;522381;568870;173800;
2024-05-17T13:10:16.667;539145630477063948;510458;522216;568701;173861;
2024-05-17T13:10:16.685;539145630495232076;510132;522069;568554;173843;
2024-05-17T13:10:16.703;539145630513400204;509871;521908;568387;173772;
2024-05-17T13:10:16.721;539145630531568332;509583;521740;568209;173824;
2024-05-17T13:10:16.739;539145630549736460;509333;521638;567929;173744;
2024-05-17T13:10:16.757;539145630567904588;509256;521723;567834;173807;
2024-05-17T13:10:16.776;539145630586072716;509043;521694;567677;173778;
2024-05-17T13:10:16.794;539145630604240844;508968;521765;567628;173773;
2024-05-17T13:10:16.812;539145630622408972;508718;521629;567543;173798;
2024-05-17T13:10:16.830;539145630640577100;508534;521443;567350;173836;
2024-05-17T13:10:16.848;539145630658745228;508177;521119;567043;173817;
2024-05-17T13:10:16.866;539145630676913356;507809;520830;566768;173878;
2024-05-17T13:10:16.885;539145630695081484;507458;520581;566487;173885;
2024-05-17T13:10:16.903;539145630713249612;507060;520340;566150;173926;
2024-05-17T13:10:16.921;539145630731417740;506658;520061;565811;173875;
2024-05-17T13:10:16.939;539145630749585868;506386;519879;565572;173938;
2024-05-17T13:10:16.957;539145630767753996;505966;519605;565376;173909;
2024-05-17T13:10:16.975;539145630785922124;505779;519469;565196;173957;
2024-05-17T13:10:16.994;539145630804090252;505585;519301;565077;173902;
2024-05-17T13:10:17.012;539145630822258380;505298;519164;564879;173891;
2024-05-17T13:10:17.030;539145630840426508;505127;519005;564724;173909;
2024-05-17T13:10:17.048;539145630858594636;504930;518813;564618;173894;
2024-05-17T13:10:17.066;539145630876762764;504637;518583;564400;173889;
2024-05-17T13:10:17.084;539145630894930892;504351;518352;564207;173877;
2024-05-17T13:10:17.103;539145630913099020;504155;518126;564109;173855;
2024-05-17T13:10:17.121;539145630931267148;503900;517864;563858;173840;
2024-05-17T13:10:17.139;539145630949435276;503629;517702;563643;173825;
2024-05-17T13:10:17.157;539145630967603404;503352;517445;563406;173816;
2024-05-17T13:10:17.175;539145630985771532;503151;517271;563268;173835;
2024-05-17T13:10:17.193;539145631003939660;502898;517024;563100;173827;
2024-05-17T13:10:17.212;539145631022107788;502641;516760;562844;173812;
2024-05-17T13:10:17.230;539145631040275916;502228;516330;562489;173803;
2024-05-17T13:10:17.248;539145631058443943;501722;515787;561964;173806;
2024-05-17T13:10:17.266;539145631076611962;501137;515182;561434;173825;
2024-05-17T13:10:17.284;539145631094779981;500541;514512;560734;173794;
2024-05-17T13:10:17.302;539145631112948000;499886;513910;560107;173738;
2024-05-17T13:10:17.321;539145631131116019;499347;513361;559607;173790;
2024-05-17T13:10:17.339;539145631149284038;498832;512913;559104;173783;
2024-05-17T13:10:17.357;539145631167452057;498379;512476;558689;173745;
2024-05-17T13:10:17.375;539145631185620076;497992;512228;558390;173668;
2024-05-17T13:10:17.393;539145631203788095;497704;511918;558123;173724;
2024-05-17T13:10:17.411;539145631221956114;497386;511637;557938;173670;
2024-05-17T13:10:17.430;539145631240124133;497178;511313;557650;173698;
2024-05-17T13:10:17.448;539145631258292152;496911;511176;557431;173650;
2024-05-17T13:10:17.466;539145631276460171;496715;510891;557227;173679;
2024-05-17T13:10:17.484;539145631294628190;496462;510627;557010;173716;
2024-05-17T13:10:17.502;539145631312796209;496172;510373;556734;173714;
2024-05-17T13:10:17.520;539145631330964228;495845;510129;556476;173660;
2024-05-17T13:10:17.539;539145631349132247;495617;509781;556154;173640;
2024-05-17T13:10:17.557;539145631367300266;495279;509464;555943;173643;
2024-05-17T13:10:17.575;539145631385468285;495069;509101;555699;173636;
2024-05-17T13:10:17.593;539145631403636304;494759;508748;555462;173616;
2024-05-17T13:10:17.611;539145631421804323;494509;508316;555147;173618;
2024-05-17T13:10:17.630;539145631439972342;494102;507885;554827;173622;
2024-05-17T13:10:17.648;539145631458140361;493502;507296;554292;173540;
2024-05-17T13:10:17.666;539145631476308380;492911;506553;553637;173586;
2024-05-17T13:10:17.684;539145631494476399;492239;505861;553030;173598;
2024-05-17T13:10:17.702;539145631512644418;491591;505068;552272;173577;
2024-05-17T13:10:17.720;539145631530812437;490999;504508;551586;173572;
2024-05-17T13:10:17.739;539145631548980456;490451;504036;551085;173616;
2024-05-17T13:10:17.757;539145631567148475;489932;503538;550527;173596;
2024-05-17T13:10:17.775;539145631585316494;489530;503185;550090;173570;
2024-05-17T13:10:17.793;539145631603484513;489262;502968;549764;173584;
2024-05-17T13:10:17.811;539145631621652532;489026;502786;549487;173628;
2024-05-17T13:10:17.829;539145631639820551;488736;502533;549175;173578;
2024-05-17T13:10:17.848;539145631657988570;488504;502361;548883;173633;
2024-05-17T13:10:17.866;539145631676156589;488289;502196;548589;173628;
2024-05-17T13:10:17.884;539145631694325926;488013;501918;548385;173630;
2024-05-17T13:10:17.902;539145631712495253;487741;501587;548106;173606;
2024-05-17T13:10:17.920;539145631730664580;487415;501241;547808;173625;
2024-05-17T13:10:17.938;539145631748833907;487101;500875;547545;173613;
2024-05-17T13:10:17.957;539145631767003234;486838;500525;547294;173633;
2024-05-17T13:10:17.975;539145631785172561;486572;500236;547087;173659;
2024-05-17T13:10:17.993;539145631803341888;486313;499777;546822;173641;
2024-05-17T13:10:18.011;539145631821511215;486076;499220;546553;173662;
2024-05-17T13:10:18.029;539145631839680542;485824;498433;546121;173642;
2024-05-17T13:10:18.047;539145631857849869;485404;497395;545544;173662;
2024-05-17T13:10:18.066;539145631876019196;484809;496272;544788;173619;
2024-05-17T13:10:18.084;539145631894188523;484223;494991;543927;173670;
2024-05-17T13:10:18.102;539145631912357850;483664;493650;543074;173699;
2024-05-17T13:10:18.120;539145631930527177;483139;492421;542290;173742;
2024-05-17T13:10:18.138;539145631948696504;482617;491299;541632;173675;
2024-05-17T13:10:18.156;539145631966865831;482256;490347;541032;173673;
2024-05-17T13:10:18.175;539145631985035158;482009;489510;540591;173708;
2024-05-17T13:10:18.193;539145632003204485;481772;488832;540249;173692;
2024-05-17T13:10:18.211;539145632021373812;481645;488312;540014;173683;
2024-05-17T13:10:18.229;539145632039543139;481649;487911;539866;173693;
2024-05-17T13:10:18.247;539145632057712466;481620;487684;539757;173688;
2024-05-17T13:10:18.265;539145632075881793;481610;487403;539619;173668;
2024-05-17T13:10:18.284;539145632094051120;481587;487186;539507;173701;
2024-05-17T13:10:18.302;539145632112220447;481563;487041;539430;173726;
2024-05-17T13:10:18.320;539145632130389774;481541;486886;539318;173658;
2024-05-17T13:10:18.338;539145632148559101;481433;486696;539196;173607;
2024-05-17T13:10:18.356;539145632166728428;481309;486556;539013;173619;
2024-05-17T13:10:18.374;539145632184897755;481160;486381;538805;173666;
2024-05-17T13:10:18.393;539145632203067082;481094;486198;538620;173683;
2024-05-17T13:10:18.411;539145632221236409;481016;486021;538494;173597;
2024-05-17T13:10:18.429;539145632239405736;480723;485703;538187;173589;
2024-05-17T13:10:18.447;539145632257575063;480420;485236;537738;173634;
2024-05-17T13:10:18.465;539145632275744390;479872;484691;537123;173623;
2024-05-17T13:10:18.483;539145632293913717;479198;483997;536336;173618;
2024-05-17T13:10:18.502;539145632312083044;478531;483327;535670;173623;
2024-05-17T13:10:18.520;539145632330250425;477842;482650;534853;173665;
2024-05-17T13:10:18.538;539145632348417790;477266;482060;534193;173619;
2024-05-17T13:10:18.556;539145632366585155;476724;481579;533608;173621;
2024-05-17T13:10:18.574;539145632384752520;476333;481117;533160;173637;
2024-05-17T13:10:18.592;539145632402919885;476034;480622;532697;173662;
2024-05-17T13:10:18.611;539145632421087250;475737;480298;532338;173657;
2024-05-17T13:10:18.629;539145632439254615;475544;480059;532082;173656;
2024-05-17T13:10:18.647;539145632457421980;475460;479885;531969;173623;
2024-05-17T13:10:18.665;539145632475589345;475352;479814;531781;173691;
2024-05-17T13:10:18.683;539145632493756710;475092;479583;531531;173635;
2024-05-17T13:10:18.701;539145632511924075;474835;479373;531354;173681;
2024-05-17T13:10:18.720;539145632530091440;474520;479143;531153;173654;
2024-05-17T13:10:18.738;539145632548258805;474140;478816;530784;173591;
2024-05-17T13:10:18.756;539145632566426170;473718;478637;530477;173642;
2024-05-17T13:10:18.774;539145632584593535;473314;478526;530271;173620;
2024-05-17T13:10:18.792;539145632602760900;472902;478316;529894;173589;
2024-05-17T13:10:18.810;539145632620928265;472467;478154;529531;173556;
2024-05-17T13:10:18.829;539145632639095630;472083;477989;529249;173533;
2024-05-17T13:10:18.847;539145632657262995;471587;477687;528681;173569;
2024-05-17T13:10:18.865;539145632675430360;470878;477095;527884;173539;
2024-05-17T13:10:18.883;539145632693597725;470112;476439;526992;173478;
2024-05-17T13:10:18.901;539145632711765090;469179;475618;525931;173509;
2024-05-17T13:10:18.919;539145632729932455;468250;474796;524861;173474;
2024-05-17T13:10:18.938;539145632748099820;467504;474164;524055;173478;
2024-05-17T13:10:18.956;539145632766267185;466767;473358;523150;173486;
2024-05-17T13:10:18.974;539145632784434550;466109;472808;522419;173484;
2024-05-17T13:10:18.992;539145632802601915;465489;472244;521835;173414;
2024-05-17T13:10:19.010;539145632820769280;465034;471848;521384;173384;
2024-05-17T13:10:19.028;539145632838936645;464669;471546;521065;173382;
2024-05-17T13:10:19.047;539145632857104010;464317;471187;520657;173413;
2024-05-17T13:10:19.065;539145632875271375;463970;470886;520303;173375;
2024-05-17T13:10:19.083;539145632893438740;463656;470628;520006;173380;
2024-05-17T13:10:19.101;539145632911606105;463317;470388;519721;173412;
2024-05-17T13:10:19.119;539145632929773470;462980;469964;519363;173332;
2024-05-17T13:10:19.137;539145632947940835;462618;469654;518976;173361;
2024-05-17T13:10:19.156;539145632966109086;462235;469376;518600;173363;
2024-05-17T13:10:19.174;539145632984277323;461884;469096;518258;173401;
2024-05-17T13:10:19.192;539145633002445560;461544;468778;517861;173331;
2024-05-17T13:10:19.210;539145633020613797;461238;468519;517585;173308;
2024-05-17T13:10:19.228;539145633038782034;460938;468253;517315;173378;
2024-05-17T13:10:19.246;539145633056950271;460691;468003;517029;173351;
2024-05-17T13:10:19.265;539145633075118508;460152;467566;516542;173334;
2024-05-17T13:10:19.283;539145633093286745;459518;467004;515845;173363;
2024-05-17T13:10:19.301;539145633111454982;458762;466446;515067;173403;
2024-05-17T13:10:19.319;539145633129623219;457993;465673;514316;173325;
2024-05-17T13:10:19.337;539145633147791456;457315;465005;513560;173443;
2024-05-17T13:10:19.355;539145633165959693;456673;464412;512839;173383;
2024-05-17T13:10:19.374;539145633184127930;456083;463901;512251;173369;
2024-05-17T13:10:19.392;539145633202296167;455650;463540;511794;173335;
2024-05-17T13:10:19.410;539145633220464404;455307;463259;511460;173322;
2024-05-17T13:10:19.428;539145633238632641;455099;463010;511271;173357;
2024-05-17T13:10:19.446;539145633256800878;454932;462894;511078;173387;
2024-05-17T13:10:19.464;539145633274969115;454751;462727;510856;173382;
2024-05-17T13:10:19.483;539145633293137352;454631;462605;510783;173396;
2024-05-17T13:10:19.501;539145633311305589;454448;462480;510574;173432;
2024-05-17T13:10:19.519;539145633329473826;454246;462254;510352;173393;
2024-05-17T13:10:19.537;539145633347642063;454078;462112;510177;173398;
2024-05-17T13:10:19.555;539145633365810300;453840;461919;509925;173369;
2024-05-17T13:10:19.574;539145633383978537;453609;461694;509715;173400;
2024-05-17T13:10:19.592;539145633402146774;453405;461481;509547;173369;
2024-05-17T13:10:19.610;539145633420315011;453212;461304;509362;173362;
2024-05-17T13:10:19.628;539145633438483248;452987;461101;509157;173393;
2024-05-17T13:10:19.646;539145633456651485;452830;460929;508925;173404;
2024-05-17T13:10:19.664;539145633474819722;452537;460684;508714;173389;
2024-05-17T13:10:19.683;539145633492987959;452207;460268;508189;173403;
2024-05-17T13:10:19.701;539145633511156196;451656;459688;507656;173401;
2024-05-17T13:10:19.719;539145633529324433;451113;459097;507035;173396;
2024-05-17T13:10:19.737;539145633547492670;450493;458423;506353;173393;
2024-05-17T13:10:19.755;539145633565660907;450045;457863;505800;173383;
2024-05-17T13:10:19.773;539145633583829144;449613;457336;505303;173436;
2024-05-17T13:10:19.792;539145633601997889;449411;456971;505000;173395;
2024-05-17T13:10:19.810;539145633620166610;449239;456771;504826;173372;
2024-05-17T13:10:19.828;539145633638335331;449103;456597;504701;173402;
2024-05-17T13:10:19.846;539145633656504052;449062;456630;504630;173360;
2024-05-17T13:10:19.864;539145633674672773;449087;456585;504603;173390;
2024-05-17T13:10:19.882;539145633692841494;449077;456561;504658;173393;
2024-05-17T13:10:19.901;539145633711010215;449058;456507;504660;173410;
2024-05-17T13:10:19.919;539145633729178936;449145;456517;504672;173427;
2024-05-17T13:10:19.937;539145633747347657;448995;456367;504591;173379;
2024-05-17T13:10:19.955;539145633765516378;448938;456226;504583;173410;
2024-05-17T13:10:19.973;539145633783685099;448857;456087;504519;173389;
2024-05-17T13:10:19.991;539145633801853820;448796;455941;504419;173382;
2024-05-17T13:10:20.010;539145633820022541;448726;455809;504338;173431;
2024-05-17T13:10:20.028;539145633838191262;448604;455649;504271;173384;
2024-05-17T13:10:20.046;539145633856359983;448479;455502;504142;173382;
2024-05-17T13:10:20.064;539145633874528704;448248;455265;504033;173389;
2024-05-17T13:10:20.082;539145633892697425;447857;454808;503592;173365;
2024-05-17T13:10:20.100;539145633910866146;447214;454245;502909;173338;
2024-05-17T13:10:20.119;539145633929034867;446503;453439;502211;173411;
2024-05-17T13:10:20.137;539145633947203588;445753;452727;501485;173402;
2024-05-17T13:10:20.155;539145633965372309;445100;451988;500745;173398;
2024-05-17T13:10:20.173;539145633983541030;444375;451383;500149;173368;
2024-05-17T13:10:20.191;539145634001709751;443829;450920;499781;173387;
2024-05-17T13:10:20.209;539145634019878472;443446;450553;499323;173366;
2024-05-17T13:10:20.228;539145634038047193;443068;450340;499083;173375;
2024-05-17T13:10:20.246;539145634056215914;442838;450136;498894;173340;
2024-05-17T13:10:20.264;539145634074384635;442649;450021;498696;173364;
2024-05-17T13:10:20.282;539145634092553356;442389;449915;498634;173411;
2024-05-17T13:10:20.300;539145634110722077;442213;449805;498471;173324;
2024-05-17T13:10:20.318;539145634128890798;442136;449777;498322;173357;
2024-05-17T13:10:20.337;539145634147059519;441974;449627;498152;173333;
2024-05-17T13:10:20.355;539145634165228240;441761;449563;497990;173318;
2024-05-17T13:10:20.373;539145634183396961;441624;449444;497809;173314;
2024-05-17T13:10:20.391;539145634201565682;441403;449256;497657;173335;
2024-05-17T13:10:20.409;539145634219734403;441254;449173;497470;173343;
2024-05-17T13:10:20.427;539145634237903124;441109;449144;497327;173398;
2024-05-17T13:10:20.446;539145634256072213;440977;449024;497173;173363;
2024-05-17T13:10:20.464;539145634274241278;440724;448832;496899;173383;
2024-05-17T13:10:20.482;539145634292410343;440259;448402;496430;173343;
2024-05-17T13:10:20.500;539145634310579408;439669;447847;495782;173387;
2024-05-17T13:10:20.518;539145634328748473;438941;447158;495086;173356;
2024-05-17T13:10:20.536;539145634346917538;438238;446462;494258;173326;
2024-05-17T13:10:20.555;539145634365086603;437685;445925;493628;173284;
2024-05-17T13:10:20.573;539145634383255668;437168;445419;493065;173312;
2024-05-17T13:10:20.591;539145634401424733;436731;445043;492575;173330;
2024-05-17T13:10:20.609;539145634419593798;436516;444839;492229;173330;
2024-05-17T13:10:20.627;539145634437762863;436254;444654;492042;173335;
2024-05-17T13:10:20.645;539145634455931928;436111;444601;491926;173355;
2024-05-17T13:10:20.664;539145634474100993;436017;444506;491911;173351;
2024-05-17T13:10:20.682;539145634492270058;435991;444480;491878;173364;
2024-05-17T13:10:20.700;539145634510439123;435972;444395;491822;173332;
2024-05-17T13:10:20.718;539145634528608188;435802;444313;491708;173240;
2024-05-17T13:10:20.736;539145634546777253;435657;444200;491602;173337;
2024-05-17T13:10:20.754;539145634564946318;435544;444140;491523;173349;
2024-05-17T13:10:20.773;539145634583115383;435411;444041;491401;173317;
2024-05-17T13:10:20.791;539145634601284448;435323;443944;491305;173352;
2024-05-17T13:10:20.809;539145634619453513;435185;443880;491166;173362;
2024-05-17T13:10:20.827;539145634637622578;434992;443746;491051;173306;
2024-05-17T13:10:20.845;539145634655791643;434865;443558;490933;173341;
2024-05-17T13:10:20.863;539145634673960708;434720;443430;490725;173314;
2024-05-17T13:10:20.882;539145634692129773;434377;443085;490334;173329;
2024-05-17T13:10:20.900;539145634710298838;433764;442595;489775;173351;
2024-05-17T13:10:20.918;539145634728467903;433279;442045;489070;173300;
2024-05-17T13:10:20.936;539145634746636968;432649;441463;488382;173331;
2024-05-17T13:10:20.954;539145634764806033;432043;440912;487803;173283;
2024-05-17T13:10:20.973;539145634782975098;431587;440482;487343;173287;
2024-05-17T13:10:20.991;539145634801144163;431223;440201;486940;173305;
2024-05-17T13:10:21.009;539145634819313228;430966;439983;486701;173376;
2024-05-17T13:10:21.027;539145634837482293;430693;439816;486466;173355;
2024-05-17T13:10:21.045;539145634855651358;430532;439746;486367;173312;
2024-05-17T13:10:21.063;539145634873820423;430457;439639;486318;173355;
2024-05-17T13:10:21.082;539145634891988924;430376;439704;486353;173335;
2024-05-17T13:10:21.100;539145634910157424;430309;439698;486301;173347;
2024-05-17T13:10:21.118;539145634928325924;430256;439584;486301;173420;
2024-05-17T13:10:21.136;539145634946494424;430072;439523;486214;173350;
2024-05-17T13:10:21.154;539145634964662924;429914;439417;486082;173313;
2024-05-17T13:10:21.172;539145634982831424;429765;439319;486032;173332;
2024-05-17T13:10:21.191;539145635000999924;429787;439285;485986;173365;
2024-05-17T13:10:21.209;539145635019168424;429753;439295;485881;173362;
2024-05-17T13:10:21.227;539145635037336924;429760;439311;485955;173372;
2024-05-17T13:10:21.245;539145635055505424;429801;439212;485985;173370;
2024-05-17T13:10:21.263;539145635073673924;429858;439203;486061;173334;
2024-05-17T13:10:21.281;539145635091842424;429925;439121;486053;173410;
2024-05-17T13:10:21.300;539145635110010924;429727;438947;485823;173421;
2024-05-17T13:10:21.318;539145635128179424;429505;438698;485476;173416;
2024-05-17T13:10:21.336;539145635146347924;429113;438355;485213;173392;
2024-05-17T13:10:21.354;539145635164516424;428777;438081;484774;173363;
2024-05-17T13:10:21.372;539145635182684924;428539;437877;484557;173441;
2024-05-17T13:10:21.390;539145635200853424;428289;437791;484427;173442;
2024-05-17T13:10:21.409;539145635219021924;428047;437736;484226;173448;
2024-05-17T13:10:21.427;539145635237190424;427840;437717;484157;173448;
2024-05-17T13:10:21.445;539145635255358924;427778;437784;484102;173432;
2024-05-17T13:10:21.463;539145635273527424;427637;437904;484281;173503;
2024-05-17T13:10:21.481;539145635291695924;427473;437992;484276;173374;
2024-05-17T13:10:21.499;539145635309864424;427429;438125;484307;173406;
2024-05-17T13:10:21.518;539145635328032924;427306;438177;484244;173410;
2024-05-17T13:10:21.536;539145635346201424;427148;438240;484237;173428;
2024-05-17T13:10:21.554;539145635364369924;426916;438106;484137;173398;
2024-05-17T13:10:21.572;539145635382538424;426615;437966;484021;173406;
2024-05-17T13:10:21.590;539145635400706924;426348;437806;483794;173430;
2024-05-17T13:10:21.608;539145635418875424;426058;437677;483625;173487;
2024-05-17T13:10:21.627;539145635437043924;425764;437474;483418;173414;
2024-05-17T13:10:21.645;539145635455212424;425470;437319;483216;173465;
2024-05-17T13:10:21.663;539145635473380924;425202;437185;483037;173429;
2024-05-17T13:10:21.681;539145635491549424;424961;437044;482873;173397;
2024-05-17T13:10:21.699;539145635509717924;424723;436859;482692;173428;
2024-05-17T13:10:21.717;539145635527886424;424342;436568;482327;173415;
2024-05-17T13:10:21.736;539145635546054924;423836;436233;481891;173453;
2024-05-17T13:10:21.754;539145635564223424;423388;435773;481393;173426;
2024-05-17T13:10:21.772;539145635582391924;422852;435383;480978;173462;
2024-05-17T13:10:21.790;539145635600560016;422482;435042;480585;173445;
2024-05-17T13:10:21.808;539145635618728108;422079;434833;480335;173457;
2024-05-17T13:10:21.826;539145635636896200;421782;434644;480043;173463;
2024-05-17T13:10:21.845;539145635655064292;421567;434570;479894;173438;
2024-05-17T13:10:21.863;539145635673232384;421424;434510;479856;173440;
2024-05-17T13:10:21.881;539145635691400476;421335;434534;479834;173476;
2024-05-17T13:10:21.899;539145635709568568;421336;434591;479820;173464;
2024-05-17T13:10:21.917;539145635727736660;421198;434639;479844;173467;
2024-05-17T13:10:21.935;539145635745904752;421104;434749;479908;173433;
2024-05-17T13:10:21.954;539145635764072844;421013;434792;479880;173430;
2024-05-17T13:10:21.972;539145635782240936;420887;434806;479873;173403;
2024-05-17T13:10:21.990;539145635800409028;420826;434822;479883;173380;
2024-05-17T13:10:22.008;539145635818577120;420778;434839;479857;173400;
2024-05-17T13:10:22.026;539145635836745212;420720;434780;479777;173381;
2024-05-17T13:10:22.044;539145635854913304;420725;434648;479849;173416;
2024-05-17T13:10:22.063;539145635873081396;420846;434558;479825;173406;
2024-05-17T13:10:22.081;539145635891249488;421030;434526;479970;173418;
2024-05-17T13:10:22.099;539145635909417580;421273;434555;480155;173445;
2024-05-17T13:10:22.117;539145635927585672;421266;434459;480031;173409;
2024-05-17T13:10:22.135;539145635945753764;421310;434221;479908;173364;
2024-05-17T13:10:22.153;539145635963921856;421262;433959;479742;173338;
2024-05-17T13:10:22.172;539145635982089948;421327;433675;479516;173414;
2024-05-17T13:10:22.190;539145636000258040;421390;433520;479483;173349;
2024-05-17T13:10:22.208;539145636018426132;421644;433507;479514;173361;
2024-05-17T13:10:22.226;539145636036594224;421865;433457;479493;173383;
2024-05-17T13:10:22.244;539145636054762316;422153;433507;479681;173421;
2024-05-17T13:10:22.262;539145636072930408;422372;433518;479802;173363;
2024-05-17T13:10:22.281;539145636091098500;422744;433681;480038;173382;
2024-05-17T13:10:22.299;539145636109266592;423000;433779;480301;173370;
2024-05-17T13:10:22.317;539145636127434684;423216;433914;480502;173332;
2024-05-17T13:10:22.335;539145636145602776;423492;434087;480759;173379;
2024-05-17T13:10:22.353;539145636163770868;423810;434296;481011;173448;
2024-05-17T13:10:22.371;539145636181938960;424071;434404;481256;173397;
2024-05-17T13:10:22.390;539145636200107052;424263;434599;481431;173349;
2024-05-17T13:10:22.408;539145636218275144;424509;434742;481713;173394;
2024-05-17T13:10:22.426;539145636236443236;424761;434971;481918;173374;
2024-05-17T13:10:22.444;539145636254611328;424958;435215;482223;173349;
2024-05-17T13:10:22.462;539145636272779420;425223;435506;482521;173363;
2024-05-17T13:10:22.480;539145636290947512;425451;435687;482771;173368;
2024-05-17T13:10:22.499;539145636309115604;425655;435897;483062;173333;
2024-05-17T13:10:22.517;539145636327283696;425733;436092;483193;173387;
2024-05-17T13:10:22.535;539145636345451788;425642;436006;483092;173352;
2024-05-17T13:10:22.553;539145636363620379;425449;435813;482876;173284;
2024-05-17T13:10:22.571;539145636381788957;425131;435572;482550;173256;
2024-05-17T13:10:22.589;539145636399957535;424791;435377;482291;173332;
2024-05-17T13:10:22.608;539145636418126113;424542;435172;482044;173326;
2024-05-17T13:10:22.626;539145636436294691;424407;435039;481860;173304;
2024-05-17T13:10:22.644;539145636454463269;424281;435014;481808;173280;
2024-05-17T13:10:22.662;539145636472631847;424214;435106;481850;173296;
2024-05-17T13:10:22.680;539145636490800425;424290;435238;481966;173236;
2024-05-17T13:10:22.698;539145636508969003;424543;435457;482167;173223;
2024-05-17T13:10:22.717;539145636527137581;424736;435679;482491;173298;
2024-05-17T13:10:22.735;539145636545306159;424844;435891;482661;173287;
2024-05-17T13:10:22.753;539145636563474737;424965;436023;482887;173297;
2024-05-17T13:10:22.771;539145636581643315;424935;436238;483009;173293;
2024-05-17T13:10:22.789;539145636599811893;424949;436244;483077;173301;
2024-05-17T13:10:22.808;539145636617980471;424911;436373;483152;173292;
2024-05-17T13:10:22.826;539145636636149049;424887;436465;483133;173293;
2024-05-17T13:10:22.844;539145636654317627;424782;436490;483138;173259;
2024-05-17T13:10:22.862;539145636672486205;424657;436506;483087;173260;
2024-05-17T13:10:22.880;539145636690654783;424534;436574;483082;173249;
2024-05-17T13:10:22.898;539145636708823361;424417;436580;483030;173241;
2024-05-17T13:10:22.917;539145636726991939;424273;436521;482934;173246;
2024-05-17T13:10:22.935;539145636745160517;424021;436404;482691;173265;
2024-05-17T13:10:22.953;539145636763329095;423692;436189;482400;173261;
2024-05-17T13:10:22.971;539145636781497673;423323;435800;481999;173312;
2024-05-17T13:10:22.989;539145636799666251;422857;435463;481471;173263;
2024-05-17T13:10:23.007;539145636817834829;422387;435103;481081;173265;
2024-05-17T13:10:23.026;539145636836003407;422032;434831;480697;173245;
2024-05-17T13:10:23.044;539145636854171985;421743;434616;480470;173291;
2024-05-17T13:10:23.062;539145636872340563;421473;434415;480242;173280;
2024-05-17T13:10:23.080;539145636890509141;421301;434296;480135;173291;
2024-05-17T13:10:23.098;539145636908677719;421163;434285;480090;173330;
2024-05-17T13:10:23.116;539145636926846297;421069;434243;480104;173289;
2024-05-17T13:10:23.135;539145636945014875;421046;434207;480085;173340;
2024-05-17T13:10:23.153;539145636963183453;421051;434216;480118;173352;
2024-05-17T13:10:23.171;539145636981352031;421070;434237;480076;173369;
2024-05-17T13:10:23.189;539145636999520609;421066;434277;480109;173359;
2024-05-17T13:10:23.207;539145637017689187;421137;434363;480172;173347;
2024-05-17T13:10:23.225;539145637035857765;421208;434404;480327;173330;
2024-05-17T13:10:23.244;539145637054026343;421404;434422;480443;173341;
2024-05-17T13:10:23.262;539145637072194980;421619;434642;480617;173358;
2024-05-17T13:10:23.280;539145637090363617;421789;434860;480791;173326;
2024-05-17T13:10:23.298;539145637108532254;422034;435077;481062;173318;
2024-05-17T13:10:23.316;539145637126700891;422311;435249;481266;173328;
2024-05-17T13:10:23.334;539145637144869528;422503;435448;481551;173365;
2024-05-17T13:10:23.353;539145637163038165;422614;435503;481599;173335;
2024-05-17T13:10:23.371;539145637181206802;422528;435480;481551;173345;
2024-05-17T13:10:23.389;539145637199375439;422462;435402;481453;173351;
2024-05-17T13:10:23.407;539145637217544076;422280;435294;481327;173370;
2024-05-17T13:10:23.425;539145637235712713;422211;435277;481172;173305;
2024-05-17T13:10:23.443;539145637253881350;422004;435113;481057;173263;
2024-05-17T13:10:23.462;539145637272049987;421916;435139;481030;173301;
2024-05-17T13:10:23.480;539145637290218624;421816;435113;481002;173300;
2024-05-17T13:10:23.498;539145637308387261;421780;435230;481066;173382;
2024-05-17T13:10:23.516;539145637326555898;421663;435157;481115;173282;
2024-05-17T13:10:23.534;539145637344724535;421625;435251;481134;173283;
2024-05-17T13:10:23.552;539145637362893172;421643;435236;481160;173222;
2024-05-17T13:10:23.571;539145637381061809;421577;435250;481190;173290;
2024-05-17T13:10:23.589;539145637399230446;421537;435191;481116;173277;
2024-05-17T13:10:23.607;539145637417399083;421520;435217;481175;173348;
2024-05-17T13:10:23.625;539145637435567720;421423;435174;481071;173259;
2024-05-17T13:10:23.643;539145637453736357;421328;435112;481035;173300;
2024-05-17T13:10:23.661;539145637471904994;421285;435078;480992;173311;
2024-05-17T13:10:23.680;539145637490073631;421207;434928;480971;173306;
2024-05-17T13:10:23.698;539145637508242268;421119;434955;480928;173283;
2024-05-17T13:10:23.716;539145637526410905;421048;434941;480952;173216;
2024-05-17T13:10:23.734;539145637544579542;421057;434919;480971;173257;
2024-05-17T13:10:23.752;539145637562748179;420983;434885;480929;173237;
2024-05-17T13:10:23.770;539145637580916816;420834;434727;480772;173257;
2024-05-17T13:10:23.789;539145637599085453;420636;434581;480519;173287;
2024-05-17T13:10:23.807;539145637617254090;420371;434332;480216;173331;
2024-05-17T13:10:23.825;539145637635422727;420102;434066;479958;173283;
2024-05-17T13:10:23.843;539145637653591364;419886;433912;479729;173297;
2024-05-17T13:10:23.861;539145637671760001;419676;433787;479582;173204;
2024-05-17T13:10:23.879;539145637689928638;419592;433779;479550;173266;
2024-05-17T13:10:23.898;539145637708097275;419595;433735;479482;173227;
2024-05-17T13:10:23.916;539145637726265912;419699;433835;479531;173292;
2024-05-17T13:10:23.934;539145637744434549;419744;433927;479714;173293;
2024-05-17T13:10:23.952;539145637762603186;419881;434049;479883;173292;
2024-05-17T13:10:23.970;539145637780771823;420056;434230;480089;173278;
2024-05-17T13:10:23.988;539145637798940460;420169;434345;480236;173290;
2024-05-17T13:10:24.007;539145637817109097;420257;434471;480347;173308;
2024-05-17T13:10:24.025;539145637835280067;420303;434525;480474;173322;
2024-05-17T13:10:24.043;539145637853451029;420388;434578;480524;173266;
2024-05-17T13:10:24.061;539145637871621991;420462;434651;480625;173311;
2024-05-17T13:10:24.079;539145637889792953;420513;434657;480675;173305;
2024-05-17T13:10:24.097;539145637907963915;420560;434812;480703;173291;
2024-05-17T13:10:24.116;539145637926134877;420615;434935;480861;173304;
2024-05-17T13:10:24.134;539145637944305839;420757;435021;480928;173305;
2024-05-17T13:10:24.152;539145637962476801;420870;435108;481088;173322;
2024-05-17T13:10:24.170;539145637980647763;420894;435129;481190;173310;
2024-05-17T13:10:24.188;539145637998818725;420850;435108;481192;173232;
2024-05-17T13:10:24.207;539145638016989687;420722;435027;481073;173224;
2024-05-17T13:10:24.225;539145638035160649;420582;434937;480914;173259;
2024-05-17T13:10:24.243;539145638053331611;420505;434881;480797;173282;
2024-05-17T13:10:24.261;539145638071502573;420408;434733;480644;173289;
2024-05-17T13:10:24.279;539145638089673535;420305;434670;480556;173313;
2024-05-17T13:10:24.297;539145638107844497;420281;434733;480645;173322;
2024-05-17T13:10:24.316;539145638126015459;420283;434741;480617;173317;
2024-05-17T13:10:24.334;539145638144186421;420363;434823;480716;173271;
2024-05-17T13:10:24.352;539145638162357383;420461;434921;480813;173277;
2024-05-17T13:10:24.370;539145638180528345;420575;435099;480968;173324;
2024-05-17T13:10:24.388;539145638198699307;420685;435218;481130;173279;
2024-05-17T13:10:24.406;539145638216870269;420842;435424;481307;173297;
2024-05-17T13:10:24.425;539145638235041231;420881;435421;481439;173297;
2024-05-17T13:10:24.443;539145638253212193;420940;435532;481539;173233;
2024-05-17T13:10:24.461;539145638271383155;421081;435678;481697;173337;
2024-05-17T13:10:24.479;539145638289554117;421206;435713;481796;173270;
2024-05-17T13:10:24.497;539145638307725079;421305;435777;481846;173275;
2024-05-17T13:10:24.515;539145638325896041;421344;435870;481955;173277;
2024-05-17T13:10:24.534;539145638344067003;421443;435929;482019;173296;
2024-05-17T13:10:24.552;539145638362237965;421520;436050;482167;173287;
2024-05-17T13:10:24.570;539145638380408927;421560;436115;482290;173281;
2024-05-17T13:10:24.588;539145638398579889;421660;436197;482367;173252;
2024-05-17T13:10:24.606;539145638416750851;421611;436179;482426;173317;
2024-05-17T13:10:24.624;539145638434921813;421584;436192;482332;173312;
2024-05-17T13:10:24.643;539145638453092775;421486;436059;482203;173273;
2024-05-17T13:10:24.661;539145638471263737;421353;435937;482050;173325;
2024-05-17T13:10:24.679;539145638489434699;421187;435769;481892;173267;
2024-05-17T13:10:24.697;539145638507605661;421085;435703;481774;173271;
2024-05-17T13:10:24.715;539145638525776623;421011;435747;481813;173323;
2024-05-17T13:10:24.733;539145638543947585;420955;435718;481853;173343;
2024-05-17T13:10:24.752;539145638562118547;420986;435757;481899;173274;
2024-05-17T13:10:24.770;539145638580289509;421120;435949;482066;173315;
2024-05-17T13:10:24.788;539145638598458678;421137;435952;482119;173274;
2024-05-17T13:10:24.806;539145638616627823;421157;435991;482191;173276;
2024-05-17T13:10:24.824;539145638634796968;421314;436083;482295;173274;
2024-05-17T13:10:24.842;539145638652966113;421345;436131;482433;173243;
2024-05-17T13:10:24.861;539145638671135258;421410;436245;482541;173273;
2024-05-17T13:10:24.879;539145638689304403;421453;436266;482591;173252;
2024-05-17T13:10:24.897;539145638707473548;421457;436273;482654;173238;
2024-05-17T13:10:24.915;539145638725642693;421559;436329;482705;173201;
2024-05-17T13:10:24.933;539145638743811838;421597;436386;482766;173238;
2024-05-17T13:10:24.952;539145638761980983;421622;436411;482840;173242;
2024-05-17T13:10:24.970;539145638780150128;421686;436533;482891;173291;
2024-05-17T13:10:24.988;539145638798319273;421799;436591;483042;173273;
2024-05-17T13:10:25.006;539145638816488418;421822;436643;483043;173303;
2024-05-17T13:10:25.024;539145638834657563;421787;436599;483012;173288;
2024-05-17T13:10:25.042;539145638852826708;421640;436471;482902;173328;
2024-05-17T13:10:25.061;539145638870995853;421548;436303;482689;173262;
2024-05-17T13:10:25.079;539145638889164998;421395;436173;482541;173250;
2024-05-17T13:10:25.097;539145638907334143;421245;436053;482493;173276;
2024-05-17T13:10:25.115;539145638925503288;421195;436038;482435;173282;
2024-05-17T13:10:25.133;539145638943672433;421126;435971;482391;173238;
2024-05-17T13:10:25.151;539145638961841578;421129;436036;482436;173262;
2024-05-17T13:10:25.170;539145638980010723;421134;436069;482522;173249;
2024-05-17T13:10:25.188;539145638998179868;421227;436223;482623;173290;
2024-05-17T13:10:25.206;539145639016349013;421244;436215;482711;173232;
2024-05-17T13:10:25.224;539145639034518158;421363;436330;482839;173283;
2024-05-17T13:10:25.242;539145639052687303;421394;436420;482940;173244;
2024-05-17T13:10:25.260;539145639070856448;421572;436537;483005;173282;
2024-05-17T13:10:25.279;539145639089025593;421619;436533;483115;173266;
2024-05-17T13:10:25.297;539145639107194738;421675;436567;483144;173207;
2024-05-17T13:10:25.315;539145639125363883;421695;436676;483224;173224;
2024-05-17T13:10:25.333;539145639143533028;421831;436739;483327;173242;
2024-05-17T13:10:25.351;539145639161702173;421821;436810;483375;173229;
2024-05-17T13:10:25.369;539145639179871318;421896;436821;483422;173228;
2024-05-17T13:10:25.388;539145639198040463;421989;436769;483503;173236;
2024-05-17T13:10:25.406;539145639216209608;421965;436797;483519;173198;
2024-05-17T13:10:25.424;539145639234378753;421985;436736;483527;173237;
2024-05-17T13:10:25.442;539145639252547898;421906;436719;483541;173279;
2024-05-17T13:10:25.460;539145639270717043;421812;436533;483324;173244;
2024-05-17T13:10:25.478;539145639288886188;421673;436402;483144;173278;
2024-05-17T13:10:25.497;539145639307055333;421472;436181;482966;173226;
2024-05-17T13:10:25.515;539145639325224478;421378;436092;482858;173266;
2024-05-17T13:10:25.533;539145639343393623;421205;435978;482785;173253;
2024-05-17T13:10:25.551;539145639361561970;421142;435998;482686;173252;
2024-05-17T13:10:25.569;539145639379730279;421108;435981;482649;173237;
2024-05-17T13:10:25.587;539145639397898588;421160;436034;482733;173284;
2024-05-17T13:10:25.606;539145639416066897;421253;436191;482894;173263;
2024-05-17T13:10:25.624;539145639434235206;421371;436296;483017;173279;
2024-05-17T13:10:25.642;539145639452403515;421529;436487;483251;173292;
2024-05-17T13:10:25.660;539145639470571824;421687;436676;483352;173275;
2024-05-17T13:10:25.678;539145639488740133;421830;436815;483548;173253;
2024-05-17T13:10:25.696;539145639506908442;422000;436883;483627;173197;
2024-05-17T13:10:25.715;539145639525076751;422110;437049;483756;173248;
2024-05-17T13:10:25.733;539145639543245060;422190;437142;483881;173222;
2024-05-17T13:10:25.751;539145639561413369;422317;437212;484023;173224;
2024-05-17T13:10:25.769;539145639579581678;422452;437260;484148;173259;
2024-05-17T13:10:25.787;539145639597749987;422573;437418;484269;173245;
2024-05-17T13:10:25.805;539145639615918296;422759;437596;484409;173292;
2024-05-17T13:10:25.824;539145639634086605;422796;437658;484546;173259;
2024-05-17T13:10:25.842;539145639652254914;422895;437770;484651;173267;
2024-05-17T13:10:25.860;539145639670423223;422865;437769;484643;173267;
2024-05-17T13:10:25.878;539145639688591532;422838;437698;484526;173280;
2024-05-17T13:10:25.896;539145639706759841;422750;437640;484469;173244;
2024-05-17T13:10:25.914;539145639724928150;422677;437584;484317;173320;
2024-05-17T13:10:25.933;539145639743096459;422669;437604;484227;173258;
2024-05-17T13:10:25.951;539145639761264768;422635;437554;484250;173258;
2024-05-17T13:10:25.969;539145639779433077;422578;437500;484236;173235;
2024-05-17T13:10:25.987;539145639797601386;422548;437567;484268;173239;
2024-05-17T13:10:26.005;539145639815769695;422686;437654;484419;173209;
2024-05-17T13:10:26.023;539145639833938004;422754;437672;484497;173261;
2024-05-17T13:10:26.042;539145639852106313;422829;437823;484585;173245;
2024-05-17T13:10:26.060;539145639870274622;422940;437963;484738;173221;
2024-05-17T13:10:26.078;539145639888442931;423074;438023;484834;173209;
2024-05-17T13:10:26.096;539145639906611240;423154;438213;485028;173250;
2024-05-17T13:10:26.114;539145639924779549;423252;438220;485107;173210;
2024-05-17T13:10:26.132;539145639942947858;423333;438298;485235;173250;
2024-05-17T13:10:26.151;539145639961116167;423471;438422;485357;173279;
2024-05-17T13:10:26.169;539145639979284476;423503;438429;485380;173230;
2024-05-17T13:10:26.187;539145639997452785;423547;438466;485416;173252;
2024-05-17T13:10:26.205;539145640015621094;423615;438566;485471;173205;
2024-05-17T13:10:26.223;539145640033789403;423720;438685;485619;173271;
2024-05-17T13:10:26.241;539145640051957712;423799;438809;485712;173205;
2024-05-17T13:10:26.260;539145640070126021;423919;438831;485808;173226;
2024-05-17T13:10:26.278;539145640088294330;423957;438836;485818;173252;
2024-05-17T13:10:26.296;539145640106462639;423940;438822;485715;173260;
2024-05-17T13:10:26.314;539145640124630028;423849;438739;485612;173253;
2024-05-17T13:10:26.332;539145640142797393;423778;438756;485616;173224;
2024-05-17T13:10:26.350;539145640160964758;423764;438621;485498;173244;
2024-05-17T13:10:26.369;539145640179132123;423722;438680;485468;173267;
2024-05-17T13:10:26.387;539145640197299488;423756;438706;485514;173243;
2024-05-17T13:10:26.405;539145640215466853;423743;438678;485469;173187;
2024-05-17T13:10:26.423;539145640233634218;423850;438786;485535;173222;
2024-05-17T13:10:26.441;539145640251801583;423838;438869;485679;173215;
2024-05-17T13:10:26.459;539145640269968948;423966;438945;485731;173258;
2024-05-17T13:10:26.478;539145640288136313;424057;439019;485878;173216;
2024-05-17T13:10:26.496;539145640306303678;424190;439143;486044;173275;
2024-05-17T13:10:26.514;539145640324471043;424208;439152;486141;173266;
2024-05-17T13:10:26.532;539145640342638408;424333;439227;486145;173220;
2024-05-17T13:10:26.550;539145640360805773;424286;439195;486230;173249;
2024-05-17T13:10:26.569;539145640378973138;424380;439361;486321;173258;
2024-05-17T13:10:26.587;539145640397140503;424427;439320;486303;173176;
2024-05-17T13:10:26.605;539145640415307868;424433;439362;486447;173306;
2024-05-17T13:10:26.623;539145640433475233;424511;439389;486422;173174;
2024-05-17T13:10:26.641;539145640451642598;424581;439449;486564;173209;
2024-05-17T13:10:26.659;539145640469809963;424691;439531;486674;173212;
2024-05-17T13:10:26.678;539145640487977328;424771;439650;486720;173255;
2024-05-17T13:10:26.696;539145640506144693;424782;439672;486746;173191;
2024-05-17T13:10:26.714;539145640524312058;424792;439633;486666;173203;
2024-05-17T13:10:26.732;539145640542479423;424669;439570;486618;173174;
2024-05-17T13:10:26.750;539145640560646788;424636;439483;486540;173210;
2024-05-17T13:10:26.768;539145640578814153;424600;439479;486458;173210;
2024-05-17T13:10:26.787;539145640596981518;424588;439473;486472;173243;
2024-05-17T13:10:26.805;539145640615148883;424539;439469;486383;173245;
2024-05-17T13:10:26.823;539145640633316248;424465;439490;486397;173240;
2024-05-17T13:10:26.841;539145640651483613;424575;439589;486456;173238;
2024-05-17T13:10:26.859;539145640669650978;424567;439673;486591;173203;
2024-05-17T13:10:26.877;539145640687818343;424689;439725;486668;173231;
2024-05-17T13:10:26.896;539145640705985708;424760;439849;486796;173214;
2024-05-17T13:10:26.914;539145640724153073;424854;439823;486803;173240;
2024-05-17T13:10:26.932;539145640742320438;424966;439945;486931;173229;
2024-05-17T13:10:26.950;539145640760487803;425052;440018;487012;173260;
2024-05-17T13:10:26.968;539145640778655168;425061;440102;487053;173245;
2024-05-17T13:10:26.986;539145640796822533;425167;440142;487121;173237;
2024-05-17T13:10:27.005;539145640814989898;425178;440178;487188;173215;
2024-05-17T13:10:27.023;539145640833157263;425220;440254;487246;173248;
2024-05-17T13:10:27.041;539145640851324628;425212;440287;487270;173239;
2024-05-17T13:10:27.059;539145640869491993;425225;440308;487266;173250;
2024-05-17T13:10:27.077;539145640887659483;425255;440331;487256;173249;
2024-05-17T13:10:27.095;539145640905826957;425277;440383;487274;173206;
2024-05-17T13:10:27.114;539145640923994431;425355;440398;487323;173207;
2024-05-17T13:10:27.132;539145640942161905;425188;440278;487197;173191;
2024-05-17T13:10:27.150;539145640960329379;425131;440164;487053;173254;
2024-05-17T13:10:27.168;539145640978496853;425000;440007;486923;173214;
2024-05-17T13:10:27.186;539145640996664327;424890;439951;486781;173280;
2024-05-17T13:10:27.204;539145641014831801;424807;439862;486676;173300;
2024-05-17T13:10:27.223;539145641032999275;424696;439823;486616;173274;
2024-05-17T13:10:27.241;539145641051166749;424678;439805;486579;173282;
2024-05-17T13:10:27.259;539145641069334223;424652;439793;486582;173277;
2024-05-17T13:10:27.277;539145641087501697;424702;439867;486592;173271;
2024-05-17T13:10:27.295;539145641105669171;424700;439846;486626;173221;
2024-05-17T13:10:27.313;539145641123836645;424817;439947;486674;173271;
2024-05-17T13:10:27.332;539145641142004119;424858;439975;486814;173248;
2024-05-17T13:10:27.350;539145641160171593;424903;439944;486850;173264;
2024-05-17T13:10:27.368;539145641178339067;424942;439982;486881;173193;
2024-05-17T13:10:27.386;539145641196506541;424914;440045;486897;173229;
2024-05-17T13:10:27.404;539145641214674015;425000;440115;486937;173279;
2024-05-17T13:10:27.422;539145641232841489;425013;440128;486966;173279;
2024-05-17T13:10:27.441;539145641251008963;424997;440041;486985;173236;
2024-05-17T13:10:27.459;539145641269176437;424998;440127;486943;173299;
2024-05-17T13:10:27.477;539145641287343911;425070;440112;486961;173264;
2024-05-17T13:10:27.495;539145641305511385;425058;440134;486984;173245;
2024-05-17T13:10:27.513;539145641323678859;424982;440192;486997;173242;
2024-05-17T13:10:27.531;539145641341846333;424953;440151;486963;173263;
2024-05-17T13:10:27.550;539145641360013807;424908;439994;486851;173284;
2024-05-17T13:10:27.568;539145641378181281;424865;439842;486713;173282;
2024-05-17T13:10:27.586;539145641396348755;424639;439679;486545;173224;
2024-05-17T13:10:27.604;539145641414516229;424404;439491;486324;173247;
2024-05-17T13:10:27.622;539145641432683703;424272;439347;486151;173248;
2024-05-17T13:10:27.640;539145641450851177;424109;439206;485928;173259;
2024-05-17T13:10:27.659;539145641469018651;424039;439139;485871;173256;
2024-05-17T13:10:27.677;539145641487186125;423997;439138;485803;173179;
2024-05-17T13:10:27.695;539145641505353599;424025;439086;485866;173246;
2024-05-17T13:10:27.713;539145641523521073;423988;439167;485910;173260;
2024-05-17T13:10:27.731;539145641541688547;424050;439111;485863;173298;
2024-05-17T13:10:27.749;539145641559856021;423999;439107;485909;173301;
2024-05-17T13:10:27.768;539145641578023495;424041;439150;485972;173299;
2024-05-17T13:10:27.786;539145641596190969;424079;439130;485925;173248;
2024-05-17T13:10:27.804;539145641614358443;424102;439134;485952;173231;
2024-05-17T13:10:27.822;539145641632525917;424112;439140;486006;173213;
2024-05-17T13:10:27.840;539145641650694109;424150;439137;485999;173246;
2024-05-17T13:10:27.858;539145641668862273;424141;439126;485960;173235;
2024-05-17T13:10:27.877;539145641687030437;424134;439143;485970;173207;
2024-05-17T13:10:27.895;539145641705198601;424166;439116;485966;173257;
2024-05-17T13:10:27.913;539145641723366765;424156;439113;485984;173259;
2024-05-17T13:10:27.931;539145641741534929;424213;439131;486110;173297;
2024-05-17T13:10:27.949;539145641759703093;424077;439092;485958;173281;
2024-05-17T13:10:27.967;539145641777871257;424078;438963;485881;173291;
2024-05-17T13:10:27.986;539145641796039421;423971;438792;485703;173259;
2024-05-17T13:10:28.004;539145641814207585;423777;438608;485389;173244;
2024-05-17T13:10:28.022;539145641832375749;423601;438378;485174;173204;
2024-05-17T13:10:28.040;539145641850543913;423414;438222;485012;173233;
2024-05-17T13:10:28.058;539145641868712077;423280;438110;484934;173210;
2024-05-17T13:10:28.076;539145641886880241;423181;438026;484834;173188;
2024-05-17T13:10:28.095;539145641905048405;423206;438084;484851;173296;
2024-05-17T13:10:28.113;539145641923216569;423225;438013;484912;173281;
2024-05-17T13:10:28.131;539145641941384733;423236;438056;484891;173276;
2024-05-17T13:10:28.149;539145641959552897;423295;438079;484980;173226;
2024-05-17T13:10:28.167;539145641977721061;423428;438182;485084;173314;
2024-05-17T13:10:28.185;539145641995889225;423451;438192;485069;173214;
2024-05-17T13:10:28.204;539145642014057389;423542;438229;485141;173238;
2024-05-17T13:10:28.222;539145642032225553;423527;438143;485165;173245;
2024-05-17T13:10:28.240;539145642050393717;423582;438213;485240;173297;
2024-05-17T13:10:28.258;539145642068561881;423668;438231;485234;173271;
2024-05-17T13:10:28.276;539145642086730045;423629;438199;485254;173265;
2024-05-17T13:10:28.294;539145642104898209;423692;438288;485276;173253;
2024-05-17T13:10:28.313;539145642123066373;423702;438324;485340;173237;
2024-05-17T13:10:28.331;539145642141234537;423822;438337;485436;173270;
2024-05-17T13:10:28.349;539145642159402701;423823;438413;485470;173222;
2024-05-17T13:10:28.367;539145642177570865;423809;438316;485462;173252;
2024-05-17T13:10:28.385;539145642195739029;423767;438225;485314;173281;
2024-05-17T13:10:28.403;539145642213907193;423606;438046;485129;173220;
2024-05-17T13:10:28.422;539145642232075357;423429;437840;484909;173235;
2024-05-17T13:10:28.440;539145642250243521;423242;437589;484753;173208;
2024-05-17T13:10:28.458;539145642268411685;423139;437497;484519;173212;
2024-05-17T13:10:28.476;539145642286579849;423000;437381;484433;173211;
2024-05-17T13:10:28.494;539145642304748013;422948;437308;484357;173220;
2024-05-17T13:10:28.512;539145642322916177;422900;437308;484342;173252;
2024-05-17T13:10:28.531;539145642341084341;422862;437283;484346;173254;
2024-05-17T13:10:28.549;539145642359252505;422897;437257;484348;173254;
2024-05-17T13:10:28.567;539145642377420669;422989;437352;484460;173250;
2024-05-17T13:10:28.585;539145642395588833;423006;437340;484511;173232;
2024-05-17T13:10:28.603;539145642413758434;423107;437349;484553;173198;
2024-05-17T13:10:28.621;539145642431928035;423082;437374;484509;173178;
2024-05-17T13:10:28.640;539145642450097636;423126;437346;484604;173211;
2024-05-17T13:10:28.658;539145642468267237;423128;437334;484551;173236;
2024-05-17T13:10:28.676;539145642486436838;423107;437304;484526;173196;
2024-05-17T13:10:28.694;539145642504606439;423186;437302;484506;173187;
2024-05-17T13:10:28.712;539145642522776040;423207;437363;484567;173216;
2024-05-17T13:10:28.730;539145642540945641;423164;437397;484622;173233;
2024-05-17T13:10:28.749;539145642559115242;423209;437374;484703;173254;
2024-05-17T13:10:28.767;539145642577284843;423295;437373;484786;173229;
2024-05-17T13:10:28.785;539145642595454444;423310;437423;484780;173272;
2024-05-17T13:10:28.803;539145642613624045;423203;437234;484618;173205;
2024-05-17T13:10:28.821;539145642631793646;423102;437070;484461;173220;
2024-05-17T13:10:28.839;539145642649963247;422941;436887;484291;173258;
2024-05-17T13:10:28.858;539145642668132848;422725;436682;483995;173242;
2024-05-17T13:10:28.876;539145642686302449;422597;436494;483815;173237;
2024-05-17T13:10:28.894;539145642704472050;422533;436391;483775;173258;
2024-05-17T13:10:28.912;539145642722641651;422487;436237;483657;173175;
2024-05-17T13:10:28.930;539145642740811252;422499;436261;483704;173253;
2024-05-17T13:10:28.949;539145642758980853;422433;436292;483721;173249;
2024-05-17T13:10:28.967;539145642777150454;422541;436328;483776;173226;
2024-05-17T13:10:28.985;539145642795320055;422559;436308;483803;173225;
2024-05-17T13:10:29.003;539145642813489656;422662;436353;483921;173219;
2024-05-17T13:10:29.021;539145642831659257;422728;436438;483971;173208;
2024-05-17T13:10:29.039;539145642849828858;422803;436453;484073;173250;
2024-05-17T13:10:29.058;539145642867998459;422847;436472;484149;173239;
2024-05-17T13:10:29.076;539145642886168060;422861;436463;484135;173232;
2024-05-17T13:10:29.094;539145642904337661;422864;436501;484120;173219;
2024-05-17T13:10:29.112;539145642922507262;422947;436517;484161;173201;
2024-05-17T13:10:29.130;539145642940676863;422930;436507;484199;173208;
2024-05-17T13:10:29.148;539145642958846464;422981;436494;484212;173270;
2024-05-17T13:10:29.167;539145642977016065;423084;436530;484325;173280;
2024-05-17T13:10:29.185;539145642995185666;423078;436581;484421;173257;
2024-05-17T13:10:29.203;539145643013355267;423136;436585;484421;173224;
2024-05-17T13:10:29.221;539145643031524868;423102;436556;484419;173208;
2024-05-17T13:10:29.239;539145643049694469;423042;436408;484293;173286;
2024-05-17T13:10:29.257;539145643067864070;422835;436204;484049;173244;
2024-05-17T13:10:29.276;539145643086033671;422723;435988;483858;173270;
2024-05-17T13:10:29.294;539145643104203272;422561;435859;483694;173249;
2024-05-17T13:10:29.312;539145643122372873;422446;435697;483500;173186;
2024-05-17T13:10:29.330;539145643140542474;422277;435619;483422;173180;
2024-05-17T13:10:29.348;539145643158712075;422276;435557;483426;173220;
2024-05-17T13:10:29.366;539145643176881676;422338;435598;483479;173201;
2024-05-17T13:10:29.385;539145643195048778;422382;435596;483589;173199;
2024-05-17T13:10:29.403;539145643213215852;422487;435729;483649;173226;
2024-05-17T13:10:29.421;539145643231382926;422611;435808;483739;173216;
2024-05-17T13:10:29.439;539145643249550000;422663;435869;483851;173245;
2024-05-17T13:10:29.457;539145643267717074;422676;435925;483912;173204;
2024-05-17T13:10:29.475;539145643285884148;422826;435920;483986;173274;
2024-05-17T13:10:29.494;539145643304051222;422866;435970;484132;173223;
2024-05-17T13:10:29.512;539145643322218296;422897;435993;484069;173203;
2024-05-17T13:10:29.530;539145643340385370;422864;435961;484067;173228;
2024-05-17T13:10:29.548;539145643358552444;422917;435985;484158;173226;
2024-05-17T13:10:29.566;539145643376719518;422959;436005;484177;173158;
2024-05-17T13:10:29.584;539145643394886592;423039;436033;484248;173193;
2024-05-17T13:10:29.603;539145643413053666;423122;436180;484288;173172;
2024-05-17T13:10:29.621;539145643431220740;423129;436192;484346;173148;
2024-05-17T13:10:29.639;539145643449387814;423128;436121;484361;173127;
2024-05-17T13:10:29.657;539145643467554888;423054;435992;484202;173201;
2024-05-17T13:10:29.675;539145643485721962;422861;435879;484084;173192;
2024-05-17T13:10:29.693;539145643503889036;422729;435654;483833;173173;
2024-05-17T13:10:29.712;539145643522056110;422571;435455;483701;173225;
2024-05-17T13:10:29.730;539145643540223184;422489;435296;483509;173196;
2024-05-17T13:10:29.748;539145643558390258;422409;435173;483417;173221;
2024-05-17T13:10:29.766;539145643576557332;422273;435133;483382;173213;
2024-05-17T13:10:29.784;539145643594724406;422396;435150;483432;173160;
2024-05-17T13:10:29.802;539145643612891480;422492;435217;483459;173178;
2024-05-17T13:10:29.821;539145643631058554;422481;435283;483573;173178;
2024-05-17T13:10:29.839;539145643649225628;422590;435396;483744;173145;
2024-05-17T13:10:29.857;539145643667392702;422764;435446;483838;173196;
2024-05-17T13:10:29.875;539145643685559776;422840;435550;483969;173196;
2024-05-17T13:10:29.893;539145643703726850;422905;435658;484069;173174;
2024-05-17T13:10:29.911;539145643721893924;422892;435726;484041;173173;
2024-05-17T13:10:29.930;539145643740060998;422943;435701;484153;173249;
2024-05-17T13:10:29.948;539145643758228072;422959;435650;484144;173124;
2024-05-17T13:10:29.966;539145643776395146;422937;435698;484167;173222;
2024-05-17T13:10:29.984;539145643794562220;422992;435755;484213;173231;
2024-05-17T13:10:30.002;539145643812729294;423023;435710;484187;173212;
2024-05-17T13:10:30.020;539145643830896368;423107;435810;484298;173226;
2024-05-17T13:10:30.039;539145643849063442;423185;435869;484411;173262;
2024-05-17T13:10:30.057;539145643867230516;423140;435807;484422;173225;
2024-05-17T13:10:30.075;539145643885397590;423090;435735;484306;173247;
2024-05-17T13:10:30.093;539145643903564664;422988;435531;484162;173239;
2024-05-17T13:10:30.111;539145643921731738;422747;435292;483875;173186;
2024-05-17T13:10:30.129;539145643939898812;422659;435141;483724;173243;
2024-05-17T13:10:30.148;539145643958066407;422408;434908;483495;173208;
2024-05-17T13:10:30.166;539145643976233985;422319;434711;483310;173155;
2024-05-17T13:10:30.184;539145643994401563;422198;434620;483269;173221;
2024-05-17T13:10:30.202;539145644012569141;422158;434671;483229;173225;
2024-05-17T13:10:30.220;539145644030736719;422214;434620;483228;173218;
2024-05-17T13:10:30.238;539145644048904297;422246;434616;483274;173215;
2024-05-17T13:10:30.257;539145644067071875;422291;434723;483358;173182;
2024-05-17T13:10:30.275;539145644085239453;422346;434753;483382;173223;
2024-05-17T13:10:30.293;539145644103407031;422399;434803;483488;173208;
2024-05-17T13:10:30.311;539145644121574609;422401;434872;483523;173235;
2024-05-17T13:10:30.329;539145644139742187;422435;434919;483511;173240;
2024-05-17T13:10:30.347;539145644157909765;422495;434928;483561;173201;
2024-05-17T13:10:30.366;539145644176077343;422453;434859;483559;173189;
2024-05-17T13:10:30.384;539145644194244921;422481;434875;483546;173204;
2024-05-17T13:10:30.402;539145644212412499;422502;434850;483598;173226;
2024-05-17T13:10:30.420;539145644230580077;422549;434916;483622;173241;
2024-05-17T13:10:30.438;539145644248747655;422597;434930;483688;173301;
2024-05-17T13:10:30.456;539145644266915233;422633;434972;483712;173284;
2024-05-17T13:10:30.475;539145644285082811;422643;434982;483701;173280;
2024-05-17T13:10:30.493;539145644303250389;422648;434963;483659;173212;
2024-05-17T13:10:30.511;539145644321417967;422484;434752;483571;173205;
2024-05-17T13:10:30.529;539145644339585545;422352;434561;483334;173202;
2024-05-17T13:10:30.547;539145644357753123;422188;434327;483080;173223;
2024-05-17T13:10:30.565;539145644375920701;421978;434132;482837;173197;
2024-05-17T13:10:30.584;539145644394088279;421819;433952;482678;173204;
2024-05-17T13:10:30.602;539145644412255857;421674;433855;482518;173196;
2024-05-17T13:10:30.620;539145644430423435;421624;433754;482408;173174;
2024-05-17T13:10:30.638;539145644448591013;421610;433793;482486;173170;
2024-05-17T13:10:30.656;539145644466758591;421697;433874;482504;173212;
2024-05-17T13:10:30.674;539145644484926169;421704;433954;482609;173174;
2024-05-17T13:10:30.693;539145644503093747;421779;434028;482665;173239;
2024-05-17T13:10:30.711;539145644521261325;421864;434044;482716;173213;
2024-05-17T13:10:30.729;539145644539428903;421887;434062;482839;173286;
2024-05-17T13:10:30.747;539145644557596481;421978;434108;482853;173224;
2024-05-17T13:10:30.765;539145644575764059;421967;434152;482851;173263;
2024-05-17T13:10:30.783;539145644593931637;421960;434039;482801;173179;
2024-05-17T13:10:30.802;539145644612099215;421905;434079;482794;173204;
2024-05-17T13:10:30.820;539145644630266793;421960;434083;482790;173176;
2024-05-17T13:10:30.838;539145644648434371;422000;434056;482808;173324;
2024-05-17T13:10:30.856;539145644666601949;422025;434102;482857;173262;
2024-05-17T13:10:30.874;539145644684769527;422006;434126;482906;173196;
2024-05-17T13:10:30.892;539145644702937105;421974;434119;482906;173209;
2024-05-17T13:10:30.911;539145644721104683;421935;434142;482828;173245;
2024-05-17T13:10:30.929;539145644739274397;421798;433988;482637;173239;
2024-05-17T13:10:30.947;539145644757444087;421655;433653;482443;173181;
2024-05-17T13:10:30.965;539145644775613777;421466;433503;482190;173264;
2024-05-17T13:10:30.983;539145644793783467;421210;433303;481951;173247;
2024-05-17T13:10:31.001;539145644811953157;421122;433069;481800;173215;
2024-05-17T13:10:31.020;539145644830122847;420961;432900;481671;173248;
2024-05-17T13:10:31.038;539145644848292537;420936;432904;481573;173249;
2024-05-17T13:10:31.056;539145644866462227;420793;432941;481466;173136;
2024-05-17T13:10:31.074;539145644884631917;420901;432911;481604;173219;
2024-05-17T13:10:31.092;539145644902801607;420981;432975;481652;173192;
2024-05-17T13:10:31.111;539145644920971297;421002;432998;481686;173226;
2024-05-17T13:10:31.129;539145644939140987;421038;433060;481739;173244;
2024-05-17T13:10:31.147;539145644957310677;421075;433042;481776;173260;
2024-05-17T13:10:31.165;539145644975480367;421043;433059;481811;173264;
2024-05-17T13:10:31.183;539145644993650057;421060;433036;481897;173177;
2024-05-17T13:10:31.201;539145645011819747;421086;433110;481849;173210;
2024-05-17T13:10:31.220;539145645029989437;421116;433095;481866;173195;
2024-05-17T13:10:31.238;539145645048159127;421145;433149;481868;173170;
2024-05-17T13:10:31.256;539145645066328817;421139;433089;481908;173219;
2024-05-17T13:10:31.274;539145645084498507;421201;433159;481958;173248;
2024-05-17T13:10:31.292;539145645102668197;421224;433149;482024;173222;
2024-05-17T13:10:31.310;539145645120837887;421212;433142;481947;173227;
2024-05-17T13:10:31.329;539145645139007577;421153;433013;481888;173288;
2024-05-17T13:10:31.347;539145645157177267;421007;432830;481652;173237;
2024-05-17T13:10:31.365;539145645175346957;420832;432663;481429;173294;
2024-05-17T13:10:31.383;539145645193516647;420722;432450;481235;173303;
2024-05-17T13:10:31.401;539145645211686337;420556;432196;481010;173263;
2024-05-17T13:10:31.419;539145645229856027;420381;432053;480807;173255;
2024-05-17T13:10:31.438;539145645248025717;420228;431988;480787;173213;
2024-05-17T13:10:31.456;539145645266195407;420234;431905;480738;173256;
2024-05-17T13:10:31.474;539145645284365097;420256;431870;480755;173215;
2024-05-17T13:10:31.492;539145645302534787;420262;432034;480832;173206;
2024-05-17T13:10:31.510;539145645320704477;420423;432124;480900;173187;
2024-05-17T13:10:31.528;539145645338874167;420570;432208;481079;173187;
2024-05-17T13:10:31.547;539145645357043857;420628;432326;481180;173136;
2024-05-17T13:10:31.565;539145645375213547;420752;432392;481248;173180;
2024-05-17T13:10:31.583;539145645393383237;420865;432454;481382;173228;
2024-05-17T13:10:31.601;539145645411552927;420939;432542;481454;173231;
2024-05-17T13:10:31.619;539145645429722617;421008;432606;481508;173290;
2024-05-17T13:10:31.637;539145645447892307;421045;432667;481593;173249;
2024-05-17T13:10:31.656;539145645466061997;421070;432683;481683;173207;
2024-05-17T13:10:31.674;539145645484231687;421095;432736;481729;173219;
2024-05-17T13:10:31.692;539145645502400797;421245;432795;481808;173249;
2024-05-17T13:10:31.710;539145645520569869;421288;432893;481883;173193;
2024-05-17T13:10:31.728;539145645538738941;421262;432882;481830;173232;
2024-05-17T13:10:31.746;539145645556908013;421144;432763;481725;173253;
2024-05-17T13:10:31.765;539145645575077085;421022;432588;481567;173194;
2024-05-17T13:10:31.783;539145645593246157;420925;432389;481295;173246;
2024-05-17T13:10:31.801;539145645611415229;420769;432185;481168;173206;
2024-05-17T13:10:31.819;539145645629584301;420602;431958;480967;173158;
2024-05-17T13:10:31.837;539145645647753373;420497;431893;480877;173125;
2024-05-17T13:10:31.855;539145645665922445;420471;431860;480886;173255;
2024-05-17T13:10:31.874;539145645684091517;420471;431810;480819;173184;
2024-05-17T13:10:31.892;539145645702260589;420423;431845;480806;173191;
2024-05-17T13:10:31.910;539145645720429661;420558;431914;480989;173192;
2024-05-17T13:10:31.928;539145645738598733;420597;431964;481048;173190;
2024-05-17T13:10:31.946;539145645756767805;420758;432065;481213;173207;
2024-05-17T13:10:31.964;539145645774936877;420936;432241;481404;173243;
2024-05-17T13:10:31.983;539145645793105949;421029;432426;481538;173269;
2024-05-17T13:10:32.001;539145645811275021;421126;432539;481663;173260;
2024-05-17T13:10:32.019;539145645829444093;421196;432555;481651;173230;
2024-05-17T13:10:32.037;539145645847613165;421260;432654;481791;173205;
2024-05-17T13:10:32.055;539145645865782237;421360;432734;481849;173191;
2024-05-17T13:10:32.073;539145645883951309;421477;432784;481974;173246;
2024-05-17T13:10:32.092;539145645902120381;421482;432879;482080;173210;
2024-05-17T13:10:32.110;539145645920289453;421564;432918;482148;173191;
2024-05-17T13:10:32.128;539145645938458525;421598;432972;482212;173186;
2024-05-17T13:10:32.146;539145645956627597;421623;432980;482285;173244;
2024-05-17T13:10:32.164;539145645974796669;421499;432824;482130;173246;
2024-05-17T13:10:32.182;539145645992965741;421369;432622;481938;173231;
2024-05-17T13:10:32.201;539145646011134813;421240;432495;481781;173243;
2024-05-17T13:10:32.219;539145646029303885;421086;432338;481540;173172;
2024-05-17T13:10:32.237;539145646047472957;420941;432238;481398;173220;
2024-05-17T13:10:32.255;539145646065642029;420925;432141;481360;173188;
2024-05-17T13:10:32.273;539145646083811101;420906;432171;481358;173191;
2024-05-17T13:10:32.292;539145646101980173;420938;432271;481445;173157;
2024-05-17T13:10:32.310;539145646120149245;421023;432361;481527;173208;
2024-05-17T13:10:32.328;539145646138318317;421159;432467;481606;173262;
2024-05-17T13:10:32.346;539145646156487389;421197;432621;481749;173187;
2024-05-17T13:10:32.364;539145646174656461;421398;432751;481960;173226;
2024-05-17T13:10:32.382;539145646192825533;421525;432781;482026;173202;
2024-05-17T13:10:32.401;539145646210994605;421564;432856;482112;173155;
2024-05-17T13:10:32.419;539145646229163677;421612;432970;482209;173208;
2024-05-17T13:10:32.437;539145646247332749;421685;433065;482283;173184;
2024-05-17T13:10:32.455;539145646265500989;421725;433115;482358;173184;
2024-05-17T13:10:32.473;539145646283669189;421794;433087;482367;173193;
2024-05-17T13:10:32.491;539145646301837389;421844;433201;482402;173232;
2024-05-17T13:10:32.510;539145646320005589;421914;433269;482559;173219;
2024-05-17T13:10:32.528;539145646338173789;421997;433368;482587;173222;
2024-05-17T13:10:32.546;539145646356341989;422067;433466;482729;173236;
2024-05-17T13:10:32.564;539145646374510189;422045;433467;482761;173247;
2024-05-17T13:10:32.582;539145646392678389;422037;433428;482719;173261;
2024-05-17T13:10:32.600;539145646410846589;421945;433277;482544;173196;
2024-05-17T13:10:32.619;539145646429014789;421898;433223;482493;173216;
2024-05-17T13:10:32.637;539145646447182989;421821;433066;482310;173225;
2024-05-17T13:10:32.655;539145646465351189;421716;433018;482243;173276;
2024-05-17T13:10:32.673;539145646483519389;421673;432969;482199;173240;
2024-05-17T13:10:32.691;539145646501687589;421668;433026;482243;173242;
2024-05-17T13:10:32.709;539145646519855789;421690;433061;482310;173243;
2024-05-17T13:10:32.728;539145646538023989;421768;433129;482383;173244;
2024-05-17T13:10:32.746;539145646556192189;421829;433302;482451;173256;
2024-05-17T13:10:32.764;539145646574360389;421955;433370;482585;173236;
2024-05-17T13:10:32.782;539145646592528589;422024;433527;482648;173254;
2024-05-17T13:10:32.800;539145646610696789;422111;433559;482739;173264;
2024-05-17T13:10:32.818;539145646628864989;422212;433614;482846;173250;
2024-05-17T13:10:32.837;539145646647033189;422224;433675;482909;173218;
2024-05-17T13:10:32.855;539145646665201389;422286;433730;482990;173230;
2024-05-17T13:10:32.873;539145646683369589;422307;433824;482990;173216;
2024-05-17T13:10:32.891;539145646701537789;422333;433843;482951;173181;
2024-05-17T13:10:32.909;539145646719705989;422346;433904;483088;173243;
2024-05-17T13:10:32.927;539145646737874189;422475;433964;483167;173308;
2024-05-17T13:10:32.946;539145646756042389;422471;434056;483274;173266;
2024-05-17T13:10:32.964;539145646774210589;422522;434179;483329;173262;
2024-05-17T13:10:32.982;539145646792378789;422511;434133;483334;173255;
2024-05-17T13:10:33.000;539145646810546989;422515;434003;483303;173295;
2024-05-17T13:10:33.018;539145646828715189;422326;433870;483131;173228;
2024-05-17T13:10:33.036;539145646846883389;422243;433817;483104;173261;
2024-05-17T13:10:33.055;539145646865051589;422141;433735;482910;173272;
2024-05-17T13:10:33.073;539145646883219789;422058;433613;482852;173187;
2024-05-17T13:10:33.091;539145646901387989;422055;433607;482821;173253;
2024-05-17T13:10:33.109;539145646919556189;422046;433689;482800;173264;
2024-05-17T13:10:33.127;539145646937724389;422047;433783;482820;173271;
2024-05-17T13:10:33.145;539145646955892589;422118;433812;482917;173254;
2024-05-17T13:10:33.164;539145646974060789;422136;433820;482933;173238;
2024-05-17T13:10:33.182;539145646992228989;422243;433947;483062;173332;
2024-05-17T13:10:33.200;539145647010397189;422327;434021;483127;173211;
2024-05-17T13:10:33.218;539145647028565289;422339;434079;483166;173244;
2024-05-17T13:10:33.236;539145647046733381;422328;434187;483187;173206;
2024-05-17T13:10:33.254;539145647064901473;422428;434208;483342;173238;
