Phone timestamp;sensor timestamp [ns];channel 0;channel 1;channel 2;ambient
2024-05-18T15:12:51.336;539239385870528754;365433;355141;386110;1224;
2024-05-18T15:12:51.354;539239385888681932;364799;354409;385536;1188;
2024-05-18T15:12:51.372;539239385906835110;364237;353762;385041;1122;
2024-05-18T15:12:51.390;539239385924988288;363861;353348;384709;1167;
2024-05-18T15:12:51.408;539239385943141466;363511;352879;384291;1163;
2024-05-18T15:12:51.426;539239385961294644;363234;352492;383897;1199;
2024-05-18T15:12:51.444;539239385979447822;363122;352062;383506;1253;
2024-05-18T15:12:51.463;539239385997601000;363011;351619;382999;1254;
2024-05-18T15:12:51.481;539239386015754178;362914;351130;382548;1240;
2024-05-18T15:12:51.499;539239386033907356;362954;350797;382183;1280;
2024-05-18T15:12:51.517;539239386052060534;362890;350550;381904;1389;
2024-05-18T15:12:51.535;539239386070213712;362647;350225;381655;1419;
2024-05-18T15:12:51.553;539239386088366890;362221;349802;381233;1469;
2024-05-18T15:12:51.571;539239386106520068;361720;349417;380839;1412;
2024-05-18T15:12:51.590;539239386124673246;361181;349038;380430;1394;
2024-05-18T15:12:51.608;539239386142826424;360798;348721;380141;1431;
2024-05-18T15:12:51.626;539239386160979602;360311;348282;379825;1405;
2024-05-18T15:12:51.644;539239386179132780;359968;347921;379498;1376;
2024-05-18T15:12:51.662;539239386197285958;359713;347590;379180;1390;
2024-05-18T15:12:51.680;539239386215439136;359426;347251;378883;1375;
2024-05-18T15:12:51.699;539239386233592314;359152;346976;378636;1382;
2024-05-18T15:12:51.717;539239386251745492;358884;346672;378386;1407;
2024-05-18T15:12:51.735;539239386269898670;358564;346338;378045;1371;
2024-05-18T15:12:51.753;539239386288051848;358241;346031;377761;1428;
2024-05-18T15:12:51.771;539239386306205026;357945;345624;377441;1353;
2024-05-18T15:12:51.789;539239386324358204;357576;345381;377028;1376;
2024-05-18T15:12:51.807;539239386342511382;357293;345010;376762;1365;
2024-05-18T15:12:51.826;539239386360664560;356944;344728;376413;1357;
2024-05-18T15:12:51.844;539239386378817738;356672;344483;376119;1366;
2024-05-18T15:12:51.862;539239386396970916;356489;344279;375953;1400;
2024-05-18T15:12:51.880;539239386415124094;356176;343981;375686;1441;
2024-05-18T15:12:51.898;539239386433277272;355987;343663;375327;1421;
2024-05-18T15:12:51.916;539239386451430450;355835;343443;375257;1360;
2024-05-18T15:12:51.935;539239386469583628;355723;343257;375051;1380;
2024-05-18T15:12:51.953;539239386487736806;355673;343118;374856;1387;
2024-05-18T15:12:51.971;539239386505889984;355539;342937;374748;1387;
2024-05-18T15:12:51.989;539239386524043162;355490;342686;374564;1383;
2024-05-18T15:12:52.007;539239386542196362;355424;342633;374506;1460;
2024-05-18T15:12:52.025;539239386560349540;355294;342463;374358;1323;
2024-05-18T15:12:52.043;539239386578502718;355251;342368;374307;1387;
2024-05-18T15:12:52.062;539239386596655896;355170;342260;374169;1348;
2024-05-18T15:12:52.080;539239386614809074;355118;342129;374129;1351;
2024-05-18T15:12:52.098;539239386632962252;354799;341832;373841;1348;
2024-05-18T15:12:52.116;539239386651115430;354359;341407;373376;1350;
2024-05-18T15:12:52.134;539239386669268608;353848;340863;372845;1350;
2024-05-18T15:12:52.152;539239386687421786;353180;340289;372193;1343;
2024-05-18T15:12:52.171;539239386705574964;352524;339682;371566;1327;
2024-05-18T15:12:52.189;539239386723728142;351891;339104;371021;1327;
2024-05-18T15:12:52.207;539239386741881320;351295;338545;370452;1243;
2024-05-18T15:12:52.225;539239386760034498;350806;337970;369950;1270;
2024-05-18T15:12:52.243;539239386778187676;350290;337606;369473;1302;
2024-05-18T15:12:52.261;539239386796340854;349955;337194;369061;1297;
2024-05-18T15:12:52.279;539239386814494032;349612;336928;368849;1248;
2024-05-18T15:12:52.298;539239386832647210;349446;336683;368615;1221;
2024-05-18T15:12:52.316;539239386850800388;349288;336494;368416;1269;
2024-05-18T15:12:52.334;539239386868953566;349087;336380;368232;1299;
2024-05-18T15:12:52.352;539239386887106744;348909;336184;368053;1195;
2024-05-18T15:12:52.370;539239386905259922;348719;335902;367864;1222;
2024-05-18T15:12:52.388;539239386923413100;348540;335676;367651;1218;
2024-05-18T15:12:52.407;539239386941566278;348247;335360;367359;1187;
2024-05-18T15:12:52.425;539239386959719456;347986;335011;367060;1164;
2024-05-18T15:12:52.443;539239386977872634;347748;334749;366790;1180;
2024-05-18T15:12:52.461;539239386996025812;347555;334503;366553;1225;
2024-05-18T15:12:52.479;539239387014178990;347501;334308;366401;1204;
2024-05-18T15:12:52.497;539239387032332168;347472;334119;366392;1259;
2024-05-18T15:12:52.515;539239387050485346;347713;333953;366396;1276;
2024-05-18T15:12:52.534;539239387068638524;347948;333986;366464;1279;
2024-05-18T15:12:52.552;539239387086791702;348242;334061;366565;1240;
2024-05-18T15:12:52.570;539239387104944880;348557;334124;366670;1208;
2024-05-18T15:12:52.588;539239387123098058;348934;334286;366896;1220;
2024-05-18T15:12:52.606;539239387141251236;349296;334415;367163;1205;
2024-05-18T15:12:52.624;539239387159404414;349663;334575;367301;1206;
2024-05-18T15:12:52.643;539239387177557592;350009;334763;367599;1184;
2024-05-18T15:12:52.661;539239387195710770;350367;335014;367803;1203;
2024-05-18T15:12:52.679;539239387213864198;350678;335218;368113;1229;
2024-05-18T15:12:52.697;539239387232017612;351056;335423;368347;1223;
2024-05-18T15:12:52.715;539239387250171026;351279;335597;368568;1177;
2024-05-18T15:12:52.733;539239387268324440;351482;335664;368615;1247;
2024-05-18T15:12:52.751;539239387286477854;351509;335676;368541;1174;
2024-05-18T15:12:52.770;539239387304631268;351289;335472;368359;1153;
2024-05-18T15:12:52.788;539239387322784682;351125;335301;368131;1166;
2024-05-18T15:12:52.806;539239387340938096;350836;335077;367839;1196;
2024-05-18T15:12:52.824;539239387359091510;350726;334825;367655;1228;
2024-05-18T15:12:52.842;539239387377244924;350539;334658;367437;1192;
2024-05-18T15:12:52.860;539239387395398338;350376;334525;367316;1184;
2024-05-18T15:12:52.879;539239387413551752;350325;334463;367187;1190;
2024-05-18T15:12:52.897;539239387431705166;350407;334413;367126;1247;
2024-05-18T15:12:52.915;539239387449858580;350399;334379;367109;1237;
2024-05-18T15:12:52.933;539239387468011994;350538;334390;367099;1220;
2024-05-18T15:12:52.951;539239387486165408;350690;334499;367250;1228;
2024-05-18T15:12:52.969;539239387504318822;350801;334518;367323;1219;
2024-05-18T15:12:52.987;539239387522472236;350970;334531;367459;1267;
2024-05-18T15:12:53.006;539239387540625650;351062;334585;367554;1252;
2024-05-18T15:12:53.024;539239387558779064;351219;334716;367679;1258;
2024-05-18T15:12:53.042;539239387576932478;351294;334729;367685;1274;
2024-05-18T15:12:53.060;539239387595085892;351357;334729;367768;1254;
2024-05-18T15:12:53.078;539239387613239306;351429;334735;367813;1299;
2024-05-18T15:12:53.096;539239387631392720;351404;334733;367837;1289;
2024-05-18T15:12:53.115;539239387649546134;351396;334689;367830;1260;
2024-05-18T15:12:53.133;539239387667699548;351431;334740;367837;1254;
2024-05-18T15:12:53.151;539239387685852962;351431;334715;367811;1239;
2024-05-18T15:12:53.169;539239387704006376;351480;334722;367831;1264;
2024-05-18T15:12:53.187;539239387722159790;351473;334667;367861;1277;
2024-05-18T15:12:53.205;539239387740313204;351451;334654;367935;1263;
2024-05-18T15:12:53.223;539239387758466618;351450;334655;367990;1225;
2024-05-18T15:12:53.242;539239387776620032;351425;334650;368074;1238;
2024-05-18T15:12:53.260;539239387794773446;351491;334677;368154;1264;
2024-05-18T15:12:53.278;539239387812926860;351437;334706;368169;1202;
2024-05-18T15:12:53.296;539239387831080274;351456;334671;368208;1241;
2024-05-18T15:12:53.314;539239387849233688;351425;334653;368303;1256;
2024-05-18T15:12:53.332;539239387867387102;351433;334619;368269;1203;
2024-05-18T15:12:53.351;539239387885540516;351405;334690;368372;1273;
2024-05-18T15:12:53.369;539239387903693930;351164;334580;368323;1273;
2024-05-18T15:12:53.387;539239387921847344;350824;334317;368009;1255;
2024-05-18T15:12:53.405;539239387940000758;350361;333899;367665;1252;
2024-05-18T15:12:53.423;539239387958154172;349807;333386;367205;1243;
2024-05-18T15:12:53.441;539239387976309067;349277;332879;366760;1216;
2024-05-18T15:12:53.459;539239387994463934;348827;332464;366305;1219;
2024-05-18T15:12:53.478;539239388012618801;348538;332105;365956;1237;
2024-05-18T15:12:53.496;539239388030773668;348276;331890;365658;1232;
2024-05-18T15:12:53.514;539239388048928535;348149;331824;365512;1276;
2024-05-18T15:12:53.532;539239388067083402;348055;331845;365450;1279;
2024-05-18T15:12:53.550;539239388085238269;348066;331972;365400;1238;
2024-05-18T15:12:53.568;539239388103393136;348163;332119;365435;1211;
2024-05-18T15:12:53.587;539239388121548003;348388;332405;365459;1257;
2024-05-18T15:12:53.605;539239388139702870;348565;332731;365555;1260;
2024-05-18T15:12:53.623;539239388157857737;348744;333172;365647;1337;
2024-05-18T15:12:53.641;539239388176012604;348842;333462;365658;1214;
2024-05-18T15:12:53.659;539239388194167471;348976;333708;365673;1203;
2024-05-18T15:12:53.677;539239388212322338;349088;334053;365708;1241;
2024-05-18T15:12:53.695;539239388230477205;349106;334179;365704;1266;
2024-05-18T15:12:53.714;539239388248632072;349130;334305;365754;1274;
2024-05-18T15:12:53.732;539239388266786939;349121;334282;365754;1243;
2024-05-18T15:12:53.750;539239388284941806;349057;334246;365710;1242;
2024-05-18T15:12:53.768;539239388303096673;349087;334256;365785;1204;
2024-05-18T15:12:53.786;539239388321251540;349068;334112;365817;1206;
2024-05-18T15:12:53.804;539239388339406407;349021;333992;365833;1289;
2024-05-18T15:12:53.823;539239388357561274;349034;333924;365897;1246;
2024-05-18T15:12:53.841;539239388375716141;348980;333794;365897;1279;
2024-05-18T15:12:53.859;539239388393871008;348888;333616;365855;1236;
2024-05-18T15:12:53.877;539239388412025875;348830;333474;365862;1240;
2024-05-18T15:12:53.895;539239388430180742;348822;333420;365946;1248;
2024-05-18T15:12:53.913;539239388448335609;348766;333319;365996;1221;
2024-05-18T15:12:53.931;539239388466490476;348795;333287;366142;1273;
2024-05-18T15:12:53.950;539239388484645343;348785;333254;366179;1272;
2024-05-18T15:12:53.968;539239388502800210;348784;333201;366434;1249;
2024-05-18T15:12:53.986;539239388520955077;348916;333308;366619;1254;
2024-05-18T15:12:54.004;539239388539109944;349076;333444;366829;1251;
2024-05-18T15:12:54.022;539239388557264811;349189;333539;366960;1307;
2024-05-18T15:12:54.040;539239388575419678;349113;333490;367015;1238;
2024-05-18T15:12:54.059;539239388593574545;348852;333131;366781;1263;
2024-05-18T15:12:54.077;539239388611729412;348530;332859;366471;1221;
2024-05-18T15:12:54.095;539239388629884279;348114;332467;366188;1211;
2024-05-18T15:12:54.113;539239388648039146;347925;332118;365992;1204;
2024-05-18T15:12:54.131;539239388666194013;347907;331850;365810;1199;
2024-05-18T15:12:54.149;539239388684348880;347809;331668;365589;1236;
2024-05-18T15:12:54.167;539239388702503747;347662;331445;365269;1228;
2024-05-18T15:12:54.186;539239388720658614;347444;331270;365044;1264;
2024-05-18T15:12:54.204;539239388738813228;347343;331167;364765;1221;
2024-05-18T15:12:54.222;539239388756967804;347202;331161;364537;1245;
2024-05-18T15:12:54.240;539239388775122380;347073;331069;364299;1214;
2024-05-18T15:12:54.258;539239388793276956;346990;330950;364093;1184;
2024-05-18T15:12:54.276;539239388811431532;346920;330934;363949;1201;
2024-05-18T15:12:54.295;539239388829586108;346958;331139;363965;1230;
2024-05-18T15:12:54.313;539239388847740684;346971;331372;364012;1213;
2024-05-18T15:12:54.331;539239388865895260;347098;331520;364008;1240;
2024-05-18T15:12:54.349;539239388884049836;347018;331543;364025;1217;
2024-05-18T15:12:54.367;539239388902204412;346916;331463;363937;1215;
2024-05-18T15:12:54.385;539239388920358988;346807;331470;363951;1243;
2024-05-18T15:12:54.403;539239388938513564;346810;331492;364009;1233;
2024-05-18T15:12:54.422;539239388956668140;346856;331432;364001;1322;
2024-05-18T15:12:54.440;539239388974822716;346903;331413;364126;1314;
2024-05-18T15:12:54.458;539239388992977292;346987;331414;364234;1259;
2024-05-18T15:12:54.476;539239389011131868;346972;331396;364328;1265;
2024-05-18T15:12:54.494;539239389029286444;347140;331425;364472;1237;
2024-05-18T15:12:54.512;539239389047441020;347197;331457;364555;1266;
2024-05-18T15:12:54.531;539239389065595596;347288;331507;364662;1273;
2024-05-18T15:12:54.549;539239389083750172;347497;331640;364801;1360;
2024-05-18T15:12:54.567;539239389101904748;347614;331718;364909;1316;
2024-05-18T15:12:54.585;539239389120059324;347753;331777;365121;1344;
2024-05-18T15:12:54.603;539239389138213900;347962;331921;365335;1347;
2024-05-18T15:12:54.621;539239389156368476;348162;332025;365559;1367;
2024-05-18T15:12:54.639;539239389174523052;348388;332127;365697;1350;
2024-05-18T15:12:54.658;539239389192677628;348494;332286;365803;1337;
2024-05-18T15:12:54.676;539239389210832204;348594;332347;365964;1308;
2024-05-18T15:12:54.694;539239389228986780;348795;332534;366189;1350;
2024-05-18T15:12:54.712;539239389247141356;348836;332601;366239;1299;
2024-05-18T15:12:54.730;539239389265295932;348813;332550;366282;1352;
2024-05-18T15:12:54.748;539239389283450508;348610;332348;366088;1341;
2024-05-18T15:12:54.767;539239389301605084;348285;332060;365869;1302;
2024-05-18T15:12:54.785;539239389319759660;347950;331727;365536;1336;
2024-05-18T15:12:54.803;539239389337914236;347536;331493;365193;1356;
2024-05-18T15:12:54.821;539239389356068812;347283;331261;364924;1334;
2024-05-18T15:12:54.839;539239389374223388;347160;331115;364798;1369;
2024-05-18T15:12:54.857;539239389392377964;347012;330937;364645;1345;
2024-05-18T15:12:54.876;539239389410532540;346926;330925;364614;1366;
2024-05-18T15:12:54.894;539239389428687116;346916;330822;364551;1303;
2024-05-18T15:12:54.912;539239389446841692;347043;330904;364586;1313;
2024-05-18T15:12:54.930;539239389464996268;347056;331019;364742;1366;
2024-05-18T15:12:54.948;539239389483150844;347168;331137;364902;1350;
2024-05-18T15:12:54.966;539239389501304482;347211;331171;364991;1362;
2024-05-18T15:12:54.984;539239389519458114;347382;331167;365007;1407;
2024-05-18T15:12:55.003;539239389537611746;347370;331300;365132;1394;
2024-05-18T15:12:55.021;539239389555765378;347402;331350;365097;1386;
2024-05-18T15:12:55.039;539239389573919010;347332;331355;365002;1394;
2024-05-18T15:12:55.057;539239389592072642;347305;331288;365040;1384;
2024-05-18T15:12:55.075;539239389610226274;347326;331258;364973;1348;
2024-05-18T15:12:55.093;539239389628379906;347230;331296;364990;1319;
2024-05-18T15:12:55.112;539239389646533538;347164;331203;365043;1394;
2024-05-18T15:12:55.130;539239389664687170;347136;331254;365018;1405;
2024-05-18T15:12:55.148;539239389682840802;347074;331221;364994;1324;
2024-05-18T15:12:55.166;539239389700994434;347094;331274;364980;1356;
2024-05-18T15:12:55.184;539239389719148066;347155;331287;365020;1370;
2024-05-18T15:12:55.202;539239389737301698;347180;331326;365103;1323;
2024-05-18T15:12:55.220;539239389755455330;347120;331317;365206;1353;
2024-05-18T15:12:55.239;539239389773608962;347166;331329;365265;1270;
2024-05-18T15:12:55.257;539239389791762594;347078;331340;365374;1236;
2024-05-18T15:12:55.275;539239389809916226;347113;331329;365467;1241;
2024-05-18T15:12:55.293;539239389828069858;347072;331387;365496;1253;
2024-05-18T15:12:55.311;539239389846223490;347073;331306;365518;1239;
2024-05-18T15:12:55.329;539239389864377122;347071;331305;365587;1249;
2024-05-18T15:12:55.348;539239389882530754;347038;331276;365586;1231;
2024-05-18T15:12:55.366;539239389900684386;346914;331242;365596;1214;
2024-05-18T15:12:55.384;539239389918838018;346833;331204;365560;1136;
2024-05-18T15:12:55.402;539239389936991650;346638;331078;365487;1088;
2024-05-18T15:12:55.420;539239389955145282;346464;330969;365450;1126;
2024-05-18T15:12:55.438;539239389973298914;346100;330694;365137;1165;
2024-05-18T15:12:55.456;539239389991452546;345558;330308;364667;1102;
2024-05-18T15:12:55.475;539239390009606178;344939;329859;364233;1160;
2024-05-18T15:12:55.493;539239390027759810;344329;329430;363710;1147;
2024-05-18T15:12:55.511;539239390045913442;343686;328881;363136;1111;
2024-05-18T15:12:55.529;539239390064067074;343178;328505;362743;1134;
2024-05-18T15:12:55.547;539239390082220706;342720;328151;362386;1135;
2024-05-18T15:12:55.565;539239390100374338;342400;327963;362024;1098;
2024-05-18T15:12:55.583;539239390118527970;342091;327771;361889;1148;
2024-05-18T15:12:55.602;539239390136681602;341980;327652;361685;1195;
2024-05-18T15:12:55.620;539239390154835234;341854;327587;361567;1168;
2024-05-18T15:12:55.638;539239390172988866;341789;327538;361583;1168;
2024-05-18T15:12:55.656;539239390191142510;341663;327478;361592;1165;
2024-05-18T15:12:55.674;539239390209296142;341618;327453;361480;1222;
2024-05-18T15:12:55.692;539239390227449774;341525;327369;361452;1156;
2024-05-18T15:12:55.711;539239390245603406;341475;327314;361390;1162;
2024-05-18T15:12:55.729;539239390263757038;341344;327197;361291;1182;
2024-05-18T15:12:55.747;539239390281910670;341211;327144;361190;1188;
2024-05-18T15:12:55.765;539239390300064302;341093;327080;361093;1230;
2024-05-18T15:12:55.783;539239390318217934;340899;326902;360906;1184;
2024-05-18T15:12:55.801;539239390336371566;340830;326872;360804;1189;
2024-05-18T15:12:55.819;539239390354525198;340791;326770;360753;1204;
2024-05-18T15:12:55.838;539239390372678830;340768;326811;360728;1181;
2024-05-18T15:12:55.856;539239390390832462;340745;326815;360708;1196;
2024-05-18T15:12:55.874;539239390408986094;340739;326723;360695;1190;
2024-05-18T15:12:55.892;539239390427139726;340767;326752;360746;1132;
2024-05-18T15:12:55.910;539239390445293358;340774;326791;360698;1228;
2024-05-18T15:12:55.928;539239390463446990;340966;326807;360816;1226;
2024-05-18T15:12:55.947;539239390481600622;341055;326889;360925;1172;
2024-05-18T15:12:55.965;539239390499754254;341179;326971;360998;1183;
2024-05-18T15:12:55.983;539239390517907886;341337;326996;361067;1189;
2024-05-18T15:12:56.001;539239390536061518;341502;327124;361205;1216;
2024-05-18T15:12:56.019;539239390554215150;341664;327264;361340;1232;
2024-05-18T15:12:56.037;539239390572368782;341889;327258;361460;1246;
2024-05-18T15:12:56.055;539239390590522414;342040;327358;361613;1246;
2024-05-18T15:12:56.074;539239390608676046;342214;327459;361732;1219;
2024-05-18T15:12:56.092;539239390626829678;342415;327542;361885;1247;
2024-05-18T15:12:56.110;539239390644983310;342609;327714;362025;1198;
2024-05-18T15:12:56.128;539239390663136942;342740;327902;362227;1264;
2024-05-18T15:12:56.146;539239390681290574;342928;327962;362344;1311;
2024-05-18T15:12:56.164;539239390699444206;342980;328068;362388;1249;
2024-05-18T15:12:56.183;539239390717597838;342994;328061;362421;1252;
2024-05-18T15:12:56.201;539239390735751470;342851;327870;362213;1230;
2024-05-18T15:12:56.219;539239390753905102;342554;327617;361941;1213;
2024-05-18T15:12:56.237;539239390772058734;342287;327371;361580;1170;
2024-05-18T15:12:56.255;539239390790212366;342039;327107;361320;1263;
2024-05-18T15:12:56.273;539239390808365998;341814;326948;361140;1243;
2024-05-18T15:12:56.291;539239390826519630;341657;326752;360977;1215;
2024-05-18T15:12:56.310;539239390844673262;341554;326662;360856;1219;
2024-05-18T15:12:56.328;539239390862826894;341485;326610;360826;1247;
2024-05-18T15:12:56.346;539239390880980526;341654;326627;360879;1303;
2024-05-18T15:12:56.364;539239390899134158;341632;326649;360914;1213;
2024-05-18T15:12:56.382;539239390917287790;341792;326760;361040;1236;
2024-05-18T15:12:56.400;539239390935442912;341947;326915;361146;1225;
2024-05-18T15:12:56.419;539239390953598034;342176;327016;361269;1264;
2024-05-18T15:12:56.437;539239390971753156;342293;327127;361343;1282;
2024-05-18T15:12:56.455;539239390989908278;342463;327203;361444;1304;
2024-05-18T15:12:56.473;539239391008063400;342517;327281;361491;1272;
2024-05-18T15:12:56.491;539239391026218522;342630;327329;361389;1266;
2024-05-18T15:12:56.509;539239391044373644;342776;327384;361517;1337;
2024-05-18T15:12:56.528;539239391062528766;342910;327421;361426;1305;
2024-05-18T15:12:56.546;539239391080683888;342962;327490;361535;1273;
2024-05-18T15:12:56.564;539239391098839010;343143;327529;361620;1280;
2024-05-18T15:12:56.582;539239391116994132;343295;327679;361752;1298;
2024-05-18T15:12:56.600;539239391135149254;343502;327907;361867;1284;
2024-05-18T15:12:56.618;539239391153304376;343701;328040;362052;1307;
2024-05-18T15:12:56.636;539239391171459498;343931;328192;362149;1292;
2024-05-18T15:12:56.655;539239391189614620;344126;328304;362285;1288;
2024-05-18T15:12:56.673;539239391207769742;344385;328494;362514;1309;
2024-05-18T15:12:56.691;539239391225924864;344635;328719;362709;1341;
2024-05-18T15:12:56.709;539239391244079986;344902;328973;362889;1392;
2024-05-18T15:12:56.727;539239391262235108;345176;329153;363061;1319;
2024-05-18T15:12:56.745;539239391280390230;345387;329399;363348;1348;
2024-05-18T15:12:56.764;539239391298545352;345612;329543;363560;1361;
2024-05-18T15:12:56.782;539239391316700474;345839;329746;363857;1367;
2024-05-18T15:12:56.800;539239391334855596;346091;330001;364090;1395;
2024-05-18T15:12:56.818;539239391353010718;346344;330210;364321;1368;
2024-05-18T15:12:56.836;539239391371165840;346565;330291;364523;1351;
2024-05-18T15:12:56.854;539239391389320962;346780;330547;364698;1308;
2024-05-18T15:12:56.872;539239391407476084;347012;330645;364868;1332;
2024-05-18T15:12:56.891;539239391425631206;347180;330843;365113;1272;
2024-05-18T15:12:56.909;539239391443786328;347458;331001;365267;1283;
2024-05-18T15:12:56.927;539239391461941450;347704;331223;365581;1342;
2024-05-18T15:12:56.945;539239391480096572;348008;331388;365769;1317;
2024-05-18T15:12:56.963;539239391498251694;348239;331562;366075;1316;
2024-05-18T15:12:56.981;539239391516406816;348566;331736;366288;1379;
2024-05-18T15:12:57.000;539239391534561938;348668;331908;366455;1390;
2024-05-18T15:12:57.018;539239391552717060;348770;331946;366460;1345;
2024-05-18T15:12:57.036;539239391570872182;348675;331920;366456;1350;
2024-05-18T15:12:57.054;539239391589027304;348440;331640;366222;1350;
2024-05-18T15:12:57.072;539239391607182426;348106;331371;365936;1389;
2024-05-18T15:12:57.090;539239391625337548;347760;331073;365599;1368;
2024-05-18T15:12:57.108;539239391643492670;347502;330841;365410;1354;
2024-05-18T15:12:57.127;539239391661647792;347253;330707;365168;1359;
2024-05-18T15:12:57.145;539239391679802914;347145;330463;365032;1372;
2024-05-18T15:12:57.163;539239391697957369;347070;330427;364997;1386;
2024-05-18T15:12:57.181;539239391716111800;347078;330373;364958;1372;
2024-05-18T15:12:57.199;539239391734266231;347090;330420;365030;1310;
2024-05-18T15:12:57.217;539239391752420662;347177;330503;365094;1340;
2024-05-18T15:12:57.236;539239391770575093;347325;330558;365156;1408;
2024-05-18T15:12:57.254;539239391788729524;347407;330737;365362;1425;
2024-05-18T15:12:57.272;539239391806883955;347553;330739;365372;1367;
2024-05-18T15:12:57.290;539239391825038386;347657;330847;365467;1343;
2024-05-18T15:12:57.308;539239391843192817;347666;330846;365461;1317;
2024-05-18T15:12:57.326;539239391861347248;347645;330900;365543;1348;
2024-05-18T15:12:57.344;539239391879501679;347684;330894;365534;1359;
2024-05-18T15:12:57.363;539239391897656110;347753;330830;365544;1350;
2024-05-18T15:12:57.381;539239391915810541;347717;330885;365559;1306;
2024-05-18T15:12:57.399;539239391933964972;347758;330913;365626;1362;
2024-05-18T15:12:57.417;539239391952119403;347780;330905;365633;1335;
2024-05-18T15:12:57.435;539239391970273834;347906;330978;365696;1355;
2024-05-18T15:12:57.453;539239391988428265;348032;331033;365746;1376;
2024-05-18T15:12:57.472;539239392006582696;348182;331091;365866;1374;
2024-05-18T15:12:57.490;539239392024737127;348274;331140;365915;1348;
2024-05-18T15:12:57.508;539239392042891558;348345;331282;366063;1356;
2024-05-18T15:12:57.526;539239392061045989;348639;331430;366162;1373;
2024-05-18T15:12:57.544;539239392079200420;348797;331587;366373;1412;
2024-05-18T15:12:57.562;539239392097354851;349019;331775;366592;1395;
2024-05-18T15:12:57.580;539239392115509282;349213;331945;366760;1409;
2024-05-18T15:12:57.599;539239392133663713;349468;332184;366975;1413;
2024-05-18T15:12:57.617;539239392151818144;349638;332323;367168;1443;
2024-05-18T15:12:57.635;539239392169972575;349867;332395;367376;1437;
2024-05-18T15:12:57.653;539239392188127006;350045;332626;367553;1452;
2024-05-18T15:12:57.671;539239392206281437;350203;332826;367665;1479;
2024-05-18T15:12:57.689;539239392224435868;350419;332937;367824;1431;
2024-05-18T15:12:57.708;539239392242590299;350649;333074;367981;1430;
2024-05-18T15:12:57.726;539239392260744730;350839;333239;368152;1443;
2024-05-18T15:12:57.744;539239392278899161;351004;333423;368332;1430;
2024-05-18T15:12:57.762;539239392297053592;351270;333545;368527;1484;
2024-05-18T15:12:57.780;539239392315208023;351314;333594;368629;1401;
2024-05-18T15:12:57.798;539239392333362454;351478;333766;368815;1391;
2024-05-18T15:12:57.816;539239392351516885;351728;333954;369079;1410;
2024-05-18T15:12:57.835;539239392369671316;352054;334148;369258;1429;
2024-05-18T15:12:57.853;539239392387825747;352282;334398;369496;1414;
2024-05-18T15:12:57.871;539239392405980178;352349;334348;369520;1391;
2024-05-18T15:12:57.889;539239392424134609;352219;334206;369405;1382;
2024-05-18T15:12:57.907;539239392442289040;352024;334029;369173;1376;
2024-05-18T15:12:57.925;539239392460443327;351748;333810;368980;1431;
2024-05-18T15:12:57.944;539239392478597576;351416;333594;368724;1397;
2024-05-18T15:12:57.962;539239392496751825;351127;333300;368339;1403;
2024-05-18T15:12:57.980;539239392514906074;350887;333053;368087;1445;
2024-05-18T15:12:57.998;539239392533060323;350637;332831;367913;1414;
2024-05-18T15:12:58.016;539239392551214572;350602;332703;367792;1401;
2024-05-18T15:12:58.034;539239392569368821;350562;332638;367745;1367;
2024-05-18T15:12:58.052;539239392587523070;350595;332657;367740;1365;
2024-05-18T15:12:58.071;539239392605677319;350733;332757;367908;1407;
2024-05-18T15:12:58.089;539239392623831568;350811;332792;367927;1380;
2024-05-18T15:12:58.107;539239392641985817;350902;332853;367990;1448;
2024-05-18T15:12:58.125;539239392660140066;351005;332874;368072;1418;
2024-05-18T15:12:58.143;539239392678294315;351097;332898;368128;1389;
2024-05-18T15:12:58.161;539239392696448564;351131;332975;368101;1343;
2024-05-18T15:12:58.180;539239392714602813;351108;332936;368136;1355;
2024-05-18T15:12:58.198;539239392732757062;351104;332947;368113;1421;
2024-05-18T15:12:58.216;539239392750911311;351067;332914;368098;1423;
2024-05-18T15:12:58.234;539239392769065560;351174;332937;368070;1403;
2024-05-18T15:12:58.252;539239392787219809;351185;332875;368058;1366;
2024-05-18T15:12:58.270;539239392805374058;351185;332908;367969;1386;
2024-05-18T15:12:58.288;539239392823528307;351204;332945;368053;1361;
2024-05-18T15:12:58.307;539239392841682556;351356;333023;368084;1375;
2024-05-18T15:12:58.325;539239392859836805;351352;333039;368133;1379;
2024-05-18T15:12:58.343;539239392877991054;351535;333140;368280;1400;
2024-05-18T15:12:58.361;539239392896145303;351678;333278;368441;1347;
2024-05-18T15:12:58.379;539239392914299552;351876;333449;368603;1354;
2024-05-18T15:12:58.397;539239392932453801;352045;333578;368780;1377;
2024-05-18T15:12:58.416;539239392950608050;352248;333704;368900;1355;
2024-05-18T15:12:58.434;539239392968762299;352487;333849;369106;1379;
2024-05-18T15:12:58.452;539239392986916548;352682;333969;369289;1354;
2024-05-18T15:12:58.470;539239393005070797;353008;334109;369506;1407;
2024-05-18T15:12:58.488;539239393023225046;353193;334252;369578;1412;
2024-05-18T15:12:58.506;539239393041379295;353388;334350;369737;1464;
2024-05-18T15:12:58.525;539239393059533544;353502;334473;369847;1343;
2024-05-18T15:12:58.543;539239393077687793;353596;334727;370002;1433;
2024-05-18T15:12:58.561;539239393095842042;353748;334789;370102;1361;
2024-05-18T15:12:58.579;539239393113996291;353995;334915;370308;1349;
2024-05-18T15:12:58.597;539239393132150540;354163;335040;370432;1371;
2024-05-18T15:12:58.615;539239393150304789;354393;335274;370593;1366;
2024-05-18T15:12:58.633;539239393168459038;354674;335438;370830;1408;
2024-05-18T15:12:58.652;539239393186613287;354822;335580;371015;1349;
2024-05-18T15:12:58.670;539239393204767536;355046;335775;371167;1351;
2024-05-18T15:12:58.688;539239393222923138;355186;335859;371254;1399;
2024-05-18T15:12:58.706;539239393241078732;355125;335762;371238;1348;
2024-05-18T15:12:58.724;539239393259234326;354939;335662;371053;1376;
2024-05-18T15:12:58.742;539239393277389920;354640;335343;370723;1393;
2024-05-18T15:12:58.761;539239393295545514;354340;334984;370372;1345;
2024-05-18T15:12:58.779;539239393313701108;354006;334778;370039;1356;
2024-05-18T15:12:58.797;539239393331856702;353734;334443;369681;1359;
2024-05-18T15:12:58.815;539239393350012296;353559;334188;369486;1399;
2024-05-18T15:12:58.833;539239393368167890;353349;334033;369296;1332;
2024-05-18T15:12:58.851;539239393386323484;353302;333921;369209;1378;
2024-05-18T15:12:58.869;539239393404479078;353286;333891;369144;1369;
2024-05-18T15:12:58.888;539239393422634672;353286;333897;369105;1388;
2024-05-18T15:12:58.906;539239393440790266;353358;333855;369155;1379;
2024-05-18T15:12:58.924;539239393458945860;353462;333907;369166;1339;
2024-05-18T15:12:58.942;539239393477101454;353642;334006;369249;1331;
2024-05-18T15:12:58.960;539239393495257048;353742;334066;369278;1331;
2024-05-18T15:12:58.978;539239393513412642;353764;334105;369314;1320;
2024-05-18T15:12:58.997;539239393531568236;353816;334095;369318;1339;
2024-05-18T15:12:59.015;539239393549723830;353817;334056;369301;1376;
2024-05-18T15:12:59.033;539239393567879424;353810;334029;369309;1371;
2024-05-18T15:12:59.051;539239393586035018;353726;333962;369314;1345;
2024-05-18T15:12:59.069;539239393604190612;353748;333911;369174;1362;
2024-05-18T15:12:59.087;539239393622346206;353810;333927;369115;1349;
2024-05-18T15:12:59.105;539239393640501800;353770;333949;369115;1383;
2024-05-18T15:12:59.124;539239393658657394;353786;333858;369021;1342;
2024-05-18T15:12:59.142;539239393676812988;353703;333810;368945;1342;
2024-05-18T15:12:59.160;539239393694968582;353754;333873;369019;1330;
2024-05-18T15:12:59.178;539239393713124176;353779;333993;369138;1289;
2024-05-18T15:12:59.196;539239393731279770;353945;334122;369263;1296;
2024-05-18T15:12:59.214;539239393749435364;354174;334233;369467;1268;
2024-05-18T15:12:59.233;539239393767590958;354374;334363;369575;1328;
2024-05-18T15:12:59.251;539239393785746552;354543;334545;369720;1345;
2024-05-18T15:12:59.269;539239393803902146;354669;334705;369838;1302;
2024-05-18T15:12:59.287;539239393822057740;354928;334875;370058;1269;
2024-05-18T15:12:59.305;539239393840213334;355196;335012;370205;1291;
2024-05-18T15:12:59.323;539239393858368928;355421;335227;370403;1315;
2024-05-18T15:12:59.341;539239393876524522;355741;335510;370600;1347;
2024-05-18T15:12:59.360;539239393894680116;356022;335730;370741;1330;
2024-05-18T15:12:59.378;539239393912835710;356275;336032;370890;1372;
2024-05-18T15:12:59.396;539239393930991304;356516;336269;371027;1358;
2024-05-18T15:12:59.414;539239393949146898;356721;336515;371187;1334;
2024-05-18T15:12:59.432;539239393967302492;357049;336799;371431;1371;
2024-05-18T15:12:59.450;539239393985457431;357284;337123;371609;1341;
2024-05-18T15:12:59.469;539239394003612334;357558;337423;371855;1325;
2024-05-18T15:12:59.487;539239394021767237;357836;337780;372061;1339;
2024-05-18T15:12:59.505;539239394039922140;357989;337998;372124;1341;
2024-05-18T15:12:59.523;539239394058077043;358005;338168;372007;1361;
2024-05-18T15:12:59.541;539239394076231946;357883;338220;371844;1368;
2024-05-18T15:12:59.559;539239394094386849;357717;338163;371663;1399;
2024-05-18T15:12:59.578;539239394112541752;357569;338067;371457;1431;
2024-05-18T15:12:59.596;539239394130696655;357382;338004;371225;1386;
2024-05-18T15:12:59.614;539239394148851558;357248;337962;371137;1427;
2024-05-18T15:12:59.632;539239394167006461;357210;338009;370940;1380;
2024-05-18T15:12:59.650;539239394185161364;357239;338204;370948;1425;
2024-05-18T15:12:59.668;539239394203316267;357328;338470;371002;1375;
2024-05-18T15:12:59.686;539239394221471170;357540;338816;371217;1377;
2024-05-18T15:12:59.705;539239394239626073;357790;339190;371342;1376;
2024-05-18T15:12:59.723;539239394257780976;358041;339606;371635;1393;
2024-05-18T15:12:59.741;539239394275935879;358284;340014;371799;1395;
2024-05-18T15:12:59.759;539239394294090782;358554;340307;372038;1408;
2024-05-18T15:12:59.777;539239394312245685;358784;340567;372215;1386;
2024-05-18T15:12:59.795;539239394330400588;358899;340767;372265;1389;
2024-05-18T15:12:59.814;539239394348555491;358913;340787;372342;1384;
2024-05-18T15:12:59.832;539239394366710394;359005;340817;372312;1357;
2024-05-18T15:12:59.850;539239394384865297;358961;340767;372206;1336;
2024-05-18T15:12:59.868;539239394403020200;358950;340639;372160;1408;
2024-05-18T15:12:59.886;539239394421175103;358797;340434;372050;1336;
2024-05-18T15:12:59.904;539239394439330006;358663;340238;372062;1339;
2024-05-18T15:12:59.922;539239394457484909;358509;340014;372048;1359;
2024-05-18T15:12:59.941;539239394475639812;358380;339852;372099;1336;
2024-05-18T15:12:59.959;539239394493794715;358132;339620;372280;1321;
2024-05-18T15:12:59.977;539239394511949618;358086;339467;372510;1323;
2024-05-18T15:12:59.995;539239394530104521;358320;339693;372822;1335;
2024-05-18T15:13:00.013;539239394548259424;358636;340048;373006;1334;
2024-05-18T15:13:00.031;539239394566414327;358638;340177;373178;1373;
2024-05-18T15:13:00.050;539239394584569230;358562;340155;373205;1269;
2024-05-18T15:13:00.068;539239394602724133;358600;340173;373232;1273;
2024-05-18T15:13:00.086;539239394620879036;358754;340238;373383;1296;
2024-05-18T15:13:00.104;539239394639033939;358958;340445;373638;1268;
2024-05-18T15:13:00.122;539239394657188842;359257;340522;373796;1271;
2024-05-18T15:13:00.140;539239394675343745;359429;340520;373896;1299;
2024-05-18T15:13:00.158;539239394693498648;359594;340528;374091;1286;
2024-05-18T15:13:00.177;539239394711653551;359753;340594;374221;1315;
2024-05-18T15:13:00.195;539239394729808454;359988;340724;374476;1313;
2024-05-18T15:13:00.213;539239394747963620;360233;340816;374665;1328;
2024-05-18T15:13:00.231;539239394766118778;360381;340911;374832;1348;
2024-05-18T15:13:00.249;539239394784273936;360610;341035;375057;1311;
2024-05-18T15:13:00.267;539239394802429094;360827;341102;375218;1280;
2024-05-18T15:13:00.286;539239394820584252;361016;341203;375300;1313;
2024-05-18T15:13:00.304;539239394838739410;361104;341215;375285;1379;
2024-05-18T15:13:00.322;539239394856894568;360995;341070;375145;1376;
2024-05-18T15:13:00.340;539239394875049726;360821;340739;374773;1426;
2024-05-18T15:13:00.358;539239394893204884;360435;340359;374371;1416;
2024-05-18T15:13:00.376;539239394911360042;360014;339927;373975;1372;
2024-05-18T15:13:00.394;539239394929515200;359643;339520;373509;1368;
2024-05-18T15:13:00.413;539239394947670358;359362;339191;373203;1385;
2024-05-18T15:13:00.431;539239394965825516;359090;338867;372922;1445;
2024-05-18T15:13:00.449;539239394983980674;358935;338652;372634;1380;
2024-05-18T15:13:00.467;539239395002135832;358911;338525;372501;1438;
2024-05-18T15:13:00.485;539239395020290990;358816;338413;372437;1417;
2024-05-18T15:13:00.503;539239395038446148;358761;338394;372378;1447;
2024-05-18T15:13:00.522;539239395056601306;358825;338275;372287;1438;
2024-05-18T15:13:00.540;539239395074756464;358909;338237;372273;1401;
2024-05-18T15:13:00.558;539239395092911622;358910;338231;372188;1447;
2024-05-18T15:13:00.576;539239395111066780;358936;338191;372093;1458;
2024-05-18T15:13:00.594;539239395129221938;358875;338148;371948;1438;
2024-05-18T15:13:00.612;539239395147377096;358812;338045;371784;1453;
2024-05-18T15:13:00.631;539239395165532254;358653;337791;371630;1465;
2024-05-18T15:13:00.649;539239395183687412;358490;337663;371332;1526;
2024-05-18T15:13:00.667;539239395201842570;358248;337455;371025;1492;
2024-05-18T15:13:00.685;539239395219997728;357888;337258;370821;1469;
2024-05-18T15:13:00.703;539239395238152886;357732;337081;370603;1523;
2024-05-18T15:13:00.721;539239395256308044;357565;336919;370523;1479;
2024-05-18T15:13:00.739;539239395274463202;357408;336922;370670;1524;
2024-05-18T15:13:00.758;539239395292618360;357242;337001;370867;1539;
2024-05-18T15:13:00.776;539239395310773518;357231;337220;371170;1508;
2024-05-18T15:13:00.794;539239395328928676;357223;337455;371391;1456;
2024-05-18T15:13:00.812;539239395347083834;357402;337782;371645;1520;
2024-05-18T15:13:00.830;539239395365238992;357491;337864;371792;1451;
2024-05-18T15:13:00.848;539239395383394150;357452;337824;371864;1442;
2024-05-18T15:13:00.867;539239395401549308;357485;337844;371853;1452;
2024-05-18T15:13:00.885;539239395419704466;357704;338035;371998;1439;
2024-05-18T15:13:00.903;539239395437859624;357920;338218;372161;1502;
2024-05-18T15:13:00.921;539239395456014782;358206;338346;372373;1441;
2024-05-18T15:13:00.939;539239395474169940;358264;338311;372427;1427;
2024-05-18T15:13:00.957;539239395492326194;358287;338330;372607;1448;
2024-05-18T15:13:00.975;539239395510482442;358303;338276;372587;1468;
2024-05-18T15:13:00.994;539239395528638690;358249;338201;372519;1446;
2024-05-18T15:13:01.012;539239395546794938;358203;338063;372523;1403;
2024-05-18T15:13:01.030;539239395564951186;357992;337850;372401;1320;
2024-05-18T15:13:01.048;539239395583107434;357766;337615;372265;1352;
2024-05-18T15:13:01.066;539239395601263682;357575;337373;372033;1370;
2024-05-18T15:13:01.084;539239395619419930;357261;337099;371700;1442;
2024-05-18T15:13:01.103;539239395637576178;356841;336702;371183;1386;
2024-05-18T15:13:01.121;539239395655732426;356336;336282;370653;1382;
2024-05-18T15:13:01.139;539239395673888674;355926;335927;370036;1343;
2024-05-18T15:13:01.157;539239395692044922;355592;335614;369533;1348;
2024-05-18T15:13:01.175;539239395710201170;355453;335406;369053;1386;
2024-05-18T15:13:01.193;539239395728357418;355256;335245;368649;1435;
2024-05-18T15:13:01.211;539239395746513666;355060;335194;368461;1481;
2024-05-18T15:13:01.230;539239395764669914;355093;335270;368379;1465;
2024-05-18T15:13:01.248;539239395782826162;355084;335354;368336;1515;
2024-05-18T15:13:01.266;539239395800982410;355105;335598;368488;1499;
2024-05-18T15:13:01.284;539239395819138658;355253;335738;368624;1566;
2024-05-18T15:13:01.302;539239395837294906;355446;335957;368817;1553;
2024-05-18T15:13:01.320;539239395855451154;355678;336151;369097;1578;
2024-05-18T15:13:01.339;539239395873607402;355906;336342;369355;1627;
2024-05-18T15:13:01.357;539239395891763650;355992;336421;369412;1620;
2024-05-18T15:13:01.375;539239395909919898;356111;336500;369459;1562;
2024-05-18T15:13:01.393;539239395928076146;356125;336537;369451;1504;
2024-05-18T15:13:01.411;539239395946232394;356111;336603;369426;1515;
2024-05-18T15:13:01.429;539239395964388642;356113;336543;369454;1561;
2024-05-18T15:13:01.448;539239395982544890;356098;336588;369407;1549;
2024-05-18T15:13:01.466;539239396000701138;356106;336706;369386;1552;
2024-05-18T15:13:01.484;539239396018857386;356099;336834;369513;1559;
2024-05-18T15:13:01.502;539239396037013634;356343;337048;369689;1556;
2024-05-18T15:13:01.520;539239396055169882;356530;337173;369883;1606;
2024-05-18T15:13:01.538;539239396073326130;356917;337249;370039;1576;
2024-05-18T15:13:01.556;539239396091482378;357452;337292;370158;1635;
2024-05-18T15:13:01.575;539239396109638626;358208;337397;370298;1641;
2024-05-18T15:13:01.593;539239396127794444;359348;337653;370617;1693;
2024-05-18T15:13:01.611;539239396145950256;360719;338227;371201;1708;
2024-05-18T15:13:01.629;539239396164106068;362395;338976;372024;1785;
2024-05-18T15:13:01.647;539239396182261880;364127;339868;372861;1800;
2024-05-18T15:13:01.665;539239396200417692;365980;340838;374022;1797;
2024-05-18T15:13:01.684;539239396218573504;367750;341802;375233;1802;
2024-05-18T15:13:01.702;539239396236729316;369113;342556;376301;1797;
2024-05-18T15:13:01.720;539239396254885128;369950;343132;376990;1777;
2024-05-18T15:13:01.738;539239396273040940;370304;343715;377482;1778;
2024-05-18T15:13:01.756;539239396291196752;370450;344117;378015;1742;
2024-05-18T15:13:01.774;539239396309352564;370490;344565;378733;1795;
2024-05-18T15:13:01.792;539239396327508376;370350;344868;379372;1782;
2024-05-18T15:13:01.811;539239396345664188;369849;344931;379628;1727;
2024-05-18T15:13:01.829;539239396363820000;369047;344639;379242;1706;
2024-05-18T15:13:01.847;539239396381975812;368028;344179;378656;1631;
2024-05-18T15:13:01.865;539239396400131624;367061;343661;378081;1573;
2024-05-18T15:13:01.883;539239396418287436;366073;343222;377311;1603;
2024-05-18T15:13:01.901;539239396436443248;365206;342626;376604;1525;
2024-05-18T15:13:01.920;539239396454599060;364482;342109;375938;1469;
2024-05-18T15:13:01.938;539239396472754872;363733;341672;375389;1574;
2024-05-18T15:13:01.956;539239396490910684;363187;341241;374957;1546;
2024-05-18T15:13:01.974;539239396509066496;362766;340925;374539;1480;
2024-05-18T15:13:01.992;539239396527222308;362416;340575;374257;1538;
2024-05-18T15:13:02.010;539239396545378120;362134;340444;374053;1512;
2024-05-18T15:13:02.029;539239396563533932;361827;340271;373881;1458;
2024-05-18T15:13:02.047;539239396581689744;361679;340160;373792;1538;
2024-05-18T15:13:02.065;539239396599845556;361328;339970;373585;1495;
2024-05-18T15:13:02.083;539239396618001368;361049;339686;373471;1530;
2024-05-18T15:13:02.101;539239396636157180;360688;339514;373268;1530;
2024-05-18T15:13:02.119;539239396654312992;360541;339328;373221;1524;
2024-05-18T15:13:02.137;539239396672468804;360398;339108;373115;1562;
2024-05-18T15:13:02.156;539239396690624616;360402;338863;372979;1538;
2024-05-18T15:13:02.174;539239396708780428;360692;338711;372942;1502;
2024-05-18T15:13:02.192;539239396726936240;361354;338733;373020;1544;
2024-05-18T15:13:02.210;539239396745092052;362138;338811;373069;1545;
2024-05-18T15:13:02.228;539239396763246344;363067;339114;373482;1616;
2024-05-18T15:13:02.246;539239396781400630;364239;339585;374048;1646;
2024-05-18T15:13:02.265;539239396799554916;365640;340254;374787;1711;
2024-05-18T15:13:02.283;539239396817709202;367116;341034;375683;1731;
2024-05-18T15:13:02.301;539239396835863488;368642;341859;376719;1776;
2024-05-18T15:13:02.319;539239396854017774;370183;342671;377752;1789;
2024-05-18T15:13:02.337;539239396872172060;371565;343439;378744;1737;
2024-05-18T15:13:02.355;539239396890326346;372658;344097;379616;1743;
2024-05-18T15:13:02.373;539239396908480632;373515;344545;380257;1819;
2024-05-18T15:13:02.392;539239396926634918;373882;344840;380630;1758;
2024-05-18T15:13:02.410;539239396944789204;373841;344967;380838;1733;
2024-05-18T15:13:02.428;539239396962943490;373585;344881;380952;1689;
2024-05-18T15:13:02.446;539239396981097776;373151;344778;381050;1728;
2024-05-18T15:13:02.464;539239396999252062;372668;344651;381189;1670;
2024-05-18T15:13:02.482;539239397017406348;372185;344391;381280;1676;
2024-05-18T15:13:02.501;539239397035560634;371308;344012;381233;1643;
2024-05-18T15:13:02.519;539239397053714920;370184;343412;380806;1549;
2024-05-18T15:13:02.537;539239397071869206;369003;342836;380126;1513;
2024-05-18T15:13:02.555;539239397090023492;367809;342066;379358;1501;
2024-05-18T15:13:02.573;539239397108177778;366662;341354;378559;1445;
2024-05-18T15:13:02.591;539239397126332064;365569;340695;377607;1430;
2024-05-18T15:13:02.609;539239397144486350;364639;340042;376809;1430;
2024-05-18T15:13:02.628;539239397162640636;363833;339427;376018;1394;
2024-05-18T15:13:02.646;539239397180794922;363264;338967;375412;1419;
2024-05-18T15:13:02.664;539239397198949208;362892;338682;374924;1367;
2024-05-18T15:13:02.682;539239397217103494;362599;338478;374482;1376;
2024-05-18T15:13:02.700;539239397235257780;362375;338419;374090;1402;
2024-05-18T15:13:02.718;539239397253412066;362229;338387;373937;1379;
2024-05-18T15:13:02.737;539239397271566352;362209;338448;373881;1345;
2024-05-18T15:13:02.755;539239397289720638;362227;338593;373846;1383;
2024-05-18T15:13:02.773;539239397307874924;362183;338652;373886;1354;
2024-05-18T15:13:02.791;539239397326029210;362049;338644;373782;1324;
2024-05-18T15:13:02.809;539239397344183496;361940;338643;373732;1330;
2024-05-18T15:13:02.827;539239397362337782;361851;338607;373628;1371;
2024-05-18T15:13:02.845;539239397380492068;361737;338529;373576;1367;
2024-05-18T15:13:02.864;539239397398647234;361617;338464;373421;1352;
2024-05-18T15:13:02.882;539239397416802392;361507;338412;373335;1439;
2024-05-18T15:13:02.900;539239397434957550;361347;338353;373119;1352;
2024-05-18T15:13:02.918;539239397453112708;361308;338310;373090;1399;
2024-05-18T15:13:02.936;539239397471267866;361277;338402;373037;1371;
2024-05-18T15:13:02.954;539239397489423024;361296;338538;373143;1419;
2024-05-18T15:13:02.973;539239397507578182;361470;338736;373246;1402;
2024-05-18T15:13:02.991;539239397525733340;361889;339157;373675;1495;
2024-05-18T15:13:03.009;539239397543888498;362498;339712;374121;1533;
2024-05-18T15:13:03.027;539239397562043656;363335;340167;374671;1535;
2024-05-18T15:13:03.045;539239397580198814;364297;340742;375249;1594;
2024-05-18T15:13:03.063;539239397598353972;365251;341352;375822;1576;
2024-05-18T15:13:03.081;539239397616509130;366206;341894;376488;1646;
2024-05-18T15:13:03.100;539239397634664288;367028;342486;377049;1635;
2024-05-18T15:13:03.118;539239397652819446;367670;342957;377456;1702;
2024-05-18T15:13:03.136;539239397670974604;368151;343291;377820;1604;
2024-05-18T15:13:03.154;539239397689129762;368507;343678;378190;1676;
2024-05-18T15:13:03.172;539239397707284920;368551;343908;378508;1629;
2024-05-18T15:13:03.190;539239397725440078;368442;343977;378522;1626;
2024-05-18T15:13:03.209;539239397743595236;367925;343798;378246;1542;
2024-05-18T15:13:03.227;539239397761750394;367253;343457;377783;1525;
2024-05-18T15:13:03.245;539239397779905552;366412;342929;377126;1484;
2024-05-18T15:13:03.263;539239397798060710;365568;342366;376498;1469;
2024-05-18T15:13:03.281;539239397816215868;364750;341722;375881;1448;
2024-05-18T15:13:03.299;539239397834371026;364008;341170;375270;1454;
2024-05-18T15:13:03.317;539239397852526184;363457;340705;374843;1453;
2024-05-18T15:13:03.336;539239397870681342;362916;340371;374476;1492;
2024-05-18T15:13:03.354;539239397888836500;362502;340045;374006;1451;
2024-05-18T15:13:03.372;539239397906991658;362183;339856;373815;1438;
2024-05-18T15:13:03.390;539239397925146816;361969;339726;373639;1416;
2024-05-18T15:13:03.408;539239397943301974;361844;339649;373525;1464;
2024-05-18T15:13:03.426;539239397961457132;361678;339644;373421;1509;
2024-05-18T15:13:03.445;539239397979612290;361544;339578;373297;1436;
2024-05-18T15:13:03.463;539239397997767448;361427;339524;373239;1442;
2024-05-18T15:13:03.481;539239398015922606;361222;339324;373071;1407;
2024-05-18T15:13:03.499;539239398034077336;361105;339325;373004;1393;
2024-05-18T15:13:03.517;539239398052232058;360998;339156;372887;1438;
2024-05-18T15:13:03.535;539239398070386780;360844;339119;372828;1458;
2024-05-18T15:13:03.554;539239398088541502;360972;339322;372920;1518;
2024-05-18T15:13:03.572;539239398106696224;361407;339583;373188;1519;
2024-05-18T15:13:03.590;539239398124850946;361906;339934;373556;1538;
2024-05-18T15:13:03.608;539239398143005668;362655;340285;373921;1590;
2024-05-18T15:13:03.626;539239398161160390;363604;340808;374394;1661;
2024-05-18T15:13:03.644;539239398179315112;364882;341482;375021;1736;
2024-05-18T15:13:03.662;539239398197469834;366146;342161;375545;1714;
2024-05-18T15:13:03.681;539239398215624556;367381;342830;376205;1782;
2024-05-18T15:13:03.699;539239398233779278;368529;343581;376890;1780;
2024-05-18T15:13:03.717;539239398251934000;369550;344305;377500;1766;
2024-05-18T15:13:03.735;539239398270088722;370512;344979;378046;1767;
2024-05-18T15:13:03.753;539239398288243444;371373;345563;378614;1770;
2024-05-18T15:13:03.771;539239398306398166;372048;346087;379162;1844;
2024-05-18T15:13:03.790;539239398324552888;372580;346480;379617;1810;
2024-05-18T15:13:03.808;539239398342707610;372957;346834;380044;1809;
2024-05-18T15:13:03.826;539239398360862332;373240;347150;380437;1820;
2024-05-18T15:13:03.844;539239398379017054;373266;347211;380640;1694;
2024-05-18T15:13:03.862;539239398397171776;372919;347144;380547;1715;
2024-05-18T15:13:03.880;539239398415326498;372208;346908;380328;1661;
2024-05-18T15:13:03.898;539239398433481220;371357;346450;379894;1644;
2024-05-18T15:13:03.917;539239398451635942;370312;345738;379347;1600;
2024-05-18T15:13:03.935;539239398469790664;369353;345015;378868;1579;
2024-05-18T15:13:03.953;539239398487945386;368351;344268;378228;1504;
2024-05-18T15:13:03.971;539239398506100108;367460;343621;377667;1461;
2024-05-18T15:13:03.989;539239398524254830;366651;343064;377202;1502;
2024-05-18T15:13:04.007;539239398542409552;365982;342507;376698;1421;
2024-05-18T15:13:04.026;539239398560564274;365453;342054;376311;1478;
2024-05-18T15:13:04.044;539239398578718996;364929;341682;376028;1453;
2024-05-18T15:13:04.062;539239398596873718;364490;341346;375780;1395;
2024-05-18T15:13:04.080;539239398615028440;364081;341041;375532;1405;
2024-05-18T15:13:04.098;539239398633183162;363715;340756;375278;1403;
2024-05-18T15:13:04.116;539239398651337884;363316;340486;375038;1433;
2024-05-18T15:13:04.134;539239398669490006;363030;340240;374766;1477;
2024-05-18T15:13:04.153;539239398687642112;362754;340089;374457;1482;
2024-05-18T15:13:04.171;539239398705794218;362412;339906;374154;1557;
2024-05-18T15:13:04.189;539239398723946324;362062;339644;373875;1473;
2024-05-18T15:13:04.207;539239398742098430;361755;339366;373533;1475;
2024-05-18T15:13:04.225;539239398760250536;361464;339213;373281;1519;
2024-05-18T15:13:04.243;539239398778402642;361219;339066;373030;1508;
2024-05-18T15:13:04.262;539239398796554748;360932;338899;372806;1558;
2024-05-18T15:13:04.280;539239398814706854;360676;338679;372566;1494;
2024-05-18T15:13:04.298;539239398832858960;360405;338541;372322;1481;
2024-05-18T15:13:04.316;539239398851011066;360241;338460;372145;1490;
2024-05-18T15:13:04.334;539239398869163172;360039;338322;372050;1468;
2024-05-18T15:13:04.352;539239398887315278;359924;338346;371990;1535;
2024-05-18T15:13:04.370;539239398905467384;359784;338212;371933;1475;
2024-05-18T15:13:04.389;539239398923619490;359605;338094;371919;1510;
2024-05-18T15:13:04.407;539239398941771596;359483;338083;371924;1516;
2024-05-18T15:13:04.425;539239398959923702;359372;338094;372011;1558;
2024-05-18T15:13:04.443;539239398978075808;359237;338008;371902;1529;
2024-05-18T15:13:04.461;539239398996227914;358961;337771;371812;1561;
2024-05-18T15:13:04.479;539239399014380020;358582;337424;371530;1611;
2024-05-18T15:13:04.498;539239399032532126;357992;337009;371039;1552;
2024-05-18T15:13:04.516;539239399050684232;357365;336438;370500;1597;
2024-05-18T15:13:04.534;539239399068836338;356617;335844;369778;1588;
2024-05-18T15:13:04.552;539239399086988444;355927;335281;369220;1611;
2024-05-18T15:13:04.570;539239399105140550;355319;334682;368656;1620;
2024-05-18T15:13:04.588;539239399123292656;354717;334146;368175;1609;
2024-05-18T15:13:04.606;539239399141444762;354213;333671;367748;1548;
2024-05-18T15:13:04.625;539239399159596868;353814;333387;367418;1660;
2024-05-18T15:13:04.643;539239399177748974;353528;333029;367087;1634;
2024-05-18T15:13:04.661;539239399195901080;353263;332811;366878;1641;
2024-05-18T15:13:04.679;539239399214053186;353052;332682;366790;1632;
2024-05-18T15:13:04.697;539239399232205292;352884;332604;366642;1626;
2024-05-18T15:13:04.715;539239399250357398;352724;332440;366584;1581;
2024-05-18T15:13:04.733;539239399268509504;352545;332216;366480;1593;
2024-05-18T15:13:04.752;539239399286661610;352434;332059;366318;1625;
2024-05-18T15:13:04.770;539239399304813007;352149;331871;366125;1604;
2024-05-18T15:13:04.788;539239399322964390;352086;331712;365975;1644;
2024-05-18T15:13:04.806;539239399341115773;351824;331524;365802;1609;
2024-05-18T15:13:04.824;539239399359267156;351584;331336;365629;1666;
2024-05-18T15:13:04.842;539239399377418539;351403;331156;365414;1627;
2024-05-18T15:13:04.861;539239399395569922;351166;330920;365284;1550;
2024-05-18T15:13:04.879;539239399413721305;350904;330707;365152;1566;
2024-05-18T15:13:04.897;539239399431872688;350636;330467;365103;1539;
2024-05-18T15:13:04.915;539239399450024071;350418;330255;364964;1525;
2024-05-18T15:13:04.933;539239399468175454;350184;330048;364917;1525;
2024-05-18T15:13:04.951;539239399486326837;350083;329904;364892;1503;
2024-05-18T15:13:04.969;539239399504478220;349952;329790;364806;1479;
2024-05-18T15:13:04.988;539239399522629603;349891;329643;364852;1452;
2024-05-18T15:13:05.006;539239399540780986;349851;329559;364920;1455;
2024-05-18T15:13:05.024;539239399558932369;349777;329572;364890;1462;
2024-05-18T15:13:05.042;539239399577083752;349743;329479;364936;1504;
2024-05-18T15:13:05.060;539239399595235135;349724;329344;364936;1512;
2024-05-18T15:13:05.078;539239399613386518;349650;329247;364939;1480;
2024-05-18T15:13:05.097;539239399631537901;349580;329211;364964;1531;
2024-05-18T15:13:05.115;539239399649689284;349431;329050;364877;1539;
2024-05-18T15:13:05.133;539239399667840667;349160;328798;364696;1582;
2024-05-18T15:13:05.151;539239399685992050;348719;328319;364337;1644;
2024-05-18T15:13:05.169;539239399704143433;348060;327785;363782;1580;
2024-05-18T15:13:05.187;539239399722294816;347578;327237;363250;1562;
2024-05-18T15:13:05.205;539239399740446199;347280;326852;362929;1643;
2024-05-18T15:13:05.224;539239399758597582;347295;326584;362732;1675;
2024-05-18T15:13:05.242;539239399776748965;347888;326658;362613;1653;
2024-05-18T15:13:05.260;539239399794900348;348857;326896;362797;1737;
2024-05-18T15:13:05.278;539239399813051731;349904;327323;363148;1832;
2024-05-18T15:13:05.296;539239399831203114;351278;327918;363932;1926;
2024-05-18T15:13:05.314;539239399849354497;352854;328765;364955;1946;
2024-05-18T15:13:05.332;539239399867505880;354655;329734;366288;1913;
2024-05-18T15:13:05.351;539239399885657263;356570;330804;367704;1934;
2024-05-18T15:13:05.369;539239399903808646;358558;331858;369321;2000;
2024-05-18T15:13:05.387;539239399921960029;360405;332860;370921;2013;
2024-05-18T15:13:05.405;539239399940111412;362204;333833;372471;2064;
2024-05-18T15:13:05.423;539239399958262795;363586;334566;373740;2036;
2024-05-18T15:13:05.441;539239399976414178;364794;335249;374922;1996;
2024-05-18T15:13:05.460;539239399994565222;366005;335962;376112;1973;
2024-05-18T15:13:05.478;539239400012716245;367171;336545;377168;2007;
2024-05-18T15:13:05.496;539239400030867268;368301;337143;378179;1997;
2024-05-18T15:13:05.514;539239400049018291;369444;337716;379094;1997;
2024-05-18T15:13:05.532;539239400067169314;370527;338342;380033;2062;
2024-05-18T15:13:05.550;539239400085320337;371555;339022;380926;2044;
2024-05-18T15:13:05.568;539239400103471360;372721;339731;381731;2044;
2024-05-18T15:13:05.587;539239400121622383;373909;340411;382496;2071;
2024-05-18T15:13:05.605;539239400139773406;375078;341131;383212;2122;
2024-05-18T15:13:05.623;539239400157924429;376231;341909;383806;2079;
2024-05-18T15:13:05.641;539239400176075452;377312;342637;384342;2094;
2024-05-18T15:13:05.659;539239400194226475;378271;343383;384794;2069;
2024-05-18T15:13:05.677;539239400212377498;379153;344102;385280;2037;
2024-05-18T15:13:05.695;539239400230528521;379879;344794;385605;2125;
2024-05-18T15:13:05.714;539239400248679544;380539;345437;385912;2084;
2024-05-18T15:13:05.732;539239400266830567;381030;345903;386145;2103;
2024-05-18T15:13:05.750;539239400284981590;381286;346309;386288;2096;
2024-05-18T15:13:05.768;539239400303132613;381078;346460;386150;2058;
2024-05-18T15:13:05.786;539239400321283636;380296;346283;385639;2024;
2024-05-18T15:13:05.804;539239400339434659;378952;345654;384804;1949;
2024-05-18T15:13:05.823;539239400357585682;377168;344834;383831;2005;
2024-05-18T15:13:05.841;539239400375736705;375145;343695;382658;1923;
2024-05-18T15:13:05.859;539239400393887728;373055;342519;381543;1870;
2024-05-18T15:13:05.877;539239400412038751;371136;341241;380367;1796;
2024-05-18T15:13:05.895;539239400430189774;369409;340147;379273;1791;
2024-05-18T15:13:05.913;539239400448340797;367952;339152;378248;1723;
2024-05-18T15:13:05.931;539239400466491820;366634;338204;377352;1660;
2024-05-18T15:13:05.950;539239400484642843;365594;337420;376484;1651;
2024-05-18T15:13:05.968;539239400502793866;364595;336779;375769;1660;
2024-05-18T15:13:05.986;539239400520944889;363738;336064;375089;1651;
2024-05-18T15:13:06.004;539239400539095912;362938;335543;374397;1592;
2024-05-18T15:13:06.022;539239400557248244;362247;334958;373641;1563;
2024-05-18T15:13:06.040;539239400575400562;361550;334431;373044;1530;
2024-05-18T15:13:06.059;539239400593552880;360959;334018;372586;1529;
2024-05-18T15:13:06.077;539239400611705198;360293;333674;372081;1461;
2024-05-18T15:13:06.095;539239400629857516;359743;333282;371646;1439;
2024-05-18T15:13:06.113;539239400648009834;359263;332998;371311;1476;
2024-05-18T15:13:06.131;539239400666162152;358684;332694;370861;1471;
2024-05-18T15:13:06.149;539239400684314470;358205;332421;370465;1477;
2024-05-18T15:13:06.167;539239400702466788;357726;332200;370098;1478;
2024-05-18T15:13:06.186;539239400720619106;357215;331895;369766;1499;
2024-05-18T15:13:06.204;539239400738771424;356828;331700;369383;1498;
2024-05-18T15:13:06.222;539239400756923742;356461;331481;369073;1471;
2024-05-18T15:13:06.240;539239400775076060;356249;331344;368851;1532;
2024-05-18T15:13:06.258;539239400793228378;355931;331167;368550;1478;
2024-05-18T15:13:06.276;539239400811380696;355671;331063;368362;1529;
2024-05-18T15:13:06.295;539239400829533014;355296;330930;368107;1540;
2024-05-18T15:13:06.313;539239400847685332;355102;330765;367865;1513;
2024-05-18T15:13:06.331;539239400865837650;354909;330644;367673;1516;
2024-05-18T15:13:06.349;539239400883989968;354609;330478;367367;1473;
2024-05-18T15:13:06.367;539239400902142286;354333;330309;367205;1418;
2024-05-18T15:13:06.385;539239400920294604;354111;330237;367052;1484;
2024-05-18T15:13:06.403;539239400938446922;353891;330166;366847;1475;
2024-05-18T15:13:06.422;539239400956599240;353699;329960;366633;1510;
2024-05-18T15:13:06.440;539239400974751558;353526;329860;366452;1506;
2024-05-18T15:13:06.458;539239400992903876;353315;329740;366298;1471;
2024-05-18T15:13:06.476;539239401011056194;353101;329650;366076;1465;
2024-05-18T15:13:06.494;539239401029208512;352738;329415;365792;1498;
2024-05-18T15:13:06.512;539239401047360830;352184;328971;365229;1539;
2024-05-18T15:13:06.530;539239401065513148;351389;328415;364513;1475;
2024-05-18T15:13:06.549;539239401083665466;350561;327777;363724;1442;
2024-05-18T15:13:06.567;539239401101817784;349690;327128;362946;1480;
2024-05-18T15:13:06.585;539239401119970102;348793;326441;362008;1506;
2024-05-18T15:13:06.603;539239401138122420;347977;325817;361214;1481;
2024-05-18T15:13:06.621;539239401156274738;347228;325277;360437;1458;
2024-05-18T15:13:06.639;539239401174427056;346645;324830;359887;1452;
2024-05-18T15:13:06.658;539239401192579374;346034;324399;359438;1456;
2024-05-18T15:13:06.676;539239401210733963;345674;324117;359012;1492;
2024-05-18T15:13:06.694;539239401228888518;345272;323891;358698;1493;
2024-05-18T15:13:06.712;539239401247043073;344932;323600;358315;1456;
2024-05-18T15:13:06.730;539239401265197628;344668;323480;358077;1489;
2024-05-18T15:13:06.748;539239401283352183;344431;323221;357728;1433;
2024-05-18T15:13:06.766;539239401301506738;344082;323008;357377;1458;
2024-05-18T15:13:06.785;539239401319661293;343856;322809;357034;1473;
2024-05-18T15:13:06.803;539239401337815848;343559;322641;356658;1463;
2024-05-18T15:13:06.821;539239401355970403;343187;322334;356183;1446;
2024-05-18T15:13:06.839;539239401374124958;342820;322159;355796;1496;
2024-05-18T15:13:06.857;539239401392279513;342655;321975;355453;1549;
2024-05-18T15:13:06.875;539239401410434068;342523;321840;355123;1528;
2024-05-18T15:13:06.894;539239401428588623;342367;321751;354817;1519;
2024-05-18T15:13:06.912;539239401446743178;342219;321777;354641;1451;
2024-05-18T15:13:06.930;539239401464897733;342196;321805;354585;1502;
2024-05-18T15:13:06.948;539239401483052288;342151;321781;354490;1523;
2024-05-18T15:13:06.966;539239401501206843;342060;321886;354428;1508;
2024-05-18T15:13:06.984;539239401519361398;342095;321932;354500;1552;
2024-05-18T15:13:07.002;539239401537515953;342075;322001;354497;1533;
2024-05-18T15:13:07.021;539239401555670508;342057;321977;354487;1545;
2024-05-18T15:13:07.039;539239401573825063;342059;321998;354443;1532;
2024-05-18T15:13:07.057;539239401591979618;341990;322083;354347;1533;
2024-05-18T15:13:07.075;539239401610134173;342006;322130;354306;1492;
2024-05-18T15:13:07.093;539239401628288728;342057;322288;354281;1557;
2024-05-18T15:13:07.111;539239401646443283;342064;322477;354116;1569;
2024-05-18T15:13:07.130;539239401664597838;342133;322696;354037;1543;
2024-05-18T15:13:07.148;539239401682752393;342169;322979;354018;1567;
2024-05-18T15:13:07.166;539239401700906948;342199;323214;353987;1594;
2024-05-18T15:13:07.184;539239401719061503;342217;323499;354038;1594;
2024-05-18T15:13:07.202;539239401737216058;342329;323764;354130;1553;
2024-05-18T15:13:07.220;539239401755370613;342454;323997;354282;1550;
2024-05-18T15:13:07.238;539239401773525168;342333;324074;354289;1573;
2024-05-18T15:13:07.257;539239401791679723;342051;323948;354030;1533;
2024-05-18T15:13:07.275;539239401809834278;341636;323634;353601;1543;
2024-05-18T15:13:07.293;539239401827988833;341088;323187;352951;1472;
2024-05-18T15:13:07.311;539239401846143388;340535;322800;352316;1509;
2024-05-18T15:13:07.329;539239401864297943;339932;322402;351755;1509;
2024-05-18T15:13:07.347;539239401882452498;339522;322005;351218;1481;
2024-05-18T15:13:07.366;539239401900606857;339313;321724;351000;1566;
2024-05-18T15:13:07.384;539239401918761212;339302;321623;351032;1590;
2024-05-18T15:13:07.402;539239401936915567;339526;321586;351106;1640;
2024-05-18T15:13:07.420;539239401955069922;339881;321897;351388;1747;
2024-05-18T15:13:07.438;539239401973224277;340417;322441;351968;1823;
2024-05-18T15:13:07.456;539239401991378632;341158;323304;352592;1862;
2024-05-18T15:13:07.475;539239402009532987;341903;324269;353352;1923;
2024-05-18T15:13:07.493;539239402027687342;342594;325229;354167;1936;
2024-05-18T15:13:07.511;539239402045841697;343260;325966;354910;1972;
2024-05-18T15:13:07.529;539239402063996052;343780;326557;355534;1975;
2024-05-18T15:13:07.547;539239402082150407;344209;326981;355923;1923;
2024-05-18T15:13:07.565;539239402100304762;344385;327195;356114;1899;
2024-05-18T15:13:07.583;539239402118459117;344378;327296;356205;1880;
2024-05-18T15:13:07.602;539239402136613472;344279;327378;356196;1918;
2024-05-18T15:13:07.620;539239402154767827;344076;327374;356082;1804;
2024-05-18T15:13:07.638;539239402172922182;343764;327119;355798;1784;
2024-05-18T15:13:07.656;539239402191076537;343491;326903;355584;1759;
2024-05-18T15:13:07.674;539239402209230892;343205;326688;355250;1740;
2024-05-18T15:13:07.692;539239402227385247;342870;326298;354937;1721;
2024-05-18T15:13:07.711;539239402245539602;342633;325967;354664;1727;
2024-05-18T15:13:07.729;539239402263693957;342413;325711;354316;1752;
2024-05-18T15:13:07.747;539239402281848312;342205;325486;354109;1840;
2024-05-18T15:13:07.765;539239402300002667;341996;325252;353878;1821;
2024-05-18T15:13:07.783;539239402318157022;341882;325221;353700;1826;
2024-05-18T15:13:07.801;539239402336311377;341730;325094;353579;1844;
2024-05-18T15:13:07.819;539239402354465732;341664;325091;353398;1862;
2024-05-18T15:13:07.838;539239402372620087;341654;325017;353310;1874;
2024-05-18T15:13:07.856;539239402390774442;341666;325032;353269;1928;
2024-05-18T15:13:07.874;539239402408928797;341755;325084;353196;1941;
2024-05-18T15:13:07.892;539239402427083152;341796;325162;353200;1931;
2024-05-18T15:13:07.910;539239402445237507;341763;325191;353110;1950;
2024-05-18T15:13:07.928;539239402463391862;341840;325323;353195;2025;
2024-05-18T15:13:07.947;539239402481546217;341923;325413;353131;2015;
2024-05-18T15:13:07.965;539239402499700572;341895;325456;353108;2057;
2024-05-18T15:13:07.983;539239402517854927;341994;325735;353177;2078;
2024-05-18T15:13:08.001;539239402536009282;342073;325930;353256;2102;
2024-05-18T15:13:08.019;539239402554163637;342065;326151;353353;2106;
2024-05-18T15:13:08.037;539239402572317992;341925;326322;353328;2110;
2024-05-18T15:13:08.055;539239402590473158;341660;326478;353256;2147;
2024-05-18T15:13:08.074;539239402608628316;341375;326534;353142;2106;
2024-05-18T15:13:08.092;539239402626783474;341006;326621;353051;2162;
2024-05-18T15:13:08.110;539239402644938632;340646;326710;352855;2132;
2024-05-18T15:13:08.128;539239402663093790;340466;326777;352863;2167;
2024-05-18T15:13:08.146;539239402681248948;340278;326844;352798;2117;
2024-05-18T15:13:08.164;539239402699404106;340210;327022;352854;2141;
2024-05-18T15:13:08.183;539239402717559264;340269;327207;353000;2096;
2024-05-18T15:13:08.201;539239402735714422;340351;327551;353222;2086;
2024-05-18T15:13:08.219;539239402753869580;340450;327823;353453;2056;
2024-05-18T15:13:08.237;539239402772024738;340612;328158;353716;2066;
2024-05-18T15:13:08.255;539239402790179896;340757;328544;353995;2010;
2024-05-18T15:13:08.273;539239402808335054;341032;328969;354400;1962;
2024-05-18T15:13:08.291;539239402826490212;341139;329312;354702;1925;
2024-05-18T15:13:08.310;539239402844645370;341425;329749;355025;1898;
2024-05-18T15:13:08.328;539239402862800528;341383;329923;355177;1847;
2024-05-18T15:13:08.346;539239402880955686;341370;330096;355305;1789;
2024-05-18T15:13:08.364;539239402899110844;341454;330278;355492;1752;
2024-05-18T15:13:08.382;539239402917266002;341466;330510;355663;1717;
2024-05-18T15:13:08.400;539239402935421160;341474;330754;355828;1681;
2024-05-18T15:13:08.419;539239402953576318;341555;331040;356099;1710;
2024-05-18T15:13:08.437;539239402971731476;341719;331279;356382;1695;
2024-05-18T15:13:08.455;539239402989886634;341974;331615;356818;1686;
2024-05-18T15:13:08.473;539239403008041792;342181;331969;357128;1657;
2024-05-18T15:13:08.491;539239403026196950;342337;332213;357498;1569;
2024-05-18T15:13:08.509;539239403044352108;342559;332460;357808;1569;
2024-05-18T15:13:08.527;539239403062507266;342824;332769;358156;1521;
2024-05-18T15:13:08.546;539239403080662424;343083;333115;358510;1575;
2024-05-18T15:13:08.564;539239403098817582;343340;333389;358850;1544;
2024-05-18T15:13:08.582;539239403116972740;343617;333638;359108;1542;
2024-05-18T15:13:08.600;539239403135127898;343816;333944;359393;1511;
2024-05-18T15:13:08.618;539239403153283056;344117;334227;359786;1482;
2024-05-18T15:13:08.636;539239403171438214;344421;334643;360180;1453;
2024-05-18T15:13:08.655;539239403189593372;344708;334990;360643;1484;
2024-05-18T15:13:08.673;539239403207748530;345077;335487;361066;1488;
2024-05-18T15:13:08.691;539239403225903688;345337;335909;361437;1479;
2024-05-18T15:13:08.709;539239403244058846;345672;336385;361973;1491;
2024-05-18T15:13:08.727;539239403262214004;345952;336808;362484;1510;
2024-05-18T15:13:08.745;539239403280369162;346223;337241;362891;1505;
2024-05-18T15:13:08.763;539239403298524324;346491;337673;363305;1492;
2024-05-18T15:13:08.782;539239403316679482;346688;337978;363601;1441;
2024-05-18T15:13:08.800;539239403334834640;346848;338250;363827;1376;
2024-05-18T15:13:08.818;539239403352989798;346912;338463;363924;1358;
2024-05-18T15:13:08.836;539239403371144956;346878;338566;363973;1284;
2024-05-18T15:13:08.854;539239403389300114;346801;338566;363901;1299;
2024-05-18T15:13:08.872;539239403407455272;346578;338490;363638;1267;
2024-05-18T15:13:08.891;539239403425610430;346216;338244;363312;1230;
2024-05-18T15:13:08.909;539239403443765588;345727;337957;362843;1201;
2024-05-18T15:13:08.927;539239403461920746;345278;337552;362331;1208;
2024-05-18T15:13:08.945;539239403480075904;344857;337114;361848;1214;
2024-05-18T15:13:08.963;539239403498231062;344412;336787;361411;1256;
2024-05-18T15:13:08.981;539239403516386220;343945;336365;360937;1196;
2024-05-18T15:13:09.000;539239403534541378;343540;336068;360600;1185;
2024-05-18T15:13:09.018;539239403552696536;343199;335694;360215;1199;
2024-05-18T15:13:09.036;539239403570851694;342897;335419;359986;1245;
2024-05-18T15:13:09.054;539239403589006852;342622;335145;359654;1212;
2024-05-18T15:13:09.072;539239403607162010;342427;334874;359451;1185;
2024-05-18T15:13:09.090;539239403625317168;342156;334547;359122;1187;
2024-05-18T15:13:09.108;539239403643472326;341899;334178;358811;1202;
2024-05-18T15:13:09.127;539239403661627484;341550;333768;358459;1157;
2024-05-18T15:13:09.145;539239403679782642;341077;333324;357937;1141;
2024-05-18T15:13:09.163;539239403697937800;340672;332844;357528;1107;
2024-05-18T15:13:09.181;539239403716092958;340262;332380;357037;1099;
2024-05-18T15:13:09.199;539239403734248116;339877;331817;356556;1077;
2024-05-18T15:13:09.217;539239403752403274;339471;331362;356038;1098;
2024-05-18T15:13:09.236;539239403770558432;339019;330848;355560;1062;
2024-05-18T15:13:09.254;539239403788713590;338618;330427;355155;1031;
2024-05-18T15:13:09.272;539239403806868748;338366;330028;354756;967;
2024-05-18T15:13:09.290;539239403825023906;338037;329596;354358;1013;
2024-05-18T15:13:09.308;539239403843179064;337742;329224;354022;1000;
2024-05-18T15:13:09.326;539239403861334222;337586;328918;353737;931;
2024-05-18T15:13:09.344;539239403879489380;337377;328579;353540;899;
2024-05-18T15:13:09.363;539239403897644538;337173;328303;353333;965;
2024-05-18T15:13:09.381;539239403915799696;337016;328039;353102;898;
2024-05-18T15:13:09.399;539239403933954862;336889;327758;352962;926;
2024-05-18T15:13:09.417;539239403952110020;336703;327487;352775;871;
2024-05-18T15:13:09.435;539239403970265178;336504;327283;352649;892;
2024-05-18T15:13:09.453;539239403988420336;336395;327078;352504;844;
2024-05-18T15:13:09.472;539239404006575494;336414;326877;352368;884;
2024-05-18T15:13:09.490;539239404024730652;336306;326641;352274;876;
2024-05-18T15:13:09.508;539239404042885810;336185;326435;352104;915;
2024-05-18T15:13:09.526;539239404061040968;336076;326185;351943;870;
2024-05-18T15:13:09.544;539239404079196126;335965;325940;351867;839;
2024-05-18T15:13:09.562;539239404097351284;335861;325819;351710;845;
2024-05-18T15:13:09.580;539239404115506442;335783;325599;351576;802;
2024-05-18T15:13:09.599;539239404133661600;335691;325391;351464;846;
2024-05-18T15:13:09.617;539239404151816758;335729;325229;351380;902;
2024-05-18T15:13:09.635;539239404169971916;335668;325040;351242;876;
2024-05-18T15:13:09.653;539239404188127074;335433;324727;351012;829;
2024-05-18T15:13:09.671;539239404206282232;335068;324331;350631;824;
2024-05-18T15:13:09.689;539239404224437390;334615;323784;350132;825;
2024-05-18T15:13:09.708;539239404242592548;334122;323240;349519;854;
2024-05-18T15:13:09.726;539239404260747706;333674;322639;348867;848;
2024-05-18T15:13:09.744;539239404278902864;333166;322096;348270;906;
2024-05-18T15:13:09.762;539239404297058022;332771;321538;347741;859;
2024-05-18T15:13:09.780;539239404315213180;332586;321160;347329;850;
2024-05-18T15:13:09.798;539239404333368338;332655;320941;347096;916;
2024-05-18T15:13:09.816;539239404351523496;332823;320865;346892;862;
2024-05-18T15:13:09.835;539239404369678654;333201;320879;346885;940;
2024-05-18T15:13:09.853;539239404387833812;333403;321000;346853;885;
2024-05-18T15:13:09.871;539239404405988970;333630;321167;346997;917;
2024-05-18T15:13:09.889;539239404424144128;333931;321257;347094;896;
2024-05-18T15:13:09.907;539239404442299286;334128;321438;347222;902;
2024-05-18T15:13:09.925;539239404460454444;334353;321522;347283;945;
2024-05-18T15:13:09.944;539239404478609602;334505;321564;347435;908;
2024-05-18T15:13:09.962;539239404496764760;334608;321633;347397;897;
2024-05-18T15:13:09.980;539239404514919918;334549;321517;347364;899;
2024-05-18T15:13:09.998;539239404533075076;334572;321539;347378;893;
2024-05-18T15:13:10.016;539239404551230234;334636;321467;347435;877;
2024-05-18T15:13:10.034;539239404569385392;334640;321364;347294;855;
2024-05-18T15:13:10.053;539239404587540550;334716;321426;347328;918;
2024-05-18T15:13:10.071;539239404605695708;334853;321528;347421;931;
2024-05-18T15:13:10.089;539239404623852111;335108;321642;347577;911;
2024-05-18T15:13:10.107;539239404642008498;335455;321910;347826;967;
2024-05-18T15:13:10.125;539239404660164885;335767;322184;348017;913;
2024-05-18T15:13:10.143;539239404678321272;336288;322488;348379;963;
2024-05-18T15:13:10.161;539239404696477659;336768;322908;348720;1031;
2024-05-18T15:13:10.180;539239404714634046;337344;323305;349168;1076;
2024-05-18T15:13:10.198;539239404732790433;337902;323765;349701;1097;
2024-05-18T15:13:10.216;539239404750946820;338580;324393;350339;1143;
2024-05-18T15:13:10.234;539239404769103207;339170;324889;350942;1120;
2024-05-18T15:13:10.252;539239404787259594;339846;325628;351720;1113;
2024-05-18T15:13:10.270;539239404805415981;340474;326224;352438;1106;
2024-05-18T15:13:10.289;539239404823572368;341099;326895;353224;1148;
2024-05-18T15:13:10.307;539239404841728755;341678;327483;353952;1195;
2024-05-18T15:13:10.325;539239404859885142;342225;328085;354657;1165;
2024-05-18T15:13:10.343;539239404878041529;342728;328663;355256;1148;
2024-05-18T15:13:10.361;539239404896197916;343167;329192;355873;1163;
2024-05-18T15:13:10.379;539239404914354303;343558;329675;356492;1134;
2024-05-18T15:13:10.397;539239404932510690;343991;330191;357036;1180;
2024-05-18T15:13:10.416;539239404950667077;344418;330594;357516;1166;
2024-05-18T15:13:10.434;539239404968823464;344759;330995;357896;1187;
2024-05-18T15:13:10.452;539239404986979851;344965;331287;358240;1226;
2024-05-18T15:13:10.470;539239405005136238;344947;331434;358330;1148;
2024-05-18T15:13:10.488;539239405023292625;344820;331397;358269;1149;
2024-05-18T15:13:10.506;539239405041449012;344587;331290;358113;1136;
2024-05-18T15:13:10.525;539239405059605399;344314;331036;357871;1092;
2024-05-18T15:13:10.543;539239405077761786;343917;330736;357559;1035;
2024-05-18T15:13:10.561;539239405095918173;343562;330369;357249;1055;
2024-05-18T15:13:10.579;539239405114074560;343216;330029;356977;1034;
2024-05-18T15:13:10.597;539239405132230947;342916;329848;356764;1026;
2024-05-18T15:13:10.615;539239405150387334;342638;329512;356569;1016;
2024-05-18T15:13:10.634;539239405168543721;342362;329297;356404;989;
2024-05-18T15:13:10.652;539239405186700108;342181;329102;356303;978;
2024-05-18T15:13:10.670;539239405204856495;341884;328885;356267;952;
2024-05-18T15:13:10.688;539239405223012882;341725;328657;356085;923;
2024-05-18T15:13:10.706;539239405241169269;341490;328533;355969;878;
2024-05-18T15:13:10.724;539239405259325656;341320;328278;355861;899;
2024-05-18T15:13:10.742;539239405277481924;341050;327995;355621;888;
2024-05-18T15:13:10.761;539239405295638184;340759;327706;355448;840;
2024-05-18T15:13:10.779;539239405313794444;340340;327434;355094;822;
2024-05-18T15:13:10.797;539239405331950704;339962;327075;354831;806;
2024-05-18T15:13:10.815;539239405350106964;339447;326662;354514;770;
2024-05-18T15:13:10.833;539239405368263224;339023;326333;354149;812;
2024-05-18T15:13:10.851;539239405386419484;338507;325813;353836;746;
2024-05-18T15:13:10.870;539239405404575744;338121;325429;353484;794;
2024-05-18T15:13:10.888;539239405422732004;337770;325038;353144;772;
2024-05-18T15:13:10.906;539239405440888264;337586;324762;352938;775;
2024-05-18T15:13:10.924;539239405459044524;337391;324567;352812;775;
2024-05-18T15:13:10.942;539239405477200784;337203;324328;352674;708;
2024-05-18T15:13:10.960;539239405495357044;337165;324188;352616;736;
2024-05-18T15:13:10.978;539239405513513304;337093;324113;352560;678;
2024-05-18T15:13:10.997;539239405531669564;337075;323959;352384;684;
2024-05-18T15:13:11.015;539239405549825824;337005;323903;352362;702;
2024-05-18T15:13:11.033;539239405567982084;337066;323808;352368;746;
2024-05-18T15:13:11.051;539239405586138344;337025;323720;352332;717;
2024-05-18T15:13:11.069;539239405604294604;336994;323644;352253;750;
2024-05-18T15:13:11.087;539239405622450864;337069;323688;352354;712;
2024-05-18T15:13:11.106;539239405640607124;337109;323632;352273;748;
2024-05-18T15:13:11.124;539239405658763384;337129;323583;352304;693;
2024-05-18T15:13:11.142;539239405676919644;337128;323584;352391;744;
2024-05-18T15:13:11.160;539239405695075904;337111;323549;352348;723;
2024-05-18T15:13:11.178;539239405713232164;336969;323342;352185;742;
2024-05-18T15:13:11.196;539239405731388424;336751;323057;351900;701;
2024-05-18T15:13:11.215;539239405749544684;336327;322673;351465;684;
2024-05-18T15:13:11.233;539239405767700944;335955;322220;350951;650;
2024-05-18T15:13:11.251;539239405785857204;335542;321773;350529;684;
2024-05-18T15:13:11.269;539239405804013464;335025;321243;349991;688;
2024-05-18T15:13:11.287;539239405822169724;334595;320856;349612;695;
2024-05-18T15:13:11.305;539239405840325984;334291;320422;349196;717;
2024-05-18T15:13:11.323;539239405858482244;334010;320221;348994;690;
2024-05-18T15:13:11.342;539239405876638504;333873;320012;348819;673;
2024-05-18T15:13:11.360;539239405894794764;333747;319909;348719;640;
2024-05-18T15:13:11.378;539239405912951024;333676;319758;348606;711;
2024-05-18T15:13:11.396;539239405931106399;333730;319709;348630;725;
2024-05-18T15:13:11.414;539239405949261738;333780;319787;348634;725;
2024-05-18T15:13:11.432;539239405967417077;333839;319721;348704;759;
2024-05-18T15:13:11.451;539239405985572416;333844;319667;348723;760;
2024-05-18T15:13:11.469;539239406003727755;333836;319628;348682;772;
2024-05-18T15:13:11.487;539239406021883094;333865;319571;348621;769;
2024-05-18T15:13:11.505;539239406040038433;333771;319488;348505;785;
2024-05-18T15:13:11.523;539239406058193772;333632;319389;348443;773;
2024-05-18T15:13:11.541;539239406076349111;333558;319233;348320;759;
2024-05-18T15:13:11.559;539239406094504450;333358;319100;348189;746;
2024-05-18T15:13:11.578;539239406112659789;333315;318991;348028;745;
2024-05-18T15:13:11.596;539239406130815128;333261;318795;347914;662;
2024-05-18T15:13:11.614;539239406148970467;333184;318710;347849;733;
2024-05-18T15:13:11.632;539239406167125806;333220;318715;347845;721;
2024-05-18T15:13:11.650;539239406185281145;333210;318650;347899;668;
2024-05-18T15:13:11.668;539239406203436484;333244;318724;347934;722;
2024-05-18T15:13:11.687;539239406221591823;333290;318738;347908;686;
2024-05-18T15:13:11.705;539239406239747162;333406;318793;347951;700;
2024-05-18T15:13:11.723;539239406257902501;333521;318812;348078;697;
2024-05-18T15:13:11.741;539239406276057840;333584;318900;348131;646;
2024-05-18T15:13:11.759;539239406294213179;333718;318936;348248;706;
2024-05-18T15:13:11.777;539239406312368518;333763;319006;348336;761;
2024-05-18T15:13:11.795;539239406330523857;333919;319039;348396;730;
2024-05-18T15:13:11.814;539239406348679196;333994;319124;348522;706;
2024-05-18T15:13:11.832;539239406366834535;334063;319172;348550;688;
2024-05-18T15:13:11.850;539239406384989874;334241;319283;348587;780;
2024-05-18T15:13:11.868;539239406403145213;334255;319317;348635;724;
2024-05-18T15:13:11.886;539239406421300552;334191;319199;348625;727;
2024-05-18T15:13:11.904;539239406439455891;333991;319020;348387;750;
2024-05-18T15:13:11.923;539239406457611230;333734;318720;348065;755;
2024-05-18T15:13:11.941;539239406475766569;333431;318411;347765;702;
2024-05-18T15:13:11.959;539239406493921908;333089;318065;347338;708;
2024-05-18T15:13:11.977;539239406512077247;332757;317679;347011;767;
2024-05-18T15:13:11.995;539239406530232586;332560;317430;346764;762;
2024-05-18T15:13:12.013;539239406548387925;332265;317188;346455;739;
2024-05-18T15:13:12.032;539239406566543264;332189;317059;346353;708;
2024-05-18T15:13:12.050;539239406584698603;332107;317028;346287;719;
2024-05-18T15:13:12.068;539239406602853942;332117;316984;346263;750;
2024-05-18T15:13:12.086;539239406621009281;332106;316995;346235;731;
2024-05-18T15:13:12.104;539239406639164620;332229;317057;346310;690;
2024-05-18T15:13:12.122;539239406657319959;332350;317127;346442;741;
2024-05-18T15:13:12.140;539239406675475298;332372;317217;346520;697;
2024-05-18T15:13:12.159;539239406693630812;332436;317229;346563;741;
2024-05-18T15:13:12.177;539239406711786325;332428;317231;346505;697;
2024-05-18T15:13:12.195;539239406729941838;332415;317201;346519;676;
2024-05-18T15:13:12.213;539239406748097351;332401;317135;346449;658;
2024-05-18T15:13:12.231;539239406766252864;332247;316985;346304;645;
2024-05-18T15:13:12.249;539239406784408377;332189;316830;346186;711;
2024-05-18T15:13:12.268;539239406802563890;332123;316765;346092;645;
2024-05-18T15:13:12.286;539239406820719403;332123;316710;346036;645;
2024-05-18T15:13:12.304;539239406838874916;332095;316712;346002;723;
2024-05-18T15:13:12.322;539239406857030429;332070;316769;346021;683;
2024-05-18T15:13:12.340;539239406875185942;332112;316741;346013;651;
2024-05-18T15:13:12.358;539239406893341455;332178;316769;346016;716;
2024-05-18T15:13:12.376;539239406911496968;332211;316824;346047;657;
2024-05-18T15:13:12.395;539239406929652481;332338;316879;346118;662;
2024-05-18T15:13:12.413;539239406947807994;332374;316966;346189;697;
2024-05-18T15:13:12.431;539239406965963507;332463;317012;346296;733;
2024-05-18T15:13:12.449;539239406984119020;332519;317077;346412;747;
2024-05-18T15:13:12.467;539239407002274533;332557;317138;346447;676;
2024-05-18T15:13:12.485;539239407020430046;332643;317234;346583;663;
2024-05-18T15:13:12.504;539239407038585559;332697;317321;346590;710;
2024-05-18T15:13:12.522;539239407056741072;332755;317323;346644;702;
2024-05-18T15:13:12.540;539239407074896585;332891;317393;346684;672;
2024-05-18T15:13:12.558;539239407093052098;332832;317398;346668;651;
2024-05-18T15:13:12.576;539239407111207611;332707;317246;346508;612;
2024-05-18T15:13:12.594;539239407129363124;332489;317142;346312;635;
2024-05-18T15:13:12.612;539239407147518637;332221;316804;345985;646;
2024-05-18T15:13:12.631;539239407165674150;331893;316564;345612;657;
2024-05-18T15:13:12.649;539239407183829663;331538;316174;345291;704;
2024-05-18T15:13:12.667;539239407201985176;331239;315903;345000;694;
2024-05-18T15:13:12.685;539239407220140689;330996;315649;344713;675;
2024-05-18T15:13:12.703;539239407238296202;330838;315526;344564;702;
2024-05-18T15:13:12.721;539239407256451715;330680;315400;344407;668;
2024-05-18T15:13:12.740;539239407274607228;330577;315375;344306;678;
2024-05-18T15:13:12.758;539239407292762741;330549;315306;344296;707;
2024-05-18T15:13:12.776;539239407310918254;330609;315304;344355;649;
2024-05-18T15:13:12.794;539239407329073767;330661;315375;344379;643;
2024-05-18T15:13:12.812;539239407347229280;330598;315422;344409;645;
2024-05-18T15:13:12.830;539239407365384793;330699;315483;344510;628;
2024-05-18T15:13:12.849;539239407383540306;330809;315532;344565;663;
2024-05-18T15:13:12.867;539239407401695819;330865;315567;344580;663;
2024-05-18T15:13:12.885;539239407419851332;330818;315575;344492;639;
2024-05-18T15:13:12.903;539239407438006845;330781;315561;344505;668;
2024-05-18T15:13:12.921;539239407456162358;330711;315489;344470;652;
2024-05-18T15:13:12.939;539239407474316002;330790;315498;344410;615;
2024-05-18T15:13:12.957;539239407492469634;330643;315470;344331;581;
2024-05-18T15:13:12.976;539239407510623266;330657;315454;344335;582;
2024-05-18T15:13:12.994;539239407528776898;330658;315434;344267;634;
2024-05-18T15:13:13.012;539239407546930530;330701;315423;344283;584;
2024-05-18T15:13:13.030;539239407565084162;330790;315415;344351;567;
2024-05-18T15:13:13.048;539239407583237794;331002;315574;344526;589;
2024-05-18T15:13:13.066;539239407601391426;331123;315671;344669;609;
2024-05-18T15:13:13.085;539239407619545058;331285;315790;344674;621;
2024-05-18T15:13:13.103;539239407637698690;331491;315870;344836;638;
2024-05-18T15:13:13.121;539239407655852322;331787;316040;344990;643;
2024-05-18T15:13:13.139;539239407674005954;332056;316243;345112;643;
2024-05-18T15:13:13.157;539239407692159586;332448;316510;345345;656;
2024-05-18T15:13:13.175;539239407710313218;333086;316974;345709;686;
2024-05-18T15:13:13.193;539239407728466850;334174;317729;346286;787;
2024-05-18T15:13:13.212;539239407746620482;335707;318782;347149;775;
2024-05-18T15:13:13.230;539239407764774114;337507;320104;348531;808;
2024-05-18T15:13:13.248;539239407782927746;339071;321466;350085;822;
2024-05-18T15:13:13.266;539239407801081378;340471;322775;351655;892;
2024-05-18T15:13:13.284;539239407819235010;341526;323957;353075;912;
2024-05-18T15:13:13.302;539239407837388642;342414;324966;354373;880;
2024-05-18T15:13:13.321;539239407855542274;343113;325845;355455;912;
2024-05-18T15:13:13.339;539239407873695906;343758;326623;356458;893;
2024-05-18T15:13:13.357;539239407891849538;344394;327344;357286;915;
2024-05-18T15:13:13.375;539239407910003170;344929;327853;358014;993;
2024-05-18T15:13:13.393;539239407928156802;345422;328361;358659;965;
2024-05-18T15:13:13.411;539239407946310434;345774;328730;359255;960;
2024-05-18T15:13:13.429;539239407964464066;345952;328960;359701;939;
2024-05-18T15:13:13.448;539239407982617698;346080;329062;360052;876;
2024-05-18T15:13:13.466;539239408000771330;346079;329238;360319;833;
2024-05-18T15:13:13.484;539239408018924962;346078;329295;360570;803;
2024-05-18T15:13:13.502;539239408037078594;346034;329307;360720;808;
2024-05-18T15:13:13.520;539239408055232226;345919;329282;360766;739;
2024-05-18T15:13:13.538;539239408073385858;345735;329174;360697;737;
2024-05-18T15:13:13.557;539239408091539490;345516;329055;360636;710;
2024-05-18T15:13:13.575;539239408109693122;345227;328839;360509;674;
2024-05-18T15:13:13.593;539239408127846754;344958;328620;360366;711;
2024-05-18T15:13:13.611;539239408146002515;344568;328350;360143;788;
2024-05-18T15:13:13.629;539239408164158254;344163;328181;359939;754;
2024-05-18T15:13:13.647;539239408182313993;343848;327933;359703;722;
2024-05-18T15:13:13.665;539239408200469732;343548;327755;359516;734;
2024-05-18T15:13:13.684;539239408218625471;343334;327549;359363;706;
2024-05-18T15:13:13.702;539239408236781210;343274;327529;359326;687;
2024-05-18T15:13:13.720;539239408254936949;343202;327469;359263;672;
2024-05-18T15:13:13.738;539239408273092688;343204;327480;359184;682;
2024-05-18T15:13:13.756;539239408291248427;343220;327409;359191;598;
2024-05-18T15:13:13.774;539239408309404166;343321;327472;359218;677;
2024-05-18T15:13:13.793;539239408327559905;343285;327491;359268;673;
2024-05-18T15:13:13.811;539239408345715644;343334;327578;359307;658;
2024-05-18T15:13:13.829;539239408363871383;343412;327652;359339;682;
2024-05-18T15:13:13.847;539239408382027122;343497;327690;359338;713;
2024-05-18T15:13:13.865;539239408400182861;343543;327623;359429;638;
2024-05-18T15:13:13.883;539239408418338600;343550;327736;359427;655;
2024-05-18T15:13:13.901;539239408436494339;343645;327892;359495;644;
2024-05-18T15:13:13.920;539239408454650078;343663;327893;359525;636;
2024-05-18T15:13:13.938;539239408472805817;343516;327788;359397;595;
2024-05-18T15:13:13.956;539239408490961556;343320;327664;359197;639;
2024-05-18T15:13:13.974;539239408509117295;343013;327425;358926;621;
2024-05-18T15:13:13.992;539239408527273034;342764;327123;358544;651;
2024-05-18T15:13:14.010;539239408545428773;342378;326889;358227;643;
2024-05-18T15:13:14.029;539239408563584512;342059;326593;357862;640;
2024-05-18T15:13:14.047;539239408581740251;341755;326290;357578;614;
2024-05-18T15:13:14.065;539239408599895990;341517;326193;357402;614;
2024-05-18T15:13:14.083;539239408618051729;341252;326041;357233;644;
2024-05-18T15:13:14.101;539239408636207468;341152;325940;357096;623;
2024-05-18T15:13:14.119;539239408654363207;341157;325966;357127;633;
2024-05-18T15:13:14.137;539239408672518946;341165;326069;357107;655;
2024-05-18T15:13:14.156;539239408690674685;341173;326112;357109;672;
2024-05-18T15:13:14.174;539239408708830424;341241;326176;357159;692;
2024-05-18T15:13:14.192;539239408726986163;341305;326177;357229;636;
2024-05-18T15:13:14.210;539239408745141902;341280;326254;357210;694;
2024-05-18T15:13:14.228;539239408763297641;341234;326245;357139;661;
2024-05-18T15:13:14.246;539239408781453380;341082;326126;357047;687;
2024-05-18T15:13:14.265;539239408799609119;340978;326082;356983;689;
2024-05-18T15:13:14.283;539239408817764858;340886;326055;356840;662;
2024-05-18T15:13:14.301;539239408835920597;340724;325966;356705;635;
2024-05-18T15:13:14.319;539239408854076336;340605;325863;356548;587;
2024-05-18T15:13:14.337;539239408872232075;340467;325781;356445;581;
2024-05-18T15:13:14.355;539239408890387814;340432;325830;356430;671;
2024-05-18T15:13:14.374;539239408908544116;340442;325821;356418;670;
2024-05-18T15:13:14.392;539239408926700400;340422;325844;356351;629;
2024-05-18T15:13:14.410;539239408944856684;340343;325837;356296;600;
2024-05-18T15:13:14.428;539239408963012968;340390;325897;356317;638;
2024-05-18T15:13:14.446;539239408981169252;340306;325934;356367;609;
2024-05-18T15:13:14.464;539239408999325536;340459;325912;356380;623;
2024-05-18T15:13:14.482;539239409017481820;340409;325982;356509;615;
2024-05-18T15:13:14.501;539239409035638104;340454;326032;356525;624;
2024-05-18T15:13:14.519;539239409053794388;340505;326055;356504;624;
2024-05-18T15:13:14.537;539239409071950672;340545;326163;356614;650;
2024-05-18T15:13:14.555;539239409090106956;340631;326257;356631;643;
2024-05-18T15:13:14.573;539239409108263240;340669;326295;356653;614;
2024-05-18T15:13:14.591;539239409126419524;340601;326274;356613;624;
2024-05-18T15:13:14.610;539239409144575808;340522;326246;356490;603;
2024-05-18T15:13:14.628;539239409162732092;340296;326040;356299;587;
2024-05-18T15:13:14.646;539239409180888376;339954;325803;355941;622;
2024-05-18T15:13:14.664;539239409199044660;339590;325509;355592;618;
2024-05-18T15:13:14.682;539239409217200944;339162;325224;355285;588;
2024-05-18T15:13:14.700;539239409235357228;338779;324918;354868;560;
2024-05-18T15:13:14.718;539239409253513512;338515;324666;354621;610;
2024-05-18T15:13:14.737;539239409271669796;338313;324514;354371;682;
2024-05-18T15:13:14.755;539239409289826080;338088;324407;354228;600;
2024-05-18T15:13:14.773;539239409307982364;337975;324348;354138;584;
2024-05-18T15:13:14.791;539239409326138648;337988;324396;354198;637;
2024-05-18T15:13:14.809;539239409344294932;337985;324370;354183;584;
2024-05-18T15:13:14.827;539239409362451216;338005;324433;354180;601;
2024-05-18T15:13:14.846;539239409380607500;338073;324486;354257;612;
2024-05-18T15:13:14.864;539239409398763784;338040;324567;354264;622;
2024-05-18T15:13:14.882;539239409416920068;337956;324550;354161;561;
2024-05-18T15:13:14.900;539239409435076352;337868;324488;354140;528;
2024-05-18T15:13:14.918;539239409453232636;337781;324371;354064;582;
2024-05-18T15:13:14.936;539239409471388920;337678;324290;353896;636;
2024-05-18T15:13:14.955;539239409489545204;337499;324162;353726;649;
2024-05-18T15:13:14.973;539239409507701488;337371;324094;353679;610;
2024-05-18T15:13:14.991;539239409525857772;337226;323959;353508;594;
2024-05-18T15:13:15.009;539239409544014056;337064;323866;353365;531;
2024-05-18T15:13:15.027;539239409562170340;336918;323808;353280;538;
2024-05-18T15:13:15.045;539239409580326624;336907;323818;353200;572;
2024-05-18T15:13:15.063;539239409598482908;336890;323807;353281;625;
2024-05-18T15:13:15.082;539239409616639192;336850;323888;353259;584;
2024-05-18T15:13:15.100;539239409634795476;336903;323842;353308;612;
2024-05-18T15:13:15.118;539239409652951760;336776;323849;353272;597;
2024-05-18T15:13:15.136;539239409671107678;336822;323850;353306;584;
2024-05-18T15:13:15.154;539239409689263562;336835;323883;353267;558;
2024-05-18T15:13:15.172;539239409707419446;336875;323976;353309;553;
2024-05-18T15:13:15.191;539239409725575330;336874;323941;353304;560;
2024-05-18T15:13:15.209;539239409743731214;336912;324060;353396;573;
2024-05-18T15:13:15.227;539239409761887098;336933;324060;353406;617;
2024-05-18T15:13:15.245;539239409780042982;336916;324059;353336;539;
2024-05-18T15:13:15.263;539239409798198866;336854;324025;353239;611;
2024-05-18T15:13:15.281;539239409816354750;336596;323833;353069;576;
2024-05-18T15:13:15.299;539239409834510634;336294;323562;352758;586;
2024-05-18T15:13:15.318;539239409852666518;335931;323275;352377;623;
2024-05-18T15:13:15.336;539239409870822402;335529;322909;352014;620;
2024-05-18T15:13:15.354;539239409888978286;335061;322560;351624;589;
2024-05-18T15:13:15.372;539239409907134170;334729;322318;351290;567;
2024-05-18T15:13:15.390;539239409925290054;334417;322100;351028;616;
2024-05-18T15:13:15.408;539239409943445938;334221;321988;350828;649;
2024-05-18T15:13:15.427;539239409961601822;334046;321841;350688;582;
2024-05-18T15:13:15.445;539239409979757706;333921;321685;350571;538;
2024-05-18T15:13:15.463;539239409997913590;333891;321710;350536;588;
2024-05-18T15:13:15.481;539239410016069474;333808;321694;350453;593;
2024-05-18T15:13:15.499;539239410034225358;333869;321679;350470;623;
2024-05-18T15:13:15.517;539239410052381242;333816;321733;350419;603;
2024-05-18T15:13:15.536;539239410070537126;333768;321665;350333;570;
2024-05-18T15:13:15.554;539239410088693010;333582;321603;350312;558;
2024-05-18T15:13:15.572;539239410106848894;333458;321485;350153;508;
2024-05-18T15:13:15.590;539239410125004778;333362;321342;349980;602;
2024-05-18T15:13:15.608;539239410143160662;333242;321222;349854;572;
2024-05-18T15:13:15.626;539239410161316546;333038;321117;349720;567;
2024-05-18T15:13:15.644;539239410179472430;332833;320951;349512;559;
2024-05-18T15:13:15.663;539239410197628314;332721;320921;349432;604;
2024-05-18T15:13:15.681;539239410215784198;332663;320817;349300;650;
2024-05-18T15:13:15.699;539239410233940082;332524;320823;349257;580;
2024-05-18T15:13:15.717;539239410252095966;332488;320778;349192;623;
2024-05-18T15:13:15.735;539239410270251850;332445;320693;349206;581;
2024-05-18T15:13:15.753;539239410288407734;332463;320718;349137;659;
2024-05-18T15:13:15.772;539239410306563618;332490;320749;349186;627;
2024-05-18T15:13:15.790;539239410324719502;332416;320626;349087;573;
2024-05-18T15:13:15.808;539239410342875386;332440;320692;349041;576;
2024-05-18T15:13:15.826;539239410361031270;332428;320710;349036;575;
2024-05-18T15:13:15.844;539239410379187154;332375;320711;349055;548;
2024-05-18T15:13:15.862;539239410397343038;332403;320697;349089;525;
2024-05-18T15:13:15.880;539239410415498922;332463;320733;349128;612;
2024-05-18T15:13:15.899;539239410433654828;332439;320674;349072;578;
2024-05-18T15:13:15.917;539239410451810695;332436;320701;349075;549;
2024-05-18T15:13:15.935;539239410469966562;332475;320668;349090;612;
2024-05-18T15:13:15.953;539239410488122429;332280;320534;348890;563;
2024-05-18T15:13:15.971;539239410506278296;332036;320372;348674;591;
2024-05-18T15:13:15.989;539239410524434163;331623;320070;348284;539;
2024-05-18T15:13:16.008;539239410542590030;331155;319645;347882;546;
2024-05-18T15:13:16.026;539239410560745897;330799;319351;347481;570;
2024-05-18T15:13:16.044;539239410578901764;330428;318991;347146;553;
2024-05-18T15:13:16.062;539239410597057631;330161;318750;346998;542;
2024-05-18T15:13:16.080;539239410615213498;329856;318552;346679;539;
2024-05-18T15:13:16.098;539239410633369365;329664;318432;346498;553;
2024-05-18T15:13:16.116;539239410651525232;329551;318355;346381;582;
2024-05-18T15:13:16.135;539239410669681099;329484;318284;346295;554;
2024-05-18T15:13:16.153;539239410687836966;329449;318259;346275;553;
2024-05-18T15:13:16.171;539239410705992833;329463;318230;346287;585;
2024-05-18T15:13:16.189;539239410724148700;329399;318262;346263;558;
2024-05-18T15:13:16.207;539239410742304567;329365;318157;346223;550;
2024-05-18T15:13:16.225;539239410760460434;329256;318055;346114;554;
2024-05-18T15:13:16.244;539239410778616301;329135;317991;345968;583;
2024-05-18T15:13:16.262;539239410796772168;329020;317882;345888;578;
2024-05-18T15:13:16.280;539239410814928035;328835;317737;345730;611;
2024-05-18T15:13:16.298;539239410833083902;328692;317569;345535;557;
2024-05-18T15:13:16.316;539239410851239769;328551;317464;345438;541;
2024-05-18T15:13:16.334;539239410869395636;328508;317342;345277;561;
2024-05-18T15:13:16.353;539239410887551503;328331;317300;345170;505;
2024-05-18T15:13:16.371;539239410905707370;328305;317223;345138;599;
2024-05-18T15:13:16.389;539239410923863237;328284;317222;345072;553;
2024-05-18T15:13:16.407;539239410942019104;328187;317146;345037;598;
2024-05-18T15:13:16.425;539239410960174971;328175;317124;345016;530;
2024-05-18T15:13:16.443;539239410978330838;328301;317116;345035;608;
2024-05-18T15:13:16.461;539239410996486705;328284;317119;345056;582;
2024-05-18T15:13:16.480;539239411014642572;328279;317112;345126;564;
2024-05-18T15:13:16.498;539239411032798439;328369;317100;345119;585;
2024-05-18T15:13:16.516;539239411050954306;328394;317172;345164;643;
2024-05-18T15:13:16.534;539239411069110173;328412;317170;345133;590;
2024-05-18T15:13:16.552;539239411087266040;328449;317113;345159;578;
2024-05-18T15:13:16.570;539239411105421907;328462;317145;345142;592;
2024-05-18T15:13:16.589;539239411123577774;328474;317138;345150;567;
2024-05-18T15:13:16.607;539239411141733641;328533;317118;345123;549;
2024-05-18T15:13:16.625;539239411159889508;328437;317202;345178;592;
2024-05-18T15:13:16.643;539239411178045375;328530;317154;345205;586;
2024-05-18T15:13:16.661;539239411196201242;328562;317120;345232;619;
2024-05-18T15:13:16.679;539239411214357131;328510;317082;345192;603;
2024-05-18T15:13:16.697;539239411232512982;328294;316895;344953;572;
2024-05-18T15:13:16.716;539239411250668833;328068;316667;344718;598;
2024-05-18T15:13:16.734;539239411268824684;327759;316394;344410;620;
2024-05-18T15:13:16.752;539239411286980535;327395;316020;344038;585;
2024-05-18T15:13:16.770;539239411305136386;326958;315714;343695;537;
2024-05-18T15:13:16.788;539239411323292237;326723;315491;343480;575;
2024-05-18T15:13:16.806;539239411341448088;326461;315280;343212;609;
2024-05-18T15:13:16.825;539239411359603939;326297;315163;342996;566;
2024-05-18T15:13:16.843;539239411377759790;326119;315070;342953;594;
2024-05-18T15:13:16.861;539239411395915641;326006;315004;342848;556;
2024-05-18T15:13:16.879;539239411414071492;326014;314996;342764;581;
2024-05-18T15:13:16.897;539239411432227343;325921;314889;342768;604;
2024-05-18T15:13:16.915;539239411450383194;325939;314929;342764;566;
2024-05-18T15:13:16.934;539239411468539045;325917;314825;342726;580;
2024-05-18T15:13:16.952;539239411486694896;325854;314745;342618;506;
2024-05-18T15:13:16.970;539239411504850747;325786;314637;342496;536;
2024-05-18T15:13:16.988;539239411523006598;325668;314598;342395;548;
2024-05-18T15:13:17.006;539239411541162449;325504;314334;342262;580;
2024-05-18T15:13:17.024;539239411559318300;325396;314332;342181;601;
2024-05-18T15:13:17.042;539239411577474151;325292;314155;342076;584;
2024-05-18T15:13:17.061;539239411595630002;325163;314131;341978;631;
2024-05-18T15:13:17.079;539239411613785853;325109;314028;341879;628;
2024-05-18T15:13:17.097;539239411631941704;325113;313969;341873;621;
2024-05-18T15:13:17.115;539239411650097555;325099;313842;341810;593;
2024-05-18T15:13:17.133;539239411668253406;325024;313852;341797;546;
2024-05-18T15:13:17.151;539239411686409257;325028;313817;341758;551;
2024-05-18T15:13:17.170;539239411704565108;325121;313832;341805;546;
2024-05-18T15:13:17.188;539239411722720959;325086;313858;341776;540;
2024-05-18T15:13:17.206;539239411740876810;325069;313873;341817;552;
2024-05-18T15:13:17.224;539239411759032661;325055;313840;341849;533;
2024-05-18T15:13:17.242;539239411777188512;325095;313845;341868;496;
2024-05-18T15:13:17.260;539239411795344363;325151;313862;341834;528;
2024-05-18T15:13:17.278;539239411813500214;325230;313834;341811;546;
2024-05-18T15:13:17.297;539239411831656065;325240;313876;341793;574;
2024-05-18T15:13:17.315;539239411849811916;325194;313770;341758;555;
2024-05-18T15:13:17.333;539239411867967767;325200;313760;341719;558;
2024-05-18T15:13:17.351;539239411886123618;325264;313848;341789;590;
2024-05-18T15:13:17.369;539239411904279469;325259;313878;341815;621;
2024-05-18T15:13:17.387;539239411922435320;325199;313785;341780;556;
2024-05-18T15:13:17.406;539239411940591171;325316;313732;341762;642;
2024-05-18T15:13:17.424;539239411958747022;325266;313754;341793;581;
2024-05-18T15:13:17.442;539239411976902873;325320;313815;341804;599;
2024-05-18T15:13:17.460;539239411995058724;325383;313767;341827;554;
2024-05-18T15:13:17.478;539239412013214651;325456;313851;341919;542;
2024-05-18T15:13:17.496;539239412031370572;325421;313858;341904;585;
2024-05-18T15:13:17.514;539239412049526493;325496;313820;341869;566;
2024-05-18T15:13:17.533;539239412067682414;325460;313749;341748;604;
2024-05-18T15:13:17.551;539239412085838335;325274;313600;341672;626;
2024-05-18T15:13:17.569;539239412103994256;324973;313322;341365;595;
2024-05-18T15:13:17.587;539239412122150177;324622;313002;341038;531;
2024-05-18T15:13:17.605;539239412140306098;324411;312780;340763;551;
2024-05-18T15:13:17.623;539239412158462019;324058;312522;340621;553;
2024-05-18T15:13:17.642;539239412176617940;323837;312319;340405;583;
2024-05-18T15:13:17.660;539239412194773861;323675;312206;340263;530;
2024-05-18T15:13:17.678;539239412212929782;323554;312069;340103;505;
2024-05-18T15:13:17.696;539239412231085703;323478;312035;340112;560;
2024-05-18T15:13:17.714;539239412249241624;323456;312040;340059;543;
2024-05-18T15:13:17.732;539239412267397545;323476;311966;340015;595;
2024-05-18T15:13:17.751;539239412285553466;323474;311940;340006;568;
2024-05-18T15:13:17.769;539239412303709387;323453;311871;339962;585;
2024-05-18T15:13:17.787;539239412321865308;323436;311800;339950;577;
2024-05-18T15:13:17.805;539239412340021229;323463;311723;339855;497;
2024-05-18T15:13:17.823;539239412358177150;323426;311731;339779;531;
2024-05-18T15:13:17.841;539239412376333071;323328;311638;339743;570;
2024-05-18T15:13:17.859;539239412394488992;323183;311499;339591;610;
2024-05-18T15:13:17.878;539239412412644913;323046;311429;339543;576;
2024-05-18T15:13:17.896;539239412430800834;323029;311260;339483;606;
2024-05-18T15:13:17.914;539239412448956755;322897;311246;339414;539;
2024-05-18T15:13:17.932;539239412467112676;322928;311178;339386;555;
2024-05-18T15:13:17.950;539239412485268597;322915;311177;339353;567;
2024-05-18T15:13:17.968;539239412503424518;322931;311114;339343;546;
2024-05-18T15:13:17.987;539239412521580439;322974;311120;339324;538;
2024-05-18T15:13:18.005;539239412539736360;323033;311089;339436;521;
2024-05-18T15:13:18.023;539239412557892281;323090;311054;339408;543;
2024-05-18T15:13:18.041;539239412576048202;323152;311121;339400;573;
2024-05-18T15:13:18.059;539239412594204123;323218;311204;339434;603;
2024-05-18T15:13:18.077;539239412612360044;323187;311122;339405;582;
2024-05-18T15:13:18.095;539239412630515965;323260;311174;339461;511;
2024-05-18T15:13:18.114;539239412648671886;323252;311168;339458;499;
2024-05-18T15:13:18.132;539239412666827807;323343;311223;339408;567;
2024-05-18T15:13:18.150;539239412684983728;323388;311211;339493;526;
2024-05-18T15:13:18.168;539239412703139649;323407;311197;339529;533;
2024-05-18T15:13:18.186;539239412721295570;323498;311200;339519;586;
2024-05-18T15:13:18.204;539239412739451218;323557;311179;339494;576;
2024-05-18T15:13:18.223;539239412757606840;323560;311203;339553;567;
2024-05-18T15:13:18.241;539239412775762462;323611;311197;339546;561;
2024-05-18T15:13:18.259;539239412793918084;323704;311187;339627;564;
2024-05-18T15:13:18.277;539239412812073706;323752;311196;339587;590;
2024-05-18T15:13:18.295;539239412830229328;323795;311274;339681;564;
2024-05-18T15:13:18.313;539239412848384950;323795;311335;339665;539;
2024-05-18T15:13:18.332;539239412866540572;323878;311324;339732;578;
2024-05-18T15:13:18.350;539239412884696194;323940;311373;339741;591;
2024-05-18T15:13:18.368;539239412902851816;324002;311395;339826;586;
2024-05-18T15:13:18.386;539239412921007438;324107;311438;339914;593;
2024-05-18T15:13:18.404;539239412939163060;324172;311470;339895;577;
2024-05-18T15:13:18.422;539239412957318682;324114;311456;339835;559;
2024-05-18T15:13:18.440;539239412975474304;324018;311314;339737;553;
2024-05-18T15:13:18.459;539239412993629926;323823;311095;339603;518;
2024-05-18T15:13:18.477;539239413011785548;323584;310914;339399;600;
2024-05-18T15:13:18.495;539239413029941170;323300;310674;339109;518;
2024-05-18T15:13:18.513;539239413048096792;323096;310467;338965;586;
2024-05-18T15:13:18.531;539239413066252414;322905;310364;338856;592;
2024-05-18T15:13:18.549;539239413084408036;322796;310268;338686;581;
2024-05-18T15:13:18.568;539239413102563658;322717;310163;338580;528;
2024-05-18T15:13:18.586;539239413120719280;322776;310141;338588;566;
2024-05-18T15:13:18.604;539239413138874902;322788;310169;338642;603;
2024-05-18T15:13:18.622;539239413157030524;322824;310199;338637;558;
2024-05-18T15:13:18.640;539239413175186146;322921;310218;338687;592;
2024-05-18T15:13:18.658;539239413193341768;322884;310250;338721;570;
2024-05-18T15:13:18.676;539239413211497390;322939;310227;338744;549;
2024-05-18T15:13:18.695;539239413229653012;323001;310183;338807;590;
2024-05-18T15:13:18.713;539239413247808634;322982;310164;338734;580;
2024-05-18T15:13:18.731;539239413265964256;322936;310137;338674;564;
2024-05-18T15:13:18.749;539239413284119878;322907;310069;338641;563;
2024-05-18T15:13:18.767;539239413302275500;322890;310030;338588;565;
2024-05-18T15:13:18.785;539239413320431122;322852;309964;338582;519;
2024-05-18T15:13:18.804;539239413338586744;322893;309976;338552;608;
2024-05-18T15:13:18.822;539239413356742366;322891;309938;338567;581;
2024-05-18T15:13:18.840;539239413374897988;322871;309909;338589;570;
2024-05-18T15:13:18.858;539239413393053610;322948;309902;338611;537;
2024-05-18T15:13:18.876;539239413411209232;323032;309911;338625;541;
2024-05-18T15:13:18.894;539239413429364854;323096;309979;338742;563;
2024-05-18T15:13:18.912;539239413447520476;323223;310094;338807;572;
2024-05-18T15:13:18.931;539239413465676098;323298;310156;338935;540;
2024-05-18T15:13:18.949;539239413483831720;323364;310253;339023;546;
2024-05-18T15:13:18.967;539239413501987342;323473;310228;339032;556;
2024-05-18T15:13:18.985;539239413520142964;323619;310333;339187;547;
2024-05-18T15:13:19.003;539239413538298586;323627;310379;339223;498;
2024-05-18T15:13:19.021;539239413556454208;323755;310471;339267;555;
2024-05-18T15:13:19.040;539239413574609476;323718;310411;339270;536;
2024-05-18T15:13:19.058;539239413592764706;323816;310470;339299;571;
2024-05-18T15:13:19.076;539239413610919936;323853;310467;339321;523;
2024-05-18T15:13:19.094;539239413629075166;323861;310472;339364;523;
2024-05-18T15:13:19.112;539239413647230396;323995;310560;339445;559;
2024-05-18T15:13:19.130;539239413665385626;324065;310560;339481;530;
2024-05-18T15:13:19.149;539239413683540856;324105;310630;339498;500;
2024-05-18T15:13:19.167;539239413701696086;324189;310677;339544;517;
2024-05-18T15:13:19.185;539239413719851316;324249;310675;339581;553;
2024-05-18T15:13:19.203;539239413738006546;324301;310745;339635;517;
2024-05-18T15:13:19.221;539239413756161776;324437;310800;339683;574;
2024-05-18T15:13:19.239;539239413774317006;324520;310858;339734;581;
2024-05-18T15:13:19.257;539239413792472236;324665;310924;339858;565;
2024-05-18T15:13:19.276;539239413810627466;324716;310987;339878;557;
2024-05-18T15:13:19.294;539239413828782696;324775;311066;339945;563;
2024-05-18T15:13:19.312;539239413846937926;324885;311072;340019;582;
2024-05-18T15:13:19.330;539239413865093156;324731;310968;339831;576;
2024-05-18T15:13:19.348;539239413883248386;324517;310837;339773;546;
2024-05-18T15:13:19.366;539239413901403616;324297;310566;339511;526;
2024-05-18T15:13:19.385;539239413919558846;324006;310266;339229;558;
2024-05-18T15:13:19.403;539239413937714076;323760;310135;339010;534;
2024-05-18T15:13:19.421;539239413955869306;323458;309844;338731;610;
2024-05-18T15:13:19.439;539239413974024536;323170;309634;338526;515;
2024-05-18T15:13:19.457;539239413992179766;323004;309483;338330;499;
2024-05-18T15:13:19.475;539239414010334996;322868;309335;338238;516;
2024-05-18T15:13:19.493;539239414028490226;322886;309293;338217;548;
2024-05-18T15:13:19.512;539239414046645456;322813;309231;338103;557;
2024-05-18T15:13:19.530;539239414064800686;322892;309227;338097;573;
2024-05-18T15:13:19.548;539239414082955916;322891;309218;337998;505;
2024-05-18T15:13:19.566;539239414101111146;322854;309232;337961;517;
2024-05-18T15:13:19.584;539239414119266376;322793;309149;337977;534;
2024-05-18T15:13:19.602;539239414137421606;322819;309102;337957;570;
2024-05-18T15:13:19.621;539239414155576836;322715;308979;337798;472;
2024-05-18T15:13:19.639;539239414173732066;322642;308913;337671;511;
2024-05-18T15:13:19.657;539239414191887296;322512;308838;337637;513;
2024-05-18T15:13:19.675;539239414210042526;322489;308793;337524;535;
2024-05-18T15:13:19.693;539239414228197756;322407;308711;337417;520;
2024-05-18T15:13:19.711;539239414246352986;322407;308580;337393;528;
2024-05-18T15:13:19.729;539239414264508216;322332;308521;337287;529;
2024-05-18T15:13:19.748;539239414282663446;322338;308583;337283;539;
2024-05-18T15:13:19.766;539239414300818676;322305;308543;337278;502;
2024-05-18T15:13:19.784;539239414318973906;322350;308504;337225;450;
2024-05-18T15:13:19.802;539239414337131054;322388;308561;337330;536;
2024-05-18T15:13:19.820;539239414355288163;322409;308561;337298;480;
2024-05-18T15:13:19.838;539239414373445272;322479;308572;337229;552;
2024-05-18T15:13:19.857;539239414391602381;322500;308576;337294;520;
2024-05-18T15:13:19.875;539239414409759490;322607;308573;337398;536;
2024-05-18T15:13:19.893;539239414427916599;322594;308627;337353;525;
2024-05-18T15:13:19.911;539239414446073708;322585;308655;337365;502;
2024-05-18T15:13:19.929;539239414464230817;322677;308692;337471;521;
2024-05-18T15:13:19.947;539239414482387926;322715;308697;337410;484;
2024-05-18T15:13:19.966;539239414500545035;322752;308736;337399;559;
2024-05-18T15:13:19.984;539239414518702144;322789;308751;337417;512;
2024-05-18T15:13:20.002;539239414536859253;322823;308755;337456;549;
2024-05-18T15:13:20.020;539239414555016362;322868;308766;337540;488;
2024-05-18T15:13:20.038;539239414573173471;322879;308795;337467;456;
2024-05-18T15:13:20.056;539239414591330580;322964;308842;337522;487;
2024-05-18T15:13:20.074;539239414609487689;323000;308842;337554;489;
2024-05-18T15:13:20.093;539239414627644798;323047;308918;337604;478;
2024-05-18T15:13:20.111;539239414645801907;323138;308952;337606;517;
2024-05-18T15:13:20.129;539239414663959016;323259;309032;337758;511;
2024-05-18T15:13:20.147;539239414682116125;323322;309111;337781;528;
2024-05-18T15:13:20.165;539239414700273234;323477;309185;337880;572;
2024-05-18T15:13:20.183;539239414718430343;323495;309208;337939;549;
2024-05-18T15:13:20.202;539239414736587452;323624;309270;338040;521;
2024-05-18T15:13:20.220;539239414754744561;323721;309340;338080;500;
2024-05-18T15:13:20.238;539239414772901670;323741;309358;338089;498;
2024-05-18T15:13:20.256;539239414791058779;323692;309306;338055;551;
2024-05-18T15:13:20.274;539239414809215888;323497;309113;337815;473;
2024-05-18T15:13:20.292;539239414827372997;323198;308857;337493;511;
2024-05-18T15:13:20.311;539239414845530106;322857;308535;337195;500;
2024-05-18T15:13:20.329;539239414863687215;322550;308204;336809;512;
2024-05-18T15:13:20.347;539239414881844324;322145;307854;336422;506;
2024-05-18T15:13:20.365;539239414900001433;321770;307569;336107;580;
2024-05-18T15:13:20.383;539239414918158542;321494;307283;335706;539;
2024-05-18T15:13:20.401;539239414936315651;321202;307018;335530;481;
2024-05-18T15:13:20.419;539239414954472760;321055;306914;335317;512;
2024-05-18T15:13:20.438;539239414972629869;320956;306790;335226;492;
2024-05-18T15:13:20.456;539239414990786978;320770;306635;335029;480;
2024-05-18T15:13:20.474;539239415008944087;320749;306605;335031;518;
2024-05-18T15:13:20.492;539239415027101196;320707;306505;334894;498;
2024-05-18T15:13:20.510;539239415045258305;320622;306438;334849;497;
2024-05-18T15:13:20.528;539239415063415414;320472;306353;334735;470;
2024-05-18T15:13:20.547;539239415081572523;320410;306252;334612;541;
2024-05-18T15:13:20.565;539239415099729632;320266;306149;334480;563;
2024-05-18T15:13:20.583;539239415117886806;320060;305938;334248;450;
2024-05-18T15:13:20.601;539239415136043962;319860;305813;334113;496;
2024-05-18T15:13:20.619;539239415154201118;319728;305600;333942;486;
2024-05-18T15:13:20.637;539239415172358274;319629;305482;333797;524;
2024-05-18T15:13:20.655;539239415190515430;319542;305394;333642;551;
2024-05-18T15:13:20.674;539239415208672586;319365;305284;333544;488;
2024-05-18T15:13:20.692;539239415226829742;319261;305164;333440;468;
2024-05-18T15:13:20.710;539239415244986898;319240;305137;333410;563;
2024-05-18T15:13:20.728;539239415263144054;319177;305039;333322;531;
2024-05-18T15:13:20.746;539239415281301210;319155;304972;333215;550;
2024-05-18T15:13:20.764;539239415299458366;319129;304930;333218;496;
2024-05-18T15:13:20.783;539239415317615522;319161;304921;333156;558;
2024-05-18T15:13:20.801;539239415335772678;319146;304907;333134;557;
2024-05-18T15:13:20.819;539239415353929834;319045;304906;333083;513;
2024-05-18T15:13:20.837;539239415372086990;319074;304823;333031;498;
2024-05-18T15:13:20.855;539239415390244146;319026;304806;332984;488;
2024-05-18T15:13:20.873;539239415408401302;319015;304853;333049;490;
2024-05-18T15:13:20.892;539239415426558458;318990;304719;332927;518;
2024-05-18T15:13:20.910;539239415444715614;318967;304647;332885;480;
2024-05-18T15:13:20.928;539239415462872770;318935;304715;332812;483;
2024-05-18T15:13:20.946;539239415481029926;318878;304604;332817;501;
2024-05-18T15:13:20.964;539239415499187082;318889;304591;332835;494;
2024-05-18T15:13:20.982;539239415517344238;318918;304633;332796;547;
2024-05-18T15:13:21.000;539239415535501394;318892;304610;332788;513;
2024-05-18T15:13:21.019;539239415553658550;318877;304586;332777;526;
2024-05-18T15:13:21.037;539239415571815706;318929;304624;332784;504;
2024-05-18T15:13:21.055;539239415589972862;318975;304640;332736;524;
2024-05-18T15:13:21.073;539239415608130018;318952;304594;332729;523;
2024-05-18T15:13:21.091;539239415626287174;318953;304529;332707;531;
2024-05-18T15:13:21.109;539239415644444330;318980;304590;332706;444;
2024-05-18T15:13:21.128;539239415662601486;319024;304601;332729;462;
2024-05-18T15:13:21.146;539239415680758642;319071;304658;332843;483;
2024-05-18T15:13:21.164;539239415698915798;319123;304672;332852;470;
2024-05-18T15:13:21.182;539239415717072954;319122;304639;332826;551;
2024-05-18T15:13:21.200;539239415735230110;318971;304478;332650;502;
2024-05-18T15:13:21.218;539239415753387266;318744;304310;332400;563;
2024-05-18T15:13:21.237;539239415771544422;318347;303987;332046;523;
2024-05-18T15:13:21.255;539239415789701578;317893;303616;331658;548;
2024-05-18T15:13:21.273;539239415807858734;317456;303179;331194;506;
2024-05-18T15:13:21.291;539239415826015890;317074;302823;330858;500;
2024-05-18T15:13:21.309;539239415844173046;316810;302543;330556;486;
2024-05-18T15:13:21.327;539239415862330202;316420;302259;330269;457;
2024-05-18T15:13:21.345;539239415880485355;316260;302007;330068;458;
2024-05-18T15:13:21.364;539239415898640476;316138;301926;329964;519;
2024-05-18T15:13:21.382;539239415916795597;316026;301777;329811;474;
2024-05-18T15:13:21.400;539239415934950718;316065;301793;329754;537;
2024-05-18T15:13:21.418;539239415953105839;316040;301767;329746;496;
2024-05-18T15:13:21.436;539239415971260960;315985;301650;329750;461;
2024-05-18T15:13:21.454;539239415989416081;315926;301616;329695;509;
2024-05-18T15:13:21.473;539239416007571202;315872;301501;329623;502;
2024-05-18T15:13:21.491;539239416025726323;315751;301394;329491;468;
2024-05-18T15:13:21.509;539239416043881444;315592;301344;329391;509;
2024-05-18T15:13:21.527;539239416062036565;315422;301226;329285;538;
2024-05-18T15:13:21.545;539239416080191686;315393;301064;329114;511;
2024-05-18T15:13:21.563;539239416098346807;315202;300893;329004;559;
2024-05-18T15:13:21.581;539239416116501928;315066;300801;328871;499;
2024-05-18T15:13:21.600;539239416134657049;314994;300699;328760;497;
2024-05-18T15:13:21.618;539239416152812170;314948;300658;328730;563;
2024-05-18T15:13:21.636;539239416170967291;314924;300596;328704;565;
2024-05-18T15:13:21.654;539239416189122412;314894;300625;328692;543;
2024-05-18T15:13:21.672;539239416207277533;314909;300548;328736;519;
2024-05-18T15:13:21.690;539239416225432654;314985;300587;328778;555;
2024-05-18T15:13:21.709;539239416243587775;314994;300666;328843;526;
2024-05-18T15:13:21.727;539239416261742896;315149;300729;328885;483;
2024-05-18T15:13:21.745;539239416279898017;315212;300784;328940;513;
2024-05-18T15:13:21.763;539239416298053138;315248;300764;328955;436;
2024-05-18T15:13:21.781;539239416316208259;315275;300780;329020;457;
2024-05-18T15:13:21.799;539239416334363380;315409;300780;329071;483;
2024-05-18T15:13:21.817;539239416352518501;315460;300814;329104;505;
2024-05-18T15:13:21.836;539239416370673622;315509;300868;329143;508;
2024-05-18T15:13:21.854;539239416388828743;315445;300915;329197;483;
2024-05-18T15:13:21.872;539239416406983864;315472;300889;329172;490;
2024-05-18T15:13:21.890;539239416425138985;315627;300968;329222;520;
2024-05-18T15:13:21.908;539239416443294106;315606;300942;329318;441;
2024-05-18T15:13:21.926;539239416461449227;315654;301038;329363;495;
2024-05-18T15:13:21.945;539239416479604348;315735;301047;329399;482;
2024-05-18T15:13:21.963;539239416497759469;315713;301022;329374;435;
2024-05-18T15:13:21.981;539239416515914590;315784;301105;329477;431;
2024-05-18T15:13:21.999;539239416534069711;315867;301198;329508;484;
2024-05-18T15:13:22.017;539239416552224832;315943;301179;329566;497;
2024-05-18T15:13:22.035;539239416570379953;316046;301272;329603;490;
2024-05-18T15:13:22.054;539239416588535074;316069;301321;329562;457;
2024-05-18T15:13:22.072;539239416606690195;316164;301447;329792;528;
2024-05-18T15:13:22.090;539239416624845316;316242;301417;329846;505;
2024-05-18T15:13:22.108;539239416642999819;316216;301346;329779;491;
2024-05-18T15:13:22.126;539239416661154286;316016;301263;329651;503;
2024-05-18T15:13:22.144;539239416679308753;315666;300934;329361;519;
