Phone timestamp;sensor timestamp [ns];channel 0;channel 1;channel 2;ambient
2024-05-18T15:14:47.519;539239501697447534;344408;313545;331521;1781;
2024-05-18T15:14:47.537;539239501715600948;344246;313458;331462;1681;
2024-05-18T15:14:47.555;539239501733754362;344150;313410;331409;1717;
2024-05-18T15:14:47.573;539239501751907776;344021;313346;331296;1689;
2024-05-18T15:14:47.591;539239501770061190;343904;313170;331281;1632;
2024-05-18T15:14:47.609;539239501788214604;343712;312932;331141;1622;
2024-05-18T15:14:47.627;539239501806368018;343554;312568;330968;1590;
2024-05-18T15:14:47.646;539239501824521432;343385;312079;330751;1530;
2024-05-18T15:14:47.664;539239501842674846;343309;311669;330419;1580;
2024-05-18T15:14:47.682;539239501860828260;343287;311290;330119;1541;
2024-05-18T15:14:47.700;539239501878981674;343383;310934;329715;1545;
2024-05-18T15:14:47.718;539239501897135088;343514;310580;329418;1502;
2024-05-18T15:14:47.736;539239501915288502;343687;310313;329121;1447;
2024-05-18T15:14:47.754;539239501933441916;343819;310064;328907;1444;
2024-05-18T15:14:47.773;539239501951595330;344006;309878;328729;1426;
2024-05-18T15:14:47.791;539239501969748744;344190;309750;328660;1474;
2024-05-18T15:14:47.809;539239501987902158;344407;309590;328553;1470;
2024-05-18T15:14:47.827;539239502006055572;344555;309470;328471;1455;
2024-05-18T15:14:47.845;539239502024208986;344714;309423;328464;1430;
2024-05-18T15:14:47.863;539239502042362400;344935;309426;328451;1495;
2024-05-18T15:14:47.882;539239502060515814;345065;309291;328393;1427;
2024-05-18T15:14:47.900;539239502078669228;345146;309092;328301;1471;
2024-05-18T15:14:47.918;539239502096822642;345092;308866;328120;1451;
2024-05-18T15:14:47.936;539239502114976056;344874;308495;327873;1469;
2024-05-18T15:14:47.954;539239502133129470;344669;308042;327655;1473;
2024-05-18T15:14:47.972;539239502151282884;344478;307667;327420;1444;
2024-05-18T15:14:47.990;539239502169436298;344241;307247;327222;1503;
2024-05-18T15:14:48.009;539239502187589712;344044;306949;326994;1447;
2024-05-18T15:14:48.027;539239502205743126;343963;306643;326852;1468;
2024-05-18T15:14:48.045;539239502223896540;343804;306420;326810;1494;
2024-05-18T15:14:48.063;539239502242049954;343771;306251;326772;1491;
2024-05-18T15:14:48.081;539239502260203368;343857;306180;326702;1487;
2024-05-18T15:14:48.099;539239502278356782;343906;306106;326798;1495;
2024-05-18T15:14:48.118;539239502296510196;343877;306053;326783;1463;
2024-05-18T15:14:48.136;539239502314663610;343954;306044;326902;1501;
2024-05-18T15:14:48.154;539239502332817024;343997;305957;326938;1477;
2024-05-18T15:14:48.172;539239502350970438;343977;305873;326935;1476;
2024-05-18T15:14:48.190;539239502369123852;343981;305709;326853;1452;
2024-05-18T15:14:48.208;539239502387277266;343766;305582;326769;1467;
2024-05-18T15:14:48.226;539239502405430680;343711;305381;326692;1455;
2024-05-18T15:14:48.245;539239502423584094;343577;305147;326545;1489;
2024-05-18T15:14:48.263;539239502441737508;343525;304983;326518;1488;
2024-05-18T15:14:48.281;539239502459890934;343406;304849;326494;1547;
2024-05-18T15:14:48.299;539239502478044348;343356;304739;326414;1444;
2024-05-18T15:14:48.317;539239502496197762;343366;304633;326444;1462;
2024-05-18T15:14:48.335;539239502514351176;343358;304526;326443;1475;
2024-05-18T15:14:48.354;539239502532504590;343416;304481;326395;1462;
2024-05-18T15:14:48.372;539239502550658004;343412;304477;326412;1561;
2024-05-18T15:14:48.390;539239502568811418;343478;304430;326395;1499;
2024-05-18T15:14:48.408;539239502586964832;343619;304425;326470;1488;
2024-05-18T15:14:48.426;539239502605118246;343660;304383;326517;1443;
2024-05-18T15:14:48.444;539239502623271660;343681;304417;326555;1516;
2024-05-18T15:14:48.462;539239502641425074;343773;304407;326582;1506;
2024-05-18T15:14:48.481;539239502659578488;343852;304408;326619;1512;
2024-05-18T15:14:48.499;539239502677731902;343831;304391;326628;1457;
2024-05-18T15:14:48.517;539239502695885316;343924;304352;326675;1448;
2024-05-18T15:14:48.535;539239502714038730;344021;304442;326691;1446;
2024-05-18T15:14:48.553;539239502732192144;344101;304443;326759;1474;
2024-05-18T15:14:48.571;539239502750345558;344123;304435;326791;1509;
2024-05-18T15:14:48.590;539239502768498972;344175;304348;326794;1460;
2024-05-18T15:14:48.608;539239502786652386;344248;304380;326784;1389;
2024-05-18T15:14:48.626;539239502804805800;344336;304446;326783;1422;
2024-05-18T15:14:48.644;539239502822959214;344344;304364;326816;1445;
2024-05-18T15:14:48.662;539239502841112628;344468;304414;326877;1489;
2024-05-18T15:14:48.680;539239502859266042;344440;304365;326898;1469;
2024-05-18T15:14:48.698;539239502877419456;344284;304207;326783;1434;
2024-05-18T15:14:48.717;539239502895572870;344170;303951;326630;1451;
2024-05-18T15:14:48.735;539239502913726284;343764;303634;326362;1411;
2024-05-18T15:14:48.753;539239502931879698;343451;303293;326160;1377;
2024-05-18T15:14:48.771;539239502950033112;343085;302968;325870;1434;
2024-05-18T15:14:48.789;539239502968186526;342844;302628;325682;1447;
2024-05-18T15:14:48.807;539239502986339940;342589;302392;325499;1396;
2024-05-18T15:14:48.826;539239503004493354;342336;302132;325286;1366;
2024-05-18T15:14:48.844;539239503022646768;342182;301888;325121;1396;
2024-05-18T15:14:48.862;539239503040800182;342122;301860;325108;1400;
2024-05-18T15:14:48.880;539239503058953596;342073;301726;325040;1424;
2024-05-18T15:14:48.898;539239503077107010;342066;301687;324964;1351;
2024-05-18T15:14:48.916;539239503095260424;342062;301669;324941;1313;
2024-05-18T15:14:48.934;539239503113413838;342152;301585;324837;1351;
2024-05-18T15:14:48.953;539239503131567252;342121;301610;324902;1369;
2024-05-18T15:14:48.971;539239503149720666;342018;301428;324815;1336;
2024-05-18T15:14:48.989;539239503167874080;341944;301291;324672;1340;
2024-05-18T15:14:49.007;539239503186027494;341835;301172;324590;1331;
2024-05-18T15:14:49.025;539239503204180908;341717;301020;324528;1327;
2024-05-18T15:14:49.043;539239503222334484;341538;300868;324384;1337;
2024-05-18T15:14:49.062;539239503240488045;341500;300740;324248;1333;
2024-05-18T15:14:49.080;539239503258641606;341346;300539;324126;1344;
2024-05-18T15:14:49.098;539239503276795167;341299;300408;324058;1353;
2024-05-18T15:14:49.116;539239503294948728;341239;300381;323995;1371;
2024-05-18T15:14:49.134;539239503313102289;341196;300395;323975;1343;
2024-05-18T15:14:49.152;539239503331255850;341244;300317;323923;1335;
2024-05-18T15:14:49.170;539239503349409411;341304;300335;323918;1315;
2024-05-18T15:14:49.189;539239503367562972;341296;300252;323834;1319;
2024-05-18T15:14:49.207;539239503385716533;341331;300263;323867;1297;
2024-05-18T15:14:49.225;539239503403870094;341405;300302;323910;1313;
2024-05-18T15:14:49.243;539239503422023655;341412;300308;323874;1307;
2024-05-18T15:14:49.261;539239503440177216;341477;300270;323873;1305;
2024-05-18T15:14:49.279;539239503458330777;341536;300326;323859;1310;
2024-05-18T15:14:49.298;539239503476484338;341598;300343;323855;1352;
2024-05-18T15:14:49.316;539239503494637899;341649;300356;323807;1338;
2024-05-18T15:14:49.334;539239503512791460;341670;300327;323799;1357;
2024-05-18T15:14:49.352;539239503530945021;341735;300326;323844;1339;
2024-05-18T15:14:49.370;539239503549098582;341797;300301;323881;1350;
2024-05-18T15:14:49.388;539239503567252143;341818;300336;323848;1342;
2024-05-18T15:14:49.406;539239503585405704;341869;300306;323877;1298;
2024-05-18T15:14:49.425;539239503603559265;341901;300342;323875;1323;
2024-05-18T15:14:49.443;539239503621712826;341971;300383;323869;1318;
2024-05-18T15:14:49.461;539239503639866387;341969;300376;323859;1255;
2024-05-18T15:14:49.479;539239503658019948;341984;300268;323864;1232;
2024-05-18T15:14:49.497;539239503676173509;341892;300163;323824;1347;
2024-05-18T15:14:49.515;539239503694327070;341630;299882;323587;1328;
2024-05-18T15:14:49.534;539239503712480631;341336;299620;323300;1297;
2024-05-18T15:14:49.552;539239503730634192;340989;299294;323098;1334;
2024-05-18T15:14:49.570;539239503748787753;340693;299001;322828;1366;
2024-05-18T15:14:49.588;539239503766941314;340448;298739;322617;1344;
2024-05-18T15:14:49.606;539239503785094875;340178;298555;322485;1371;
2024-05-18T15:14:49.624;539239503803248436;340014;298392;322263;1285;
2024-05-18T15:14:49.642;539239503821401997;340006;298278;322210;1348;
2024-05-18T15:14:49.661;539239503839555558;339982;298191;322160;1296;
2024-05-18T15:14:49.679;539239503857709119;339908;298173;322037;1305;
2024-05-18T15:14:49.697;539239503875862680;339925;298181;322032;1241;
2024-05-18T15:14:49.715;539239503894016241;339990;298221;322012;1308;
2024-05-18T15:14:49.733;539239503912169802;339974;298078;321925;1319;
2024-05-18T15:14:49.751;539239503930323363;339925;298141;321898;1288;
2024-05-18T15:14:49.770;539239503948476924;339873;298013;321849;1273;
2024-05-18T15:14:49.788;539239503966630485;339863;297953;321711;1298;
2024-05-18T15:14:49.806;539239503984784046;339671;297855;321506;1294;
2024-05-18T15:14:49.824;539239504002939686;339586;297747;321459;1337;
2024-05-18T15:14:49.842;539239504021095305;339458;297598;321355;1274;
2024-05-18T15:14:49.860;539239504039250924;339387;297484;321282;1265;
2024-05-18T15:14:49.878;539239504057406543;339293;297357;321135;1246;
2024-05-18T15:14:49.897;539239504075562162;339300;297341;321086;1301;
2024-05-18T15:14:49.915;539239504093717781;339304;297339;321021;1283;
2024-05-18T15:14:49.933;539239504111873400;339254;297338;320941;1268;
2024-05-18T15:14:49.951;539239504130029019;339302;297367;320966;1281;
2024-05-18T15:14:49.969;539239504148184638;339396;297365;320913;1234;
2024-05-18T15:14:49.987;539239504166340257;339414;297334;320908;1275;
2024-05-18T15:14:50.006;539239504184495876;339480;297327;320885;1289;
2024-05-18T15:14:50.024;539239504202651495;339503;297414;320866;1298;
2024-05-18T15:14:50.042;539239504220807114;339547;297360;320835;1266;
2024-05-18T15:14:50.060;539239504238962733;339605;297380;320875;1281;
2024-05-18T15:14:50.078;539239504257118352;339660;297417;320900;1232;
2024-05-18T15:14:50.096;539239504275273971;339700;297426;320847;1232;
2024-05-18T15:14:50.114;539239504293429590;339754;297419;320841;1250;
2024-05-18T15:14:50.133;539239504311585209;339796;297391;320843;1288;
2024-05-18T15:14:50.151;539239504329740828;339895;297456;320894;1245;
2024-05-18T15:14:50.169;539239504347896447;339870;297516;320846;1269;
2024-05-18T15:14:50.187;539239504366052066;339906;297453;320796;1301;
2024-05-18T15:14:50.205;539239504384207685;339915;297436;320744;1274;
2024-05-18T15:14:50.223;539239504402363304;339979;297451;320708;1269;
2024-05-18T15:14:50.242;539239504420518923;340068;297505;320742;1297;
2024-05-18T15:14:50.260;539239504438674542;340040;297473;320650;1286;
2024-05-18T15:14:50.278;539239504456830161;340095;297479;320622;1254;
2024-05-18T15:14:50.296;539239504474985780;340141;297452;320617;1259;
2024-05-18T15:14:50.314;539239504493141399;340096;297405;320532;1277;
2024-05-18T15:14:50.332;539239504511297018;339924;297228;320396;1282;
2024-05-18T15:14:50.351;539239504529452637;339567;296922;320205;1263;
2024-05-18T15:14:50.369;539239504547608256;339221;296668;319895;1265;
2024-05-18T15:14:50.387;539239504565763875;338866;296344;319632;1234;
2024-05-18T15:14:50.405;539239504583919494;338651;296058;319371;1290;
2024-05-18T15:14:50.423;539239504602075113;338272;295814;319013;1296;
2024-05-18T15:14:50.441;539239504620230732;338148;295613;318868;1243;
2024-05-18T15:14:50.459;539239504638386351;337893;295388;318668;1275;
2024-05-18T15:14:50.478;539239504656541970;337763;295327;318511;1274;
2024-05-18T15:14:50.496;539239504674697589;337647;295241;318424;1215;
2024-05-18T15:14:50.514;539239504692853208;337558;295157;318344;1293;
2024-05-18T15:14:50.532;539239504711008827;337583;295045;318183;1291;
2024-05-18T15:14:50.550;539239504729164446;337464;295005;318136;1259;
2024-05-18T15:14:50.568;539239504747320065;337377;294879;318000;1212;
2024-05-18T15:14:50.587;539239504765475684;337334;294771;317835;1145;
2024-05-18T15:14:50.605;539239504783631286;337210;294726;317658;1221;
2024-05-18T15:14:50.623;539239504801786880;337055;294491;317468;1225;
2024-05-18T15:14:50.641;539239504819942474;336852;294358;317298;1202;
2024-05-18T15:14:50.659;539239504838098068;336753;294170;317123;1190;
2024-05-18T15:14:50.677;539239504856253662;336580;293988;316831;1204;
2024-05-18T15:14:50.695;539239504874409256;336448;293789;316646;1186;
2024-05-18T15:14:50.714;539239504892564850;336293;293677;316512;1175;
2024-05-18T15:14:50.732;539239504910720444;336148;293565;316403;1168;
2024-05-18T15:14:50.750;539239504928876038;336102;293463;316313;1204;
2024-05-18T15:14:50.768;539239504947031632;335994;293374;316162;1151;
2024-05-18T15:14:50.786;539239504965187226;335981;293281;316000;1143;
2024-05-18T15:14:50.804;539239504983342820;335965;293174;315948;1144;
2024-05-18T15:14:50.823;539239505001498414;336030;293197;315900;1187;
2024-05-18T15:14:50.841;539239505019654008;336078;293143;315848;1245;
2024-05-18T15:14:50.859;539239505037809602;336141;293139;315802;1154;
2024-05-18T15:14:50.877;539239505055965196;336076;293089;315772;1161;
2024-05-18T15:14:50.895;539239505074120790;336041;292983;315748;1174;
2024-05-18T15:14:50.913;539239505092276384;336084;293070;315693;1184;
2024-05-18T15:14:50.931;539239505110431978;336076;293046;315606;1205;
2024-05-18T15:14:50.950;539239505128587572;336051;293053;315649;1245;
2024-05-18T15:14:50.968;539239505146743166;336060;292931;315539;1150;
2024-05-18T15:14:50.986;539239505164898760;336103;292926;315511;1129;
2024-05-18T15:14:51.004;539239505183054354;336144;292948;315470;1162;
2024-05-18T15:14:51.022;539239505201209948;336133;292873;315447;1139;
2024-05-18T15:14:51.040;539239505219365542;336165;292953;315427;1171;
2024-05-18T15:14:51.059;539239505237521136;336156;292871;315395;1181;
2024-05-18T15:14:51.077;539239505255676730;336098;292884;315351;1161;
2024-05-18T15:14:51.095;539239505273832324;336134;292855;315316;1182;
2024-05-18T15:14:51.113;539239505291987918;336214;292834;315251;1154;
2024-05-18T15:14:51.131;539239505310143512;336262;292856;315333;1157;
2024-05-18T15:14:51.149;539239505328299106;336214;292878;315307;1137;
2024-05-18T15:14:51.168;539239505346454700;336148;292700;315186;1151;
2024-05-18T15:14:51.186;539239505364610294;335983;292551;315099;1102;
2024-05-18T15:14:51.204;539239505382765888;335721;292316;314935;1094;
2024-05-18T15:14:51.222;539239505400921482;335443;292062;314714;1084;
2024-05-18T15:14:51.240;539239505419077076;335141;291761;314466;1095;
2024-05-18T15:14:51.258;539239505437232670;334841;291575;314258;1110;
2024-05-18T15:14:51.276;539239505455388264;334549;291338;314009;1115;
2024-05-18T15:14:51.295;539239505473543858;334340;291145;313857;1088;
2024-05-18T15:14:51.313;539239505491699452;334205;290990;313769;1126;
2024-05-18T15:14:51.331;539239505509855046;334085;290858;313652;1139;
2024-05-18T15:14:51.349;539239505528010640;334039;290842;313558;1097;
2024-05-18T15:14:51.367;539239505546165091;334028;290756;313533;1041;
2024-05-18T15:14:51.385;539239505564319522;334078;290764;313502;1043;
2024-05-18T15:14:51.404;539239505582473953;334086;290774;313447;1087;
2024-05-18T15:14:51.422;539239505600628384;333970;290750;313395;1124;
2024-05-18T15:14:51.440;539239505618782815;334003;290668;313371;1141;
2024-05-18T15:14:51.458;539239505636937246;333908;290659;313323;1115;
2024-05-18T15:14:51.476;539239505655091677;333854;290482;313251;1118;
2024-05-18T15:14:51.494;539239505673246108;333757;290373;313141;1092;
2024-05-18T15:14:51.512;539239505691400539;333677;290246;313041;1135;
2024-05-18T15:14:51.531;539239505709554970;333524;290187;312974;1017;
2024-05-18T15:14:51.549;539239505727709401;333458;290007;312852;1077;
2024-05-18T15:14:51.567;539239505745863832;333362;289967;312787;1139;
2024-05-18T15:14:51.585;539239505764018263;333388;289947;312780;1116;
2024-05-18T15:14:51.603;539239505782172694;333359;289874;312726;1102;
2024-05-18T15:14:51.621;539239505800327125;333365;289876;312685;1096;
2024-05-18T15:14:51.640;539239505818481556;333371;289837;312646;1164;
2024-05-18T15:14:51.658;539239505836635987;333365;289875;312615;1103;
2024-05-18T15:14:51.676;539239505854790418;333381;289941;312699;1080;
2024-05-18T15:14:51.694;539239505872944849;333452;289933;312685;1113;
2024-05-18T15:14:51.712;539239505891099280;333486;289915;312701;1084;
2024-05-18T15:14:51.730;539239505909253711;333540;289922;312693;1028;
2024-05-18T15:14:51.748;539239505927408142;333579;289913;312683;1048;
2024-05-18T15:14:51.767;539239505945562573;333630;289998;312774;1035;
2024-05-18T15:14:51.785;539239505963717004;333572;289845;312785;1029;
2024-05-18T15:14:51.803;539239505981871435;333683;289930;312789;1035;
2024-05-18T15:14:51.821;539239506000025866;333662;289912;312826;1118;
2024-05-18T15:14:51.839;539239506018180297;333679;289881;312806;1104;
2024-05-18T15:14:51.857;539239506036334728;333715;289884;312753;1021;
2024-05-18T15:14:51.876;539239506054489159;333720;289962;312794;1080;
2024-05-18T15:14:51.894;539239506072643590;333755;289937;312717;1079;
2024-05-18T15:14:51.912;539239506090798021;333818;289998;312855;1104;
2024-05-18T15:14:51.930;539239506108952452;333798;289972;312835;1053;
2024-05-18T15:14:51.948;539239506127106883;333855;290064;312883;1114;
2024-05-18T15:14:51.966;539239506145261314;333936;290077;312937;1078;
2024-05-18T15:14:51.984;539239506163415745;333924;290059;312998;1092;
2024-05-18T15:14:52.003;539239506181570176;333949;290089;312948;1042;
2024-05-18T15:14:52.021;539239506199724607;334042;290100;312953;1060;
2024-05-18T15:14:52.039;539239506217879038;333888;290008;312898;1013;
2024-05-18T15:14:52.057;539239506236033469;333718;289929;312824;1020;
2024-05-18T15:14:52.075;539239506254187900;333573;289698;312716;1045;
2024-05-18T15:14:52.093;539239506272342331;333251;289403;312508;1065;
2024-05-18T15:14:52.112;539239506290496762;332918;289169;312274;1070;
2024-05-18T15:14:52.130;539239506308649500;332603;288871;312088;1014;
2024-05-18T15:14:52.148;539239506326802209;332396;288650;311907;1025;
2024-05-18T15:14:52.166;539239506344954918;332283;288552;311789;1069;
2024-05-18T15:14:52.184;539239506363107627;332108;288505;311633;1026;
2024-05-18T15:14:52.202;539239506381260336;332074;288442;311657;1020;
2024-05-18T15:14:52.220;539239506399413045;331902;288361;311583;1014;
2024-05-18T15:14:52.239;539239506417565754;331925;288341;311578;1016;
2024-05-18T15:14:52.257;539239506435718463;331908;288352;311555;1032;
2024-05-18T15:14:52.275;539239506453871172;331918;288351;311528;1061;
2024-05-18T15:14:52.293;539239506472023881;331907;288255;311477;1054;
2024-05-18T15:14:52.311;539239506490176590;331828;288214;311459;1006;
2024-05-18T15:14:52.329;539239506508329299;331771;288107;311376;1015;
2024-05-18T15:14:52.348;539239506526482008;331664;288027;311301;1036;
2024-05-18T15:14:52.366;539239506544634717;331617;287909;311223;1025;
2024-05-18T15:14:52.384;539239506562787426;331465;287791;311135;1035;
2024-05-18T15:14:52.402;539239506580940135;331426;287635;311044;1044;
2024-05-18T15:14:52.420;539239506599092844;331262;287605;310947;1044;
2024-05-18T15:14:52.438;539239506617245553;331256;287526;310938;1071;
2024-05-18T15:14:52.456;539239506635398262;331242;287537;310874;1058;
2024-05-18T15:14:52.475;539239506653550971;331207;287454;310839;1049;
2024-05-18T15:14:52.493;539239506671703680;331186;287411;310830;1010;
2024-05-18T15:14:52.511;539239506689856389;331160;287379;310787;948;
2024-05-18T15:14:52.529;539239506708009098;331190;287466;310840;1004;
2024-05-18T15:14:52.547;539239506726161807;331211;287525;310865;1018;
2024-05-18T15:14:52.565;539239506744314516;331238;287447;310802;1011;
2024-05-18T15:14:52.584;539239506762467225;331238;287469;310836;997;
2024-05-18T15:14:52.602;539239506780619934;331328;287479;310836;1038;
2024-05-18T15:14:52.620;539239506798772643;331321;287448;310819;986;
2024-05-18T15:14:52.638;539239506816925352;331356;287408;310815;998;
2024-05-18T15:14:52.656;539239506835078061;331400;287455;310822;1025;
2024-05-18T15:14:52.674;539239506853230770;331408;287476;310836;1042;
2024-05-18T15:14:52.692;539239506871383479;331468;287478;310814;1010;
2024-05-18T15:14:52.711;539239506889536188;331480;287465;310852;1030;
2024-05-18T15:14:52.729;539239506907688897;331468;287518;310932;1011;
2024-05-18T15:14:52.747;539239506925841606;331483;287493;310822;993;
2024-05-18T15:14:52.765;539239506943994315;331493;287506;310858;1014;
2024-05-18T15:14:52.783;539239506962147024;331563;287494;310890;986;
2024-05-18T15:14:52.801;539239506980299733;331582;287486;310876;1013;
2024-05-18T15:14:52.820;539239506998452442;331597;287414;310869;1013;
2024-05-18T15:14:52.838;539239507016605151;331605;287452;310893;989;
2024-05-18T15:14:52.856;539239507034757860;331684;287500;310953;987;
2024-05-18T15:14:52.874;539239507052910569;331636;287499;310950;997;
2024-05-18T15:14:52.892;539239507071063278;331632;287452;310887;992;
2024-05-18T15:14:52.910;539239507089216259;331456;287401;310873;980;
2024-05-18T15:14:52.928;539239507107369200;331300;287211;310680;957;
2024-05-18T15:14:52.947;539239507125522141;331020;287000;310588;1028;
2024-05-18T15:14:52.965;539239507143675082;330727;286718;310335;991;
2024-05-18T15:14:52.983;539239507161828023;330463;286439;310164;1008;
2024-05-18T15:14:53.001;539239507179980964;330250;286207;309879;1000;
2024-05-18T15:14:53.019;539239507198133905;330017;286095;309759;970;
2024-05-18T15:14:53.037;539239507216286846;329869;285918;309648;959;
2024-05-18T15:14:53.055;539239507234439787;329792;285890;309628;1023;
2024-05-18T15:14:53.074;539239507252592728;329733;285792;309571;1004;
2024-05-18T15:14:53.092;539239507270745669;329696;285770;309481;1012;
2024-05-18T15:14:53.110;539239507288898610;329674;285749;309524;1001;
2024-05-18T15:14:53.128;539239507307051551;329698;285720;309496;1010;
2024-05-18T15:14:53.146;539239507325204492;329712;285692;309513;970;
2024-05-18T15:14:53.164;539239507343357433;329693;285713;309482;958;
2024-05-18T15:14:53.183;539239507361510374;329661;285691;309449;1026;
2024-05-18T15:14:53.201;539239507379663315;329638;285640;309428;1001;
2024-05-18T15:14:53.219;539239507397816256;329462;285535;309295;922;
2024-05-18T15:14:53.237;539239507415969197;329379;285407;309194;1003;
2024-05-18T15:14:53.255;539239507434122138;329318;285254;309107;949;
2024-05-18T15:14:53.273;539239507452275079;329275;285219;309094;1008;
2024-05-18T15:14:53.291;539239507470428020;329224;285185;309037;1004;
2024-05-18T15:14:53.310;539239507488580961;329195;285122;309024;1006;
2024-05-18T15:14:53.328;539239507506733902;329140;284951;308939;948;
2024-05-18T15:14:53.346;539239507524886843;329120;284980;308984;982;
2024-05-18T15:14:53.364;539239507543039784;329050;284871;308942;980;
2024-05-18T15:14:53.382;539239507561192725;329129;284988;308969;979;
2024-05-18T15:14:53.400;539239507579345666;329208;285041;308986;976;
2024-05-18T15:14:53.419;539239507597498607;329218;285012;308974;999;
2024-05-18T15:14:53.437;539239507615651548;329333;285048;309016;997;
2024-05-18T15:14:53.455;539239507633804489;329344;285134;309093;964;
2024-05-18T15:14:53.473;539239507651957430;329421;285085;309114;1035;
2024-05-18T15:14:53.491;539239507670110371;329405;285076;309082;991;
2024-05-18T15:14:53.509;539239507688263312;329496;285134;309146;1026;
2024-05-18T15:14:53.527;539239507706416253;329608;285159;309243;976;
2024-05-18T15:14:53.546;539239507724569194;329624;285139;309284;934;
2024-05-18T15:14:53.564;539239507742722135;329676;285206;309316;984;
2024-05-18T15:14:53.582;539239507760875076;329649;285217;309266;913;
2024-05-18T15:14:53.600;539239507779028017;329789;285262;309306;991;
2024-05-18T15:14:53.618;539239507797180958;329807;285254;309284;1006;
2024-05-18T15:14:53.636;539239507815333899;329830;285255;309314;989;
2024-05-18T15:14:53.655;539239507833486840;329942;285253;309392;985;
2024-05-18T15:14:53.673;539239507851641962;329930;285292;309380;978;
2024-05-18T15:14:53.691;539239507869797045;329940;285316;309419;968;
2024-05-18T15:14:53.709;539239507887952128;329999;285399;309531;967;
2024-05-18T15:14:53.727;539239507906107211;330034;285397;309506;979;
2024-05-18T15:14:53.745;539239507924262294;330111;285411;309554;990;
2024-05-18T15:14:53.763;539239507942417377;330076;285320;309513;983;
2024-05-18T15:14:53.782;539239507960572460;329967;285254;309482;979;
2024-05-18T15:14:53.800;539239507978727543;329836;285136;309368;982;
2024-05-18T15:14:53.818;539239507996882626;329582;284895;309223;974;
2024-05-18T15:14:53.836;539239508015037709;329324;284691;308971;949;
2024-05-18T15:14:53.854;539239508033192792;329039;284463;308879;980;
2024-05-18T15:14:53.872;539239508051347875;328778;284215;308656;918;
2024-05-18T15:14:53.891;539239508069502958;328613;284046;308425;907;
2024-05-18T15:14:53.909;539239508087658041;328465;283889;308402;976;
2024-05-18T15:14:53.927;539239508105813124;328371;283746;308239;969;
2024-05-18T15:14:53.945;539239508123968207;328252;283681;308251;963;
2024-05-18T15:14:53.963;539239508142123290;328255;283677;308165;966;
2024-05-18T15:14:53.981;539239508160278373;328311;283689;308174;896;
2024-05-18T15:14:53.999;539239508178433456;328346;283725;308264;923;
2024-05-18T15:14:54.018;539239508196588539;328311;283678;308246;910;
2024-05-18T15:14:54.036;539239508214743622;328303;283683;308154;912;
2024-05-18T15:14:54.054;539239508232898705;328279;283641;308131;936;
2024-05-18T15:14:54.072;539239508251053788;328244;283541;308128;983;
2024-05-18T15:14:54.090;539239508269208871;328180;283405;307990;919;
2024-05-18T15:14:54.108;539239508287363954;328047;283285;308014;969;
2024-05-18T15:14:54.127;539239508305519037;327981;283222;307930;925;
2024-05-18T15:14:54.145;539239508323674120;327944;283159;307832;936;
2024-05-18T15:14:54.163;539239508341829203;327867;283136;307783;947;
2024-05-18T15:14:54.181;539239508359984286;327776;283037;307741;927;
2024-05-18T15:14:54.199;539239508378139369;327777;282968;307711;968;
2024-05-18T15:14:54.217;539239508396294452;327772;283017;307656;923;
2024-05-18T15:14:54.236;539239508414449535;327779;282928;307608;936;
2024-05-18T15:14:54.254;539239508432604618;327758;282990;307674;959;
2024-05-18T15:14:54.272;539239508450759701;327834;282971;307655;948;
2024-05-18T15:14:54.290;539239508468914784;327897;283076;307736;935;
2024-05-18T15:14:54.308;539239508487069867;327902;282965;307737;960;
2024-05-18T15:14:54.326;539239508505224950;327999;283034;307828;895;
2024-05-18T15:14:54.344;539239508523380033;328037;283068;307873;898;
2024-05-18T15:14:54.363;539239508541535116;328140;283152;307909;917;
2024-05-18T15:14:54.381;539239508559690199;328128;283147;307810;880;
2024-05-18T15:14:54.399;539239508577845282;328156;283161;307849;932;
2024-05-18T15:14:54.417;539239508596001886;328114;283169;307877;889;
2024-05-18T15:14:54.435;539239508614158463;328201;283169;307972;953;
2024-05-18T15:14:54.453;539239508632315040;328249;283275;308042;943;
2024-05-18T15:14:54.472;539239508650471617;328360;283345;308084;994;
2024-05-18T15:14:54.490;539239508668628194;328367;283298;308106;986;
2024-05-18T15:14:54.508;539239508686784771;328395;283297;308122;962;
2024-05-18T15:14:54.526;539239508704941348;328511;283402;308175;1052;
2024-05-18T15:14:54.544;539239508723097925;328502;283462;308223;1010;
2024-05-18T15:14:54.562;539239508741254502;328526;283499;308217;933;
2024-05-18T15:14:54.580;539239508759411079;328556;283553;308253;943;
2024-05-18T15:14:54.599;539239508777567656;328672;283606;308309;968;
2024-05-18T15:14:54.617;539239508795724233;328720;283513;308321;930;
2024-05-18T15:14:54.635;539239508813880810;328628;283413;308234;976;
2024-05-18T15:14:54.653;539239508832037387;328498;283329;308134;943;
2024-05-18T15:14:54.671;539239508850193964;328318;283165;308074;891;
2024-05-18T15:14:54.689;539239508868350541;327902;282890;307816;885;
2024-05-18T15:14:54.708;539239508886507118;327687;282669;307658;910;
2024-05-18T15:14:54.726;539239508904663695;327421;282464;307504;982;
2024-05-18T15:14:54.744;539239508922820272;327246;282228;307267;923;
2024-05-18T15:14:54.762;539239508940976849;327036;282113;307150;906;
2024-05-18T15:14:54.780;539239508959133426;326891;281976;306995;927;
2024-05-18T15:14:54.798;539239508977290003;326786;281898;306971;987;
2024-05-18T15:14:54.816;539239508995446580;326765;281847;306900;947;
2024-05-18T15:14:54.835;539239509013603157;326734;281799;306875;898;
2024-05-18T15:14:54.853;539239509031759734;326806;281816;306932;929;
2024-05-18T15:14:54.871;539239509049916311;326817;281839;306935;930;
2024-05-18T15:14:54.889;539239509068072888;326834;281846;306963;913;
2024-05-18T15:14:54.907;539239509086229465;326810;281792;306912;940;
2024-05-18T15:14:54.925;539239509104386042;326772;281804;306922;910;
2024-05-18T15:14:54.944;539239509122542619;326756;281705;306856;977;
2024-05-18T15:14:54.962;539239509140699196;326586;281555;306717;912;
2024-05-18T15:14:54.980;539239509158855773;326458;281447;306699;864;
2024-05-18T15:14:54.998;539239509177012350;326396;281448;306620;932;
2024-05-18T15:14:55.016;539239509195168927;326324;281344;306581;972;
2024-05-18T15:14:55.034;539239509213325504;326306;281214;306546;932;
2024-05-18T15:14:55.053;539239509231482081;326252;281142;306534;944;
2024-05-18T15:14:55.071;539239509249638658;326242;281190;306532;951;
2024-05-18T15:14:55.089;539239509267795235;326164;281186;306472;926;
2024-05-18T15:14:55.107;539239509285951812;326227;281292;306494;928;
2024-05-18T15:14:55.125;539239509304108389;326357;281302;306575;958;
2024-05-18T15:14:55.143;539239509322264966;326388;281230;306565;948;
2024-05-18T15:14:55.161;539239509340421543;326402;281300;306605;918;
2024-05-18T15:14:55.180;539239509358578120;326508;281357;306647;956;
2024-05-18T15:14:55.198;539239509376733495;326569;281384;306639;906;
2024-05-18T15:14:55.216;539239509394888834;326603;281460;306636;881;
2024-05-18T15:14:55.234;539239509413044173;326622;281480;306713;916;
2024-05-18T15:14:55.252;539239509431199512;326732;281539;306870;908;
2024-05-18T15:14:55.270;539239509449354851;326743;281567;306881;863;
2024-05-18T15:14:55.289;539239509467510190;326817;281640;306903;889;
2024-05-18T15:14:55.307;539239509485665529;326940;281684;307011;917;
2024-05-18T15:14:55.325;539239509503820868;327030;281714;307044;965;
2024-05-18T15:14:55.343;539239509521976207;327060;281816;307145;912;
2024-05-18T15:14:55.361;539239509540131546;327173;281848;307213;908;
2024-05-18T15:14:55.379;539239509558286885;327255;281966;307310;955;
2024-05-18T15:14:55.397;539239509576442224;327365;281977;307355;906;
2024-05-18T15:14:55.416;539239509594597563;327373;281996;307404;853;
2024-05-18T15:14:55.434;539239509612752902;327538;282133;307525;888;
2024-05-18T15:14:55.452;539239509630908241;327555;282183;307535;889;
2024-05-18T15:14:55.470;539239509649063580;327596;282148;307596;893;
2024-05-18T15:14:55.488;539239509667218919;327514;282072;307511;892;
2024-05-18T15:14:55.506;539239509685374258;327386;281975;307528;857;
2024-05-18T15:14:55.525;539239509703529597;327089;281796;307319;882;
2024-05-18T15:14:55.543;539239509721684936;326827;281576;307117;888;
2024-05-18T15:14:55.561;539239509739840275;326615;281355;307003;945;
2024-05-18T15:14:55.579;539239509757995614;326312;281123;306715;905;
2024-05-18T15:14:55.597;539239509776150953;326146;280918;306620;872;
2024-05-18T15:14:55.615;539239509794306292;325928;280793;306491;806;
2024-05-18T15:14:55.634;539239509812461631;325914;280714;306428;843;
2024-05-18T15:14:55.652;539239509830616970;325784;280691;306370;872;
2024-05-18T15:14:55.670;539239509848772309;325789;280671;306415;940;
2024-05-18T15:14:55.688;539239509866927648;325809;280757;306365;858;
2024-05-18T15:14:55.706;539239509885082987;325846;280744;306391;900;
2024-05-18T15:14:55.724;539239509903238326;325827;280735;306469;851;
2024-05-18T15:14:55.742;539239509921393665;325877;280751;306443;891;
2024-05-18T15:14:55.761;539239509939549004;325830;280763;306460;856;
2024-05-18T15:14:55.779;539239509957704343;325822;280653;306411;905;
2024-05-18T15:14:55.797;539239509975859682;325777;280595;306358;878;
2024-05-18T15:14:55.815;539239509994015021;325717;280486;306320;865;
2024-05-18T15:14:55.833;539239510012170360;325608;280429;306275;896;
2024-05-18T15:14:55.851;539239510030325699;325567;280371;306211;848;
2024-05-18T15:14:55.870;539239510048481038;325528;280362;306196;909;
2024-05-18T15:14:55.888;539239510066636377;325492;280309;306143;842;
2024-05-18T15:14:55.906;539239510084791716;325512;280320;306155;880;
2024-05-18T15:14:55.924;539239510102947055;325515;280281;306195;791;
2024-05-18T15:14:55.942;539239510121102394;325611;280354;306203;874;
2024-05-18T15:14:55.960;539239510139257660;325626;280344;306173;851;
2024-05-18T15:14:55.978;539239510157412890;325684;280447;306303;829;
2024-05-18T15:14:55.997;539239510175568120;325762;280515;306405;867;
2024-05-18T15:14:56.015;539239510193723350;325874;280577;306452;874;
2024-05-18T15:14:56.033;539239510211878580;325974;280617;306512;876;
2024-05-18T15:14:56.051;539239510230033810;326071;280649;306549;895;
2024-05-18T15:14:56.069;539239510248189040;326135;280704;306607;887;
2024-05-18T15:14:56.087;539239510266344270;326141;280764;306590;849;
2024-05-18T15:14:56.106;539239510284499500;326186;280922;306696;884;
2024-05-18T15:14:56.124;539239510302654730;326272;280897;306766;877;
2024-05-18T15:14:56.142;539239510320809960;326310;280909;306738;854;
2024-05-18T15:14:56.160;539239510338965190;326373;280989;306805;865;
2024-05-18T15:14:56.178;539239510357120420;326405;280997;306896;855;
2024-05-18T15:14:56.196;539239510375275650;326471;281058;306874;847;
2024-05-18T15:14:56.214;539239510393430880;326533;281083;306955;829;
2024-05-18T15:14:56.233;539239510411586110;326540;281138;306984;884;
2024-05-18T15:14:56.251;539239510429741340;326598;281150;307054;898;
2024-05-18T15:14:56.269;539239510447896570;326650;281294;307044;891;
2024-05-18T15:14:56.287;539239510466051800;326702;281283;307156;823;
2024-05-18T15:14:56.305;539239510484207030;326790;281233;307191;921;
2024-05-18T15:14:56.323;539239510502362260;326702;281184;307139;881;
2024-05-18T15:14:56.342;539239510520517490;326596;281070;307101;847;
2024-05-18T15:14:56.360;539239510538672720;326402;280993;306917;882;
2024-05-18T15:14:56.378;539239510556827950;326197;280756;306815;895;
2024-05-18T15:14:56.396;539239510574983180;326026;280598;306693;887;
2024-05-18T15:14:56.414;539239510593138410;325820;280437;306532;860;
2024-05-18T15:14:56.432;539239510611293640;325656;280339;306439;873;
2024-05-18T15:14:56.451;539239510629448870;325505;280274;306396;874;
2024-05-18T15:14:56.469;539239510647604100;325471;280149;306314;883;
2024-05-18T15:14:56.487;539239510665759330;325457;280088;306274;901;
2024-05-18T15:14:56.505;539239510683914560;325462;280147;306337;867;
2024-05-18T15:14:56.523;539239510702069790;325496;280170;306334;849;
2024-05-18T15:14:56.541;539239510720225020;325596;280208;306402;857;
2024-05-18T15:14:56.559;539239510738380250;325644;280261;306371;879;
2024-05-18T15:14:56.578;539239510756535480;325676;280244;306417;911;
2024-05-18T15:14:56.596;539239510774690710;325675;280339;306472;845;
2024-05-18T15:14:56.614;539239510792845940;325638;280298;306432;907;
2024-05-18T15:14:56.632;539239510811001170;325578;280190;306362;871;
2024-05-18T15:14:56.650;539239510829156400;325486;280117;306351;905;
2024-05-18T15:14:56.668;539239510847311630;325400;280030;306269;827;
2024-05-18T15:14:56.687;539239510865466860;325372;280006;306249;888;
2024-05-18T15:14:56.705;539239510883622090;325238;279938;306183;892;
2024-05-18T15:14:56.723;539239510901776682;325249;279921;306195;906;
2024-05-18T15:14:56.741;539239510919931236;325146;279894;306183;882;
2024-05-18T15:14:56.759;539239510938085790;325180;279826;306129;873;
2024-05-18T15:14:56.777;539239510956240344;325249;279881;306173;915;
2024-05-18T15:14:56.795;539239510974394898;325258;279904;306210;904;
2024-05-18T15:14:56.814;539239510992549452;325325;280000;306264;832;
2024-05-18T15:14:56.832;539239511010704006;325447;280124;306374;874;
2024-05-18T15:14:56.850;539239511028858560;325494;280197;306479;894;
2024-05-18T15:14:56.868;539239511047013114;325627;280238;306496;907;
2024-05-18T15:14:56.886;539239511065167668;325704;280282;306540;843;
2024-05-18T15:14:56.904;539239511083322222;325787;280366;306665;807;
2024-05-18T15:14:56.923;539239511101476776;325867;280435;306669;868;
2024-05-18T15:14:56.941;539239511119631330;325936;280525;306754;828;
2024-05-18T15:14:56.959;539239511137785884;325984;280586;306831;885;
2024-05-18T15:14:56.977;539239511155940438;326025;280592;306806;872;
2024-05-18T15:14:56.995;539239511174094992;326140;280635;306894;867;
2024-05-18T15:14:57.013;539239511192249546;326185;280674;306939;913;
2024-05-18T15:14:57.031;539239511210404100;326255;280672;307005;896;
2024-05-18T15:14:57.050;539239511228558654;326310;280767;307129;876;
2024-05-18T15:14:57.068;539239511246713208;326345;280806;307040;839;
2024-05-18T15:14:57.086;539239511264867762;326244;280750;307007;900;
2024-05-18T15:14:57.104;539239511283022316;326040;280654;306974;907;
2024-05-18T15:14:57.122;539239511301176870;325947;280534;306858;894;
2024-05-18T15:14:57.140;539239511319331424;325701;280362;306741;872;
2024-05-18T15:14:57.159;539239511337485978;325487;280196;306599;850;
2024-05-18T15:14:57.177;539239511355640532;325276;280018;306442;865;
2024-05-18T15:14:57.195;539239511373795086;325168;279931;306406;836;
2024-05-18T15:14:57.213;539239511391949640;325023;279791;306312;875;
2024-05-18T15:14:57.231;539239511410104194;325032;279838;306284;913;
2024-05-18T15:14:57.249;539239511428258748;324919;279746;306231;860;
2024-05-18T15:14:57.267;539239511446413302;324995;279784;306297;889;
2024-05-18T15:14:57.286;539239511464567856;325010;279766;306254;864;
2024-05-18T15:14:57.304;539239511482722410;325083;279865;306308;897;
2024-05-18T15:14:57.322;539239511500876964;325169;279891;306370;853;
2024-05-18T15:14:57.340;539239511519031518;325174;279940;306385;856;
2024-05-18T15:14:57.358;539239511537186072;325294;280017;306474;896;
2024-05-18T15:14:57.376;539239511555340626;325235;279986;306439;854;
2024-05-18T15:14:57.395;539239511573495180;325239;280034;306451;868;
2024-05-18T15:14:57.413;539239511591649734;325174;279939;306389;895;
2024-05-18T15:14:57.431;539239511609804288;325186;279930;306450;953;
2024-05-18T15:14:57.449;539239511627958842;325105;279881;306455;878;
2024-05-18T15:14:57.467;539239511646113396;325032;279802;306406;901;
2024-05-18T15:14:57.485;539239511664267950;325080;279876;306454;908;
2024-05-18T15:14:57.503;539239511682422989;325052;279836;306427;862;
2024-05-18T15:14:57.522;539239511700578008;325096;279863;306404;876;
2024-05-18T15:14:57.540;539239511718733027;325237;279918;306462;880;
2024-05-18T15:14:57.558;539239511736888046;325221;280008;306532;896;
2024-05-18T15:14:57.576;539239511755043065;325234;280003;306602;849;
2024-05-18T15:14:57.594;539239511773198084;325315;280075;306572;892;
2024-05-18T15:14:57.612;539239511791353103;325419;280157;306623;909;
2024-05-18T15:14:57.631;539239511809508122;325529;280196;306693;922;
2024-05-18T15:14:57.649;539239511827663141;325578;280209;306758;863;
2024-05-18T15:14:57.667;539239511845818160;325725;280401;306908;896;
2024-05-18T15:14:57.685;539239511863973179;325741;280385;306912;854;
2024-05-18T15:14:57.703;539239511882128198;325830;280437;306916;841;
2024-05-18T15:14:57.721;539239511900283217;325876;280577;306999;810;
2024-05-18T15:14:57.739;539239511918438236;325967;280645;307109;839;
2024-05-18T15:14:57.758;539239511936593255;326024;280730;307166;798;
2024-05-18T15:14:57.776;539239511954748274;326167;280719;307290;833;
2024-05-18T15:14:57.794;539239511972903293;326300;280825;307324;830;
2024-05-18T15:14:57.812;539239511991058312;326366;280866;307371;887;
2024-05-18T15:14:57.830;539239512009213331;326329;280850;307421;883;
2024-05-18T15:14:57.848;539239512027368350;326272;280839;307371;892;
2024-05-18T15:14:57.867;539239512045523369;326135;280799;307420;864;
2024-05-18T15:14:57.885;539239512063678388;325946;280693;307286;833;
2024-05-18T15:14:57.903;539239512081833407;325749;280498;307091;855;
2024-05-18T15:14:57.921;539239512099988426;325507;280297;307048;821;
2024-05-18T15:14:57.939;539239512118143445;325277;280171;306908;846;
2024-05-18T15:14:57.957;539239512136298464;325143;280026;306775;861;
2024-05-18T15:14:57.976;539239512154453483;325028;279970;306684;825;
2024-05-18T15:14:57.994;539239512172608502;324948;279939;306665;827;
2024-05-18T15:14:58.012;539239512190763521;324847;279874;306622;837;
2024-05-18T15:14:58.030;539239512208918540;324887;279897;306626;860;
2024-05-18T15:14:58.048;539239512227073559;324874;279894;306667;850;
2024-05-18T15:14:58.066;539239512245228578;324943;279981;306710;834;
2024-05-18T15:14:58.084;539239512263383597;325007;280014;306722;823;
2024-05-18T15:14:58.103;539239512281538616;325070;280049;306785;811;
2024-05-18T15:14:58.121;539239512299693635;325074;280056;306789;825;
2024-05-18T15:14:58.139;539239512317848654;325028;280038;306825;860;
2024-05-18T15:14:58.157;539239512336003673;325031;280100;306840;863;
2024-05-18T15:14:58.175;539239512354158692;324993;280054;306826;819;
2024-05-18T15:14:58.193;539239512372313711;324968;279984;306750;797;
2024-05-18T15:14:58.212;539239512390468730;324938;280014;306762;864;
2024-05-18T15:14:58.230;539239512408623749;324889;280025;306751;860;
2024-05-18T15:14:58.248;539239512426778768;324894;279983;306778;849;
2024-05-18T15:14:58.266;539239512444933787;324884;280064;306800;851;
2024-05-18T15:14:58.284;539239512463088806;324930;280065;306823;850;
2024-05-18T15:14:58.302;539239512481243202;325040;280129;306855;840;
2024-05-18T15:14:58.320;539239512499397560;325082;280147;306871;864;
2024-05-18T15:14:58.339;539239512517551918;325135;280213;306894;815;
2024-05-18T15:14:58.357;539239512535706276;325209;280285;306973;868;
2024-05-18T15:14:58.375;539239512553860634;325325;280357;307017;863;
2024-05-18T15:14:58.393;539239512572014992;325290;280396;307050;805;
2024-05-18T15:14:58.411;539239512590169350;325392;280433;307099;842;
2024-05-18T15:14:58.429;539239512608323708;325482;280469;307187;845;
2024-05-18T15:14:58.448;539239512626478066;325562;280521;307165;843;
2024-05-18T15:14:58.466;539239512644632424;325597;280552;307263;826;
2024-05-18T15:14:58.484;539239512662786782;325654;280594;307248;808;
2024-05-18T15:14:58.502;539239512680941140;325764;280641;307330;853;
2024-05-18T15:14:58.520;539239512699095498;325797;280684;307349;830;
2024-05-18T15:14:58.538;539239512717249856;325854;280769;307366;829;
2024-05-18T15:14:58.556;539239512735404214;325888;280867;307523;836;
2024-05-18T15:14:58.575;539239512753558572;325981;280969;307558;860;
2024-05-18T15:14:58.593;539239512771712930;326071;280954;307655;887;
2024-05-18T15:14:58.611;539239512789867288;326049;280969;307590;782;
2024-05-18T15:14:58.629;539239512808021646;326019;280958;307593;833;
2024-05-18T15:14:58.647;539239512826176004;325873;280854;307467;822;
2024-05-18T15:14:58.665;539239512844330362;325684;280696;307363;879;
2024-05-18T15:14:58.684;539239512862484720;325446;280547;307270;872;
2024-05-18T15:14:58.702;539239512880639078;325232;280394;307093;862;
2024-05-18T15:14:58.720;539239512898793436;325049;280210;306974;795;
2024-05-18T15:14:58.738;539239512916947794;324908;280106;306840;825;
2024-05-18T15:14:58.756;539239512935102152;324801;279999;306862;822;
2024-05-18T15:14:58.774;539239512953256510;324735;280036;306777;831;
2024-05-18T15:14:58.792;539239512971410868;324690;280004;306687;880;
2024-05-18T15:14:58.811;539239512989565226;324806;279953;306775;865;
2024-05-18T15:14:58.829;539239513007719584;324818;280035;306758;873;
2024-05-18T15:14:58.847;539239513025873942;324734;280037;306734;879;
2024-05-18T15:14:58.865;539239513044028300;324747;279983;306675;849;
2024-05-18T15:14:58.883;539239513062182658;324750;279935;306683;908;
2024-05-18T15:14:58.901;539239513080337016;324723;279876;306641;898;
2024-05-18T15:14:58.920;539239513098491374;324598;279743;306493;884;
2024-05-18T15:14:58.938;539239513116645732;324594;279731;306495;856;
2024-05-18T15:14:58.956;539239513134800090;324375;279686;306415;885;
2024-05-18T15:14:58.974;539239513152954448;324326;279612;306348;939;
2024-05-18T15:14:58.992;539239513171108806;324282;279542;306240;904;
2024-05-18T15:14:59.010;539239513189263164;324277;279504;306197;922;
2024-05-18T15:14:59.028;539239513207417522;324243;279460;306093;871;
2024-05-18T15:14:59.047;539239513225571880;324246;279498;306220;949;
2024-05-18T15:14:59.065;539239513243727584;324243;279442;306187;914;
2024-05-18T15:14:59.083;539239513261883250;324317;279423;306214;911;
2024-05-18T15:14:59.101;539239513280038916;324364;279469;306230;947;
2024-05-18T15:14:59.119;539239513298194582;324457;279597;306275;957;
2024-05-18T15:14:59.137;539239513316350248;324532;279665;306332;881;
2024-05-18T15:14:59.156;539239513334505914;324678;279764;306426;930;
2024-05-18T15:14:59.174;539239513352661580;324807;279853;306529;924;
2024-05-18T15:14:59.192;539239513370817246;324902;279897;306630;934;
2024-05-18T15:14:59.210;539239513388972912;324991;279907;306627;904;
2024-05-18T15:14:59.228;539239513407128578;325148;280081;306713;928;
2024-05-18T15:14:59.246;539239513425284244;325239;280092;306759;918;
2024-05-18T15:14:59.264;539239513443439910;325306;280128;306838;875;
2024-05-18T15:14:59.283;539239513461595576;325344;280214;306876;877;
2024-05-18T15:14:59.301;539239513479751242;325402;280325;306946;964;
2024-05-18T15:14:59.319;539239513497906908;325484;280292;306999;938;
2024-05-18T15:14:59.337;539239513516062574;325543;280385;307023;819;
2024-05-18T15:14:59.355;539239513534218240;325578;280453;307079;884;
2024-05-18T15:14:59.373;539239513552373906;325682;280452;307149;881;
2024-05-18T15:14:59.392;539239513570529572;325714;280544;307128;914;
2024-05-18T15:14:59.410;539239513588685238;325740;280569;307131;946;
2024-05-18T15:14:59.428;539239513606840904;325691;280447;307127;865;
2024-05-18T15:14:59.446;539239513624996570;325601;280411;307117;904;
2024-05-18T15:14:59.464;539239513643152236;325460;280270;307035;959;
2024-05-18T15:14:59.482;539239513661307902;325168;280136;306860;871;
2024-05-18T15:14:59.501;539239513679463568;324923;280018;306770;889;
2024-05-18T15:14:59.519;539239513697619234;324811;279856;306682;928;
2024-05-18T15:14:59.537;539239513715774900;324625;279628;306523;854;
2024-05-18T15:14:59.555;539239513733930566;324503;279607;306489;914;
2024-05-18T15:14:59.573;539239513752086232;324443;279543;306432;906;
2024-05-18T15:14:59.591;539239513770241898;324355;279515;306351;850;
2024-05-18T15:14:59.609;539239513788397564;324310;279507;306307;885;
2024-05-18T15:14:59.628;539239513806553230;324360;279489;306387;906;
2024-05-18T15:14:59.646;539239513824708896;324359;279571;306294;928;
2024-05-18T15:14:59.664;539239513842864562;324434;279634;306402;909;
2024-05-18T15:14:59.682;539239513861020228;324501;279589;306349;873;
2024-05-18T15:14:59.700;539239513879175894;324505;279613;306416;909;
2024-05-18T15:14:59.718;539239513897331560;324434;279548;306445;927;
2024-05-18T15:14:59.737;539239513915487226;324396;279473;306346;905;
2024-05-18T15:14:59.755;539239513933642892;324318;279497;306311;878;
2024-05-18T15:14:59.773;539239513951798558;324306;279471;306267;899;
2024-05-18T15:14:59.791;539239513969954224;324320;279441;306281;914;
2024-05-18T15:14:59.809;539239513988109890;324266;279440;306264;898;
2024-05-18T15:14:59.827;539239514006265869;324318;279507;306319;951;
2024-05-18T15:14:59.845;539239514024421826;324332;279491;306299;952;
2024-05-18T15:14:59.864;539239514042577783;324290;279504;306375;908;
2024-05-18T15:14:59.882;539239514060733740;324427;279544;306447;901;
2024-05-18T15:14:59.900;539239514078889697;324517;279583;306483;945;
2024-05-18T15:14:59.918;539239514097045654;324526;279622;306461;865;
2024-05-18T15:14:59.936;539239514115201611;324603;279685;306479;870;
2024-05-18T15:14:59.954;539239514133357568;324748;279818;306541;906;
2024-05-18T15:14:59.973;539239514151513525;324821;279914;306644;892;
2024-05-18T15:14:59.991;539239514169669482;324808;279874;306644;846;
2024-05-18T15:15:00.009;539239514187825439;324992;279910;306719;828;
2024-05-18T15:15:00.027;539239514205981396;325079;280055;306768;864;
2024-05-18T15:15:00.045;539239514224137353;325165;280087;306848;850;
2024-05-18T15:15:00.063;539239514242293310;325240;280185;306945;885;
2024-05-18T15:15:00.082;539239514260449267;325357;280246;306948;896;
2024-05-18T15:15:00.100;539239514278605224;325366;280336;307006;944;
2024-05-18T15:15:00.118;539239514296761181;325479;280413;307059;910;
2024-05-18T15:15:00.136;539239514314917138;325548;280481;307144;913;
2024-05-18T15:15:00.154;539239514333073095;325641;280497;307223;851;
2024-05-18T15:15:00.172;539239514351229052;325669;280519;307290;893;
2024-05-18T15:15:00.190;539239514369385009;325725;280662;307380;939;
2024-05-18T15:15:00.209;539239514387540966;325760;280689;307430;846;
2024-05-18T15:15:00.227;539239514405696923;325893;280832;307447;887;
2024-05-18T15:15:00.245;539239514423852880;326024;280913;307569;933;
2024-05-18T15:15:00.263;539239514442008837;326109;281012;307592;887;
2024-05-18T15:15:00.281;539239514460164794;326172;281047;307680;854;
2024-05-18T15:15:00.299;539239514478320751;326170;281042;307718;893;
2024-05-18T15:15:00.318;539239514496476708;326075;281030;307626;826;
2024-05-18T15:15:00.336;539239514514632665;325950;280937;307585;892;
2024-05-18T15:15:00.354;539239514532788622;325742;280844;307548;873;
2024-05-18T15:15:00.372;539239514550944579;325583;280699;307424;885;
2024-05-18T15:15:00.390;539239514569100536;325481;280580;307372;895;
2024-05-18T15:15:00.408;539239514587256493;325326;280501;307282;888;
2024-05-18T15:15:00.426;539239514605412450;325345;280414;307241;891;
2024-05-18T15:15:00.445;539239514623568407;325231;280443;307219;879;
2024-05-18T15:15:00.463;539239514641724364;325135;280396;307149;855;
2024-05-18T15:15:00.481;539239514659880321;325253;280397;307185;863;
2024-05-18T15:15:00.499;539239514678036278;325246;280509;307231;864;
2024-05-18T15:15:00.517;539239514696192235;325258;280525;307225;847;
2024-05-18T15:15:00.535;539239514714348192;325292;280631;307231;880;
2024-05-18T15:15:00.554;539239514732504149;325384;280576;307298;878;
2024-05-18T15:15:00.572;539239514750660106;325382;280581;307334;870;
2024-05-18T15:15:00.590;539239514768816096;325362;280615;307308;874;
2024-05-18T15:15:00.608;539239514786972070;325377;280640;307324;923;
2024-05-18T15:15:00.626;539239514805128044;325342;280548;307310;870;
2024-05-18T15:15:00.644;539239514823284018;325297;280570;307304;921;
2024-05-18T15:15:00.662;539239514841439992;325360;280607;307347;928;
2024-05-18T15:15:00.681;539239514859595966;325321;280529;307338;877;
2024-05-18T15:15:00.699;539239514877751940;325373;280592;307426;882;
2024-05-18T15:15:00.717;539239514895907914;325444;280605;307367;868;
2024-05-18T15:15:00.735;539239514914063888;325520;280683;307418;850;
2024-05-18T15:15:00.753;539239514932219862;325627;280780;307464;827;
2024-05-18T15:15:00.771;539239514950375836;325621;280842;307546;863;
2024-05-18T15:15:00.790;539239514968531810;325728;280836;307564;872;
2024-05-18T15:15:00.808;539239514986687784;325810;280946;307643;831;
2024-05-18T15:15:00.826;539239515004843758;325860;281047;307690;834;
2024-05-18T15:15:00.844;539239515022999732;326028;281067;307745;804;
2024-05-18T15:15:00.862;539239515041155706;326089;281138;307803;793;
2024-05-18T15:15:00.880;539239515059311680;326186;281184;307870;836;
2024-05-18T15:15:00.899;539239515077467654;326272;281283;307935;838;
2024-05-18T15:15:00.917;539239515095623628;326341;281387;308020;837;
2024-05-18T15:15:00.935;539239515113779602;326332;281443;307966;907;
2024-05-18T15:15:00.953;539239515131935576;326452;281490;308104;897;
2024-05-18T15:15:00.971;539239515150091550;326603;281505;308124;885;
2024-05-18T15:15:00.989;539239515168247524;326618;281545;308145;837;
2024-05-18T15:15:01.007;539239515186403498;326713;281663;308322;878;
2024-05-18T15:15:01.026;539239515204559472;326802;281763;308325;813;
2024-05-18T15:15:01.044;539239515222715446;326972;281842;308479;842;
2024-05-18T15:15:01.062;539239515240871420;327074;281853;308533;837;
2024-05-18T15:15:01.080;539239515259027394;327224;282018;308632;874;
2024-05-18T15:15:01.098;539239515277183368;327374;282165;308769;923;
2024-05-18T15:15:01.116;539239515295339342;327550;282333;308856;935;
2024-05-18T15:15:01.135;539239515313495316;327628;282404;308878;901;
2024-05-18T15:15:01.153;539239515331651290;327748;282597;309018;895;
2024-05-18T15:15:01.171;539239515349807264;327876;282574;309107;863;
2024-05-18T15:15:01.189;539239515367963238;327925;282671;309149;848;
2024-05-18T15:15:01.207;539239515386119212;327878;282676;309226;916;
2024-05-18T15:15:01.225;539239515404275186;327827;282584;309151;872;
2024-05-18T15:15:01.243;539239515422431160;327665;282478;309110;834;
2024-05-18T15:15:01.262;539239515440587134;327500;282325;308971;868;
2024-05-18T15:15:01.280;539239515458743108;327330;282284;308903;910;
2024-05-18T15:15:01.298;539239515476899082;327178;282182;308827;868;
2024-05-18T15:15:01.316;539239515495055056;327030;282098;308718;874;
2024-05-18T15:15:01.334;539239515513211030;326961;282052;308706;844;
2024-05-18T15:15:01.352;539239515531367004;326934;282019;308721;883;
2024-05-18T15:15:01.371;539239515549522086;326934;281996;308715;848;
2024-05-18T15:15:01.389;539239515567677137;326948;282048;308719;882;
2024-05-18T15:15:01.407;539239515585832188;327015;282069;308757;888;
2024-05-18T15:15:01.425;539239515603987239;327065;282071;308742;870;
2024-05-18T15:15:01.443;539239515622142290;327145;282173;308798;938;
2024-05-18T15:15:01.461;539239515640297341;327126;282209;308806;885;
2024-05-18T15:15:01.480;539239515658452392;327103;282163;308828;848;
2024-05-18T15:15:01.498;539239515676607443;327083;282098;308754;897;
2024-05-18T15:15:01.516;539239515694762494;327097;282162;308820;894;
2024-05-18T15:15:01.534;539239515712917545;327132;282135;308746;861;
2024-05-18T15:15:01.552;539239515731072596;327040;282119;308771;841;
2024-05-18T15:15:01.570;539239515749227647;326973;282056;308698;837;
2024-05-18T15:15:01.588;539239515767382698;326987;282119;308787;842;
2024-05-18T15:15:01.607;539239515785537749;327011;282098;308729;846;
2024-05-18T15:15:01.625;539239515803692800;327033;282122;308766;812;
2024-05-18T15:15:01.643;539239515821847851;327071;282118;308799;813;
2024-05-18T15:15:01.661;539239515840002902;327175;282251;308894;858;
2024-05-18T15:15:01.679;539239515858157953;327250;282285;308891;834;
2024-05-18T15:15:01.697;539239515876313004;327298;282376;308956;824;
2024-05-18T15:15:01.716;539239515894468055;327380;282424;309001;829;
2024-05-18T15:15:01.734;539239515912623106;327588;282497;309083;780;
2024-05-18T15:15:01.752;539239515930778157;327619;282631;309143;795;
2024-05-18T15:15:01.770;539239515948933208;327782;282653;309231;819;
2024-05-18T15:15:01.788;539239515967088259;327814;282752;309318;810;
2024-05-18T15:15:01.806;539239515985243310;327959;282852;309356;831;
2024-05-18T15:15:01.824;539239516003398361;328027;282909;309455;786;
2024-05-18T15:15:01.843;539239516021553412;328058;282925;309497;729;
2024-05-18T15:15:01.861;539239516039708463;328139;283004;309605;805;
2024-05-18T15:15:01.879;539239516057863514;328245;283055;309617;808;
2024-05-18T15:15:01.897;539239516076018565;328303;283136;309673;838;
2024-05-18T15:15:01.915;539239516094173616;328394;283263;309728;883;
2024-05-18T15:15:01.933;539239516112328667;328480;283341;309735;828;
2024-05-18T15:15:01.952;539239516130483718;328507;283288;309847;824;
2024-05-18T15:15:01.970;539239516148638769;328617;283388;309847;821;
2024-05-18T15:15:01.988;539239516166793820;328711;283497;309988;850;
2024-05-18T15:15:02.006;539239516184948871;328789;283499;310074;873;
2024-05-18T15:15:02.024;539239516203103922;328843;283578;310069;848;
2024-05-18T15:15:02.042;539239516221258973;329010;283607;310184;848;
2024-05-18T15:15:02.060;539239516239414024;329110;283793;310277;868;
2024-05-18T15:15:02.079;539239516257569075;329194;283920;310309;887;
2024-05-18T15:15:02.097;539239516275724126;329238;283959;310381;866;
2024-05-18T15:15:02.115;539239516293879177;329228;283893;310309;887;
2024-05-18T15:15:02.133;539239516312034228;329193;283915;310428;873;
2024-05-18T15:15:02.151;539239516330189117;329040;283794;310320;891;
2024-05-18T15:15:02.169;539239516348343984;328842;283712;310258;883;
2024-05-18T15:15:02.188;539239516366498851;328660;283541;310114;843;
2024-05-18T15:15:02.206;539239516384653718;328461;283414;309975;829;
2024-05-18T15:15:02.224;539239516402808585;328323;283297;309894;821;
2024-05-18T15:15:02.242;539239516420963452;328212;283274;309883;909;
2024-05-18T15:15:02.260;539239516439118319;328106;283255;309874;907;
2024-05-18T15:15:02.278;539239516457273186;328063;283166;309830;848;
2024-05-18T15:15:02.296;539239516475428053;328073;283179;309833;864;
2024-05-18T15:15:02.315;539239516493582920;328182;283269;309851;823;
2024-05-18T15:15:02.333;539239516511737787;328184;283267;309917;856;
2024-05-18T15:15:02.351;539239516529892654;328301;283370;309952;870;
2024-05-18T15:15:02.369;539239516548047521;328331;283486;309970;868;
2024-05-18T15:15:02.387;539239516566202388;328333;283456;309926;855;
2024-05-18T15:15:02.405;539239516584357255;328396;283493;310044;854;
2024-05-18T15:15:02.424;539239516602512122;328375;283459;310009;840;
2024-05-18T15:15:02.442;539239516620666989;328234;283383;309998;793;
2024-05-18T15:15:02.460;539239516638821856;328303;283392;309947;793;
2024-05-18T15:15:02.478;539239516656976723;328276;283371;309935;819;
2024-05-18T15:15:02.496;539239516675131590;328316;283467;310037;919;
2024-05-18T15:15:02.514;539239516693286457;328208;283431;310018;821;
2024-05-18T15:15:02.532;539239516711441324;328312;283409;309968;827;
2024-05-18T15:15:02.551;539239516729596191;328284;283448;310000;822;
2024-05-18T15:15:02.569;539239516747751058;328370;283531;310053;860;
2024-05-18T15:15:02.587;539239516765905925;328456;283606;310165;848;
2024-05-18T15:15:02.605;539239516784060792;328514;283651;310179;840;
2024-05-18T15:15:02.623;539239516802215659;328591;283750;310257;827;
2024-05-18T15:15:02.641;539239516820370526;328621;283762;310335;836;
2024-05-18T15:15:02.660;539239516838525393;328735;283841;310357;828;
2024-05-18T15:15:02.678;539239516856680260;328898;283929;310433;854;
2024-05-18T15:15:02.696;539239516874835127;328941;284003;310462;803;
2024-05-18T15:15:02.714;539239516892989994;329054;284068;310501;838;
2024-05-18T15:15:02.732;539239516911144861;329140;284141;310667;839;
2024-05-18T15:15:02.750;539239516929299728;329198;284160;310669;825;
2024-05-18T15:15:02.769;539239516947454595;329244;284261;310720;788;
2024-05-18T15:15:02.787;539239516965609462;329375;284323;310773;833;
2024-05-18T15:15:02.805;539239516983764329;329451;284454;310806;900;
2024-05-18T15:15:02.823;539239517001919196;329499;284504;310866;806;
2024-05-18T15:15:02.841;539239517020074063;329587;284578;310940;831;
2024-05-18T15:15:02.859;539239517038228930;329688;284630;310981;816;
2024-05-18T15:15:02.877;539239517056383797;329796;284680;311045;806;
2024-05-18T15:15:02.896;539239517074538664;329866;284778;311107;784;
2024-05-18T15:15:02.914;539239517092693396;329939;284837;311202;873;
2024-05-18T15:15:02.932;539239517110848118;330006;284878;311261;763;
2024-05-18T15:15:02.950;539239517129002840;330110;285008;311308;733;
2024-05-18T15:15:02.968;539239517147157562;330198;285078;311386;796;
2024-05-18T15:15:02.986;539239517165312284;330283;285099;311478;795;
2024-05-18T15:15:03.005;539239517183467006;330331;285154;311519;850;
2024-05-18T15:15:03.023;539239517201621728;330252;285076;311432;834;
2024-05-18T15:15:03.041;539239517219776450;330145;284972;311415;840;
2024-05-18T15:15:03.059;539239517237931172;329922;284831;311214;860;
2024-05-18T15:15:03.077;539239517256085894;329691;284638;311145;814;
2024-05-18T15:15:03.095;539239517274240616;329398;284417;310921;789;
2024-05-18T15:15:03.113;539239517292395338;329223;284317;310881;797;
2024-05-18T15:15:03.132;539239517310550060;329056;284221;310746;831;
2024-05-18T15:15:03.150;539239517328704782;329011;284128;310728;843;
2024-05-18T15:15:03.168;539239517346859504;328967;284091;310720;867;
2024-05-18T15:15:03.186;539239517365014226;328896;284090;310726;830;
2024-05-18T15:15:03.204;539239517383168948;329011;284153;310728;843;
2024-05-18T15:15:03.222;539239517401323670;329090;284199;310739;836;
2024-05-18T15:15:03.241;539239517419478392;329080;284190;310756;863;
2024-05-18T15:15:03.259;539239517437633114;329200;284267;310804;821;
2024-05-18T15:15:03.277;539239517455787836;329227;284271;310782;806;
2024-05-18T15:15:03.295;539239517473942558;329189;284263;310793;804;
2024-05-18T15:15:03.313;539239517492097280;329241;284247;310739;868;
2024-05-18T15:15:03.331;539239517510252002;329177;284214;310743;785;
2024-05-18T15:15:03.349;539239517528406724;329140;284224;310773;794;
2024-05-18T15:15:03.368;539239517546561446;329095;284101;310668;811;
2024-05-18T15:15:03.386;539239517564716168;329050;284018;310612;810;
2024-05-18T15:15:03.404;539239517582870890;329034;284058;310662;840;
2024-05-18T15:15:03.422;539239517601025612;329002;283967;310663;834;
2024-05-18T15:15:03.440;539239517619180334;329029;283913;310657;821;
2024-05-18T15:15:03.458;539239517637335056;329059;283949;310614;812;
2024-05-18T15:15:03.477;539239517655489778;329027;283940;310585;794;
2024-05-18T15:15:03.495;539239517673644500;329045;283960;310612;844;
2024-05-18T15:15:03.513;539239517691799222;329076;284070;310679;844;
2024-05-18T15:15:03.531;539239517709953944;329114;284109;310584;833;
2024-05-18T15:15:03.549;539239517728108666;329188;284138;310612;864;
2024-05-18T15:15:03.567;539239517746263388;329253;284178;310635;839;
2024-05-18T15:15:03.585;539239517764418110;329334;284120;310684;831;
2024-05-18T15:15:03.604;539239517782572832;329364;284221;310725;787;
2024-05-18T15:15:03.622;539239517800727554;329382;284253;310703;823;
2024-05-18T15:15:03.640;539239517818882276;329491;284204;310769;777;
2024-05-18T15:15:03.658;539239517837036998;329571;284299;310794;859;
2024-05-18T15:15:03.676;539239517855192480;329644;284331;310870;851;
2024-05-18T15:15:03.694;539239517873347928;329681;284330;310908;850;
2024-05-18T15:15:03.713;539239517891503376;329764;284387;310926;873;
2024-05-18T15:15:03.731;539239517909658824;329723;284449;310934;840;
2024-05-18T15:15:03.749;539239517927814272;329853;284461;311003;823;
2024-05-18T15:15:03.767;539239517945969720;329867;284474;311002;853;
2024-05-18T15:15:03.785;539239517964125168;329967;284544;311021;898;
2024-05-18T15:15:03.803;539239517982280616;329960;284569;311037;830;
2024-05-18T15:15:03.821;539239518000436064;330080;284668;311110;836;
2024-05-18T15:15:03.840;539239518018591512;330164;284679;311141;827;
2024-05-18T15:15:03.858;539239518036746960;330146;284725;311229;809;
2024-05-18T15:15:03.876;539239518054902408;330246;284802;311221;770;
2024-05-18T15:15:03.894;539239518073057856;330219;284771;311155;744;
2024-05-18T15:15:03.912;539239518091213304;330179;284693;311136;846;
2024-05-18T15:15:03.930;539239518109368752;329985;284508;311016;840;
2024-05-18T15:15:03.949;539239518127524200;329769;284363;310891;854;
2024-05-18T15:15:03.967;539239518145679648;329486;284138;310697;845;
2024-05-18T15:15:03.985;539239518163835096;329197;283879;310474;832;
2024-05-18T15:15:04.003;539239518181990544;329006;283616;310311;810;
2024-05-18T15:15:04.021;539239518200145992;328779;283463;310185;879;
2024-05-18T15:15:04.039;539239518218301440;328574;283276;310089;853;
2024-05-18T15:15:04.058;539239518236456888;328431;283238;309998;821;
2024-05-18T15:15:04.076;539239518254612336;328381;283113;309917;807;
2024-05-18T15:15:04.094;539239518272767784;328323;283051;309780;851;
2024-05-18T15:15:04.112;539239518290923232;328309;283032;309691;846;
2024-05-18T15:15:04.130;539239518309078680;328341;283034;309690;840;
2024-05-18T15:15:04.148;539239518327234128;328299;283050;309670;805;
2024-05-18T15:15:04.166;539239518345389576;328295;282983;309689;849;
2024-05-18T15:15:04.185;539239518363545024;328258;282920;309618;881;
2024-05-18T15:15:04.203;539239518381700472;328133;282829;309510;904;
2024-05-18T15:15:04.221;539239518399855920;328046;282761;309504;844;
2024-05-18T15:15:04.239;539239518418011368;327953;282654;309353;858;
2024-05-18T15:15:04.257;539239518436166816;327865;282498;309266;904;
2024-05-18T15:15:04.275;539239518454322264;327727;282415;309111;847;
2024-05-18T15:15:04.294;539239518472477712;327629;282303;309037;875;
2024-05-18T15:15:04.312;539239518490633160;327556;282214;308900;890;
2024-05-18T15:15:04.330;539239518508788608;327499;282143;308876;880;
2024-05-18T15:15:04.348;539239518526944056;327442;282101;308866;866;
2024-05-18T15:15:04.366;539239518545099504;327460;282091;308868;865;
2024-05-18T15:15:04.384;539239518563254952;327442;282104;308842;855;
2024-05-18T15:15:04.402;539239518581410400;327456;282092;308818;870;
2024-05-18T15:15:04.421;539239518599565848;327525;282155;308802;879;
2024-05-18T15:15:04.439;539239518617722104;327521;282097;308708;845;
2024-05-18T15:15:04.457;539239518635878347;327528;282131;308691;821;
2024-05-18T15:15:04.475;539239518654034590;327549;282191;308719;820;
2024-05-18T15:15:04.493;539239518672190833;327601;282132;308725;816;
2024-05-18T15:15:04.511;539239518690347076;327614;282181;308769;846;
2024-05-18T15:15:04.530;539239518708503319;327600;282177;308708;850;
2024-05-18T15:15:04.548;539239518726659562;327558;282172;308656;814;
2024-05-18T15:15:04.566;539239518744815805;327592;282173;308677;840;
2024-05-18T15:15:04.584;539239518762972048;327571;282218;308628;848;
2024-05-18T15:15:04.602;539239518781128291;327553;282157;308627;846;
2024-05-18T15:15:04.620;539239518799284534;327587;282262;308671;834;
2024-05-18T15:15:04.638;539239518817440777;327605;282231;308664;833;
2024-05-18T15:15:04.657;539239518835597020;327595;282147;308615;779;
2024-05-18T15:15:04.675;539239518853753263;327636;282086;308567;814;
2024-05-18T15:15:04.693;539239518871909506;327647;282163;308615;839;
2024-05-18T15:15:04.711;539239518890065749;327625;282182;308620;806;
2024-05-18T15:15:04.729;539239518908221992;327679;282209;308652;815;
2024-05-18T15:15:04.747;539239518926378235;327660;282108;308586;838;
2024-05-18T15:15:04.766;539239518944534478;327429;281945;308433;827;
2024-05-18T15:15:04.784;539239518962690721;327252;281796;308258;822;
2024-05-18T15:15:04.802;539239518980846964;326897;281439;307983;776;
2024-05-18T15:15:04.820;539239518999003207;326556;281107;307647;815;
2024-05-18T15:15:04.838;539239519017159450;326181;280797;307399;832;
2024-05-18T15:15:04.856;539239519035315693;325808;280428;307049;831;
2024-05-18T15:15:04.875;539239519053471936;325539;280207;306791;839;
2024-05-18T15:15:04.893;539239519071628179;325290;280016;306597;774;
2024-05-18T15:15:04.911;539239519089784422;325161;279893;306405;837;
2024-05-18T15:15:04.929;539239519107940665;325054;279692;306293;798;
2024-05-18T15:15:04.947;539239519126096908;324993;279717;306260;809;
2024-05-18T15:15:04.965;539239519144253151;324962;279684;306226;798;
2024-05-18T15:15:04.983;539239519162409394;324933;279618;306158;832;
2024-05-18T15:15:05.002;539239519180565637;324866;279565;306110;864;
2024-05-18T15:15:05.020;539239519198721880;324821;279537;305957;833;
2024-05-18T15:15:05.038;539239519216878123;324729;279381;305836;841;
2024-05-18T15:15:05.056;539239519235034366;324551;279223;305738;814;
2024-05-18T15:15:05.074;539239519253190609;324465;279151;305580;865;
2024-05-18T15:15:05.092;539239519271346852;324299;279002;305425;806;
2024-05-18T15:15:05.111;539239519289503095;324113;278839;305280;836;
2024-05-18T15:15:05.129;539239519307659338;323974;278649;305089;823;
2024-05-18T15:15:05.147;539239519325815581;323762;278518;304942;809;
2024-05-18T15:15:05.165;539239519343971824;323656;278354;304801;765;
2024-05-18T15:15:05.183;539239519362128067;323552;278282;304672;782;
2024-05-18T15:15:05.201;539239519380284310;323543;278275;304641;770;
2024-05-18T15:15:05.219;539239519398440553;323501;278261;304557;831;
2024-05-18T15:15:05.238;539239519416596796;323543;278233;304505;760;
2024-05-18T15:15:05.256;539239519434750570;323558;278256;304486;806;
2024-05-18T15:15:05.274;539239519452904308;323533;278228;304508;755;
2024-05-18T15:15:05.292;539239519471058046;323582;278232;304491;788;
2024-05-18T15:15:05.310;539239519489211784;323616;278233;304478;836;
2024-05-18T15:15:05.328;539239519507365522;323635;278191;304422;796;
2024-05-18T15:15:05.347;539239519525519260;323661;278264;304456;815;
2024-05-18T15:15:05.365;539239519543672998;323731;278319;304447;839;
2024-05-18T15:15:05.383;539239519561826736;323704;278333;304405;816;
2024-05-18T15:15:05.401;539239519579980474;323689;278258;304439;799;
2024-05-18T15:15:05.419;539239519598134212;323690;278306;304402;845;
2024-05-18T15:15:05.437;539239519616287950;323693;278258;304433;839;
2024-05-18T15:15:05.455;539239519634441688;323721;278233;304330;821;
2024-05-18T15:15:05.474;539239519652595426;323747;278205;304340;840;
2024-05-18T15:15:05.492;539239519670749164;323778;278268;304297;809;
2024-05-18T15:15:05.510;539239519688902902;323706;278219;304246;880;
2024-05-18T15:15:05.528;539239519707056640;323508;278102;304124;867;
2024-05-18T15:15:05.546;539239519725210378;323285;277884;303902;819;
2024-05-18T15:15:05.564;539239519743364116;322965;277555;303618;845;
2024-05-18T15:15:05.583;539239519761517854;322636;277210;303326;836;
2024-05-18T15:15:05.601;539239519779671592;322278;276891;302984;848;
2024-05-18T15:15:05.619;539239519797825330;321923;276611;302654;857;
2024-05-18T15:15:05.637;539239519815979068;321596;276351;302402;878;
2024-05-18T15:15:05.655;539239519834132806;321377;276025;302235;808;
2024-05-18T15:15:05.673;539239519852286544;321270;275966;302046;883;
2024-05-18T15:15:05.691;539239519870440282;321141;275852;301833;853;
2024-05-18T15:15:05.710;539239519888594020;321117;275736;301777;860;
2024-05-18T15:15:05.728;539239519906747758;321065;275775;301724;866;
2024-05-18T15:15:05.746;539239519924901496;321024;275736;301609;828;
2024-05-18T15:15:05.764;539239519943055234;321020;275639;301608;867;
2024-05-18T15:15:05.782;539239519961208972;321023;275678;301581;807;
2024-05-18T15:15:05.800;539239519979362710;321019;275655;301571;819;
2024-05-18T15:15:05.819;539239519997516448;320913;275570;301427;819;
2024-05-18T15:15:05.837;539239520015670186;320742;275391;301285;799;
2024-05-18T15:15:05.855;539239520033823924;320632;275337;301193;850;
2024-05-18T15:15:05.873;539239520051977662;320463;275144;301089;796;
2024-05-18T15:15:05.891;539239520070131400;320340;274967;300868;821;
2024-05-18T15:15:05.909;539239520088285138;320204;274860;300699;850;
2024-05-18T15:15:05.927;539239520106438876;320102;274833;300642;844;
2024-05-18T15:15:05.946;539239520124592614;319998;274640;300505;876;
2024-05-18T15:15:05.964;539239520142746352;319930;274604;300446;779;
2024-05-18T15:15:05.982;539239520160900090;319894;274612;300376;807;
2024-05-18T15:15:06.000;539239520179053828;319952;274661;300427;868;
2024-05-18T15:15:06.018;539239520197207566;319894;274605;300332;795;
2024-05-18T15:15:06.036;539239520215364254;319897;274635;300353;837;
2024-05-18T15:15:06.055;539239520233520938;319940;274599;300394;847;
2024-05-18T15:15:06.073;539239520251677622;319997;274618;300389;808;
2024-05-18T15:15:06.091;539239520269834306;319994;274605;300349;731;
2024-05-18T15:15:06.109;539239520287990990;320002;274698;300406;751;
2024-05-18T15:15:06.127;539239520306147674;320014;274792;300409;821;
2024-05-18T15:15:06.145;539239520324304358;320119;274796;300410;834;
2024-05-18T15:15:06.164;539239520342461042;320117;274850;300480;834;
2024-05-18T15:15:06.182;539239520360617726;320167;274815;300460;849;
2024-05-18T15:15:06.200;539239520378774410;320239;274852;300515;845;
2024-05-18T15:15:06.218;539239520396931094;320236;274844;300449;842;
2024-05-18T15:15:06.236;539239520415087778;320182;274763;300456;820;
2024-05-18T15:15:06.254;539239520433244462;319969;274600;300238;828;
2024-05-18T15:15:06.272;539239520451401146;319723;274461;300068;867;
2024-05-18T15:15:06.291;539239520469557830;319376;274206;299790;894;
2024-05-18T15:15:06.309;539239520487714514;319041;273796;299477;865;
2024-05-18T15:15:06.327;539239520505871198;318781;273454;299196;846;
2024-05-18T15:15:06.345;539239520524027882;318443;273140;298873;832;
2024-05-18T15:15:06.363;539239520542184566;318141;272894;298650;849;
2024-05-18T15:15:06.381;539239520560341250;318028;272850;298528;888;
2024-05-18T15:15:06.400;539239520578497934;317870;272738;298429;812;
2024-05-18T15:15:06.418;539239520596654618;317779;272637;298305;814;
2024-05-18T15:15:06.436;539239520614811302;317752;272641;298224;848;
2024-05-18T15:15:06.454;539239520632967986;317789;272641;298226;879;
2024-05-18T15:15:06.472;539239520651124670;317796;272701;298216;824;
2024-05-18T15:15:06.490;539239520669281354;317816;272734;298211;799;
2024-05-18T15:15:06.508;539239520687438038;317870;272775;298288;825;
2024-05-18T15:15:06.527;539239520705594722;317877;272714;298202;802;
2024-05-18T15:15:06.545;539239520723751406;317833;272702;298190;842;
2024-05-18T15:15:06.563;539239520741908090;317778;272551;298124;881;
2024-05-18T15:15:06.581;539239520760064774;317642;272461;298021;866;
2024-05-18T15:15:06.599;539239520778221458;317508;272360;297903;856;
2024-05-18T15:15:06.617;539239520796378142;317345;272256;297802;865;
2024-05-18T15:15:06.636;539239520814534826;317284;272207;297744;790;
2024-05-18T15:15:06.654;539239520832691510;317227;272203;297668;926;
2024-05-18T15:15:06.672;539239520850848194;317226;272126;297609;848;
2024-05-18T15:15:06.690;539239520869004878;317255;272170;297628;845;
2024-05-18T15:15:06.708;539239520887161562;317230;272163;297584;850;
2024-05-18T15:15:06.726;539239520905318246;317260;272109;297599;837;
2024-05-18T15:15:06.745;539239520923474930;317287;272176;297614;815;
2024-05-18T15:15:06.763;539239520941631614;317398;272221;297631;796;
2024-05-18T15:15:06.781;539239520959788298;317461;272323;297718;803;
2024-05-18T15:15:06.799;539239520977944982;317552;272371;297723;775;
2024-05-18T15:15:06.817;539239520996101666;317610;272488;297768;802;
2024-05-18T15:15:06.835;539239521014258136;317680;272514;297839;814;
2024-05-18T15:15:06.853;539239521032414602;317690;272596;297900;801;
2024-05-18T15:15:06.872;539239521050571068;317756;272627;297994;855;
2024-05-18T15:15:06.890;539239521068727534;317879;272722;297997;849;
2024-05-18T15:15:06.908;539239521086884000;317908;272793;298044;855;
2024-05-18T15:15:06.926;539239521105040466;317887;272764;298027;826;
2024-05-18T15:15:06.944;539239521123196932;317834;272711;298054;853;
2024-05-18T15:15:06.962;539239521141353398;317575;272568;297817;827;
2024-05-18T15:15:06.981;539239521159509864;317355;272410;297697;839;
2024-05-18T15:15:06.999;539239521177666330;317081;272155;297476;802;
2024-05-18T15:15:07.017;539239521195822796;316862;271911;297238;769;
2024-05-18T15:15:07.035;539239521213979262;316603;271683;297105;798;
2024-05-18T15:15:07.053;539239521232135728;316356;271500;296950;809;
2024-05-18T15:15:07.071;539239521250292194;316180;271370;296810;804;
2024-05-18T15:15:07.090;539239521268448660;316208;271304;296745;839;
2024-05-18T15:15:07.108;539239521286605126;316164;271276;296656;755;
2024-05-18T15:15:07.126;539239521304761592;316112;271401;296694;808;
2024-05-18T15:15:07.144;539239521322918058;316123;271365;296701;730;
2024-05-18T15:15:07.162;539239521341074524;316254;271436;296805;752;
2024-05-18T15:15:07.180;539239521359230990;316355;271485;296840;750;
2024-05-18T15:15:07.198;539239521377387456;316383;271549;296871;746;
2024-05-18T15:15:07.217;539239521395543922;316426;271590;296906;803;
2024-05-18T15:15:07.235;539239521413700388;316412;271568;296900;777;
2024-05-18T15:15:07.253;539239521431856854;316436;271577;296910;827;
2024-05-18T15:15:07.271;539239521450013320;316363;271462;296882;806;
2024-05-18T15:15:07.289;539239521468169786;316299;271426;296823;777;
2024-05-18T15:15:07.307;539239521486326252;316285;271451;296811;742;
2024-05-18T15:15:07.326;539239521504482718;316258;271411;296805;790;
2024-05-18T15:15:07.344;539239521522639184;316326;271469;296812;737;
2024-05-18T15:15:07.362;539239521540795650;316367;271504;296825;743;
2024-05-18T15:15:07.380;539239521558952116;316451;271549;296853;752;
2024-05-18T15:15:07.398;539239521577108582;316540;271676;297016;797;
2024-05-18T15:15:07.416;539239521595265048;316671;271779;297037;747;
2024-05-18T15:15:07.434;539239521613421514;316863;271912;297196;833;
2024-05-18T15:15:07.453;539239521631577980;316940;272061;297354;770;
2024-05-18T15:15:07.471;539239521649734446;317132;272131;297440;765;
2024-05-18T15:15:07.489;539239521667890912;317337;272346;297655;761;
2024-05-18T15:15:07.507;539239521686047378;317445;272416;297757;735;
2024-05-18T15:15:07.525;539239521704203844;317665;272578;297922;785;
2024-05-18T15:15:07.543;539239521722360310;317773;272748;298028;804;
2024-05-18T15:15:07.562;539239521740516776;317916;272842;298138;773;
2024-05-18T15:15:07.580;539239521758673242;318089;272939;298238;779;
2024-05-18T15:15:07.598;539239521776828726;318151;273015;298321;735;
2024-05-18T15:15:07.616;539239521794984174;318183;272994;298419;775;
2024-05-18T15:15:07.634;539239521813139622;318170;273017;298359;827;
2024-05-18T15:15:07.652;539239521831295070;317949;272890;298220;823;
2024-05-18T15:15:07.671;539239521849450518;317768;272703;298126;782;
2024-05-18T15:15:07.689;539239521867605966;317501;272509;297937;735;
2024-05-18T15:15:07.707;539239521885761414;317229;272300;297706;723;
2024-05-18T15:15:07.725;539239521903916862;317053;272153;297573;753;
2024-05-18T15:15:07.743;539239521922072310;316965;272008;297494;777;
2024-05-18T15:15:07.761;539239521940227758;316800;271965;297351;796;
2024-05-18T15:15:07.779;539239521958383206;316796;271925;297397;752;
2024-05-18T15:15:07.798;539239521976538654;316777;271940;297441;761;
2024-05-18T15:15:07.816;539239521994694102;316898;271983;297519;780;
2024-05-18T15:15:07.834;539239522012849550;316962;272033;297565;739;
2024-05-18T15:15:07.852;539239522031004998;317059;272195;297685;812;
2024-05-18T15:15:07.870;539239522049160446;317178;272283;297713;841;
2024-05-18T15:15:07.888;539239522067315894;317217;272391;297782;781;
2024-05-18T15:15:07.907;539239522085471342;317239;272425;297869;770;
2024-05-18T15:15:07.925;539239522103626790;317311;272404;297831;787;
2024-05-18T15:15:07.943;539239522121782238;317302;272415;297885;797;
2024-05-18T15:15:07.961;539239522139937686;317236;272348;297870;752;
2024-05-18T15:15:07.979;539239522158093134;317209;272364;297802;717;
2024-05-18T15:15:07.997;539239522176248582;317262;272357;297797;748;
2024-05-18T15:15:08.015;539239522194404030;317245;272455;297908;748;
2024-05-18T15:15:08.034;539239522212559478;317260;272415;297871;707;
2024-05-18T15:15:08.052;539239522230714926;317322;272465;297959;724;
2024-05-18T15:15:08.070;539239522248870374;317410;272603;298064;723;
2024-05-18T15:15:08.088;539239522267025822;317571;272695;298103;746;
2024-05-18T15:15:08.106;539239522285181270;317692;272800;298213;746;
2024-05-18T15:15:08.124;539239522303336718;317959;272987;298402;741;
2024-05-18T15:15:08.143;539239522321492166;318025;273107;298491;733;
2024-05-18T15:15:08.161;539239522339647614;318274;273259;298658;734;
2024-05-18T15:15:08.179;539239522357803062;318443;273434;298784;699;
2024-05-18T15:15:08.197;539239522375958510;318587;273513;298928;680;
2024-05-18T15:15:08.215;539239522394113958;318784;273636;299059;666;
2024-05-18T15:15:08.233;539239522412269406;318994;273849;299216;754;
2024-05-18T15:15:08.251;539239522430424854;319052;273980;299270;707;
2024-05-18T15:15:08.270;539239522448580302;319211;274025;299460;660;
2024-05-18T15:15:08.288;539239522466735750;319330;274123;299481;701;
2024-05-18T15:15:08.306;539239522484891198;319406;274232;299579;674;
2024-05-18T15:15:08.324;539239522503046646;319372;274269;299536;652;
2024-05-18T15:15:08.342;539239522521202094;319337;274204;299528;684;
2024-05-18T15:15:08.360;539239522539358418;319139;274045;299433;687;
2024-05-18T15:15:08.379;539239522557514711;319019;273938;299330;656;
2024-05-18T15:15:08.397;539239522575671004;318796;273731;299216;679;
2024-05-18T15:15:08.415;539239522593827297;318640;273608;299113;656;
2024-05-18T15:15:08.433;539239522611983590;318491;273497;299005;714;
2024-05-18T15:15:08.451;539239522630139883;318428;273441;298959;674;
2024-05-18T15:15:08.469;539239522648296176;318463;273452;298957;684;
2024-05-18T15:15:08.488;539239522666452469;318388;273418;298981;679;
2024-05-18T15:15:08.506;539239522684608762;318428;273522;299047;743;
2024-05-18T15:15:08.524;539239522702765055;318457;273538;299084;635;
2024-05-18T15:15:08.542;539239522720921348;318569;273638;299175;680;
2024-05-18T15:15:08.560;539239522739077641;318667;273731;299242;655;
2024-05-18T15:15:08.578;539239522757233934;318768;273801;299262;653;
2024-05-18T15:15:08.596;539239522775390227;318758;273778;299300;678;
2024-05-18T15:15:08.615;539239522793546520;318765;273823;299306;679;
2024-05-18T15:15:08.633;539239522811702813;318812;273889;299331;730;
2024-05-18T15:15:08.651;539239522829859106;318741;273854;299283;652;
2024-05-18T15:15:08.669;539239522848015399;318769;273881;299263;672;
2024-05-18T15:15:08.687;539239522866171692;318734;273849;299293;633;
2024-05-18T15:15:08.705;539239522884327985;318705;273854;299227;660;
2024-05-18T15:15:08.724;539239522902484278;318729;273806;299240;654;
2024-05-18T15:15:08.742;539239522920640571;318765;273859;299363;691;
2024-05-18T15:15:08.760;539239522938796864;318780;273863;299345;703;
2024-05-18T15:15:08.778;539239522956953157;318849;273952;299374;716;
2024-05-18T15:15:08.796;539239522975109450;318848;274000;299399;719;
2024-05-18T15:15:08.814;539239522993265743;318966;274109;299503;682;
2024-05-18T15:15:08.832;539239523011422036;318992;274150;299527;753;
2024-05-18T15:15:08.851;539239523029578329;319059;274166;299617;644;
2024-05-18T15:15:08.869;539239523047734622;319190;274241;299717;690;
2024-05-18T15:15:08.887;539239523065890915;319168;274273;299661;650;
2024-05-18T15:15:08.905;539239523084047208;319329;274388;299756;683;
2024-05-18T15:15:08.923;539239523102203501;319345;274496;299844;658;
2024-05-18T15:15:08.941;539239523120359794;319441;274518;299898;685;
2024-05-18T15:15:08.960;539239523138516087;319509;274634;299932;666;
2024-05-18T15:15:08.978;539239523156672380;319549;274659;300028;662;
2024-05-18T15:15:08.996;539239523174828673;319606;274775;299990;720;
2024-05-18T15:15:09.014;539239523192984966;319675;274872;300068;684;
2024-05-18T15:15:09.032;539239523211141259;319734;274891;300120;662;
2024-05-18T15:15:09.050;539239523229297552;319785;274945;300159;648;
2024-05-18T15:15:09.069;539239523247453845;319749;274919;300219;694;
2024-05-18T15:15:09.087;539239523265610138;319660;274871;300164;683;
2024-05-18T15:15:09.105;539239523283766431;319509;274733;300110;711;
2024-05-18T15:15:09.123;539239523301922724;319262;274566;299847;711;
2024-05-18T15:15:09.141;539239523320079839;319058;274385;299721;703;
2024-05-18T15:15:09.159;539239523338236922;318802;274252;299554;765;
2024-05-18T15:15:09.177;539239523356394005;318627;274029;299431;753;
2024-05-18T15:15:09.196;539239523374551088;318514;273981;299312;722;
2024-05-18T15:15:09.214;539239523392708171;318516;273974;299252;702;
2024-05-18T15:15:09.232;539239523410865254;318460;273984;299328;763;
2024-05-18T15:15:09.250;539239523429022337;318485;273950;299290;711;
2024-05-18T15:15:09.268;539239523447179420;318600;274067;299418;746;
2024-05-18T15:15:09.286;539239523465336503;318772;274214;299576;703;
2024-05-18T15:15:09.305;539239523483493586;318910;274317;299682;711;
2024-05-18T15:15:09.323;539239523501650669;319057;274412;299736;730;
2024-05-18T15:15:09.341;539239523519807752;319097;274494;299799;758;
2024-05-18T15:15:09.359;539239523537964835;319169;274492;299901;740;
2024-05-18T15:15:09.377;539239523556121918;319219;274577;299925;768;
2024-05-18T15:15:09.395;539239523574279001;319216;274538;299933;700;
2024-05-18T15:15:09.413;539239523592436084;319231;274557;299891;707;
2024-05-18T15:15:09.432;539239523610593167;319265;274571;299905;775;
2024-05-18T15:15:09.450;539239523628750250;319318;274547;299916;737;
2024-05-18T15:15:09.468;539239523646907333;319279;274656;299899;728;
2024-05-18T15:15:09.486;539239523665064416;319290;274629;299937;754;
2024-05-18T15:15:09.504;539239523683221499;319291;274653;299961;734;
2024-05-18T15:15:09.522;539239523701378582;319330;274717;300013;672;
2024-05-18T15:15:09.541;539239523719535665;319485;274769;300048;784;
2024-05-18T15:15:09.559;539239523737692748;319465;274917;300103;763;
2024-05-18T15:15:09.577;539239523755849831;319678;274996;300180;757;
2024-05-18T15:15:09.595;539239523774006914;319748;275132;300292;744;
2024-05-18T15:15:09.613;539239523792163997;319980;275286;300523;748;
2024-05-18T15:15:09.631;539239523810321080;320160;275380;300605;753;
2024-05-18T15:15:09.650;539239523828478163;320200;275539;300738;780;
2024-05-18T15:15:09.668;539239523846635246;320283;275620;300809;719;
2024-05-18T15:15:09.686;539239523864792329;320420;275764;300866;708;
2024-05-18T15:15:09.704;539239523882949412;320608;275812;300960;737;
2024-05-18T15:15:09.722;539239523901106495;320700;275935;301094;782;
2024-05-18T15:15:09.740;539239523919263578;320753;276021;301113;708;
2024-05-18T15:15:09.758;539239523937420661;320890;276089;301242;682;
2024-05-18T15:15:09.777;539239523955577744;321019;276242;301273;692;
2024-05-18T15:15:09.795;539239523973734827;321130;276367;301434;688;
2024-05-18T15:15:09.813;539239523991891910;321258;276464;301546;691;
2024-05-18T15:15:09.831;539239524010048993;321494;276540;301617;731;
2024-05-18T15:15:09.849;539239524028206076;321512;276605;301669;704;
2024-05-18T15:15:09.867;539239524046363159;321564;276670;301734;713;
2024-05-18T15:15:09.886;539239524064520242;321549;276656;301777;716;
2024-05-18T15:15:09.904;539239524082675840;321470;276615;301810;717;
2024-05-18T15:15:09.922;539239524100831434;321427;276591;301844;674;
2024-05-18T15:15:09.940;539239524118987028;321498;276631;301874;660;
2024-05-18T15:15:09.958;539239524137142622;321425;276670;301876;717;
2024-05-18T15:15:09.976;539239524155298216;321500;276647;301939;702;
2024-05-18T15:15:09.995;539239524173453810;321601;276689;301964;697;
2024-05-18T15:15:10.013;539239524191609404;321564;276750;301922;638;
2024-05-18T15:15:10.031;539239524209764998;321571;276799;301983;645;
2024-05-18T15:15:10.049;539239524227920592;321673;276882;302065;639;
2024-05-18T15:15:10.067;539239524246076186;321719;276881;302135;645;
2024-05-18T15:15:10.085;539239524264231780;321784;276945;302125;673;
2024-05-18T15:15:10.103;539239524282387374;321782;276966;302117;668;
2024-05-18T15:15:10.122;539239524300542968;321801;276945;302138;680;
2024-05-18T15:15:10.140;539239524318698562;321768;276921;302079;670;
2024-05-18T15:15:10.158;539239524336854156;321684;276852;302032;675;
2024-05-18T15:15:10.176;539239524355009750;321590;276738;302031;652;
2024-05-18T15:15:10.194;539239524373165344;321516;276710;301848;617;
2024-05-18T15:15:10.212;539239524391320938;321563;276724;301844;622;
2024-05-18T15:15:10.231;539239524409476532;321515;276683;301864;617;
2024-05-18T15:15:10.249;539239524427632126;321552;276656;301882;619;
2024-05-18T15:15:10.267;539239524445787720;321600;276727;301931;683;
2024-05-18T15:15:10.285;539239524463943314;321633;276751;301905;621;
2024-05-18T15:15:10.303;539239524482098908;321737;276796;301941;668;
2024-05-18T15:15:10.321;539239524500254502;321862;276920;301997;666;
2024-05-18T15:15:10.339;539239524518410096;321980;276952;302100;678;
2024-05-18T15:15:10.358;539239524536565690;322102;277096;302207;699;
2024-05-18T15:15:10.376;539239524554721284;322264;277207;302296;667;
2024-05-18T15:15:10.394;539239524572876878;322417;277357;302371;654;
2024-05-18T15:15:10.412;539239524591032472;322545;277475;302539;712;
2024-05-18T15:15:10.430;539239524609188066;322747;277631;302626;683;
2024-05-18T15:15:10.448;539239524627343660;322927;277659;302735;717;
2024-05-18T15:15:10.467;539239524645499254;323051;277790;302842;684;
2024-05-18T15:15:10.485;539239524663654848;323176;277893;302944;695;
2024-05-18T15:15:10.503;539239524681810442;323278;277990;303013;690;
2024-05-18T15:15:10.521;539239524699966036;323336;278046;303079;666;
2024-05-18T15:15:10.539;539239524718121630;323461;278119;303161;651;
2024-05-18T15:15:10.557;539239524736277224;323610;278230;303223;660;
2024-05-18T15:15:10.575;539239524754432818;323666;278364;303359;658;
2024-05-18T15:15:10.594;539239524772588412;323744;278446;303401;674;
2024-05-18T15:15:10.612;539239524790744006;323911;278513;303551;640;
2024-05-18T15:15:10.630;539239524808899600;324013;278602;303638;672;
2024-05-18T15:15:10.648;539239524827055194;324222;278741;303771;634;
2024-05-18T15:15:10.666;539239524845208770;324283;278880;303821;639;
2024-05-18T15:15:10.684;539239524863362331;324354;278927;303845;676;
2024-05-18T15:15:10.703;539239524881515892;324420;278949;303898;618;
2024-05-18T15:15:10.721;539239524899669453;324370;278903;303913;709;
2024-05-18T15:15:10.739;539239524917823014;324298;278755;303875;717;
2024-05-18T15:15:10.757;539239524935976575;324190;278722;303742;713;
2024-05-18T15:15:10.775;539239524954130136;324057;278608;303615;697;
2024-05-18T15:15:10.793;539239524972283697;324009;278530;303606;711;
2024-05-18T15:15:10.811;539239524990437258;323975;278525;303600;761;
2024-05-18T15:15:10.830;539239525008590819;323979;278502;303624;672;
2024-05-18T15:15:10.848;539239525026744380;323995;278507;303642;651;
2024-05-18T15:15:10.866;539239525044897941;324024;278555;303622;601;
2024-05-18T15:15:10.884;539239525063051502;324098;278681;303776;631;
2024-05-18T15:15:10.902;539239525081205063;324185;278712;303780;637;
2024-05-18T15:15:10.920;539239525099358624;324238;278777;303854;674;
2024-05-18T15:15:10.939;539239525117512185;324358;278892;303867;696;
2024-05-18T15:15:10.957;539239525135665746;324439;278908;303913;660;
2024-05-18T15:15:10.975;539239525153819307;324472;278918;303913;706;
2024-05-18T15:15:10.993;539239525171972868;324500;278920;303935;641;
2024-05-18T15:15:11.011;539239525190126429;324522;278937;304021;683;
2024-05-18T15:15:11.029;539239525208279990;324522;278924;304039;660;
2024-05-18T15:15:11.047;539239525226433551;324517;278990;304117;695;
2024-05-18T15:15:11.066;539239525244587112;324494;278899;304015;642;
2024-05-18T15:15:11.084;539239525262740673;324560;279013;304095;672;
2024-05-18T15:15:11.102;539239525280894234;324554;278989;304114;691;
2024-05-18T15:15:11.120;539239525299047795;324594;279079;304113;690;
2024-05-18T15:15:11.138;539239525317201356;324702;279075;304118;670;
2024-05-18T15:15:11.156;539239525335354917;324705;279154;304147;740;
2024-05-18T15:15:11.175;539239525353508478;324825;279216;304207;727;
2024-05-18T15:15:11.193;539239525371662039;324821;279225;304261;702;
2024-05-18T15:15:11.211;539239525389815600;324913;279313;304377;719;
2024-05-18T15:15:11.229;539239525407969161;324925;279309;304322;669;
2024-05-18T15:15:11.247;539239525426122722;325047;279377;304421;736;
2024-05-18T15:15:11.265;539239525444276283;325174;279439;304495;726;
2024-05-18T15:15:11.283;539239525462429844;325180;279522;304529;727;
2024-05-18T15:15:11.302;539239525480583405;325212;279558;304599;683;
2024-05-18T15:15:11.320;539239525498736966;325337;279644;304608;723;
2024-05-18T15:15:11.338;539239525516890527;325394;279668;304630;672;
2024-05-18T15:15:11.356;539239525535044088;325453;279764;304707;724;
2024-05-18T15:15:11.374;539239525553197649;325556;279828;304816;751;
2024-05-18T15:15:11.392;539239525571351210;325581;279895;304779;688;
2024-05-18T15:15:11.411;539239525589504771;325643;279886;304862;721;
2024-05-18T15:15:11.429;539239525607658332;325695;280018;304911;710;
2024-05-18T15:15:11.447;539239525625812784;325724;280008;304923;705;
2024-05-18T15:15:11.465;539239525643967235;325808;280059;304997;726;
2024-05-18T15:15:11.483;539239525662121686;325920;280102;305050;722;
2024-05-18T15:15:11.501;539239525680276137;325999;280181;305081;738;
2024-05-18T15:15:11.519;539239525698430588;326098;280291;305137;725;
2024-05-18T15:15:11.538;539239525716585039;326202;280367;305222;763;
2024-05-18T15:15:11.556;539239525734739490;326117;280329;305154;655;
2024-05-18T15:15:11.574;539239525752893941;325996;280173;305129;737;
2024-05-18T15:15:11.592;539239525771048392;325863;280040;304995;742;
2024-05-18T15:15:11.610;539239525789202843;325715;279867;304901;724;
2024-05-18T15:15:11.628;539239525807357294;325490;279730;304783;713;
2024-05-18T15:15:11.647;539239525825511745;325357;279540;304599;761;
2024-05-18T15:15:11.665;539239525843666196;325254;279402;304541;767;
2024-05-18T15:15:11.683;539239525861820647;325103;279370;304390;711;
2024-05-18T15:15:11.701;539239525879975098;325023;279239;304399;704;
2024-05-18T15:15:11.719;539239525898129549;325000;279268;304397;695;
2024-05-18T15:15:11.737;539239525916284000;324952;279234;304331;668;
2024-05-18T15:15:11.755;539239525934438451;325006;279258;304362;705;
2024-05-18T15:15:11.774;539239525952592902;325169;279357;304397;707;
2024-05-18T15:15:11.792;539239525970747353;325197;279348;304379;703;
2024-05-18T15:15:11.810;539239525988901804;325183;279388;304365;686;
2024-05-18T15:15:11.828;539239526007056255;325251;279342;304352;682;
2024-05-18T15:15:11.846;539239526025210706;325177;279388;304368;676;
2024-05-18T15:15:11.864;539239526043365157;325160;279265;304345;726;
2024-05-18T15:15:11.883;539239526061519608;325091;279257;304261;722;
2024-05-18T15:15:11.901;539239526079674059;325063;279254;304347;755;
2024-05-18T15:15:11.919;539239526097828510;325010;279187;304218;728;
2024-05-18T15:15:11.937;539239526115982961;324927;279172;304211;756;
2024-05-18T15:15:11.955;539239526134137412;324976;279177;304199;770;
2024-05-18T15:15:11.973;539239526152291863;324965;279102;304145;741;
2024-05-18T15:15:11.991;539239526170446314;325003;279126;304212;746;
2024-05-18T15:15:12.010;539239526188600765;325008;279171;304227;746;
2024-05-18T15:15:12.028;539239526206755216;325103;279227;304283;792;
2024-05-18T15:15:12.046;539239526224909667;325148;279262;304251;733;
2024-05-18T15:15:12.064;539239526243064118;325235;279338;304314;788;
2024-05-18T15:15:12.082;539239526261218569;325273;279395;304384;767;
2024-05-18T15:15:12.100;539239526279373020;325321;279390;304404;778;
2024-05-18T15:15:12.119;539239526297527471;325511;279486;304475;796;
2024-05-18T15:15:12.137;539239526315681922;325493;279493;304444;750;
2024-05-18T15:15:12.155;539239526333836373;325575;279552;304474;741;
2024-05-18T15:15:12.173;539239526351990824;325589;279593;304522;774;
2024-05-18T15:15:12.191;539239526370145232;325577;279607;304510;705;
2024-05-18T15:15:12.209;539239526388299608;325624;279715;304588;722;
2024-05-18T15:15:12.228;539239526406453984;325629;279744;304668;726;
2024-05-18T15:15:12.246;539239526424608360;325641;279679;304611;734;
2024-05-18T15:15:12.264;539239526442762736;325694;279766;304637;754;
2024-05-18T15:15:12.282;539239526460917112;325686;279826;304619;771;
2024-05-18T15:15:12.300;539239526479071488;325719;279843;304689;720;
2024-05-18T15:15:12.318;539239526497225864;325818;279884;304765;710;
2024-05-18T15:15:12.336;539239526515380240;325864;279935;304758;771;
2024-05-18T15:15:12.355;539239526533534616;325942;279940;304804;795;
2024-05-18T15:15:12.373;539239526551688992;325950;280025;304868;736;
2024-05-18T15:15:12.391;539239526569843368;325979;280034;304911;768;
2024-05-18T15:15:12.409;539239526587997744;325959;279996;304886;773;
2024-05-18T15:15:12.427;539239526606152120;325845;279866;304770;747;
2024-05-18T15:15:12.445;539239526624306496;325679;279801;304675;713;
2024-05-18T15:15:12.464;539239526642460872;325519;279590;304503;668;
2024-05-18T15:15:12.482;539239526660615248;325290;279330;304292;717;
2024-05-18T15:15:12.500;539239526678769624;325043;279184;304101;707;
2024-05-18T15:15:12.518;539239526696924000;324767;279014;303985;667;
2024-05-18T15:15:12.536;539239526715078376;324643;278906;303891;731;
2024-05-18T15:15:12.554;539239526733232752;324522;278840;303761;686;
2024-05-18T15:15:12.572;539239526751387128;324474;278712;303664;675;
2024-05-18T15:15:12.591;539239526769541504;324435;278659;303661;675;
2024-05-18T15:15:12.609;539239526787695880;324482;278739;303720;706;
2024-05-18T15:15:12.627;539239526805850256;324505;278759;303718;733;
2024-05-18T15:15:12.645;539239526824004632;324528;278813;303723;737;
2024-05-18T15:15:12.663;539239526842159008;324534;278767;303749;739;
2024-05-18T15:15:12.681;539239526860313384;324556;278839;303768;790;
2024-05-18T15:15:12.700;539239526878467760;324532;278737;303704;751;
2024-05-18T15:15:12.718;539239526896622136;324479;278712;303652;739;
2024-05-18T15:15:12.736;539239526914776512;324429;278717;303603;733;
2024-05-18T15:15:12.754;539239526932930888;324368;278647;303500;750;
2024-05-18T15:15:12.772;539239526951085264;324328;278542;303453;719;
2024-05-18T15:15:12.790;539239526969239640;324201;278482;303322;713;
2024-05-18T15:15:12.808;539239526987394016;324193;278495;303373;742;
2024-05-18T15:15:12.827;539239527005548392;324247;278492;303395;742;
2024-05-18T15:15:12.845;539239527023702768;324204;278447;303345;722;
2024-05-18T15:15:12.863;539239527041857144;324197;278461;303316;685;
2024-05-18T15:15:12.881;539239527060011520;324241;278500;303340;709;
2024-05-18T15:15:12.899;539239527078165896;324252;278569;303361;686;
2024-05-18T15:15:12.917;539239527096320272;324343;278579;303434;703;
2024-05-18T15:15:12.936;539239527114475608;324428;278631;303423;707;
2024-05-18T15:15:12.954;539239527132630904;324432;278642;303426;709;
2024-05-18T15:15:12.972;539239527150786200;324516;278635;303511;665;
2024-05-18T15:15:12.990;539239527168941496;324553;278762;303535;694;
2024-05-18T15:15:13.008;539239527187096792;324559;278847;303616;665;
2024-05-18T15:15:13.026;539239527205252088;324600;278871;303618;705;
2024-05-18T15:15:13.044;539239527223407384;324646;278900;303650;714;
2024-05-18T15:15:13.063;539239527241562680;324696;278855;303618;714;
2024-05-18T15:15:13.081;539239527259717976;324666;278914;303664;699;
2024-05-18T15:15:13.099;539239527277873272;324716;278983;303647;688;
2024-05-18T15:15:13.117;539239527296028568;324775;279027;303720;696;
2024-05-18T15:15:13.135;539239527314183864;324811;279028;303740;620;
2024-05-18T15:15:13.153;539239527332339160;324921;279131;303808;740;
2024-05-18T15:15:13.172;539239527350494456;325025;279206;303842;705;
2024-05-18T15:15:13.190;539239527368649752;325020;279293;303921;687;
2024-05-18T15:15:13.208;539239527386805048;325066;279352;303943;714;
2024-05-18T15:15:13.226;539239527404960344;325035;279308;303981;774;
2024-05-18T15:15:13.244;539239527423115640;324944;279208;303808;729;
2024-05-18T15:15:13.262;539239527441270936;324791;279034;303712;709;
2024-05-18T15:15:13.280;539239527459426232;324504;278886;303526;710;
2024-05-18T15:15:13.299;539239527477581528;324298;278660;303310;762;
2024-05-18T15:15:13.317;539239527495736824;324088;278497;303162;764;
2024-05-18T15:15:13.335;539239527513892120;323915;278334;303073;737;
2024-05-18T15:15:13.353;539239527532047416;323790;278212;302949;696;
2024-05-18T15:15:13.371;539239527550202712;323696;278132;302842;676;
2024-05-18T15:15:13.389;539239527568358008;323635;278069;302826;719;
2024-05-18T15:15:13.408;539239527586513304;323675;278063;302781;687;
2024-05-18T15:15:13.426;539239527604668600;323701;278106;302836;724;
2024-05-18T15:15:13.444;539239527622823896;323737;278129;302799;744;
2024-05-18T15:15:13.462;539239527640979192;323744;278232;302855;778;
2024-05-18T15:15:13.480;539239527659134488;323771;278267;302846;790;
2024-05-18T15:15:13.498;539239527677289784;323717;278229;302862;720;
2024-05-18T15:15:13.516;539239527695445080;323756;278262;302887;770;
2024-05-18T15:15:13.535;539239527713600376;323711;278179;302774;726;
2024-05-18T15:15:13.553;539239527731755672;323685;278108;302754;770;
2024-05-18T15:15:13.571;539239527749910968;323591;278046;302699;705;
2024-05-18T15:15:13.589;539239527768066264;323501;277968;302678;778;
2024-05-18T15:15:13.607;539239527786221560;323514;278004;302610;746;
2024-05-18T15:15:13.625;539239527804376856;323456;277934;302559;730;
2024-05-18T15:15:13.644;539239527822532152;323471;277944;302507;756;
2024-05-18T15:15:13.662;539239527840687448;323419;277905;302548;741;
2024-05-18T15:15:13.680;539239527858842744;323535;277971;302586;825;
2024-05-18T15:15:13.698;539239527876998040;323534;278010;302647;780;
2024-05-18T15:15:13.716;539239527895153336;323592;278113;302665;823;
2024-05-18T15:15:13.734;539239527913308836;323704;278174;302681;787;
2024-05-18T15:15:13.753;539239527931464313;323781;278210;302724;760;
2024-05-18T15:15:13.771;539239527949619790;323891;278280;302778;789;
2024-05-18T15:15:13.789;539239527967775267;323926;278358;302843;788;
2024-05-18T15:15:13.807;539239527985930744;324030;278401;302918;790;
2024-05-18T15:15:13.825;539239528004086221;324119;278472;302940;750;
2024-05-18T15:15:13.843;539239528022241698;324214;278531;303035;734;
2024-05-18T15:15:13.861;539239528040397175;324219;278605;303018;764;
2024-05-18T15:15:13.880;539239528058552652;324229;278622;303065;713;
2024-05-18T15:15:13.898;539239528076708129;324257;278727;303088;688;
2024-05-18T15:15:13.916;539239528094863606;324377;278784;303156;776;
2024-05-18T15:15:13.934;539239528113019083;324440;278838;303257;743;
2024-05-18T15:15:13.952;539239528131174560;324506;278901;303223;751;
2024-05-18T15:15:13.970;539239528149330037;324553;278934;303328;747;
2024-05-18T15:15:13.989;539239528167485514;324502;278906;303311;739;
2024-05-18T15:15:14.007;539239528185640991;324410;278775;303163;724;
2024-05-18T15:15:14.025;539239528203796468;324245;278753;303019;746;
2024-05-18T15:15:14.043;539239528221951945;324090;278566;302884;735;
2024-05-18T15:15:14.061;539239528240107422;323800;278310;302739;720;
2024-05-18T15:15:14.079;539239528258262899;323590;278120;302603;723;
2024-05-18T15:15:14.097;539239528276418376;323410;277926;302416;748;
2024-05-18T15:15:14.116;539239528294573853;323261;277865;302347;801;
2024-05-18T15:15:14.134;539239528312729330;323125;277768;302188;724;
2024-05-18T15:15:14.152;539239528330884807;323072;277642;302027;734;
2024-05-18T15:15:14.170;539239528349040284;322948;277717;302108;773;
2024-05-18T15:15:14.188;539239528367195761;322970;277601;302053;748;
2024-05-18T15:15:14.206;539239528385351238;323006;277686;302034;731;
2024-05-18T15:15:14.225;539239528403506715;323088;277749;302044;713;
2024-05-18T15:15:14.243;539239528421662192;323139;277681;302106;730;
2024-05-18T15:15:14.261;539239528439817669;323189;277786;302127;750;
2024-05-18T15:15:14.279;539239528457973146;323140;277741;302127;700;
2024-05-18T15:15:14.297;539239528476128623;323114;277785;302106;689;
2024-05-18T15:15:14.315;539239528494284100;323007;277701;302010;718;
2024-05-18T15:15:14.333;539239528512439577;322931;277638;302001;720;
2024-05-18T15:15:14.352;539239528530595054;322890;277627;301925;744;
2024-05-18T15:15:14.370;539239528548750531;322842;277551;301835;739;
2024-05-18T15:15:14.388;539239528566906008;322835;277524;301792;725;
2024-05-18T15:15:14.406;539239528585061485;322814;277450;301786;712;
2024-05-18T15:15:14.424;539239528603216962;322874;277587;301803;739;
2024-05-18T15:15:14.442;539239528621372439;322881;277548;301794;757;
2024-05-18T15:15:14.461;539239528639527916;322962;277638;301897;777;
2024-05-18T15:15:14.479;539239528657683393;322961;277672;301946;717;
2024-05-18T15:15:14.497;539239528675838870;323056;277755;301938;696;
2024-05-18T15:15:14.515;539239528693993920;323172;277818;302020;709;
2024-05-18T15:15:14.533;539239528712148932;323257;277956;302092;746;
2024-05-18T15:15:14.551;539239528730303944;323352;278056;302148;741;
2024-05-18T15:15:14.570;539239528748458956;323372;278075;302281;747;
2024-05-18T15:15:14.588;539239528766613968;323390;278098;302272;705;
2024-05-18T15:15:14.606;539239528784768980;323413;278214;302311;728;
2024-05-18T15:15:14.624;539239528802923992;323524;278303;302377;764;
2024-05-18T15:15:14.642;539239528821079004;323577;278338;302415;772;
2024-05-18T15:15:14.660;539239528839234016;323670;278289;302416;745;
2024-05-18T15:15:14.678;539239528857389028;323702;278341;302412;705;
2024-05-18T15:15:14.697;539239528875544040;323745;278376;302479;723;
2024-05-18T15:15:14.715;539239528893699052;323821;278506;302505;744;
2024-05-18T15:15:14.733;539239528911854064;323925;278498;302578;727;
2024-05-18T15:15:14.751;539239528930009076;323884;278483;302515;737;
2024-05-18T15:15:14.769;539239528948164088;323753;278363;302453;707;
2024-05-18T15:15:14.787;539239528966319100;323583;278317;302432;776;
2024-05-18T15:15:14.806;539239528984474112;323346;278091;302253;678;
2024-05-18T15:15:14.824;539239529002629124;323147;277941;302048;713;
2024-05-18T15:15:14.842;539239529020784136;322942;277715;301917;701;
2024-05-18T15:15:14.860;539239529038939148;322744;277564;301697;718;
2024-05-18T15:15:14.878;539239529057094160;322594;277419;301606;738;
2024-05-18T15:15:14.896;539239529075249172;322521;277417;301515;776;
2024-05-18T15:15:14.914;539239529093404184;322413;277297;301398;777;
2024-05-18T15:15:14.933;539239529111559196;322357;277276;301412;716;
2024-05-18T15:15:14.951;539239529129714208;322382;277350;301377;741;
2024-05-18T15:15:14.969;539239529147869220;322399;277376;301506;762;
2024-05-18T15:15:14.987;539239529166024232;322460;277373;301457;755;
2024-05-18T15:15:15.005;539239529184179244;322486;277393;301479;728;
2024-05-18T15:15:15.023;539239529202334256;322543;277422;301479;718;
2024-05-18T15:15:15.042;539239529220489268;322501;277455;301437;704;
2024-05-18T15:15:15.060;539239529238644280;322414;277389;301368;765;
2024-05-18T15:15:15.078;539239529256799292;322320;277300;301243;729;
2024-05-18T15:15:15.096;539239529274954304;322287;277195;301228;713;
2024-05-18T15:15:15.114;539239529293109316;322213;277148;301143;758;
2024-05-18T15:15:15.132;539239529311264328;322128;277127;301110;711;
2024-05-18T15:15:15.150;539239529329419340;322147;277070;301087;702;
2024-05-18T15:15:15.169;539239529347574352;322175;277127;301113;743;
2024-05-18T15:15:15.187;539239529365729364;322163;277099;301144;721;
2024-05-18T15:15:15.205;539239529383884376;322240;277231;301191;707;
2024-05-18T15:15:15.223;539239529402039388;322217;277293;301204;661;
2024-05-18T15:15:15.241;539239529420194400;322262;277312;301206;686;
2024-05-18T15:15:15.259;539239529438349412;322369;277369;301213;696;
2024-05-18T15:15:15.278;539239529456505002;322491;277457;301361;723;
2024-05-18T15:15:15.296;539239529474660569;322621;277498;301358;702;
2024-05-18T15:15:15.314;539239529492816136;322604;277555;301379;691;
2024-05-18T15:15:15.332;539239529510971703;322693;277609;301484;700;
2024-05-18T15:15:15.350;539239529529127270;322808;277710;301618;722;
2024-05-18T15:15:15.368;539239529547282837;322892;277762;301618;759;
2024-05-18T15:15:15.386;539239529565438404;322994;277822;301637;733;
2024-05-18T15:15:15.405;539239529583593971;322980;277875;301708;765;
2024-05-18T15:15:15.423;539239529601749538;323079;277986;301758;772;
2024-05-18T15:15:15.441;539239529619905105;323092;278007;301812;697;
2024-05-18T15:15:15.459;539239529638060672;323203;278073;301877;738;
2024-05-18T15:15:15.477;539239529656216239;323266;278158;301886;667;
2024-05-18T15:15:15.495;539239529674371806;323338;278252;301956;705;
2024-05-18T15:15:15.514;539239529692527373;323357;278279;301957;728;
2024-05-18T15:15:15.532;539239529710682940;323366;278273;301923;710;
2024-05-18T15:15:15.550;539239529728838507;323202;278098;301785;712;
2024-05-18T15:15:15.568;539239529746994074;322980;277927;301683;719;
2024-05-18T15:15:15.586;539239529765149641;322659;277706;301428;699;
2024-05-18T15:15:15.604;539239529783305208;322524;277593;301348;776;
2024-05-18T15:15:15.623;539239529801460775;322298;277456;301212;785;
2024-05-18T15:15:15.641;539239529819616342;322189;277301;301106;690;
2024-05-18T15:15:15.659;539239529837771909;322112;277251;301072;724;
2024-05-18T15:15:15.677;539239529855927476;322092;277220;300951;714;
2024-05-18T15:15:15.695;539239529874083043;322032;277209;300923;728;
2024-05-18T15:15:15.713;539239529892238610;322084;277307;300957;748;
2024-05-18T15:15:15.731;539239529910394177;322196;277275;300971;738;
2024-05-18T15:15:15.750;539239529928549744;322157;277357;301037;770;
2024-05-18T15:15:15.768;539239529946705311;322270;277336;301106;751;
2024-05-18T15:15:15.786;539239529964860878;322340;277444;301055;730;
2024-05-18T15:15:15.804;539239529983016445;322302;277371;301024;728;
2024-05-18T15:15:15.822;539239530001172012;322324;277348;301026;741;
2024-05-18T15:15:15.840;539239530019327579;322212;277363;300986;691;
2024-05-18T15:15:15.859;539239530037483146;322166;277283;300910;700;
2024-05-18T15:15:15.877;539239530055638713;322100;277305;300897;762;
2024-05-18T15:15:15.895;539239530073794280;322095;277232;300860;767;
2024-05-18T15:15:15.913;539239530091949847;322134;277239;300873;738;
2024-05-18T15:15:15.931;539239530110105414;322228;277310;300877;730;
2024-05-18T15:15:15.949;539239530128260981;322169;277336;300873;741;
2024-05-18T15:15:15.967;539239530146416548;322239;277398;300887;726;
2024-05-18T15:15:15.986;539239530164572115;322305;277391;300923;722;
2024-05-18T15:15:16.004;539239530182727682;322395;277509;301016;761;
2024-05-18T15:15:16.022;539239530200882414;322432;277530;301018;733;
2024-05-18T15:15:16.040;539239530219037110;322587;277617;301130;742;
2024-05-18T15:15:16.058;539239530237191806;322731;277745;301216;755;
2024-05-18T15:15:16.076;539239530255346502;322815;277823;301303;778;
2024-05-18T15:15:16.095;539239530273501198;322920;277940;301403;756;
2024-05-18T15:15:16.113;539239530291655894;323046;277995;301432;747;
2024-05-18T15:15:16.131;539239530309810590;323155;278135;301599;696;
2024-05-18T15:15:16.149;539239530327965286;323283;278247;301641;756;
2024-05-18T15:15:16.167;539239530346119982;323368;278349;301683;747;
2024-05-18T15:15:16.185;539239530364274678;323434;278398;301776;784;
2024-05-18T15:15:16.203;539239530382429374;323570;278517;301871;753;
2024-05-18T15:15:16.222;539239530400584070;323675;278559;301948;745;
2024-05-18T15:15:16.240;539239530418738766;323798;278631;302028;794;
2024-05-18T15:15:16.258;539239530436893462;323895;278747;302081;781;
2024-05-18T15:15:16.276;539239530455048158;323969;278802;302114;782;
2024-05-18T15:15:16.294;539239530473202854;324055;278884;302230;753;
2024-05-18T15:15:16.312;539239530491357550;324094;278954;302205;767;
2024-05-18T15:15:16.331;539239530509512246;324025;278940;302262;741;
2024-05-18T15:15:16.349;539239530527666942;323894;278805;302130;752;
2024-05-18T15:15:16.367;539239530545821638;323820;278724;302050;784;
2024-05-18T15:15:16.385;539239530563976334;323546;278529;301855;728;
2024-05-18T15:15:16.403;539239530582131030;323416;278410;301756;729;
2024-05-18T15:15:16.421;539239530600285726;323329;278329;301669;722;
2024-05-18T15:15:16.439;539239530618440422;323180;278273;301636;755;
2024-05-18T15:15:16.458;539239530636595118;323203;278277;301516;784;
2024-05-18T15:15:16.476;539239530654749814;323172;278187;301512;753;
2024-05-18T15:15:16.494;539239530672904510;323133;278148;301451;741;
2024-05-18T15:15:16.512;539239530691059206;323245;278297;301605;756;
2024-05-18T15:15:16.530;539239530709213902;323301;278344;301656;741;
2024-05-18T15:15:16.548;539239530727368598;323426;278452;301695;742;
2024-05-18T15:15:16.567;539239530745523294;323445;278487;301718;755;
2024-05-18T15:15:16.585;539239530763677990;323536;278522;301827;805;
2024-05-18T15:15:16.603;539239530781832686;323484;278439;301813;709;
2024-05-18T15:15:16.621;539239530799987382;323604;278508;301829;773;
2024-05-18T15:15:16.639;539239530818142078;323591;278533;301862;767;
2024-05-18T15:15:16.657;539239530836296774;323610;278610;301860;745;
2024-05-18T15:15:16.676;539239530854451470;323597;278592;301820;735;
2024-05-18T15:15:16.694;539239530872606166;323537;278588;301806;769;
2024-05-18T15:15:16.712;539239530890760862;323608;278621;301840;758;
2024-05-18T15:15:16.730;539239530908915558;323658;278618;301854;722;
2024-05-18T15:15:16.748;539239530927070254;323699;278639;301899;750;
2024-05-18T15:15:16.766;539239530945224950;323855;278761;301963;803;
2024-05-18T15:15:16.784;539239530963379646;323880;278810;302006;773;
2024-05-18T15:15:16.803;539239530981534604;324003;278943;302083;823;
2024-05-18T15:15:16.821;539239530999689524;324090;278985;302127;755;
2024-05-18T15:15:16.839;539239531017844444;324210;279085;302255;782;
2024-05-18T15:15:16.857;539239531035999364;324311;279186;302404;776;
2024-05-18T15:15:16.875;539239531054154284;324400;279314;302419;705;
2024-05-18T15:15:16.893;539239531072309204;324506;279327;302487;741;
2024-05-18T15:15:16.912;539239531090464124;324632;279480;302562;744;
2024-05-18T15:15:16.930;539239531108619044;324729;279548;302635;731;
2024-05-18T15:15:16.948;539239531126773964;324776;279658;302725;746;
2024-05-18T15:15:16.966;539239531144928884;324892;279693;302814;770;
2024-05-18T15:15:16.984;539239531163083804;325044;279799;302884;748;
2024-05-18T15:15:17.002;539239531181238724;325160;279915;302915;740;
2024-05-18T15:15:17.020;539239531199393644;325242;280033;302974;806;
2024-05-18T15:15:17.039;539239531217548564;325360;279999;303116;788;
2024-05-18T15:15:17.057;539239531235703484;325429;280122;303159;787;
2024-05-18T15:15:17.075;539239531253858404;325548;280259;303276;768;
2024-05-18T15:15:17.093;539239531272013324;325613;280262;303316;758;
2024-05-18T15:15:17.111;539239531290168244;325735;280423;303386;761;
2024-05-18T15:15:17.129;539239531308323164;325823;280498;303462;769;
2024-05-18T15:15:17.148;539239531326478084;325826;280473;303470;810;
2024-05-18T15:15:17.166;539239531344633004;325711;280420;303396;779;
2024-05-18T15:15:17.184;539239531362787924;325604;280359;303364;787;
2024-05-18T15:15:17.202;539239531380942844;325507;280227;303230;795;
2024-05-18T15:15:17.220;539239531399097764;325282;280031;303064;786;
2024-05-18T15:15:17.238;539239531417252684;325123;279934;302998;758;
2024-05-18T15:15:17.256;539239531435407604;324944;279799;302902;764;
2024-05-18T15:15:17.275;539239531453562524;324913;279832;302843;782;
2024-05-18T15:15:17.293;539239531471717444;324828;279745;302751;722;
2024-05-18T15:15:17.311;539239531489872364;324893;279787;302792;704;
2024-05-18T15:15:17.329;539239531508027284;324878;279774;302733;747;
2024-05-18T15:15:17.347;539239531526182204;324878;279815;302791;748;
2024-05-18T15:15:17.365;539239531544337124;324953;279839;302804;746;
2024-05-18T15:15:17.384;539239531562492044;325002;279939;302920;770;
2024-05-18T15:15:17.402;539239531580646964;325086;279867;302832;762;
2024-05-18T15:15:17.420;539239531598801884;325066;279893;302851;754;
2024-05-18T15:15:17.438;539239531616956804;325025;279957;302882;781;
2024-05-18T15:15:17.456;539239531635111724;325076;279919;302895;730;
2024-05-18T15:15:17.474;539239531653266644;325046;279922;302820;792;
2024-05-18T15:15:17.492;539239531671421564;325045;279878;302825;758;
2024-05-18T15:15:17.511;539239531689576484;324982;279855;302830;776;
2024-05-18T15:15:17.529;539239531707731404;325088;279902;302848;716;
2024-05-18T15:15:17.547;539239531725886324;324969;279872;302842;758;
2024-05-18T15:15:17.565;539239531744041244;325042;279930;302836;764;
2024-05-18T15:15:17.583;539239531762196164;325109;279975;302863;795;
2024-05-18T15:15:17.601;539239531780351084;325119;279997;302886;768;
2024-05-18T15:15:17.620;539239531798504862;325197;280092;302953;752;
2024-05-18T15:15:17.638;539239531816658605;325218;280102;303014;719;
2024-05-18T15:15:17.656;539239531834812348;325379;280140;303121;787;
2024-05-18T15:15:17.674;539239531852966091;325322;280251;303055;759;
2024-05-18T15:15:17.692;539239531871119834;325405;280316;303126;745;
2024-05-18T15:15:17.710;539239531889273577;325512;280351;303224;790;
2024-05-18T15:15:17.728;539239531907427320;325639;280454;303268;769;
2024-05-18T15:15:17.747;539239531925581063;325704;280456;303224;750;
2024-05-18T15:15:17.765;539239531943734806;325831;280587;303362;827;
2024-05-18T15:15:17.783;539239531961888549;325855;280676;303420;777;
2024-05-18T15:15:17.801;539239531980042292;325925;280696;303482;802;
2024-05-18T15:15:17.819;539239531998196035;325962;280759;303496;734;
2024-05-18T15:15:17.837;539239532016349778;326054;280826;303583;711;
2024-05-18T15:15:17.856;539239532034503521;326162;280874;303613;778;
2024-05-18T15:15:17.874;539239532052657264;326206;280892;303646;725;
2024-05-18T15:15:17.892;539239532070811007;326323;280964;303737;716;
2024-05-18T15:15:17.910;539239532088964750;326384;281047;303758;801;
2024-05-18T15:15:17.928;539239532107118493;326459;281119;303809;770;
2024-05-18T15:15:17.946;539239532125272236;326494;281253;303888;806;
2024-05-18T15:15:17.964;539239532143425979;326522;281236;303909;750;
2024-05-18T15:15:17.983;539239532161579722;326614;281298;304013;769;
2024-05-18T15:15:18.001;539239532179733465;326639;281260;303945;796;
2024-05-18T15:15:18.019;539239532197887208;326477;281211;303842;756;
2024-05-18T15:15:18.037;539239532216040951;326331;281092;303770;769;
2024-05-18T15:15:18.055;539239532234194694;326141;280955;303674;781;
2024-05-18T15:15:18.073;539239532252348437;325996;280772;303460;774;
2024-05-18T15:15:18.092;539239532270502180;325855;280704;303368;739;
2024-05-18T15:15:18.110;539239532288655923;325678;280573;303280;717;
2024-05-18T15:15:18.128;539239532306809666;325605;280527;303194;747;
2024-05-18T15:15:18.146;539239532324963409;325608;280423;303095;771;
2024-05-18T15:15:18.164;539239532343117152;325526;280434;303076;734;
2024-05-18T15:15:18.182;539239532361270895;325513;280422;303066;706;
2024-05-18T15:15:18.200;539239532379424638;325564;280448;303150;764;
2024-05-18T15:15:18.219;539239532397578381;325580;280467;303115;728;
2024-05-18T15:15:18.237;539239532415732124;325627;280527;303129;799;
2024-05-18T15:15:18.255;539239532433885867;325709;280555;303185;755;
2024-05-18T15:15:18.273;539239532452039610;325668;280470;303151;736;
2024-05-18T15:15:18.291;539239532470193353;325626;280461;303133;725;
2024-05-18T15:15:18.309;539239532488347096;325606;280458;303069;709;
2024-05-18T15:15:18.328;539239532506500839;325506;280436;303048;756;
2024-05-18T15:15:18.346;539239532524654582;325522;280410;302973;738;
2024-05-18T15:15:18.364;539239532542809704;325537;280386;302966;729;
2024-05-18T15:15:18.382;539239532560964787;325499;280417;302940;763;
2024-05-18T15:15:18.400;539239532579119870;325547;280451;302976;797;
2024-05-18T15:15:18.418;539239532597274953;325546;280389;302995;702;
2024-05-18T15:15:18.436;539239532615430036;325626;280495;303038;802;
2024-05-18T15:15:18.455;539239532633585119;325710;280549;303162;780;
2024-05-18T15:15:18.473;539239532651740202;325745;280556;303127;773;
2024-05-18T15:15:18.491;539239532669895285;325838;280623;303213;739;
2024-05-18T15:15:18.509;539239532688050368;325959;280653;303166;779;
