Phone timestamp;sensor timestamp [ns];channel 0;channel 1;channel 2;ambient
2024-05-20T22:21:55.793;539437932132469052;400018;497501;411135;-1378;
2024-05-20T22:21:55.811;539437932150630274;400116;497613;411228;-1379;
2024-05-20T22:21:55.829;539437932168791496;400179;497673;411309;-1376;
2024-05-20T22:21:55.847;539437932186952718;400368;497856;411520;-1351;
2024-05-20T22:21:55.865;539437932205113940;400420;498037;411609;-1415;
2024-05-20T22:21:55.883;539437932223275162;400628;498191;411711;-1333;
2024-05-20T22:21:55.901;539437932241436384;400740;498350;411825;-1408;
2024-05-20T22:21:55.920;539437932259597606;400863;498535;411927;-1394;
2024-05-20T22:21:55.938;539437932277758828;401029;498672;412084;-1321;
2024-05-20T22:21:55.956;539437932295920050;401093;498754;412187;-1354;
2024-05-20T22:21:55.974;539437932314081272;401201;498951;412250;-1299;
2024-05-20T22:21:55.992;539437932332242494;401299;499033;412368;-1346;
2024-05-20T22:21:56.010;539437932350403716;401393;499137;412419;-1341;
2024-05-20T22:21:56.029;539437932368564938;401392;499201;412504;-1351;
2024-05-20T22:21:56.047;539437932386726160;401449;499320;412574;-1358;
2024-05-20T22:21:56.065;539437932404887382;401580;499450;412682;-1347;
2024-05-20T22:21:56.083;539437932423048604;401664;499543;412731;-1375;
2024-05-20T22:21:56.101;539437932441209826;401772;499646;412783;-1345;
2024-05-20T22:21:56.119;539437932459371048;401900;499792;412918;-1354;
2024-05-20T22:21:56.138;539437932477532270;401922;499951;413039;-1419;
2024-05-20T22:21:56.156;539437932495693492;402039;500023;413071;-1429;
2024-05-20T22:21:56.174;539437932513854714;401994;499969;413060;-1321;
2024-05-20T22:21:56.192;539437932532015936;401720;499653;412875;-1398;
2024-05-20T22:21:56.210;539437932550177158;401334;499257;412495;-1409;
2024-05-20T22:21:56.228;539437932568338380;400895;498688;412038;-1414;
2024-05-20T22:21:56.247;539437932586499602;400482;498166;411617;-1393;
2024-05-20T22:21:56.265;539437932604660824;400066;497589;411152;-1388;
2024-05-20T22:21:56.283;539437932622822046;399706;497101;410779;-1348;
2024-05-20T22:21:56.301;539437932640983268;399515;496828;410549;-1346;
2024-05-20T22:21:56.319;539437932659144490;399371;496592;410414;-1337;
2024-05-20T22:21:56.337;539437932677305712;399296;496519;410325;-1314;
2024-05-20T22:21:56.355;539437932695466934;399259;496428;410220;-1358;
2024-05-20T22:21:56.374;539437932713628156;399342;496463;410252;-1354;
2024-05-20T22:21:56.392;539437932731789378;399448;496581;410399;-1338;
2024-05-20T22:21:56.410;539437932749950600;399587;496772;410499;-1361;
2024-05-20T22:21:56.428;539437932768111822;399782;496960;410639;-1322;
2024-05-20T22:21:56.446;539437932786273044;399900;497155;410757;-1392;
2024-05-20T22:21:56.464;539437932804434266;400067;497385;410939;-1356;
2024-05-20T22:21:56.483;539437932822595515;400222;497537;411078;-1353;
2024-05-20T22:21:56.501;539437932840756737;400332;497731;411233;-1352;
2024-05-20T22:21:56.519;539437932858917959;400460;497802;411338;-1403;
2024-05-20T22:21:56.537;539437932877079181;400534;497994;411416;-1378;
2024-05-20T22:21:56.555;539437932895240403;400665;498133;411532;-1400;
2024-05-20T22:21:56.573;539437932913401625;400713;498248;411598;-1323;
2024-05-20T22:21:56.592;539437932931562847;400867;498364;411650;-1348;
2024-05-20T22:21:56.610;539437932949724069;400873;498521;411744;-1308;
2024-05-20T22:21:56.628;539437932967885291;401024;498592;411862;-1305;
2024-05-20T22:21:56.646;539437932986046513;401019;498699;411865;-1333;
2024-05-20T22:21:56.664;539437933004207735;401136;498761;411995;-1341;
2024-05-20T22:21:56.682;539437933022368957;401207;498911;412071;-1310;
2024-05-20T22:21:56.701;539437933040530179;401339;499030;412227;-1375;
2024-05-20T22:21:56.719;539437933058691401;401432;499188;412301;-1403;
2024-05-20T22:21:56.737;539437933076852623;401503;499229;412379;-1338;
2024-05-20T22:21:56.755;539437933095013845;401415;499286;412377;-1319;
2024-05-20T22:21:56.773;539437933113175067;401133;498914;412156;-1342;
2024-05-20T22:21:56.791;539437933131336289;400857;498513;411806;-1331;
2024-05-20T22:21:56.810;539437933149497511;400366;498042;411345;-1368;
2024-05-20T22:21:56.828;539437933167658733;399949;497447;410940;-1348;
2024-05-20T22:21:56.846;539437933185819955;399609;496974;410523;-1336;
2024-05-20T22:21:56.864;539437933203981177;399267;496507;410187;-1346;
2024-05-20T22:21:56.882;539437933222142399;399076;496317;409961;-1279;
2024-05-20T22:21:56.900;539437933240303621;398974;496104;409824;-1282;
2024-05-20T22:21:56.918;539437933258464843;398868;495985;409760;-1374;
2024-05-20T22:21:56.937;539437933276626065;398887;496033;409746;-1330;
2024-05-20T22:21:56.955;539437933294787287;399006;496156;409825;-1316;
2024-05-20T22:21:56.973;539437933312948509;399134;496257;409903;-1314;
2024-05-20T22:21:56.991;539437933331109731;399335;496434;410077;-1304;
2024-05-20T22:21:57.009;539437933349270953;399414;496612;410205;-1312;
2024-05-20T22:21:57.027;539437933367432175;399664;496818;410383;-1331;
2024-05-20T22:21:57.046;539437933385593397;399771;497081;410512;-1374;
2024-05-20T22:21:57.064;539437933403754619;399947;497261;410631;-1365;
2024-05-20T22:21:57.082;539437933421915841;400049;497423;410773;-1295;
2024-05-20T22:21:57.100;539437933440077063;400137;497564;410900;-1341;
2024-05-20T22:21:57.118;539437933458238285;400265;497711;411010;-1334;
2024-05-20T22:21:57.136;539437933476399507;400355;497813;411160;-1342;
2024-05-20T22:21:57.155;539437933494560729;400459;497986;411224;-1322;
2024-05-20T22:21:57.173;539437933512721951;400525;498093;411262;-1347;
2024-05-20T22:21:57.191;539437933530884766;400606;498225;411316;-1301;
2024-05-20T22:21:57.209;539437933549047553;400622;498350;411428;-1314;
2024-05-20T22:21:57.227;539437933567210340;400805;498483;411481;-1311;
2024-05-20T22:21:57.245;539437933585373127;400942;498618;411612;-1303;
2024-05-20T22:21:57.264;539437933603535914;400969;498747;411731;-1353;
2024-05-20T22:21:57.282;539437933621698701;401100;498892;411888;-1352;
2024-05-20T22:21:57.300;539437933639861488;401149;498998;411966;-1355;
2024-05-20T22:21:57.318;539437933658024275;401191;499135;411993;-1363;
2024-05-20T22:21:57.336;539437933676187062;401047;498997;411915;-1394;
2024-05-20T22:21:57.354;539437933694349849;400834;498720;411675;-1330;
2024-05-20T22:21:57.373;539437933712512636;400481;498259;411304;-1304;
2024-05-20T22:21:57.391;539437933730675423;400016;497702;410921;-1331;
2024-05-20T22:21:57.409;539437933748838210;399593;497229;410561;-1382;
2024-05-20T22:21:57.427;539437933767000997;399314;496813;410187;-1326;
2024-05-20T22:21:57.445;539437933785163784;399021;496477;409887;-1334;
2024-05-20T22:21:57.463;539437933803326571;398874;496112;409657;-1341;
2024-05-20T22:21:57.482;539437933821489358;398801;495989;409563;-1394;
2024-05-20T22:21:57.500;539437933839652145;398833;496014;409525;-1343;
2024-05-20T22:21:57.518;539437933857814932;398866;496112;409573;-1328;
2024-05-20T22:21:57.536;539437933875977719;399059;496209;409712;-1325;
2024-05-20T22:21:57.554;539437933894140506;399234;496475;409877;-1339;
2024-05-20T22:21:57.572;539437933912303293;399339;496593;410004;-1351;
2024-05-20T22:21:57.590;539437933930466080;399521;496842;410245;-1378;
2024-05-20T22:21:57.609;539437933948628867;399715;497011;410391;-1421;
2024-05-20T22:21:57.627;539437933966791654;399894;497352;410563;-1347;
2024-05-20T22:21:57.645;539437933984954441;399997;497565;410713;-1404;
2024-05-20T22:21:57.663;539437934003117228;400134;497734;410861;-1373;
2024-05-20T22:21:57.681;539437934021280015;400248;497816;410999;-1422;
2024-05-20T22:21:57.699;539437934039442802;400402;497957;411121;-1402;
2024-05-20T22:21:57.718;539437934057605589;400503;498112;411191;-1365;
2024-05-20T22:21:57.736;539437934075768376;400629;498272;411255;-1343;
2024-05-20T22:21:57.754;539437934093931163;400659;498383;411338;-1323;
2024-05-20T22:21:57.772;539437934112093950;400760;498595;411462;-1364;
2024-05-20T22:21:57.790;539437934130256737;400905;498791;411555;-1342;
2024-05-20T22:21:57.808;539437934148419524;401061;498884;411705;-1360;
2024-05-20T22:21:57.827;539437934166582311;401170;499038;411884;-1329;
2024-05-20T22:21:57.845;539437934184745098;401269;499212;411999;-1326;
2024-05-20T22:21:57.863;539437934202910525;401449;499386;412101;-1328;
2024-05-20T22:21:57.881;539437934221075928;401543;499525;412204;-1355;
2024-05-20T22:21:57.899;539437934239241331;401471;499474;412187;-1372;
2024-05-20T22:21:57.917;539437934257406734;401267;499245;412027;-1335;
2024-05-20T22:21:57.936;539437934275572137;401012;498904;411707;-1342;
2024-05-20T22:21:57.954;539437934293737540;400618;498449;411327;-1353;
2024-05-20T22:21:57.972;539437934311902943;400244;498023;411028;-1347;
2024-05-20T22:21:57.990;539437934330068346;399902;497582;410711;-1324;
2024-05-20T22:21:58.008;539437934348233749;399657;497256;410468;-1304;
2024-05-20T22:21:58.026;539437934366399152;399484;496991;410205;-1333;
2024-05-20T22:21:58.045;539437934384564555;399393;496916;410193;-1363;
2024-05-20T22:21:58.063;539437934402729958;399428;496921;410135;-1376;
2024-05-20T22:21:58.081;539437934420895361;399501;496954;410205;-1356;
2024-05-20T22:21:58.099;539437934439060764;399547;497082;410307;-1346;
2024-05-20T22:21:58.117;539437934457226167;399757;497203;410497;-1338;
2024-05-20T22:21:58.135;539437934475391570;399942;497451;410599;-1364;
2024-05-20T22:21:58.154;539437934493556973;400162;497670;410781;-1336;
2024-05-20T22:21:58.172;539437934511722376;400351;497915;411011;-1378;
2024-05-20T22:21:58.190;539437934529887779;400591;498144;411190;-1355;
2024-05-20T22:21:58.208;539437934548053182;400690;498373;411296;-1408;
2024-05-20T22:21:58.226;539437934566218585;400785;498591;411493;-1344;
2024-05-20T22:21:58.244;539437934584383988;401012;498814;411646;-1356;
2024-05-20T22:21:58.263;539437934602549391;401057;498985;411772;-1364;
2024-05-20T22:21:58.281;539437934620714794;401151;498982;411831;-1354;
2024-05-20T22:21:58.299;539437934638880197;401246;499184;412021;-1395;
2024-05-20T22:21:58.317;539437934657045600;401429;499411;412153;-1321;
2024-05-20T22:21:58.335;539437934675211003;401502;499501;412302;-1351;
2024-05-20T22:21:58.353;539437934693376406;401635;499694;412356;-1323;
2024-05-20T22:21:58.372;539437934711541809;401790;499823;412506;-1335;
2024-05-20T22:21:58.390;539437934729707212;401897;499956;412640;-1313;
2024-05-20T22:21:58.408;539437934747872615;402040;500162;412854;-1341;
2024-05-20T22:21:58.426;539437934766038018;402095;500342;412883;-1347;
2024-05-20T22:21:58.444;539437934784203421;402163;500371;412966;-1287;
2024-05-20T22:21:58.462;539437934802368824;402002;500324;412861;-1305;
2024-05-20T22:21:58.481;539437934820534227;401765;500098;412662;-1359;
2024-05-20T22:21:58.499;539437934838699630;401430;499635;412368;-1368;
2024-05-20T22:21:58.517;539437934856865033;401161;499246;412121;-1306;
2024-05-20T22:21:58.535;539437934875030436;400881;498930;411738;-1320;
2024-05-20T22:21:58.553;539437934893195839;400646;498635;411459;-1317;
2024-05-20T22:21:58.571;539437934911361242;400466;498390;411308;-1378;
2024-05-20T22:21:58.590;539437934929526645;400392;498265;411178;-1385;
2024-05-20T22:21:58.608;539437934947692048;400449;498259;411242;-1306;
2024-05-20T22:21:58.626;539437934965855790;400517;498354;411328;-1335;
2024-05-20T22:21:58.644;539437934984019522;400628;498537;411469;-1310;
2024-05-20T22:21:58.662;539437935002183254;400698;498690;411581;-1391;
2024-05-20T22:21:58.680;539437935020346986;400964;498945;411740;-1339;
2024-05-20T22:21:58.699;539437935038510718;401145;499141;411931;-1331;
2024-05-20T22:21:58.717;539437935056674450;401387;499437;412137;-1307;
2024-05-20T22:21:58.735;539437935074838182;401531;499605;412349;-1374;
2024-05-20T22:21:58.753;539437935093001914;401697;499838;412504;-1389;
2024-05-20T22:21:58.771;539437935111165646;401815;500043;412632;-1392;
2024-05-20T22:21:58.789;539437935129329378;401996;500231;412748;-1320;
2024-05-20T22:21:58.808;539437935147493110;402104;500483;412941;-1336;
2024-05-20T22:21:58.826;539437935165656842;402308;500599;413020;-1340;
2024-05-20T22:21:58.844;539437935183820574;402351;500791;413169;-1359;
2024-05-20T22:21:58.862;539437935201984306;402498;500934;413294;-1396;
2024-05-20T22:21:58.880;539437935220148038;402540;501091;413378;-1343;
2024-05-20T22:21:58.898;539437935238311770;402717;501262;413580;-1300;
2024-05-20T22:21:58.917;539437935256475502;402863;501389;413722;-1310;
2024-05-20T22:21:58.935;539437935274639234;402987;501565;413831;-1319;
2024-05-20T22:21:58.953;539437935292802966;403080;501788;413993;-1330;
2024-05-20T22:21:58.971;539437935310966698;403179;501907;414169;-1321;
2024-05-20T22:21:58.989;539437935329130430;403269;502044;414181;-1284;
2024-05-20T22:21:59.007;539437935347294162;403221;502003;414146;-1259;
2024-05-20T22:21:59.025;539437935365457894;402988;501686;413912;-1307;
2024-05-20T22:21:59.044;539437935383621626;402642;501367;413710;-1330;
2024-05-20T22:21:59.062;539437935401785358;402340;500938;413415;-1277;
2024-05-20T22:21:59.080;539437935419949090;402013;500575;413062;-1344;
2024-05-20T22:21:59.098;539437935438112822;401823;500253;412799;-1314;
2024-05-20T22:21:59.116;539437935456276554;401648;500004;412620;-1317;
2024-05-20T22:21:59.134;539437935474440286;401525;499857;412483;-1340;
2024-05-20T22:21:59.153;539437935492604018;401546;499829;412516;-1307;
2024-05-20T22:21:59.171;539437935510767750;401613;499875;412566;-1360;
2024-05-20T22:21:59.189;539437935528931482;401666;500004;412649;-1314;
2024-05-20T22:21:59.207;539437935547095214;401882;500182;412744;-1324;
2024-05-20T22:21:59.225;539437935565258946;402053;500422;412947;-1348;
2024-05-20T22:21:59.243;539437935583422678;402226;500702;413083;-1307;
2024-05-20T22:21:59.262;539437935601586410;402393;500905;413289;-1311;
2024-05-20T22:21:59.280;539437935619750142;402594;501159;413512;-1257;
2024-05-20T22:21:59.298;539437935637913874;402784;501354;413711;-1283;
2024-05-20T22:21:59.316;539437935656077606;402917;501446;413836;-1286;
2024-05-20T22:21:59.334;539437935674241338;403059;501696;413962;-1299;
2024-05-20T22:21:59.352;539437935692405070;403155;501954;414104;-1251;
2024-05-20T22:21:59.371;539437935710568802;403247;502054;414270;-1312;
2024-05-20T22:21:59.389;539437935728730936;403384;502208;414345;-1312;
2024-05-20T22:21:59.407;539437935746893070;403531;502373;414451;-1266;
2024-05-20T22:21:59.425;539437935765055204;403621;502515;414513;-1268;
2024-05-20T22:21:59.443;539437935783217338;403785;502691;414740;-1285;
2024-05-20T22:21:59.461;539437935801379472;403845;502822;414830;-1330;
2024-05-20T22:21:59.480;539437935819541606;403920;502980;414942;-1365;
2024-05-20T22:21:59.498;539437935837703740;404044;503067;415101;-1327;
2024-05-20T22:21:59.516;539437935855865874;404170;503277;415204;-1325;
2024-05-20T22:21:59.534;539437935874028008;404234;503374;415320;-1295;
2024-05-20T22:21:59.552;539437935892190142;404216;503473;415358;-1319;
2024-05-20T22:21:59.570;539437935910352276;404033;503263;415105;-1342;
2024-05-20T22:21:59.589;539437935928514410;403692;502909;414836;-1365;
2024-05-20T22:21:59.607;539437935946676544;403476;502539;414598;-1352;
2024-05-20T22:21:59.625;539437935964838678;403110;502061;414266;-1271;
2024-05-20T22:21:59.643;539437935983000812;402769;501776;413959;-1305;
2024-05-20T22:21:59.661;539437936001162946;402593;501444;413758;-1278;
2024-05-20T22:21:59.679;539437936019325080;402437;501237;413609;-1295;
2024-05-20T22:21:59.698;539437936037487214;402382;501190;413530;-1296;
2024-05-20T22:21:59.716;539437936055649348;402387;501044;413485;-1285;
2024-05-20T22:21:59.734;539437936073811482;402393;501138;413537;-1354;
2024-05-20T22:21:59.752;539437936091973616;402590;501200;413649;-1344;
2024-05-20T22:21:59.770;539437936110135750;402738;501382;413841;-1307;
2024-05-20T22:21:59.788;539437936128297884;402969;501666;414012;-1326;
2024-05-20T22:21:59.806;539437936146460018;403166;501911;414197;-1326;
2024-05-20T22:21:59.825;539437936164622152;403321;502142;414364;-1329;
2024-05-20T22:21:59.843;539437936182784286;403517;502400;414539;-1353;
2024-05-20T22:21:59.861;539437936200946420;403560;502536;414580;-1362;
2024-05-20T22:21:59.879;539437936219108554;403773;502763;414800;-1335;
2024-05-20T22:21:59.897;539437936237270688;403972;502994;414939;-1350;
2024-05-20T22:21:59.915;539437936255432822;404106;503093;415128;-1402;
2024-05-20T22:21:59.934;539437936273594956;404289;503349;415290;-1355;
2024-05-20T22:21:59.952;539437936291757090;404336;503466;415360;-1363;
2024-05-20T22:21:59.970;539437936309919224;404405;503600;415486;-1346;
2024-05-20T22:21:59.988;539437936328081358;404576;503721;415631;-1358;
2024-05-20T22:22:00.006;539437936346243492;404696;503908;415731;-1397;
2024-05-20T22:22:00.024;539437936364405626;404834;504111;415874;-1335;
2024-05-20T22:22:00.043;539437936382567760;404906;504253;416034;-1347;
2024-05-20T22:22:00.061;539437936400729894;405008;504432;416191;-1350;
2024-05-20T22:22:00.079;539437936418892028;405175;504522;416244;-1387;
2024-05-20T22:22:00.097;539437936437054162;405265;504689;416389;-1314;
2024-05-20T22:22:00.115;539437936455216296;405306;504780;416520;-1294;
2024-05-20T22:22:00.133;539437936473378430;405178;504729;416370;-1279;
2024-05-20T22:22:00.152;539437936491542056;404983;504419;416224;-1321;
2024-05-20T22:22:00.170;539437936509705642;404652;504044;415984;-1368;
2024-05-20T22:22:00.188;539437936527869228;404372;503672;415637;-1308;
2024-05-20T22:22:00.206;539437936546032814;404024;503302;415350;-1285;
2024-05-20T22:22:00.224;539437936564196400;403832;502986;415106;-1266;
2024-05-20T22:22:00.242;539437936582359986;403696;502740;414918;-1293;
2024-05-20T22:22:00.261;539437936600523572;403645;502629;414865;-1338;
2024-05-20T22:22:00.279;539437936618687158;403557;502549;414807;-1335;
2024-05-20T22:22:00.297;539437936636850744;403673;502644;414841;-1329;
2024-05-20T22:22:00.315;539437936655014330;403843;502832;414971;-1283;
2024-05-20T22:22:00.333;539437936673177916;403986;502909;415057;-1318;
2024-05-20T22:22:00.351;539437936691341502;404125;503157;415208;-1273;
2024-05-20T22:22:00.370;539437936709505088;404336;503451;415400;-1286;
2024-05-20T22:22:00.388;539437936727668674;404486;503591;415592;-1342;
2024-05-20T22:22:00.406;539437936745832260;404646;503808;415783;-1302;
2024-05-20T22:22:00.424;539437936763995846;404812;504049;416000;-1361;
2024-05-20T22:22:00.442;539437936782159432;404985;504243;416140;-1325;
2024-05-20T22:22:00.460;539437936800323018;405137;504474;416232;-1352;
2024-05-20T22:22:00.479;539437936818486604;405249;504578;416331;-1383;
2024-05-20T22:22:00.497;539437936836650190;405351;504733;416496;-1389;
2024-05-20T22:22:00.515;539437936854813776;405446;504877;416592;-1395;
2024-05-20T22:22:00.533;539437936872977362;405567;505029;416678;-1341;
2024-05-20T22:22:00.551;539437936891140948;405688;505183;416805;-1360;
2024-05-20T22:22:00.569;539437936909304534;405866;505290;416957;-1374;
2024-05-20T22:22:00.587;539437936927468120;405889;505464;417032;-1432;
2024-05-20T22:22:00.606;539437936945631706;406002;505555;417169;-1374;
2024-05-20T22:22:00.624;539437936963795292;406129;505762;417291;-1334;
2024-05-20T22:22:00.642;539437936981958878;406303;505964;417446;-1337;
2024-05-20T22:22:00.660;539437937000122464;406446;506068;417582;-1377;
2024-05-20T22:22:00.678;539437937018286050;406525;506237;417699;-1346;
2024-05-20T22:22:00.696;539437937036449636;406531;506327;417833;-1343;
2024-05-20T22:22:00.715;539437937054613222;406413;506270;417752;-1329;
2024-05-20T22:22:00.733;539437937072776808;406268;506046;417544;-1363;
2024-05-20T22:22:00.751;539437937090940394;406010;505667;417235;-1362;
2024-05-20T22:22:00.769;539437937109103980;405663;505292;416966;-1283;
2024-05-20T22:22:00.787;539437937127267566;405375;504926;416624;-1323;
2024-05-20T22:22:00.805;539437937145431152;405093;504595;416436;-1301;
2024-05-20T22:22:00.824;539437937163594738;404975;504325;416241;-1311;
2024-05-20T22:22:00.842;539437937181758324;404826;504179;416077;-1327;
2024-05-20T22:22:00.860;539437937199921910;404929;504173;416117;-1282;
2024-05-20T22:22:00.878;539437937218085496;404991;504207;416163;-1246;
2024-05-20T22:22:00.896;539437937236249082;405120;504287;416235;-1303;
2024-05-20T22:22:00.914;539437937254412708;405208;504421;416422;-1351;
2024-05-20T22:22:00.933;539437937272576294;405431;504521;416501;-1371;
2024-05-20T22:22:00.951;539437937290739880;405586;504796;416697;-1343;
2024-05-20T22:22:00.969;539437937308903466;405666;504940;416930;-1344;
2024-05-20T22:22:00.987;539437937327067052;405848;505217;417102;-1324;
2024-05-20T22:22:01.005;539437937345230638;406048;505442;417248;-1279;
2024-05-20T22:22:01.023;539437937363394224;406241;505583;417360;-1330;
2024-05-20T22:22:01.042;539437937381557810;406299;505689;417463;-1395;
2024-05-20T22:22:01.060;539437937399721396;406408;505861;417575;-1327;
2024-05-20T22:22:01.078;539437937417884982;406472;506051;417720;-1355;
2024-05-20T22:22:01.096;539437937436048568;406579;506200;417862;-1321;
2024-05-20T22:22:01.114;539437937454212154;406692;506303;417882;-1361;
2024-05-20T22:22:01.132;539437937472375740;406828;506437;418090;-1341;
2024-05-20T22:22:01.151;539437937490539326;406909;506538;418100;-1369;
2024-05-20T22:22:01.169;539437937508702912;407005;506653;418208;-1362;
2024-05-20T22:22:01.187;539437937526866498;407131;506816;418319;-1348;
2024-05-20T22:22:01.205;539437937545030084;407184;506902;418470;-1422;
2024-05-20T22:22:01.223;539437937563193670;407321;507080;418574;-1377;
2024-05-20T22:22:01.241;539437937581357256;407464;507237;418715;-1370;
2024-05-20T22:22:01.260;539437937599520842;407597;507451;418823;-1399;
2024-05-20T22:22:01.278;539437937617684428;407684;507518;418918;-1394;
2024-05-20T22:22:01.296;539437937635848014;407559;507529;418848;-1362;
2024-05-20T22:22:01.314;539437937654011600;407445;507355;418837;-1370;
2024-05-20T22:22:01.332;539437937672175186;407218;507052;418601;-1400;
2024-05-20T22:22:01.350;539437937690338772;406937;506744;418345;-1338;
2024-05-20T22:22:01.369;539437937708502358;406659;506344;418077;-1305;
2024-05-20T22:22:01.387;539437937726665944;406420;505993;417802;-1288;
2024-05-20T22:22:01.405;539437937744829530;406201;505672;417567;-1292;
2024-05-20T22:22:01.423;539437937762993116;406146;505469;417431;-1304;
2024-05-20T22:22:01.441;539437937781156702;406028;505404;417373;-1323;
2024-05-20T22:22:01.459;539437937799320288;406046;505343;417357;-1318;
2024-05-20T22:22:01.478;539437937817483874;406152;505393;417436;-1326;
2024-05-20T22:22:01.496;539437937835647460;406219;505550;417547;-1342;
2024-05-20T22:22:01.514;539437937853811046;406439;505710;417665;-1311;
2024-05-20T22:22:01.532;539437937871974632;406561;505880;417747;-1357;
2024-05-20T22:22:01.550;539437937890138218;406716;506102;417909;-1382;
2024-05-20T22:22:01.568;539437937908301804;406876;506244;418165;-1340;
2024-05-20T22:22:01.586;539437937926465390;407006;506454;418326;-1342;
2024-05-20T22:22:01.605;539437937944628976;407181;506661;418474;-1376;
2024-05-20T22:22:01.623;539437937962792562;407283;506794;418618;-1326;
2024-05-20T22:22:01.641;539437937980956148;407446;506887;418714;-1287;
2024-05-20T22:22:01.659;539437937999119734;407516;507161;418804;-1304;
2024-05-20T22:22:01.677;539437938017283853;407586;507187;418818;-1376;
2024-05-20T22:22:01.695;539437938035447948;407636;507333;418987;-1419;
2024-05-20T22:22:01.714;539437938053612043;407805;507435;419024;-1364;
2024-05-20T22:22:01.732;539437938071776138;407926;507573;419161;-1388;
2024-05-20T22:22:01.750;539437938089940233;407995;507666;419245;-1411;
2024-05-20T22:22:01.768;539437938108104328;408097;507747;419255;-1381;
2024-05-20T22:22:01.786;539437938126268423;408268;507956;419442;-1314;
2024-05-20T22:22:01.804;539437938144432518;408262;508088;419576;-1320;
2024-05-20T22:22:01.823;539437938162596613;408341;508196;419625;-1391;
2024-05-20T22:22:01.841;539437938180760708;408485;508397;419752;-1405;
2024-05-20T22:22:01.859;539437938198924803;408573;508483;419892;-1364;
2024-05-20T22:22:01.877;539437938217088898;408615;508514;419932;-1382;
2024-05-20T22:22:01.895;539437938235252993;408460;508352;419680;-1352;
2024-05-20T22:22:01.913;539437938253417088;408189;508004;419467;-1374;
2024-05-20T22:22:01.932;539437938271581183;407913;507616;419184;-1352;
2024-05-20T22:22:01.950;539437938289745278;407547;507188;418909;-1326;
2024-05-20T22:22:01.968;539437938307909373;407300;506780;418549;-1386;
2024-05-20T22:22:01.986;539437938326073468;407145;506582;418425;-1305;
2024-05-20T22:22:02.004;539437938344237563;407031;506350;418211;-1337;
2024-05-20T22:22:02.022;539437938362401658;406971;506220;418082;-1306;
2024-05-20T22:22:02.041;539437938380565753;406980;506154;418102;-1374;
2024-05-20T22:22:02.059;539437938398729848;406994;506136;418196;-1348;
2024-05-20T22:22:02.077;539437938416893943;407102;506296;418251;-1370;
2024-05-20T22:22:02.095;539437938435058038;407234;506446;418389;-1387;
2024-05-20T22:22:02.113;539437938453222133;407429;506637;418550;-1389;
2024-05-20T22:22:02.131;539437938471386228;407627;506897;418756;-1345;
2024-05-20T22:22:02.150;539437938489550323;407777;507084;418920;-1274;
2024-05-20T22:22:02.168;539437938507714418;407974;507316;419068;-1307;
2024-05-20T22:22:02.186;539437938525878513;408118;507448;419118;-1327;
2024-05-20T22:22:02.204;539437938544042608;408239;507615;419315;-1337;
2024-05-20T22:22:02.222;539437938562206703;408362;507732;419420;-1319;
2024-05-20T22:22:02.240;539437938580370798;408500;507958;419572;-1323;
2024-05-20T22:22:02.259;539437938598534893;408564;508005;419628;-1404;
2024-05-20T22:22:02.277;539437938616698988;408677;508166;419731;-1362;
2024-05-20T22:22:02.295;539437938634863083;408717;508311;419836;-1361;
2024-05-20T22:22:02.313;539437938653027178;408773;508434;419898;-1372;
2024-05-20T22:22:02.331;539437938671191273;408910;508585;419999;-1365;
2024-05-20T22:22:02.349;539437938689355368;409040;508698;420065;-1323;
2024-05-20T22:22:02.368;539437938707519463;409073;508794;420174;-1347;
2024-05-20T22:22:02.386;539437938725683558;409253;508966;420280;-1324;
2024-05-20T22:22:02.404;539437938743847653;409242;509051;420311;-1342;
2024-05-20T22:22:02.422;539437938762011748;409386;509211;420466;-1350;
2024-05-20T22:22:02.440;539437938780174563;409510;509275;420541;-1303;
2024-05-20T22:22:02.458;539437938798337350;409507;509335;420596;-1353;
2024-05-20T22:22:02.477;539437938816500137;409327;509221;420500;-1331;
2024-05-20T22:22:02.495;539437938834662924;409086;508915;420286;-1351;
2024-05-20T22:22:02.513;539437938852825711;408736;508431;419899;-1327;
2024-05-20T22:22:02.531;539437938870988498;408354;507923;419527;-1303;
2024-05-20T22:22:02.549;539437938889151285;407967;507384;419081;-1357;
2024-05-20T22:22:02.567;539437938907314072;407651;506930;418771;-1324;
2024-05-20T22:22:02.586;539437938925476859;407403;506538;418483;-1352;
2024-05-20T22:22:02.604;539437938943639646;407327;506374;418377;-1303;
2024-05-20T22:22:02.622;539437938961802433;407213;506186;418237;-1311;
2024-05-20T22:22:02.640;539437938979965220;407166;506113;418179;-1324;
2024-05-20T22:22:02.658;539437938998128007;407230;506139;418194;-1350;
2024-05-20T22:22:02.676;539437939016290794;407326;506240;418232;-1309;
2024-05-20T22:22:02.694;539437939034453581;407518;506408;418301;-1311;
2024-05-20T22:22:02.713;539437939052616368;407590;506506;418392;-1398;
2024-05-20T22:22:02.731;539437939070779155;407709;506639;418628;-1307;
2024-05-20T22:22:02.749;539437939088941942;407857;506841;418813;-1376;
2024-05-20T22:22:02.767;539437939107104729;407994;506955;418896;-1336;
2024-05-20T22:22:02.785;539437939125267516;408124;507095;418948;-1383;
2024-05-20T22:22:02.803;539437939143430303;408167;507229;419059;-1353;
2024-05-20T22:22:02.822;539437939161593090;408309;507366;419232;-1288;
2024-05-20T22:22:02.840;539437939179755877;408313;507424;419229;-1389;
2024-05-20T22:22:02.858;539437939197918664;408423;507532;419245;-1389;
2024-05-20T22:22:02.876;539437939216081451;408513;507690;419319;-1328;
2024-05-20T22:22:02.894;539437939234244238;408522;507784;419448;-1361;
2024-05-20T22:22:02.912;539437939252407025;408648;507844;419453;-1303;
2024-05-20T22:22:02.931;539437939270569812;408769;507967;419502;-1291;
2024-05-20T22:22:02.949;539437939288732599;408845;507979;419575;-1308;
2024-05-20T22:22:02.967;539437939306895386;408913;508065;419676;-1334;
2024-05-20T22:22:02.985;539437939325058173;408991;508210;419742;-1350;
2024-05-20T22:22:03.003;539437939343220960;409069;508354;419877;-1320;
2024-05-20T22:22:03.021;539437939361383747;409185;508421;419993;-1334;
2024-05-20T22:22:03.040;539437939379546534;409258;508566;420097;-1306;
2024-05-20T22:22:03.058;539437939397709321;409229;508564;420035;-1329;
2024-05-20T22:22:03.076;539437939415872108;409126;508460;419938;-1340;
2024-05-20T22:22:03.094;539437939434034895;408836;508160;419732;-1270;
2024-05-20T22:22:03.112;539437939452196877;408445;507669;419354;-1307;
2024-05-20T22:22:03.130;539437939470358859;408022;507098;418904;-1328;
2024-05-20T22:22:03.149;539437939488520841;407638;506555;418522;-1296;
2024-05-20T22:22:03.167;539437939506682823;407194;506050;418105;-1356;
2024-05-20T22:22:03.185;539437939524844805;406913;505661;417746;-1343;
2024-05-20T22:22:03.203;539437939543006787;406723;505351;417453;-1337;
2024-05-20T22:22:03.221;539437939561168769;406602;505144;417350;-1386;
2024-05-20T22:22:03.239;539437939579330751;406620;504988;417235;-1340;
2024-05-20T22:22:03.258;539437939597492733;406611;504915;417221;-1373;
2024-05-20T22:22:03.276;539437939615654715;406648;504958;417334;-1357;
2024-05-20T22:22:03.294;539437939633816697;406822;505145;417440;-1285;
2024-05-20T22:22:03.312;539437939651978679;406943;505265;417493;-1335;
2024-05-20T22:22:03.330;539437939670140661;407139;505435;417631;-1307;
2024-05-20T22:22:03.348;539437939688302643;407278;505632;417752;-1325;
2024-05-20T22:22:03.366;539437939706464625;407401;505770;417900;-1359;
2024-05-20T22:22:03.385;539437939724626607;407481;505975;418034;-1356;
2024-05-20T22:22:03.403;539437939742788589;407633;506070;418177;-1346;
2024-05-20T22:22:03.421;539437939760950571;407708;506187;418192;-1304;
2024-05-20T22:22:03.439;539437939779112553;407808;506266;418263;-1346;
2024-05-20T22:22:03.457;539437939797274535;407845;506404;418313;-1290;
2024-05-20T22:22:03.475;539437939815436517;407884;506440;418362;-1380;
2024-05-20T22:22:03.494;539437939833598499;407931;506518;418482;-1398;
2024-05-20T22:22:03.512;539437939851760481;408060;506678;418557;-1320;
2024-05-20T22:22:03.530;539437939869922463;408093;506705;418605;-1328;
2024-05-20T22:22:03.548;539437939888084445;408197;506820;418625;-1336;
2024-05-20T22:22:03.566;539437939906246427;408254;506941;418735;-1385;
2024-05-20T22:22:03.584;539437939924408409;408394;507087;418824;-1390;
2024-05-20T22:22:03.603;539437939942570391;408466;507182;418845;-1291;
2024-05-20T22:22:03.621;539437939960732373;408516;507272;419037;-1319;
2024-05-20T22:22:03.639;539437939978894355;408582;507384;419095;-1329;
2024-05-20T22:22:03.657;539437939997056337;408689;507529;419222;-1317;
2024-05-20T22:22:03.675;539437940015218319;408629;507457;419168;-1411;
2024-05-20T22:22:03.693;539437940033380301;408419;507293;418950;-1330;
2024-05-20T22:22:03.712;539437940051542283;408114;506867;418646;-1340;
2024-05-20T22:22:03.730;539437940069704265;407647;506351;418253;-1347;
2024-05-20T22:22:03.748;539437940087866247;407223;505728;417727;-1372;
2024-05-20T22:22:03.766;539437940106029020;406808;505222;417350;-1320;
2024-05-20T22:22:03.784;539437940124191768;406490;504731;417005;-1368;
2024-05-20T22:22:03.802;539437940142354516;406225;504340;416652;-1365;
2024-05-20T22:22:03.821;539437940160517264;406058;504002;416410;-1334;
2024-05-20T22:22:03.839;539437940178680012;405934;503898;416359;-1317;
2024-05-20T22:22:03.857;539437940196842760;405844;503818;416252;-1339;
2024-05-20T22:22:03.875;539437940215005508;406022;503869;416296;-1333;
2024-05-20T22:22:03.893;539437940233168256;406047;503870;416397;-1339;
2024-05-20T22:22:03.911;539437940251331004;406152;504101;416522;-1354;
2024-05-20T22:22:03.930;539437940269493752;406321;504214;416625;-1377;
2024-05-20T22:22:03.948;539437940287656500;406460;504367;416754;-1331;
2024-05-20T22:22:03.966;539437940305819248;406563;504507;416812;-1334;
2024-05-20T22:22:03.984;539437940323981996;406662;504602;416878;-1365;
2024-05-20T22:22:04.002;539437940342144744;406761;504817;417000;-1344;
2024-05-20T22:22:04.020;539437940360307492;406845;504942;417068;-1360;
2024-05-20T22:22:04.039;539437940378470240;406909;505091;417200;-1352;
2024-05-20T22:22:04.057;539437940396632988;407012;505180;417280;-1308;
2024-05-20T22:22:04.075;539437940414795736;407055;505183;417336;-1285;
2024-05-20T22:22:04.093;539437940432958484;407113;505320;417366;-1341;
2024-05-20T22:22:04.111;539437940451121232;407214;505332;417396;-1329;
2024-05-20T22:22:04.129;539437940469283980;407243;505401;417478;-1325;
2024-05-20T22:22:04.147;539437940487446728;407304;505575;417598;-1276;
2024-05-20T22:22:04.166;539437940505609476;407402;505613;417646;-1305;
2024-05-20T22:22:04.184;539437940523772224;407413;505700;417750;-1297;
2024-05-20T22:22:04.202;539437940541934972;407498;505879;417783;-1283;
2024-05-20T22:22:04.220;539437940560097720;407614;506015;417839;-1312;
2024-05-20T22:22:04.238;539437940578260468;407688;506024;417888;-1322;
2024-05-20T22:22:04.256;539437940596423216;407791;506176;418086;-1286;
2024-05-20T22:22:04.275;539437940614585964;407847;506222;418144;-1369;
2024-05-20T22:22:04.293;539437940632748712;407757;506137;418042;-1334;
2024-05-20T22:22:04.311;539437940650911460;407527;505831;417820;-1339;
2024-05-20T22:22:04.329;539437940669074208;407107;505416;417507;-1398;
2024-05-20T22:22:04.347;539437940687236956;406753;504897;417047;-1333;
2024-05-20T22:22:04.365;539437940705399704;406275;504376;416633;-1325;
2024-05-20T22:22:04.384;539437940723562452;405927;503873;416231;-1342;
2024-05-20T22:22:04.402;539437940741725200;405602;503365;415791;-1321;
2024-05-20T22:22:04.420;539437940759887948;405370;503064;415613;-1301;
2024-05-20T22:22:04.438;539437940778050696;405185;502862;415404;-1289;
2024-05-20T22:22:04.456;539437940796213444;405117;502696;415268;-1326;
2024-05-20T22:22:04.474;539437940814375452;405164;502675;415230;-1355;
2024-05-20T22:22:04.493;539437940832537436;405271;502791;415272;-1329;
2024-05-20T22:22:04.511;539437940850699420;405344;502838;415421;-1364;
2024-05-20T22:22:04.529;539437940868861404;405517;503022;415623;-1328;
2024-05-20T22:22:04.547;539437940887023388;405650;503170;415648;-1289;
2024-05-20T22:22:04.565;539437940905185372;405715;503315;415770;-1338;
2024-05-20T22:22:04.583;539437940923347356;405819;503470;415878;-1380;
2024-05-20T22:22:04.602;539437940941509340;405963;503607;415984;-1319;
2024-05-20T22:22:04.620;539437940959671324;406095;503802;416121;-1294;
2024-05-20T22:22:04.638;539437940977833308;406162;503923;416265;-1287;
2024-05-20T22:22:04.656;539437940995995292;406212;503946;416239;-1304;
2024-05-20T22:22:04.674;539437941014157276;406344;504004;416362;-1286;
2024-05-20T22:22:04.692;539437941032319260;406387;504136;416368;-1341;
2024-05-20T22:22:04.711;539437941050481244;406416;504171;416466;-1308;
2024-05-20T22:22:04.729;539437941068643228;406521;504290;416519;-1337;
2024-05-20T22:22:04.747;539437941086805212;406628;504394;416656;-1288;
2024-05-20T22:22:04.765;539437941104967196;406682;504505;416697;-1347;
2024-05-20T22:22:04.783;539437941123129180;406788;504644;416837;-1313;
2024-05-20T22:22:04.801;539437941141291164;406835;504723;416882;-1372;
2024-05-20T22:22:04.819;539437941159453148;406933;504871;416948;-1372;
2024-05-20T22:22:04.838;539437941177615132;407049;504958;417070;-1340;
2024-05-20T22:22:04.856;539437941195777116;407101;505113;417145;-1380;
2024-05-20T22:22:04.874;539437941213939100;407193;505096;417176;-1338;
2024-05-20T22:22:04.892;539437941232101084;406951;504945;417036;-1323;
2024-05-20T22:22:04.910;539437941250263068;406621;504604;416743;-1352;
2024-05-20T22:22:04.928;539437941268425052;406264;504151;416316;-1336;
2024-05-20T22:22:04.947;539437941286587036;405882;503587;415957;-1258;
2024-05-20T22:22:04.965;539437941304749020;405441;503013;415533;-1373;
2024-05-20T22:22:04.983;539437941322911004;405094;502491;415151;-1316;
2024-05-20T22:22:05.001;539437941341072988;404797;502061;414752;-1328;
2024-05-20T22:22:05.019;539437941359234972;404604;501760;414536;-1348;
2024-05-20T22:22:05.037;539437941377396956;404557;501631;414421;-1277;
2024-05-20T22:22:05.056;539437941395558940;404521;501513;414358;-1277;
2024-05-20T22:22:05.074;539437941413720924;404565;501542;414383;-1373;
2024-05-20T22:22:05.092;539437941431882908;404673;501623;414472;-1352;
2024-05-20T22:22:05.110;539437941450044892;404833;501810;414618;-1417;
2024-05-20T22:22:05.128;539437941468206876;404946;501997;414723;-1361;
2024-05-20T22:22:05.146;539437941486368860;405061;502197;414828;-1385;
2024-05-20T22:22:05.165;539437941504529497;405237;502359;415005;-1345;
2024-05-20T22:22:05.183;539437941522690098;405360;502511;415098;-1379;
2024-05-20T22:22:05.201;539437941540850699;405504;502689;415245;-1342;
2024-05-20T22:22:05.219;539437941559011300;405617;502814;415354;-1304;
2024-05-20T22:22:05.237;539437941577171901;405641;502994;415429;-1316;
2024-05-20T22:22:05.255;539437941595332502;405731;503046;415532;-1310;
2024-05-20T22:22:05.274;539437941613493103;405795;503107;415612;-1306;
2024-05-20T22:22:05.292;539437941631653704;405865;503192;415640;-1368;
2024-05-20T22:22:05.310;539437941649814305;405892;503307;415722;-1374;
2024-05-20T22:22:05.328;539437941667974906;405966;503417;415801;-1330;
2024-05-20T22:22:05.346;539437941686135507;406064;503473;415892;-1343;
2024-05-20T22:22:05.364;539437941704296108;406100;503542;415889;-1336;
2024-05-20T22:22:05.382;539437941722456709;406196;503608;415973;-1351;
2024-05-20T22:22:05.401;539437941740617310;406247;503711;416081;-1304;
2024-05-20T22:22:05.419;539437941758777911;406314;503865;416115;-1302;
2024-05-20T22:22:05.437;539437941776938512;406422;503994;416237;-1310;
2024-05-20T22:22:05.455;539437941795099113;406456;504031;416243;-1338;
2024-05-20T22:22:05.473;539437941813259714;406475;504111;416370;-1359;
2024-05-20T22:22:05.491;539437941831420315;406292;503945;416197;-1371;
2024-05-20T22:22:05.510;539437941849580916;405942;503437;415867;-1334;
2024-05-20T22:22:05.528;539437941867741517;405476;502941;415363;-1345;
2024-05-20T22:22:05.546;539437941885902118;405003;502329;414857;-1305;
2024-05-20T22:22:05.564;539437941904062719;404393;501662;414385;-1327;
2024-05-20T22:22:05.582;539437941922223320;404024;501092;413942;-1355;
2024-05-20T22:22:05.600;539437941940383921;403631;500486;413486;-1392;
2024-05-20T22:22:05.619;539437941958544522;403433;500158;413241;-1293;
2024-05-20T22:22:05.637;539437941976705123;403234;499828;413024;-1319;
2024-05-20T22:22:05.655;539437941994865724;403113;499693;412844;-1344;
2024-05-20T22:22:05.673;539437942013026325;403186;499739;412901;-1328;
2024-05-20T22:22:05.691;539437942031186926;403229;499809;412926;-1313;
2024-05-20T22:22:05.709;539437942049347527;403311;499829;412982;-1343;
2024-05-20T22:22:05.728;539437942067508128;403417;499997;413147;-1297;
2024-05-20T22:22:05.746;539437942085668729;403644;500167;413270;-1306;
2024-05-20T22:22:05.764;539437942103829330;403708;500376;413365;-1309;
2024-05-20T22:22:05.782;539437942121989931;403888;500563;413506;-1263;
2024-05-20T22:22:05.800;539437942140150532;403995;500671;413631;-1290;
2024-05-20T22:22:05.818;539437942158311133;404066;500772;413695;-1326;
2024-05-20T22:22:05.837;539437942176473187;404204;500926;413810;-1306;
2024-05-20T22:22:05.855;539437942194635211;404263;501036;413924;-1286;
2024-05-20T22:22:05.873;539437942212797235;404323;501125;414004;-1343;
2024-05-20T22:22:05.891;539437942230959259;404399;501243;414080;-1313;
2024-05-20T22:22:05.909;539437942249121283;404406;501267;414104;-1322;
2024-05-20T22:22:05.927;539437942267283307;404483;501317;414156;-1272;
2024-05-20T22:22:05.945;539437942285445331;404583;501439;414254;-1272;
2024-05-20T22:22:05.964;539437942303607355;404592;501494;414302;-1327;
2024-05-20T22:22:05.982;539437942321769379;404736;501708;414444;-1310;
2024-05-20T22:22:06.000;539437942339931403;404764;501762;414425;-1372;
2024-05-20T22:22:06.018;539437942358093427;404877;501854;414558;-1308;
2024-05-20T22:22:06.036;539437942376255451;404954;502056;414653;-1336;
2024-05-20T22:22:06.054;539437942394417475;405058;502106;414672;-1338;
2024-05-20T22:22:06.073;539437942412579499;405068;502221;414762;-1356;
2024-05-20T22:22:06.091;539437942430741523;404953;502050;414699;-1377;
2024-05-20T22:22:06.109;539437942448903547;404694;501767;414435;-1380;
2024-05-20T22:22:06.127;539437942467065571;404265;501265;414047;-1340;
2024-05-20T22:22:06.145;539437942485227595;403717;500608;413553;-1360;
2024-05-20T22:22:06.163;539437942503389619;403276;499911;413050;-1335;
2024-05-20T22:22:06.182;539437942521551643;402814;499357;412608;-1334;
2024-05-20T22:22:06.200;539437942539713667;402417;498868;412151;-1342;
2024-05-20T22:22:06.218;539437942557875691;402096;498483;411898;-1340;
2024-05-20T22:22:06.236;539437942576037715;402011;498300;411761;-1327;
2024-05-20T22:22:06.254;539437942594199739;401934;498077;411601;-1335;
2024-05-20T22:22:06.272;539437942612361763;401952;498083;411608;-1320;
2024-05-20T22:22:06.291;539437942630523787;401998;498133;411662;-1365;
2024-05-20T22:22:06.309;539437942648685811;402097;498304;411719;-1364;
2024-05-20T22:22:06.327;539437942666847835;402311;498436;411867;-1340;
2024-05-20T22:22:06.345;539437942685009859;402453;498594;411987;-1348;
2024-05-20T22:22:06.363;539437942703171883;402573;498782;412081;-1357;
2024-05-20T22:22:06.381;539437942721333907;402713;499005;412344;-1399;
2024-05-20T22:22:06.400;539437942739495931;402831;499165;412477;-1365;
2024-05-20T22:22:06.418;539437942757657955;402941;499263;412617;-1400;
2024-05-20T22:22:06.436;539437942775819979;403030;499407;412665;-1380;
2024-05-20T22:22:06.454;539437942793982003;403075;499539;412737;-1386;
2024-05-20T22:22:06.472;539437942812144027;403162;499647;412833;-1422;
2024-05-20T22:22:06.490;539437942830306051;403242;499783;412944;-1277;
2024-05-20T22:22:06.508;539437942848468075;403337;499898;413055;-1295;
2024-05-20T22:22:06.527;539437942866630099;403432;499991;413183;-1302;
2024-05-20T22:22:06.545;539437942884792123;403501;500077;413251;-1347;
2024-05-20T22:22:06.563;539437942902952562;403610;500159;413254;-1361;
2024-05-20T22:22:06.581;539437942921112999;403725;500296;413332;-1379;
2024-05-20T22:22:06.599;539437942939273436;403849;500458;413485;-1395;
2024-05-20T22:22:06.617;539437942957433873;403863;500583;413522;-1405;
2024-05-20T22:22:06.636;539437942975594310;404020;500785;413695;-1295;
2024-05-20T22:22:06.654;539437942993754747;404082;500858;413775;-1318;
2024-05-20T22:22:06.672;539437943011915184;404148;500938;413889;-1365;
2024-05-20T22:22:06.690;539437943030075621;404180;501032;414031;-1326;
2024-05-20T22:22:06.708;539437943048236058;403954;500832;413899;-1345;
2024-05-20T22:22:06.726;539437943066396495;403689;500524;413589;-1328;
2024-05-20T22:22:06.745;539437943084556932;403227;499868;413093;-1344;
2024-05-20T22:22:06.763;539437943102717369;402766;499415;412709;-1330;
2024-05-20T22:22:06.781;539437943120877806;402348;498848;412253;-1293;
2024-05-20T22:22:06.799;539437943139038243;401967;498290;411903;-1299;
2024-05-20T22:22:06.817;539437943157198680;401686;497920;411557;-1289;
2024-05-20T22:22:06.835;539437943175359117;401476;497615;411369;-1297;
2024-05-20T22:22:06.854;539437943193519554;401432;497462;411241;-1353;
2024-05-20T22:22:06.872;539437943211679991;401243;497459;411151;-1372;
2024-05-20T22:22:06.890;539437943229840428;401373;497396;411175;-1359;
2024-05-20T22:22:06.908;539437943248000865;401463;497492;411246;-1378;
2024-05-20T22:22:06.926;539437943266161302;401611;497662;411452;-1352;
2024-05-20T22:22:06.944;539437943284321739;401729;497913;411633;-1291;
2024-05-20T22:22:06.963;539437943302482176;401907;498127;411738;-1303;
2024-05-20T22:22:06.981;539437943320642613;402078;498268;411885;-1319;
2024-05-20T22:22:06.999;539437943338803050;402229;498451;411985;-1323;
2024-05-20T22:22:07.017;539437943356963487;402399;498632;412170;-1272;
2024-05-20T22:22:07.035;539437943375123924;402473;498833;412296;-1289;
2024-05-20T22:22:07.053;539437943393284361;402546;498936;412423;-1341;
2024-05-20T22:22:07.071;539437943411444798;402684;499052;412509;-1287;
2024-05-20T22:22:07.090;539437943429605235;402752;499118;412639;-1289;
2024-05-20T22:22:07.108;539437943447765672;402779;499242;412656;-1358;
2024-05-20T22:22:07.126;539437943465926109;402887;499375;412711;-1346;
2024-05-20T22:22:07.144;539437943484086546;402984;499468;412891;-1334;
2024-05-20T22:22:07.162;539437943502246983;403102;499596;412983;-1322;
2024-05-20T22:22:07.180;539437943520407420;403166;499779;413105;-1320;
2024-05-20T22:22:07.199;539437943538567857;403253;499873;413134;-1345;
2024-05-20T22:22:07.217;539437943556728294;403387;500008;413296;-1305;
2024-05-20T22:22:07.235;539437943574889949;403461;500219;413405;-1319;
2024-05-20T22:22:07.253;539437943593051592;403597;500285;413485;-1411;
2024-05-20T22:22:07.271;539437943611213235;403665;500422;413607;-1354;
2024-05-20T22:22:07.289;539437943629374878;403784;500564;413677;-1323;
2024-05-20T22:22:07.308;539437943647536521;403669;500463;413656;-1360;
2024-05-20T22:22:07.326;539437943665698164;403446;500207;413416;-1326;
2024-05-20T22:22:07.344;539437943683859807;403022;499820;413130;-1317;
2024-05-20T22:22:07.362;539437943702021450;402604;499328;412736;-1347;
2024-05-20T22:22:07.380;539437943720183093;402229;498854;412269;-1290;
2024-05-20T22:22:07.398;539437943738344736;401871;498350;411919;-1348;
2024-05-20T22:22:07.417;539437943756506379;401593;498024;411678;-1301;
2024-05-20T22:22:07.435;539437943774668022;401397;497688;411363;-1405;
2024-05-20T22:22:07.453;539437943792829665;401286;497552;411271;-1359;
2024-05-20T22:22:07.471;539437943810991308;401322;497453;411257;-1337;
2024-05-20T22:22:07.489;539437943829152951;401304;497474;411212;-1361;
2024-05-20T22:22:07.507;539437943847314594;401379;497597;411351;-1387;
2024-05-20T22:22:07.526;539437943865476237;401611;497802;411517;-1348;
2024-05-20T22:22:07.544;539437943883637880;401766;497981;411668;-1342;
2024-05-20T22:22:07.562;539437943901799523;401896;498236;411825;-1353;
2024-05-20T22:22:07.580;539437943919961166;402006;498349;411966;-1344;
2024-05-20T22:22:07.598;539437943938122809;402176;498553;412138;-1336;
2024-05-20T22:22:07.616;539437943956284452;402416;498696;412291;-1326;
2024-05-20T22:22:07.634;539437943974446095;402495;498904;412452;-1353;
2024-05-20T22:22:07.653;539437943992607738;402583;499039;412573;-1383;
2024-05-20T22:22:07.671;539437944010769381;402686;499239;412629;-1348;
2024-05-20T22:22:07.689;539437944028931024;402806;499322;412790;-1336;
2024-05-20T22:22:07.707;539437944047092667;402881;499515;412892;-1375;
2024-05-20T22:22:07.725;539437944065254310;402987;499654;412956;-1353;
2024-05-20T22:22:07.743;539437944083415953;403082;499785;413140;-1299;
2024-05-20T22:22:07.762;539437944101577596;403183;499970;413240;-1337;
2024-05-20T22:22:07.780;539437944119739239;403281;500056;413362;-1301;
2024-05-20T22:22:07.798;539437944137900882;403342;500168;413481;-1394;
2024-05-20T22:22:07.816;539437944156062525;403525;500336;413610;-1329;
2024-05-20T22:22:07.834;539437944174224168;403614;500541;413703;-1291;
2024-05-20T22:22:07.852;539437944192385811;403720;500678;413851;-1371;
2024-05-20T22:22:07.871;539437944210547454;403837;500852;414017;-1338;
2024-05-20T22:22:07.889;539437944228709097;403858;501020;414048;-1308;
2024-05-20T22:22:07.907;539437944246870740;403829;500956;414068;-1312;
2024-05-20T22:22:07.925;539437944265032383;403574;500704;413853;-1345;
2024-05-20T22:22:07.943;539437944283194026;403216;500257;413436;-1336;
2024-05-20T22:22:07.961;539437944301356023;402833;499794;413102;-1320;
2024-05-20T22:22:07.980;539437944319517985;402385;499265;412696;-1269;
2024-05-20T22:22:07.998;539437944337679947;402033;498794;412302;-1361;
2024-05-20T22:22:08.016;539437944355841909;401765;498407;412017;-1346;
2024-05-20T22:22:08.034;539437944374003871;401557;498149;411779;-1319;
2024-05-20T22:22:08.052;539437944392165833;401456;497969;411685;-1319;
2024-05-20T22:22:08.070;539437944410327795;401379;497915;411606;-1375;
2024-05-20T22:22:08.089;539437944428489757;401431;497908;411647;-1344;
2024-05-20T22:22:08.107;539437944446651719;401579;498097;411731;-1285;
2024-05-20T22:22:08.125;539437944464813681;401702;498216;411807;-1368;
2024-05-20T22:22:08.143;539437944482975643;401844;498382;412002;-1376;
2024-05-20T22:22:08.161;539437944501137605;402027;498551;412199;-1368;
2024-05-20T22:22:08.179;539437944519299567;402174;498814;412378;-1313;
2024-05-20T22:22:08.197;539437944537461529;402263;498931;412522;-1339;
2024-05-20T22:22:08.216;539437944555623491;402376;499103;412610;-1324;
2024-05-20T22:22:08.234;539437944573785453;402504;499292;412778;-1324;
2024-05-20T22:22:08.252;539437944591947415;402600;499439;412862;-1319;
2024-05-20T22:22:08.270;539437944610109377;402740;499576;412958;-1333;
2024-05-20T22:22:08.288;539437944628271339;402804;499683;413075;-1308;
2024-05-20T22:22:08.306;539437944646433301;402899;499857;413180;-1324;
2024-05-20T22:22:08.325;539437944664595263;402898;499922;413285;-1375;
2024-05-20T22:22:08.343;539437944682757225;402954;500089;413314;-1343;
2024-05-20T22:22:08.361;539437944700919187;403105;500248;413419;-1345;
2024-05-20T22:22:08.379;539437944719081149;403172;500347;413563;-1326;
2024-05-20T22:22:08.397;539437944737243111;403327;500571;413657;-1326;
2024-05-20T22:22:08.415;539437944755405073;403454;500702;413768;-1276;
2024-05-20T22:22:08.434;539437944773567035;403545;500797;413836;-1346;
2024-05-20T22:22:08.452;539437944791728997;403673;501009;413977;-1263;
2024-05-20T22:22:08.470;539437944809890959;403696;501057;414103;-1387;
2024-05-20T22:22:08.488;539437944828052921;403824;501316;414290;-1337;
2024-05-20T22:22:08.506;539437944846214883;403771;501272;414345;-1380;
2024-05-20T22:22:08.524;539437944864376845;403598;501084;414179;-1355;
2024-05-20T22:22:08.543;539437944882538807;403355;500801;413913;-1337;
2024-05-20T22:22:08.561;539437944900700769;402896;500357;413539;-1399;
2024-05-20T22:22:08.579;539437944918862731;402443;499788;413049;-1333;
2024-05-20T22:22:08.597;539437944937024693;402130;499329;412686;-1350;
2024-05-20T22:22:08.615;539437944955186655;401690;498907;412301;-1362;
2024-05-20T22:22:08.633;539437944973349143;401440;498516;412093;-1323;
2024-05-20T22:22:08.652;539437944991511603;401247;498260;411913;-1312;
2024-05-20T22:22:08.670;539437945009674063;401175;498096;411782;-1321;
2024-05-20T22:22:08.688;539437945027836523;401213;498111;411744;-1377;
2024-05-20T22:22:08.706;539437945045998983;401285;498130;411757;-1353;
2024-05-20T22:22:08.724;539437945064161443;401395;498297;411945;-1331;
2024-05-20T22:22:08.742;539437945082323903;401502;498482;412017;-1297;
2024-05-20T22:22:08.761;539437945100486363;401697;498652;412249;-1291;
2024-05-20T22:22:08.779;539437945118648823;401819;498871;412337;-1338;
2024-05-20T22:22:08.797;539437945136811283;402030;499024;412520;-1329;
2024-05-20T22:22:08.815;539437945154973743;402192;499267;412716;-1390;
2024-05-20T22:22:08.833;539437945173136203;402295;499409;412892;-1359;
2024-05-20T22:22:08.851;539437945191298663;402442;499613;412946;-1322;
2024-05-20T22:22:08.869;539437945209461123;402562;499798;413127;-1391;
2024-05-20T22:22:08.888;539437945227623583;402696;499952;413162;-1352;
2024-05-20T22:22:08.906;539437945245786043;402847;500039;413329;-1285;
2024-05-20T22:22:08.924;539437945263948503;402931;500197;413403;-1338;
2024-05-20T22:22:08.942;539437945282110963;402996;500287;413537;-1305;
2024-05-20T22:22:08.960;539437945300273423;403070;500465;413616;-1374;
2024-05-20T22:22:08.978;539437945318435883;403235;500597;413762;-1308;
2024-05-20T22:22:08.997;539437945336598343;403274;500691;413839;-1359;
2024-05-20T22:22:09.015;539437945354760803;403372;500850;413924;-1356;
2024-05-20T22:22:09.033;539437945372923263;403511;500975;414015;-1301;
2024-05-20T22:22:09.051;539437945391085723;403647;501170;414175;-1316;
2024-05-20T22:22:09.069;539437945409248183;403775;501404;414372;-1341;
2024-05-20T22:22:09.087;539437945427410643;403840;501486;414467;-1359;
2024-05-20T22:22:09.106;539437945445573103;404011;501683;414633;-1248;
2024-05-20T22:22:09.124;539437945463735563;404008;501746;414632;-1329;
2024-05-20T22:22:09.142;539437945481898023;403875;501628;414585;-1336;
2024-05-20T22:22:09.160;539437945500060483;403579;501333;414325;-1301;
2024-05-20T22:22:09.178;539437945518222943;403173;500922;413955;-1313;
2024-05-20T22:22:09.196;539437945536385403;402787;500448;413484;-1308;
2024-05-20T22:22:09.215;539437945554547863;402409;500013;413189;-1296;
2024-05-20T22:22:09.233;539437945572710323;402114;499594;412897;-1345;
2024-05-20T22:22:09.251;539437945590872783;401933;499277;412690;-1334;
2024-05-20T22:22:09.269;539437945609035243;401770;499064;412454;-1388;
2024-05-20T22:22:09.287;539437945627197703;401743;498885;412293;-1380;
2024-05-20T22:22:09.305;539437945645360163;401712;498904;412396;-1356;
2024-05-20T22:22:09.324;539437945663522623;401764;498966;412423;-1354;
2024-05-20T22:22:09.342;539437945681685083;401809;499129;412559;-1323;
2024-05-20T22:22:09.360;539437945699847543;402015;499340;412670;-1346;
2024-05-20T22:22:09.378;539437945718010003;402173;499523;412834;-1317;
2024-05-20T22:22:09.396;539437945736172068;402317;499706;413024;-1359;
2024-05-20T22:22:09.414;539437945754334129;402414;499936;413118;-1407;
2024-05-20T22:22:09.433;539437945772496190;402619;500123;413358;-1345;
2024-05-20T22:22:09.451;539437945790658251;402745;500259;413481;-1309;
2024-05-20T22:22:09.469;539437945808820312;402815;500428;413581;-1340;
2024-05-20T22:22:09.487;539437945826982373;402958;500642;413705;-1312;
2024-05-20T22:22:09.505;539437945845144434;403090;500785;413837;-1346;
2024-05-20T22:22:09.523;539437945863306495;403205;500850;413877;-1351;
2024-05-20T22:22:09.541;539437945881468556;403257;500970;413980;-1347;
2024-05-20T22:22:09.560;539437945899630617;403361;501152;414087;-1325;
2024-05-20T22:22:09.578;539437945917792678;403470;501262;414167;-1297;
2024-05-20T22:22:09.596;539437945935954739;403583;501407;414331;-1308;
2024-05-20T22:22:09.614;539437945954116800;403604;501540;414387;-1323;
2024-05-20T22:22:09.632;539437945972278861;403649;501637;414450;-1347;
2024-05-20T22:22:09.650;539437945990440922;403822;501783;414599;-1299;
2024-05-20T22:22:09.669;539437946008602983;403959;501968;414774;-1322;
2024-05-20T22:22:09.687;539437946026765044;404110;502217;414983;-1302;
2024-05-20T22:22:09.705;539437946044927105;404190;502365;415040;-1352;
2024-05-20T22:22:09.723;539437946063089166;404362;502533;415202;-1302;
2024-05-20T22:22:09.741;539437946081251227;404349;502593;415273;-1327;
2024-05-20T22:22:09.759;539437946099413288;404219;502499;415162;-1306;
2024-05-20T22:22:09.778;539437946117575349;404017;502232;414933;-1348;
2024-05-20T22:22:09.796;539437946135737410;403696;501834;414669;-1335;
2024-05-20T22:22:09.814;539437946153899471;403299;501424;414313;-1248;
2024-05-20T22:22:09.832;539437946172061532;402966;500972;413979;-1284;
2024-05-20T22:22:09.850;539437946190223593;402633;500601;413639;-1304;
2024-05-20T22:22:09.868;539437946208385654;402472;500310;413391;-1319;
2024-05-20T22:22:09.887;539437946226547715;402322;500093;413211;-1300;
2024-05-20T22:22:09.905;539437946244709776;402271;500031;413168;-1362;
2024-05-20T22:22:09.923;539437946262871837;402342;500047;413205;-1335;
2024-05-20T22:22:09.941;539437946281033898;402364;500055;413245;-1327;
2024-05-20T22:22:09.959;539437946299195959;402438;500221;413357;-1329;
2024-05-20T22:22:09.977;539437946317358020;402647;500380;413534;-1301;
2024-05-20T22:22:09.996;539437946335520081;402713;500485;413643;-1344;
2024-05-20T22:22:10.014;539437946353682142;402990;500784;413785;-1321;
2024-05-20T22:22:10.032;539437946371844203;403105;500933;413907;-1356;
2024-05-20T22:22:10.050;539437946390006264;403243;501169;414024;-1347;
2024-05-20T22:22:10.068;539437946408168325;403303;501246;414179;-1376;
2024-05-20T22:22:10.086;539437946426330386;403387;501404;414309;-1358;
2024-05-20T22:22:10.105;539437946444492447;403489;501582;414477;-1312;
2024-05-20T22:22:10.123;539437946462654508;403472;501625;414512;-1353;
2024-05-20T22:22:10.141;539437946480816569;403588;501754;414580;-1364;
2024-05-20T22:22:10.159;539437946498979443;403662;501882;414607;-1355;
2024-05-20T22:22:10.177;539437946517142303;403727;501939;414755;-1350;
2024-05-20T22:22:10.195;539437946535305163;403733;502022;414832;-1356;
2024-05-20T22:22:10.213;539437946553468023;403864;502196;414925;-1329;
2024-05-20T22:22:10.232;539437946571630883;404009;502354;415064;-1353;
2024-05-20T22:22:10.250;539437946589793743;404066;502440;415091;-1327;
2024-05-20T22:22:10.268;539437946607956603;404188;502544;415192;-1357;
2024-05-20T22:22:10.286;539437946626119463;404181;502659;415294;-1352;
2024-05-20T22:22:10.304;539437946644282323;404210;502791;415361;-1411;
2024-05-20T22:22:10.322;539437946662445183;404377;502978;415520;-1381;
2024-05-20T22:22:10.341;539437946680608043;404373;503065;415559;-1373;
2024-05-20T22:22:10.359;539437946698770903;404321;503057;415560;-1374;
2024-05-20T22:22:10.377;539437946716933763;404137;502809;415365;-1380;
2024-05-20T22:22:10.395;539437946735096623;403786;502416;415045;-1414;
2024-05-20T22:22:10.413;539437946753259483;403451;502003;414743;-1437;
2024-05-20T22:22:10.431;539437946771422343;402967;501565;414401;-1416;
2024-05-20T22:22:10.450;539437946789585203;402619;501060;413998;-1412;
2024-05-20T22:22:10.468;539437946807748063;402398;500818;413741;-1325;
2024-05-20T22:22:10.486;539437946825910923;402256;500538;413512;-1295;
2024-05-20T22:22:10.504;539437946844073783;402125;500349;413447;-1327;
2024-05-20T22:22:10.522;539437946862236643;402026;500328;413332;-1403;
2024-05-20T22:22:10.540;539437946880399503;402102;500311;413288;-1386;
2024-05-20T22:22:10.559;539437946898562363;402087;500366;413308;-1397;
2024-05-20T22:22:10.577;539437946916725223;402218;500500;413529;-1393;
2024-05-20T22:22:10.595;539437946934888083;402348;500615;413659;-1381;
2024-05-20T22:22:10.613;539437946953050943;402544;500926;413861;-1306;
2024-05-20T22:22:10.631;539437946971213803;402640;501025;413971;-1361;
2024-05-20T22:22:10.649;539437946989376663;402854;501263;414160;-1351;
2024-05-20T22:22:10.668;539437947007539523;402974;501445;414283;-1290;
2024-05-20T22:22:10.686;539437947025702383;403108;501608;414454;-1358;
2024-05-20T22:22:10.704;539437947043865243;403217;501756;414562;-1345;
2024-05-20T22:22:10.722;539437947062028103;403274;501908;414682;-1316;
2024-05-20T22:22:10.740;539437947080190963;403364;502056;414742;-1312;
2024-05-20T22:22:10.758;539437947098353823;403443;502122;414814;-1369;
2024-05-20T22:22:10.777;539437947116516683;403548;502310;414922;-1334;
2024-05-20T22:22:10.795;539437947134679543;403679;502546;415103;-1276;
2024-05-20T22:22:10.813;539437947152842403;403781;502617;415216;-1301;
2024-05-20T22:22:10.831;539437947171005263;403955;502752;415348;-1335;
2024-05-20T22:22:10.849;539437947189168123;404057;502905;415407;-1388;
2024-05-20T22:22:10.867;539437947207330983;404207;503032;415588;-1355;
2024-05-20T22:22:10.886;539437947225493843;404368;503377;415686;-1337;
2024-05-20T22:22:10.904;539437947243656703;404441;503529;415903;-1313;
2024-05-20T22:22:10.922;539437947261819032;404498;503572;415972;-1359;
2024-05-20T22:22:10.940;539437947279981347;404756;503815;416149;-1358;
2024-05-20T22:22:10.958;539437947298143662;404796;504003;416235;-1293;
2024-05-20T22:22:10.976;539437947316305977;404787;504022;416243;-1283;
2024-05-20T22:22:10.994;539437947334468292;404544;503724;416063;-1345;
2024-05-20T22:22:11.013;539437947352630607;404237;503444;415810;-1411;
2024-05-20T22:22:11.031;539437947370792922;403934;502977;415482;-1335;
2024-05-20T22:22:11.049;539437947388955237;403555;502543;415170;-1317;
2024-05-20T22:22:11.067;539437947407117552;403166;502176;414762;-1311;
2024-05-20T22:22:11.085;539437947425279867;402939;501789;414486;-1294;
2024-05-20T22:22:11.103;539437947443442182;402715;501535;414230;-1292;
2024-05-20T22:22:11.122;539437947461604497;402650;501374;414059;-1293;
2024-05-20T22:22:11.140;539437947479766812;402637;501282;414096;-1277;
2024-05-20T22:22:11.158;539437947497929127;402597;501256;414082;-1324;
2024-05-20T22:22:11.176;539437947516091442;402701;501417;414151;-1282;
2024-05-20T22:22:11.194;539437947534253757;402857;501577;414319;-1360;
2024-05-20T22:22:11.212;539437947552416072;403087;501744;414510;-1353;
2024-05-20T22:22:11.231;539437947570578387;403199;501978;414622;-1318;
2024-05-20T22:22:11.249;539437947588740702;403436;502261;414842;-1305;
2024-05-20T22:22:11.267;539437947606903017;403661;502440;415022;-1373;
2024-05-20T22:22:11.285;539437947625065332;403793;502666;415294;-1301;
2024-05-20T22:22:11.303;539437947643227647;404008;502885;415339;-1334;
2024-05-20T22:22:11.321;539437947661389962;404187;503085;415548;-1328;
2024-05-20T22:22:11.340;539437947679552277;404237;503203;415661;-1383;
2024-05-20T22:22:11.358;539437947697714592;404352;503436;415758;-1356;
2024-05-20T22:22:11.376;539437947715876907;404481;503624;415862;-1328;
2024-05-20T22:22:11.394;539437947734039222;404597;503748;415983;-1365;
2024-05-20T22:22:11.412;539437947752201537;404658;503855;416130;-1330;
2024-05-20T22:22:11.430;539437947770363852;404827;504068;416241;-1311;
2024-05-20T22:22:11.449;539437947788526167;404961;504167;416372;-1302;
2024-05-20T22:22:11.467;539437947806688482;405070;504398;416491;-1290;
2024-05-20T22:22:11.485;539437947824850797;405225;504574;416642;-1274;
2024-05-20T22:22:11.503;539437947843013112;405365;504729;416863;-1312;
2024-05-20T22:22:11.521;539437947861175427;405475;504855;416854;-1362;
2024-05-20T22:22:11.539;539437947879337742;405614;505062;417010;-1346;
2024-05-20T22:22:11.558;539437947897500057;405760;505280;417156;-1339;
2024-05-20T22:22:11.576;539437947915662372;405918;505426;417322;-1283;
2024-05-20T22:22:11.594;539437947933824687;405870;505448;417284;-1355;
2024-05-20T22:22:11.612;539437947951987002;405716;505296;417216;-1308;
2024-05-20T22:22:11.630;539437947970149317;405367;504898;416874;-1325;
2024-05-20T22:22:11.648;539437947988311632;404959;504480;416569;-1292;
2024-05-20T22:22:11.667;539437948006473947;404592;504050;416222;-1309;
2024-05-20T22:22:11.685;539437948024634802;404262;503611;415851;-1346;
2024-05-20T22:22:11.703;539437948042795627;403939;503234;415482;-1344;
2024-05-20T22:22:11.721;539437948060956452;403698;503010;415299;-1316;
2024-05-20T22:22:11.739;539437948079117277;403610;502850;415211;-1324;
2024-05-20T22:22:11.757;539437948097278102;403533;502691;415094;-1370;
2024-05-20T22:22:11.775;539437948115438927;403647;502698;415122;-1330;
2024-05-20T22:22:11.794;539437948133599752;403760;502839;415160;-1290;
2024-05-20T22:22:11.812;539437948151760577;403824;502978;415262;-1292;
2024-05-20T22:22:11.830;539437948169921402;403996;503146;415398;-1299;
2024-05-20T22:22:11.848;539437948188082227;404191;503304;415568;-1327;
2024-05-20T22:22:11.866;539437948206243052;404324;503526;415682;-1357;
2024-05-20T22:22:11.884;539437948224403877;404536;503680;415964;-1305;
2024-05-20T22:22:11.903;539437948242564702;404660;504024;416114;-1305;
2024-05-20T22:22:11.921;539437948260725527;404810;504141;416211;-1331;
2024-05-20T22:22:11.939;539437948278886352;404964;504345;416356;-1398;
2024-05-20T22:22:11.957;539437948297047177;405049;504463;416550;-1400;
2024-05-20T22:22:11.975;539437948315208002;405202;504580;416553;-1334;
2024-05-20T22:22:11.993;539437948333368827;405219;504670;416657;-1339;
2024-05-20T22:22:12.012;539437948351529652;405364;504813;416746;-1337;
2024-05-20T22:22:12.030;539437948369690477;405357;504892;416848;-1340;
2024-05-20T22:22:12.048;539437948387851302;405462;505036;416969;-1337;
2024-05-20T22:22:12.066;539437948406012127;405530;505133;417061;-1357;
2024-05-20T22:22:12.084;539437948424172952;405610;505319;417203;-1311;
2024-05-20T22:22:12.102;539437948442333777;405765;505455;417204;-1369;
2024-05-20T22:22:12.121;539437948460494602;405818;505584;417269;-1378;
2024-05-20T22:22:12.139;539437948478655427;405966;505704;417448;-1350;
2024-05-20T22:22:12.157;539437948496816252;406025;505893;417573;-1323;
2024-05-20T22:22:12.175;539437948514977077;406102;505980;417658;-1323;
2024-05-20T22:22:12.193;539437948533137902;406065;506009;417649;-1372;
2024-05-20T22:22:12.211;539437948551298727;405836;505797;417497;-1341;
2024-05-20T22:22:12.229;539437948569459552;405568;505414;417218;-1348;
2024-05-20T22:22:12.248;539437948587620377;405146;504937;416777;-1352;
2024-05-20T22:22:12.266;539437948605781202;404737;504432;416366;-1364;
2024-05-20T22:22:12.284;539437948623942027;404362;504048;416032;-1350;
2024-05-20T22:22:12.302;539437948642102852;404066;503650;415703;-1365;
2024-05-20T22:22:12.320;539437948660263677;403867;503352;415517;-1357;
2024-05-20T22:22:12.338;539437948678424502;403747;503139;415354;-1342;
2024-05-20T22:22:12.357;539437948696585327;403756;503027;415305;-1350;
2024-05-20T22:22:12.375;539437948714746152;403793;503059;415282;-1341;
2024-05-20T22:22:12.393;539437948732906977;403922;503142;415363;-1341;
2024-05-20T22:22:12.411;539437948751067802;404101;503369;415530;-1282;
2024-05-20T22:22:12.429;539437948769228627;404222;503560;415663;-1282;
2024-05-20T22:22:12.447;539437948787385849;404373;503744;415837;-1375;
2024-05-20T22:22:12.466;539437948805543041;404556;503912;416011;-1373;
2024-05-20T22:22:12.484;539437948823700233;404709;504189;416218;-1351;
2024-05-20T22:22:12.502;539437948841857425;404830;504296;416317;-1382;
2024-05-20T22:22:12.520;539437948860014617;405046;504482;416452;-1347;
2024-05-20T22:22:12.538;539437948878171809;405213;504770;416624;-1353;
2024-05-20T22:22:12.556;539437948896329001;405319;504848;416695;-1363;
2024-05-20T22:22:12.575;539437948914486193;405396;504956;416794;-1385;
2024-05-20T22:22:12.593;539437948932643385;405439;505057;416922;-1429;
2024-05-20T22:22:12.611;539437948950800577;405543;505188;417041;-1451;
2024-05-20T22:22:12.629;539437948968957769;405687;505370;417118;-1360;
2024-05-20T22:22:12.647;539437948987114961;405795;505473;417207;-1276;
2024-05-20T22:22:12.665;539437949005272153;405862;505645;417377;-1346;
2024-05-20T22:22:12.683;539437949023429345;406022;505753;417493;-1289;
2024-05-20T22:22:12.702;539437949041586537;406156;505904;417597;-1342;
2024-05-20T22:22:12.720;539437949059743729;406231;506060;417687;-1305;
2024-05-20T22:22:12.738;539437949077900921;406370;506235;417805;-1339;
2024-05-20T22:22:12.756;539437949096058113;406490;506355;417881;-1303;
2024-05-20T22:22:12.774;539437949114215305;406470;506393;417936;-1314;
2024-05-20T22:22:12.792;539437949132372497;406263;506219;417741;-1360;
2024-05-20T22:22:12.811;539437949150529689;405987;505877;417497;-1403;
2024-05-20T22:22:12.829;539437949168686881;405629;505433;417150;-1333;
2024-05-20T22:22:12.847;539437949186844073;405157;504909;416735;-1380;
2024-05-20T22:22:12.865;539437949205001265;404790;504364;416334;-1340;
2024-05-20T22:22:12.883;539437949223158457;404364;503875;415886;-1379;
2024-05-20T22:22:12.901;539437949241315649;404037;503490;415547;-1427;
2024-05-20T22:22:12.920;539437949259472841;403916;503265;415350;-1394;
2024-05-20T22:22:12.938;539437949277630033;403682;503002;415181;-1421;
2024-05-20T22:22:12.956;539437949295787225;403709;502906;415130;-1331;
2024-05-20T22:22:12.974;539437949313944417;403782;502968;415164;-1346;
2024-05-20T22:22:12.992;539437949332101609;403861;502989;415241;-1334;
2024-05-20T22:22:13.010;539437949350258801;403959;503119;415299;-1382;
2024-05-20T22:22:13.028;539437949368415993;404089;503320;415460;-1374;
2024-05-20T22:22:13.047;539437949386573185;404254;503552;415567;-1382;
2024-05-20T22:22:13.065;539437949404730377;404442;503678;415762;-1380;
2024-05-20T22:22:13.083;539437949422887569;404625;503865;415942;-1333;
2024-05-20T22:22:13.101;539437949441047792;404692;504087;416060;-1364;
2024-05-20T22:22:13.119;539437949459207997;404865;504316;416173;-1286;
2024-05-20T22:22:13.137;539437949477368202;404963;504387;416209;-1372;
2024-05-20T22:22:13.156;539437949495528407;405071;504512;416346;-1340;
2024-05-20T22:22:13.174;539437949513688612;405171;504631;416490;-1335;
2024-05-20T22:22:13.192;539437949531848817;405220;504641;416578;-1293;
2024-05-20T22:22:13.210;539437949550009022;405315;504750;416606;-1267;
2024-05-20T22:22:13.228;539437949568169227;405381;504904;416729;-1285;
2024-05-20T22:22:13.246;539437949586329432;405469;504987;416762;-1337;
2024-05-20T22:22:13.265;539437949604489637;405524;505019;416847;-1302;
2024-05-20T22:22:13.283;539437949622649842;405563;505188;416947;-1273;
2024-05-20T22:22:13.301;539437949640810047;405675;505341;417050;-1354;
2024-05-20T22:22:13.319;539437949658970252;405804;505522;417185;-1339;
2024-05-20T22:22:13.337;539437949677130457;405901;505575;417234;-1383;
2024-05-20T22:22:13.355;539437949695290662;405970;505746;417358;-1304;
2024-05-20T22:22:13.373;539437949713450867;405926;505766;417301;-1342;
2024-05-20T22:22:13.392;539437949731611072;405797;505584;417176;-1393;
2024-05-20T22:22:13.410;539437949749771277;405428;505195;416932;-1350;
2024-05-20T22:22:13.428;539437949767931482;405009;504642;416490;-1311;
2024-05-20T22:22:13.446;539437949786091687;404492;504013;416009;-1286;
2024-05-20T22:22:13.464;539437949804251892;404036;503494;415585;-1309;
2024-05-20T22:22:13.482;539437949822412097;403628;502851;415091;-1352;
2024-05-20T22:22:13.501;539437949840572302;403242;502405;414699;-1357;
2024-05-20T22:22:13.519;539437949858732507;403031;502024;414438;-1355;
2024-05-20T22:22:13.537;539437949876892712;402822;501768;414312;-1321;
2024-05-20T22:22:13.555;539437949895052917;402790;501631;414135;-1371;
2024-05-20T22:22:13.573;539437949913213122;402774;501566;414166;-1378;
2024-05-20T22:22:13.591;539437949931373327;402854;501613;414222;-1338;
2024-05-20T22:22:13.610;539437949949533532;402935;501667;414304;-1385;
2024-05-20T22:22:13.628;539437949967693737;403115;501822;414418;-1342;
2024-05-20T22:22:13.646;539437949985853942;403309;502022;414519;-1339;
2024-05-20T22:22:13.664;539437950004014147;403429;502237;414692;-1339;
2024-05-20T22:22:13.682;539437950022174352;403624;502400;414864;-1383;
2024-05-20T22:22:13.700;539437950040334557;403844;502648;415103;-1309;
2024-05-20T22:22:13.719;539437950058494762;403948;502780;415131;-1339;
2024-05-20T22:22:13.737;539437950076654967;404061;502974;415296;-1346;
2024-05-20T22:22:13.755;539437950094815172;404164;503085;415391;-1314;
2024-05-20T22:22:13.773;539437950112975377;404242;503154;415478;-1302;
2024-05-20T22:22:13.791;539437950131135582;404336;503292;415530;-1312;
2024-05-20T22:22:13.809;539437950149296399;404441;503362;415637;-1404;
2024-05-20T22:22:13.827;539437950167457207;404435;503450;415691;-1372;
2024-05-20T22:22:13.846;539437950185618015;404517;503510;415810;-1375;
2024-05-20T22:22:13.864;539437950203778823;404685;503708;415938;-1369;
2024-05-20T22:22:13.882;539437950221939631;404689;503766;415910;-1414;
2024-05-20T22:22:13.900;539437950240100439;404842;503876;416043;-1420;
2024-05-20T22:22:13.918;539437950258261247;404981;504033;416157;-1352;
2024-05-20T22:22:13.936;539437950276422055;405111;504235;416295;-1383;
2024-05-20T22:22:13.955;539437950294582863;405259;504393;416418;-1309;
2024-05-20T22:22:13.973;539437950312743671;405292;504395;416549;-1345;
2024-05-20T22:22:13.991;539437950330904479;405275;504560;416661;-1296;
2024-05-20T22:22:14.009;539437950349065287;405089;504381;416519;-1270;
2024-05-20T22:22:14.027;539437950367226095;404788;503955;416148;-1341;
2024-05-20T22:22:14.045;539437950385386903;404426;503409;415756;-1331;
2024-05-20T22:22:14.064;539437950403547711;403853;502822;415215;-1376;
2024-05-20T22:22:14.082;539437950421708519;403365;502278;414701;-1419;
2024-05-20T22:22:14.100;539437950439869327;402959;501691;414254;-1417;
2024-05-20T22:22:14.118;539437950458030135;402581;501217;413896;-1403;
2024-05-20T22:22:14.136;539437950476190943;402288;500771;413652;-1377;
2024-05-20T22:22:14.154;539437950494351751;402232;500576;413489;-1376;
2024-05-20T22:22:14.173;539437950512512559;402180;500451;413412;-1400;
2024-05-20T22:22:14.191;539437950530673367;402223;500485;413450;-1348;
2024-05-20T22:22:14.209;539437950548834175;402274;500519;413416;-1356;
2024-05-20T22:22:14.227;539437950566994983;402397;500613;413597;-1307;
2024-05-20T22:22:14.245;539437950585155791;402592;500756;413720;-1313;
2024-05-20T22:22:14.263;539437950603316599;402739;500992;413883;-1333;
2024-05-20T22:22:14.282;539437950621477407;402898;501108;414041;-1328;
2024-05-20T22:22:14.300;539437950639638215;403072;501338;414255;-1362;
2024-05-20T22:22:14.318;539437950657799023;403231;501535;414368;-1331;
2024-05-20T22:22:14.336;539437950675959831;403386;501746;414543;-1338;
2024-05-20T22:22:14.354;539437950694120639;403528;501937;414657;-1330;
2024-05-20T22:22:14.372;539437950712281447;403599;502025;414707;-1374;
2024-05-20T22:22:14.390;539437950730442255;403706;502167;414864;-1351;
2024-05-20T22:22:14.409;539437950748603063;403835;502347;414985;-1364;
2024-05-20T22:22:14.427;539437950766763871;403894;502448;415063;-1351;
2024-05-20T22:22:14.445;539437950784924679;403973;502513;415159;-1347;
2024-05-20T22:22:14.463;539437950803085487;404111;502634;415228;-1312;
2024-05-20T22:22:14.481;539437950821247220;404137;502781;415349;-1344;
2024-05-20T22:22:14.499;539437950839408935;404275;502891;415416;-1306;
2024-05-20T22:22:14.518;539437950857570650;404382;503040;415581;-1306;
2024-05-20T22:22:14.536;539437950875732365;404449;503139;415663;-1373;
2024-05-20T22:22:14.554;539437950893894080;404555;503270;415780;-1327;
2024-05-20T22:22:14.572;539437950912055795;404713;503465;415831;-1359;
2024-05-20T22:22:14.590;539437950930217510;404860;503699;416000;-1348;
2024-05-20T22:22:14.608;539437950948379225;404895;503793;416120;-1311;
2024-05-20T22:22:14.627;539437950966540940;404948;503788;416141;-1270;
2024-05-20T22:22:14.645;539437950984702655;404739;503597;415950;-1331;
2024-05-20T22:22:14.663;539437951002864370;404319;503246;415740;-1295;
2024-05-20T22:22:14.681;539437951021026085;403894;502699;415287;-1309;
2024-05-20T22:22:14.699;539437951039187800;403402;502040;414735;-1293;
2024-05-20T22:22:14.717;539437951057349515;402988;501496;414341;-1392;
2024-05-20T22:22:14.736;539437951075511230;402638;500999;413923;-1340;
2024-05-20T22:22:14.754;539437951093672945;402405;500682;413656;-1362;
2024-05-20T22:22:14.772;539437951111834660;402192;500347;413371;-1394;
2024-05-20T22:22:14.790;539437951129996375;402149;500178;413317;-1354;
2024-05-20T22:22:14.808;539437951148158090;402154;500131;413289;-1354;
2024-05-20T22:22:14.826;539437951166319805;402130;500093;413249;-1368;
2024-05-20T22:22:14.845;539437951184481520;402245;500228;413396;-1388;
2024-05-20T22:22:14.863;539437951202643235;402411;500414;413511;-1330;
2024-05-20T22:22:14.881;539437951220804950;402594;500526;413612;-1322;
2024-05-20T22:22:14.899;539437951238966665;402717;500779;413805;-1352;
2024-05-20T22:22:14.917;539437951257128380;402916;501020;414028;-1358;
2024-05-20T22:22:14.935;539437951275290095;403116;501221;414177;-1348;
2024-05-20T22:22:14.953;539437951293451810;403235;501433;414349;-1357;
2024-05-20T22:22:14.972;539437951311613525;403362;501576;414448;-1371;
2024-05-20T22:22:14.990;539437951329775240;403487;501720;414563;-1359;
2024-05-20T22:22:15.008;539437951347936955;403553;501861;414715;-1342;
2024-05-20T22:22:15.026;539437951366098670;403706;502018;414845;-1338;
2024-05-20T22:22:15.044;539437951384260385;403854;502143;414953;-1369;
2024-05-20T22:22:15.062;539437951402422100;403854;502229;414974;-1397;
2024-05-20T22:22:15.081;539437951420583815;403994;502345;415101;-1352;
2024-05-20T22:22:15.099;539437951438745530;404059;502453;415254;-1323;
2024-05-20T22:22:15.117;539437951456907245;404150;502446;415270;-1331;
2024-05-20T22:22:15.135;539437951475068960;404248;502635;415347;-1323;
2024-05-20T22:22:15.153;539437951493230103;404365;502860;415471;-1244;
2024-05-20T22:22:15.171;539437951511391241;404496;503007;415667;-1271;
2024-05-20T22:22:15.190;539437951529552379;404604;503143;415728;-1334;
2024-05-20T22:22:15.208;539437951547713517;404728;503282;415793;-1320;
2024-05-20T22:22:15.226;539437951565874655;404744;503333;415847;-1368;
2024-05-20T22:22:15.244;539437951584035793;404616;503192;415687;-1330;
2024-05-20T22:22:15.262;539437951602196931;404308;502887;415475;-1343;
2024-05-20T22:22:15.280;539437951620358069;403961;502407;415132;-1351;
2024-05-20T22:22:15.299;539437951638519207;403513;501859;414739;-1376;
2024-05-20T22:22:15.317;539437951656680345;403078;501409;414373;-1375;
2024-05-20T22:22:15.335;539437951674841483;402812;500924;413974;-1327;
2024-05-20T22:22:15.353;539437951693002621;402547;500508;413601;-1368;
2024-05-20T22:22:15.371;539437951711163759;402403;500266;413477;-1328;
2024-05-20T22:22:15.389;539437951729324897;402307;500118;413333;-1338;
2024-05-20T22:22:15.408;539437951747486035;402277;500046;413323;-1357;
2024-05-20T22:22:15.426;539437951765647173;402354;500096;413319;-1385;
2024-05-20T22:22:15.444;539437951783808311;402464;500201;413424;-1352;
2024-05-20T22:22:15.462;539437951801969449;402650;500389;413612;-1347;
2024-05-20T22:22:15.480;539437951820130587;402873;500534;413750;-1375;
2024-05-20T22:22:15.498;539437951838291725;403063;500730;413928;-1342;
2024-05-20T22:22:15.516;539437951856452863;403258;500977;414058;-1335;
2024-05-20T22:22:15.535;539437951874614001;403480;501255;414253;-1321;
2024-05-20T22:22:15.553;539437951892775139;403637;501404;414505;-1294;
2024-05-20T22:22:15.571;539437951910936277;403699;501603;414657;-1334;
2024-05-20T22:22:15.589;539437951929097415;403862;501757;414747;-1272;
2024-05-20T22:22:15.607;539437951947258553;403989;501970;414897;-1295;
2024-05-20T22:22:15.625;539437951965419691;404131;502170;415090;-1295;
2024-05-20T22:22:15.644;539437951983580829;404194;502256;415091;-1303;
2024-05-20T22:22:15.662;539437952001741967;404318;502384;415190;-1302;
2024-05-20T22:22:15.680;539437952019903105;404413;502562;415301;-1304;
2024-05-20T22:22:15.698;539437952038064243;404591;502683;415398;-1325;
2024-05-20T22:22:15.716;539437952056225381;404649;502853;415521;-1305;
2024-05-20T22:22:15.734;539437952074386519;404810;502955;415623;-1279;
2024-05-20T22:22:15.753;539437952092547657;404845;503090;415783;-1370;
2024-05-20T22:22:15.771;539437952110708795;405012;503207;415888;-1374;
2024-05-20T22:22:15.789;539437952128869933;405141;503418;416032;-1352;
2024-05-20T22:22:15.807;539437952147031071;405261;503591;416109;-1288;
2024-05-20T22:22:15.825;539437952165191660;405405;503724;416299;-1289;
2024-05-20T22:22:15.843;539437952183352220;405317;503673;416253;-1405;
2024-05-20T22:22:15.862;539437952201512780;405184;503409;415972;-1403;
2024-05-20T22:22:15.880;539437952219673340;404780;503039;415689;-1412;
2024-05-20T22:22:15.898;539437952237833900;404410;502595;415316;-1307;
2024-05-20T22:22:15.916;539437952255994460;403840;501945;414881;-1297;
2024-05-20T22:22:15.934;539437952274155020;403451;501405;414475;-1284;
2024-05-20T22:22:15.952;539437952292315580;403093;500963;414086;-1387;
2024-05-20T22:22:15.971;539437952310476140;402782;500575;413737;-1369;
2024-05-20T22:22:15.989;539437952328636700;402602;500230;413460;-1311;
2024-05-20T22:22:16.007;539437952346797260;402546;500130;413345;-1323;
2024-05-20T22:22:16.025;539437952364957820;402513;499971;413371;-1341;
2024-05-20T22:22:16.043;539437952383118380;402552;499962;413337;-1312;
2024-05-20T22:22:16.061;539437952401278940;402648;500089;413404;-1343;
2024-05-20T22:22:16.079;539437952419439500;402845;500316;413570;-1311;
2024-05-20T22:22:16.098;539437952437600060;402924;500504;413682;-1409;
2024-05-20T22:22:16.116;539437952455760620;403192;500733;413899;-1371;
2024-05-20T22:22:16.134;539437952473921180;403401;501021;414064;-1372;
2024-05-20T22:22:16.152;539437952492081740;403481;501164;414271;-1415;
2024-05-20T22:22:16.170;539437952510242300;403715;501333;414415;-1379;
2024-05-20T22:22:16.188;539437952528402860;403859;501451;414518;-1377;
2024-05-20T22:22:16.207;539437952546563420;403988;501662;414652;-1343;
2024-05-20T22:22:16.225;539437952564723980;404116;501836;414817;-1368;
2024-05-20T22:22:16.243;539437952582884540;404206;501913;414855;-1354;
2024-05-20T22:22:16.261;539437952601045100;404270;502075;415021;-1338;
2024-05-20T22:22:16.279;539437952619205660;404354;502256;415105;-1344;
2024-05-20T22:22:16.297;539437952637366220;404481;502423;415158;-1357;
2024-05-20T22:22:16.316;539437952655526780;404562;502458;415304;-1336;
2024-05-20T22:22:16.334;539437952673687340;404649;502620;415397;-1351;
2024-05-20T22:22:16.352;539437952691847900;404758;502784;415472;-1371;
2024-05-20T22:22:16.370;539437952710008460;404880;502920;415548;-1383;
2024-05-20T22:22:16.388;539437952728169020;404972;503040;415657;-1436;
2024-05-20T22:22:16.406;539437952746329580;405151;503211;415813;-1385;
2024-05-20T22:22:16.425;539437952764490140;405234;503320;415900;-1459;
2024-05-20T22:22:16.443;539437952782650700;405334;503543;416024;-1388;
2024-05-20T22:22:16.461;539437952800811260;405388;503574;416054;-1305;
2024-05-20T22:22:16.479;539437952818971820;405279;503490;415938;-1261;
2024-05-20T22:22:16.497;539437952837132411;404871;503113;415708;-1345;
2024-05-20T22:22:16.515;539437952855292994;404531;502697;415362;-1354;
2024-05-20T22:22:16.533;539437952873453577;404028;502049;414895;-1346;
2024-05-20T22:22:16.552;539437952891614160;403636;501440;414433;-1337;
2024-05-20T22:22:16.570;539437952909774743;403231;500941;414040;-1310;
2024-05-20T22:22:16.588;539437952927935326;402901;500531;413614;-1369;
2024-05-20T22:22:16.606;539437952946095909;402709;500212;413401;-1368;
2024-05-20T22:22:16.624;539437952964256492;402595;500023;413219;-1402;
2024-05-20T22:22:16.642;539437952982417075;402509;499886;413152;-1355;
2024-05-20T22:22:16.661;539437953000577658;402534;499820;413102;-1328;
2024-05-20T22:22:16.679;539437953018738241;402702;499922;413266;-1341;
2024-05-20T22:22:16.697;539437953036898824;402856;500055;413329;-1340;
2024-05-20T22:22:16.715;539437953055059407;402958;500199;413481;-1344;
2024-05-20T22:22:16.733;539437953073219990;403072;500441;413622;-1355;
2024-05-20T22:22:16.751;539437953091380573;403235;500637;413737;-1397;
2024-05-20T22:22:16.770;539437953109541156;403485;500859;413961;-1350;
2024-05-20T22:22:16.788;539437953127701739;403642;500997;414116;-1319;
2024-05-20T22:22:16.806;539437953145862322;403746;501138;414268;-1368;
2024-05-20T22:22:16.824;539437953164022905;403831;501362;414403;-1348;
2024-05-20T22:22:16.842;539437953182183488;403960;501518;414469;-1357;
2024-05-20T22:22:16.860;539437953200344071;404088;501763;414650;-1381;
2024-05-20T22:22:16.879;539437953218504654;404165;501887;414701;-1436;
2024-05-20T22:22:16.897;539437953236665237;404263;501959;414793;-1351;
2024-05-20T22:22:16.915;539437953254825820;404419;502094;414929;-1340;
2024-05-20T22:22:16.933;539437953272986403;404593;502196;415015;-1316;
2024-05-20T22:22:16.951;539437953291146986;404598;502311;415079;-1369;
2024-05-20T22:22:16.969;539437953309307569;404688;502424;415241;-1336;
2024-05-20T22:22:16.987;539437953327468152;404795;502588;415333;-1355;
2024-05-20T22:22:17.006;539437953345628735;404899;502753;415452;-1390;
2024-05-20T22:22:17.024;539437953363789318;405087;502893;415686;-1336;
2024-05-20T22:22:17.042;539437953381949901;405118;502999;415797;-1391;
2024-05-20T22:22:17.060;539437953400110484;405276;503242;415832;-1320;
2024-05-20T22:22:17.078;539437953418271067;405323;503358;415981;-1340;
2024-05-20T22:22:17.096;539437953436431650;405370;503457;416067;-1328;
2024-05-20T22:22:17.115;539437953454592233;405238;503268;415960;-1387;
2024-05-20T22:22:17.133;539437953472752816;404894;502917;415677;-1380;
2024-05-20T22:22:17.151;539437953490913935;404547;502498;415289;-1359;
2024-05-20T22:22:17.169;539437953509075040;404138;501916;414838;-1392;
2024-05-20T22:22:17.187;539437953527236145;403672;501338;414384;-1319;
2024-05-20T22:22:17.205;539437953545397250;403360;500879;414018;-1371;
2024-05-20T22:22:17.224;539437953563558355;403115;500542;413763;-1300;
2024-05-20T22:22:17.242;539437953581719460;402943;500234;413563;-1318;
2024-05-20T22:22:17.260;539437953599880565;402875;500062;413426;-1376;
2024-05-20T22:22:17.278;539437953618041670;402795;499922;413317;-1350;
2024-05-20T22:22:17.296;539437953636202775;402873;499979;413357;-1357;
2024-05-20T22:22:17.314;539437953654363880;402997;500096;413415;-1363;
2024-05-20T22:22:17.333;539437953672524985;403135;500202;413526;-1363;
2024-05-20T22:22:17.351;539437953690686090;403182;500363;413644;-1362;
2024-05-20T22:22:17.369;539437953708847195;403457;500678;413851;-1350;
2024-05-20T22:22:17.387;539437953727008300;403584;500892;414000;-1331;
2024-05-20T22:22:17.405;539437953745169405;403784;501121;414205;-1322;
2024-05-20T22:22:17.423;539437953763330510;403985;501416;414385;-1309;
2024-05-20T22:22:17.442;539437953781491615;404098;501497;414520;-1334;
2024-05-20T22:22:17.460;539437953799652720;404173;501733;414646;-1373;
2024-05-20T22:22:17.478;539437953817813825;404351;501859;414823;-1341;
2024-05-20T22:22:17.496;539437953835974930;404524;502093;414908;-1348;
2024-05-20T22:22:17.514;539437953854136035;404612;502184;415042;-1425;
2024-05-20T22:22:17.532;539437953872297140;404762;502274;415196;-1351;
2024-05-20T22:22:17.550;539437953890458245;404856;502461;415278;-1343;
2024-05-20T22:22:17.569;539437953908619350;404948;502649;415372;-1337;
2024-05-20T22:22:17.587;539437953926780455;405059;502757;415479;-1422;
2024-05-20T22:22:17.605;539437953944941560;405212;502926;415615;-1342;
2024-05-20T22:22:17.623;539437953963102665;405297;503019;415719;-1341;
2024-05-20T22:22:17.641;539437953981263770;405375;503212;415792;-1395;
2024-05-20T22:22:17.659;539437953999424875;405504;503374;415984;-1342;
2024-05-20T22:22:17.678;539437954017585980;405666;503600;416107;-1320;
2024-05-20T22:22:17.696;539437954035747085;405788;503738;416226;-1340;
2024-05-20T22:22:17.714;539437954053908190;405868;503800;416344;-1382;
2024-05-20T22:22:17.732;539437954072069295;405892;503906;416348;-1310;
2024-05-20T22:22:17.750;539437954090230400;405689;503734;416218;-1331;
2024-05-20T22:22:17.768;539437954108391505;405409;503312;415954;-1337;
2024-05-20T22:22:17.787;539437954126552610;404975;502835;415569;-1343;
2024-05-20T22:22:17.805;539437954144713715;404598;502394;415154;-1361;
2024-05-20T22:22:17.823;539437954162874820;404196;501808;414777;-1368;
2024-05-20T22:22:17.841;539437954181035925;403892;501449;414490;-1370;
2024-05-20T22:22:17.859;539437954199198025;403684;501154;414164;-1350;
2024-05-20T22:22:17.877;539437954217360089;403488;500894;413921;-1402;
2024-05-20T22:22:17.896;539437954235522153;403498;500765;413921;-1360;
2024-05-20T22:22:17.914;539437954253684217;403460;500668;413875;-1373;
2024-05-20T22:22:17.932;539437954271846281;403530;500708;413919;-1363;
2024-05-20T22:22:17.950;539437954290008345;403672;500841;414041;-1288;
2024-05-20T22:22:17.968;539437954308170409;403797;501007;414148;-1325;
2024-05-20T22:22:17.986;539437954326332473;403929;501219;414335;-1348;
2024-05-20T22:22:18.005;539437954344494537;404115;501416;414449;-1357;
2024-05-20T22:22:18.023;539437954362656601;404274;501601;414631;-1382;
2024-05-20T22:22:18.041;539437954380818665;404415;501832;414762;-1365;
2024-05-20T22:22:18.059;539437954398980729;404648;501993;414925;-1348;
2024-05-20T22:22:18.077;539437954417142793;404812;502214;415057;-1312;
2024-05-20T22:22:18.095;539437954435304857;404930;502383;415134;-1325;
2024-05-20T22:22:18.113;539437954453466921;405029;502512;415268;-1369;
2024-05-20T22:22:18.132;539437954471628985;405081;502697;415424;-1314;
2024-05-20T22:22:18.150;539437954489791049;405190;502821;415535;-1336;
2024-05-20T22:22:18.168;539437954507953113;405255;502943;415617;-1334;
2024-05-20T22:22:18.186;539437954526115177;405415;503075;415706;-1309;
2024-05-20T22:22:18.204;539437954544277241;405481;503262;415784;-1310;
2024-05-20T22:22:18.222;539437954562439305;405597;503351;415923;-1330;
2024-05-20T22:22:18.241;539437954580601369;405703;503458;416045;-1380;
2024-05-20T22:22:18.259;539437954598763433;405843;503619;416149;-1329;
2024-05-20T22:22:18.277;539437954616925497;405961;503759;416224;-1419;
2024-05-20T22:22:18.295;539437954635087561;406126;504016;416402;-1340;
2024-05-20T22:22:18.313;539437954653249625;406166;504128;416558;-1392;
2024-05-20T22:22:18.331;539437954671411689;406251;504211;416589;-1269;
2024-05-20T22:22:18.350;539437954689573753;406173;504159;416483;-1304;
2024-05-20T22:22:18.368;539437954707735817;405827;503825;416243;-1360;
2024-05-20T22:22:18.386;539437954725897881;405507;503419;415907;-1345;
2024-05-20T22:22:18.404;539437954744059945;405122;502877;415497;-1333;
2024-05-20T22:22:18.422;539437954762222009;404747;502413;415152;-1355;
2024-05-20T22:22:18.440;539437954780384073;404464;501988;414780;-1312;
2024-05-20T22:22:18.459;539437954798546137;404223;501667;414495;-1368;
2024-05-20T22:22:18.477;539437954816708201;404006;501379;414314;-1369;
2024-05-20T22:22:18.495;539437954834870265;403981;501230;414201;-1351;
2024-05-20T22:22:18.513;539437954853032329;403916;501129;414201;-1322;
2024-05-20T22:22:18.531;539437954871194393;403994;501174;414183;-1378;
2024-05-20T22:22:18.549;539437954889356896;404140;501320;414270;-1322;
2024-05-20T22:22:18.568;539437954907519395;404230;501480;414390;-1370;
2024-05-20T22:22:18.586;539437954925681894;404367;501664;414489;-1393;
2024-05-20T22:22:18.604;539437954943844393;404596;501919;414727;-1350;
2024-05-20T22:22:18.622;539437954962006892;404708;502102;414868;-1344;
2024-05-20T22:22:18.640;539437954980169391;404963;502257;415092;-1267;
2024-05-20T22:22:18.658;539437954998331890;405134;502526;415226;-1256;
2024-05-20T22:22:18.677;539437955016494389;405243;502670;415321;-1320;
2024-05-20T22:22:18.695;539437955034656888;405461;502848;415497;-1370;
2024-05-20T22:22:18.713;539437955052819387;405560;503016;415596;-1306;
2024-05-20T22:22:18.731;539437955070981886;405658;503188;415713;-1311;
2024-05-20T22:22:18.749;539437955089144385;405765;503292;415810;-1309;
2024-05-20T22:22:18.767;539437955107306884;405868;503449;415942;-1365;
2024-05-20T22:22:18.786;539437955125469383;405952;503554;416037;-1350;
2024-05-20T22:22:18.804;539437955143631882;406011;503726;416178;-1280;
2024-05-20T22:22:18.822;539437955161794381;406123;503874;416186;-1319;
2024-05-20T22:22:18.840;539437955179956880;406176;503935;416224;-1330;
2024-05-20T22:22:18.858;539437955198119379;406318;504040;416374;-1311;
2024-05-20T22:22:18.876;539437955216281878;406456;504257;416565;-1337;
2024-05-20T22:22:18.894;539437955234444377;406576;504372;416658;-1297;
2024-05-20T22:22:18.913;539437955252606876;406635;504569;416711;-1274;
2024-05-20T22:22:18.931;539437955270769375;406678;504645;416877;-1312;
2024-05-20T22:22:18.949;539437955288931874;406640;504746;416906;-1341;
2024-05-20T22:22:18.967;539437955307094373;406462;504439;416672;-1361;
2024-05-20T22:22:18.985;539437955325256872;406168;504160;416380;-1309;
2024-05-20T22:22:19.003;539437955343419371;405751;503638;416017;-1305;
2024-05-20T22:22:19.022;539437955361581870;405333;503071;415544;-1310;
2024-05-20T22:22:19.040;539437955379744369;404831;502441;415123;-1311;
2024-05-20T22:22:19.058;539437955397906868;404469;501925;414709;-1304;
2024-05-20T22:22:19.076;539437955416069367;404233;501533;414367;-1305;
2024-05-20T22:22:19.094;539437955434231866;404000;501221;414098;-1328;
2024-05-20T22:22:19.112;539437955452394365;403814;500968;413891;-1316;
2024-05-20T22:22:19.131;539437955470556864;403716;500832;413793;-1329;
2024-05-20T22:22:19.149;539437955488719363;403804;500831;413813;-1269;
2024-05-20T22:22:19.167;539437955506881862;403779;500830;413780;-1393;
2024-05-20T22:22:19.185;539437955525044361;403928;500947;413913;-1294;
2024-05-20T22:22:19.203;539437955543206860;404084;501106;414006;-1322;
2024-05-20T22:22:19.221;539437955561368195;404218;501338;414192;-1337;
2024-05-20T22:22:19.240;539437955579529495;404418;501496;414365;-1337;
2024-05-20T22:22:19.258;539437955597690795;404502;501658;414449;-1352;
2024-05-20T22:22:19.276;539437955615852095;404650;501832;414661;-1327;
2024-05-20T22:22:19.294;539437955634013395;404820;501981;414757;-1345;
2024-05-20T22:22:19.312;539437955652174695;404844;502177;414827;-1360;
2024-05-20T22:22:19.330;539437955670335995;404921;502311;414971;-1406;
2024-05-20T22:22:19.349;539437955688497295;405112;502467;415076;-1333;
2024-05-20T22:22:19.367;539437955706658595;405133;502595;415174;-1345;
2024-05-20T22:22:19.385;539437955724819895;405268;502666;415287;-1327;
2024-05-20T22:22:19.403;539437955742981195;405278;502718;415339;-1312;
2024-05-20T22:22:19.421;539437955761142495;405397;502908;415382;-1362;
2024-05-20T22:22:19.439;539437955779303795;405526;502985;415533;-1312;
2024-05-20T22:22:19.457;539437955797465095;405559;503116;415650;-1334;
2024-05-20T22:22:19.476;539437955815626395;405667;503268;415687;-1340;
2024-05-20T22:22:19.494;539437955833787695;405736;503334;415776;-1347;
2024-05-20T22:22:19.512;539437955851948995;405875;503404;415913;-1354;
2024-05-20T22:22:19.530;539437955870110295;405900;503568;415972;-1329;
2024-05-20T22:22:19.548;539437955888271595;405972;503652;416058;-1325;
2024-05-20T22:22:19.566;539437955906432895;405891;503709;416004;-1328;
2024-05-20T22:22:19.585;539437955924594195;405707;503383;415810;-1358;
2024-05-20T22:22:19.603;539437955942755495;405340;503005;415532;-1337;
2024-05-20T22:22:19.621;539437955960916795;404934;502492;415130;-1354;
2024-05-20T22:22:19.639;539437955979078095;404488;501933;414558;-1323;
2024-05-20T22:22:19.657;539437955997239395;404012;501272;414061;-1372;
2024-05-20T22:22:19.675;539437956015400695;403594;500764;413697;-1313;
2024-05-20T22:22:19.694;539437956033561995;403276;500319;413312;-1350;
2024-05-20T22:22:19.712;539437956051723295;403075;499944;413085;-1321;
2024-05-20T22:22:19.730;539437956069884595;403014;499729;412943;-1323;
2024-05-20T22:22:19.748;539437956088045895;402962;499628;412937;-1310;
2024-05-20T22:22:19.766;539437956106207195;402968;499579;412840;-1294;
2024-05-20T22:22:19.784;539437956124368495;403008;499675;412903;-1277;
2024-05-20T22:22:19.803;539437956142529795;403087;499737;412934;-1306;
2024-05-20T22:22:19.821;539437956160691095;403217;499938;413091;-1358;
2024-05-20T22:22:19.839;539437956178852395;403336;500095;413189;-1397;
2024-05-20T22:22:19.857;539437956197013695;403584;500311;413381;-1419;
2024-05-20T22:22:19.875;539437956215174995;403746;500489;413579;-1393;
2024-05-20T22:22:19.893;539437956233336295;403840;500722;413671;-1371;
2024-05-20T22:22:19.912;539437956251497595;403950;500854;413773;-1408;
2024-05-20T22:22:19.930;539437956269659494;404132;501075;413910;-1331;
2024-05-20T22:22:19.948;539437956287821374;404288;501173;414084;-1328;
2024-05-20T22:22:19.966;539437956305983254;404338;501319;414143;-1321;
2024-05-20T22:22:19.984;539437956324145134;404440;501376;414212;-1306;
2024-05-20T22:22:20.002;539437956342307014;404520;501541;414241;-1316;
2024-05-20T22:22:20.020;539437956360468894;404507;501569;414362;-1369;
2024-05-20T22:22:20.039;539437956378630774;404605;501686;414415;-1380;
2024-05-20T22:22:20.057;539437956396792654;404635;501750;414467;-1379;
2024-05-20T22:22:20.075;539437956414954534;404765;501908;414580;-1330;
2024-05-20T22:22:20.093;539437956433116414;404880;502055;414741;-1333;
2024-05-20T22:22:20.111;539437956451278294;404999;502176;414842;-1343;
2024-05-20T22:22:20.129;539437956469440174;405077;502350;414950;-1322;
2024-05-20T22:22:20.148;539437956487602054;405167;502511;415029;-1333;
2024-05-20T22:22:20.166;539437956505763934;405223;502627;415151;-1317;
2024-05-20T22:22:20.184;539437956523925814;405186;502533;415075;-1327;
2024-05-20T22:22:20.202;539437956542087694;404973;502323;414884;-1322;
2024-05-20T22:22:20.220;539437956560249574;404603;501855;414544;-1338;
2024-05-20T22:22:20.238;539437956578411454;404098;501225;414087;-1374;
2024-05-20T22:22:20.257;539437956596573334;403603;500641;413501;-1302;
2024-05-20T22:22:20.275;539437956614735214;403142;499989;412986;-1394;
2024-05-20T22:22:20.293;539437956632897094;402738;499461;412596;-1369;
2024-05-20T22:22:20.311;539437956651058974;402451;498976;412319;-1329;
2024-05-20T22:22:20.329;539437956669220854;402200;498643;412107;-1302;
2024-05-20T22:22:20.347;539437956687382734;402119;498444;411943;-1299;
2024-05-20T22:22:20.366;539437956705544614;402064;498361;411801;-1302;
2024-05-20T22:22:20.384;539437956723706494;402039;498308;411812;-1318;
2024-05-20T22:22:20.402;539437956741868374;402166;498502;411898;-1309;
2024-05-20T22:22:20.420;539437956760030254;402226;498588;411983;-1300;
2024-05-20T22:22:20.438;539437956778192134;402339;498765;412061;-1383;
2024-05-20T22:22:20.456;539437956796354014;402549;498925;412274;-1313;
2024-05-20T22:22:20.475;539437956814515894;402678;499033;412443;-1310;
2024-05-20T22:22:20.493;539437956832677774;402808;499252;412515;-1370;
2024-05-20T22:22:20.511;539437956850839654;403055;499463;412732;-1317;
2024-05-20T22:22:20.529;539437956869001534;403150;499622;412800;-1338;
2024-05-20T22:22:20.547;539437956887163414;403222;499746;412865;-1392;
2024-05-20T22:22:20.565;539437956905325294;403320;499916;413041;-1357;
2024-05-20T22:22:20.584;539437956923487174;403459;500064;413118;-1346;
2024-05-20T22:22:20.602;539437956941649072;403519;500187;413221;-1354;
2024-05-20T22:22:20.620;539437956959810962;403550;500286;413318;-1348;
2024-05-20T22:22:20.638;539437956977972852;403706;500381;413450;-1336;
2024-05-20T22:22:20.656;539437956996134742;403778;500434;413458;-1378;
2024-05-20T22:22:20.674;539437957014296632;403856;500556;413587;-1344;
2024-05-20T22:22:20.692;539437957032458522;403889;500707;413658;-1292;
2024-05-20T22:22:20.711;539437957050620412;403965;500808;413675;-1359;
2024-05-20T22:22:20.729;539437957068782302;404082;500978;413771;-1361;
2024-05-20T22:22:20.747;539437957086944192;404203;501148;413945;-1344;
2024-05-20T22:22:20.765;539437957105106082;404239;501160;414031;-1330;
2024-05-20T22:22:20.783;539437957123267972;404230;501207;413990;-1350;
2024-05-20T22:22:20.801;539437957141429862;404027;501072;413850;-1381;
2024-05-20T22:22:20.820;539437957159591752;403755;500725;413616;-1322;
2024-05-20T22:22:20.838;539437957177753642;403285;500143;413148;-1336;
2024-05-20T22:22:20.856;539437957195915532;402823;499556;412695;-1360;
2024-05-20T22:22:20.874;539437957214077422;402348;498951;412216;-1386;
2024-05-20T22:22:20.892;539437957232239312;402033;498450;411826;-1304;
2024-05-20T22:22:20.910;539437957250401202;401692;497917;411468;-1304;
2024-05-20T22:22:20.929;539437957268563092;401471;497577;411193;-1357;
2024-05-20T22:22:20.947;539437957286724982;401334;497491;411043;-1266;
2024-05-20T22:22:20.965;539437957304886872;401243;497315;410951;-1323;
2024-05-20T22:22:20.983;539437957323048762;401220;497281;410912;-1299;
2024-05-20T22:22:21.001;539437957341210652;401292;497394;411060;-1336;
2024-05-20T22:22:21.019;539437957359372542;401433;497522;411151;-1296;
2024-05-20T22:22:21.038;539437957377534432;401596;497664;411292;-1357;
2024-05-20T22:22:21.056;539437957395696322;401740;497820;411431;-1353;
2024-05-20T22:22:21.074;539437957413858212;401946;498020;411598;-1292;
2024-05-20T22:22:21.092;539437957432020102;402055;498209;411698;-1316;
2024-05-20T22:22:21.110;539437957450181992;402191;498451;411840;-1335;
2024-05-20T22:22:21.128;539437957468343882;402325;498594;411957;-1344;
2024-05-20T22:22:21.147;539437957486505772;402449;498777;412015;-1335;
2024-05-20T22:22:21.165;539437957504667662;402592;498943;412179;-1285;
2024-05-20T22:22:21.183;539437957522829552;402606;499050;412306;-1299;
2024-05-20T22:22:21.201;539437957540991442;402743;499121;412413;-1252;
2024-05-20T22:22:21.219;539437957559154243;402831;499215;412417;-1343;
2024-05-20T22:22:21.237;539437957577317030;402894;499262;412446;-1350;
2024-05-20T22:22:21.256;539437957595479817;402958;499429;412624;-1358;
2024-05-20T22:22:21.274;539437957613642604;403094;499527;412678;-1352;
2024-05-20T22:22:21.292;539437957631805391;403141;499641;412768;-1351;
2024-05-20T22:22:21.310;539437957649968178;403172;499814;412868;-1306;
2024-05-20T22:22:21.328;539437957668130965;403249;499910;412984;-1344;
2024-05-20T22:22:21.346;539437957686293752;403337;500026;413055;-1388;
2024-05-20T22:22:21.364;539437957704456539;403406;499988;413073;-1346;
2024-05-20T22:22:21.383;539437957722619326;403241;499828;412936;-1423;
2024-05-20T22:22:21.401;539437957740782113;402888;499543;412668;-1346;
2024-05-20T22:22:21.419;539437957758944900;402398;498919;412186;-1314;
2024-05-20T22:22:21.437;539437957777107687;401890;498295;411710;-1374;
2024-05-20T22:22:21.455;539437957795270474;401425;497705;411186;-1361;
2024-05-20T22:22:21.473;539437957813433261;401006;497051;410789;-1346;
2024-05-20T22:22:21.492;539437957831596048;400624;496522;410361;-1376;
2024-05-20T22:22:21.510;539437957849758835;400283;496069;410000;-1421;
2024-05-20T22:22:21.528;539437957867921622;400098;495819;409803;-1350;
2024-05-20T22:22:21.546;539437957886084409;400050;495637;409759;-1338;
2024-05-20T22:22:21.564;539437957904247196;400040;495610;409693;-1422;
2024-05-20T22:22:21.582;539437957922409983;400087;495699;409818;-1327;
2024-05-20T22:22:21.601;539437957940572770;400145;495773;409896;-1385;
2024-05-20T22:22:21.619;539437957958735557;400277;495933;409987;-1338;
2024-05-20T22:22:21.637;539437957976898344;400520;496114;410172;-1316;
2024-05-20T22:22:21.655;539437957995061131;400599;496307;410284;-1352;
2024-05-20T22:22:21.673;539437958013223918;400770;496489;410483;-1351;
2024-05-20T22:22:21.691;539437958031386705;400903;496740;410584;-1417;
2024-05-20T22:22:21.710;539437958049549492;401008;496901;410700;-1411;
2024-05-20T22:22:21.728;539437958067712279;401145;497075;410878;-1351;
2024-05-20T22:22:21.746;539437958085875066;401273;497243;410976;-1276;
2024-05-20T22:22:21.764;539437958104037853;401348;497408;411107;-1312;
2024-05-20T22:22:21.782;539437958122200640;401402;497379;411092;-1363;
2024-05-20T22:22:21.800;539437958140363427;401474;497521;411229;-1359;
2024-05-20T22:22:21.819;539437958158526214;401531;497652;411221;-1381;
2024-05-20T22:22:21.837;539437958176689001;401563;497688;411296;-1389;
2024-05-20T22:22:21.855;539437958194851788;401680;497815;411400;-1391;
2024-05-20T22:22:21.873;539437958213014575;401746;497949;411516;-1335;
2024-05-20T22:22:21.891;539437958231177362;401830;498020;411591;-1323;
2024-05-20T22:22:21.909;539437958249340149;401880;498133;411636;-1342;
2024-05-20T22:22:21.928;539437958267502334;401947;498180;411701;-1369;
2024-05-20T22:22:21.946;539437958285664485;401982;498284;411789;-1381;
2024-05-20T22:22:21.964;539437958303826636;401911;498300;411786;-1336;
2024-05-20T22:22:21.982;539437958321988787;401635;497927;411515;-1339;
2024-05-20T22:22:22.000;539437958340150938;401173;497469;411091;-1350;
2024-05-20T22:22:22.018;539437958358313089;400593;496760;410619;-1352;
2024-05-20T22:22:22.037;539437958376475240;400075;495990;410139;-1330;
2024-05-20T22:22:22.055;539437958394637391;399543;495296;409572;-1316;
2024-05-20T22:22:22.073;539437958412799542;398979;494667;409059;-1320;
2024-05-20T22:22:22.091;539437958430961693;398624;494190;408634;-1381;
2024-05-20T22:22:22.109;539437958449123844;398344;493782;408292;-1351;
2024-05-20T22:22:22.127;539437958467285995;398190;493473;408181;-1431;
2024-05-20T22:22:22.145;539437958485448146;398087;493319;408120;-1319;
2024-05-20T22:22:22.164;539437958503610297;398059;493280;408053;-1370;
2024-05-20T22:22:22.182;539437958521772448;398108;493379;408100;-1354;
2024-05-20T22:22:22.200;539437958539934599;398207;493483;408156;-1358;
2024-05-20T22:22:22.218;539437958558096750;398371;493640;408290;-1329;
2024-05-20T22:22:22.236;539437958576258901;398437;493769;408417;-1402;
2024-05-20T22:22:22.254;539437958594421052;398656;494011;408570;-1382;
2024-05-20T22:22:22.273;539437958612583203;398829;494147;408717;-1368;
2024-05-20T22:22:22.291;539437958630745354;399009;494414;408946;-1314;
2024-05-20T22:22:22.309;539437958648907505;399140;494596;409098;-1311;
2024-05-20T22:22:22.327;539437958667069656;399235;494610;409145;-1415;
2024-05-20T22:22:22.345;539437958685231807;399422;494826;409302;-1311;
2024-05-20T22:22:22.363;539437958703393958;399447;494945;409359;-1368;
2024-05-20T22:22:22.382;539437958721556109;399454;495093;409378;-1408;
2024-05-20T22:22:22.400;539437958739718260;399622;495195;409476;-1317;
2024-05-20T22:22:22.418;539437958757880411;399659;495278;409623;-1337;
2024-05-20T22:22:22.436;539437958776042562;399786;495379;409726;-1338;
2024-05-20T22:22:22.454;539437958794204713;399751;495466;409736;-1352;
2024-05-20T22:22:22.472;539437958812366864;399873;495569;409872;-1339;
2024-05-20T22:22:22.491;539437958830529015;399895;495682;409900;-1334;
2024-05-20T22:22:22.509;539437958848691166;400026;495785;410103;-1320;
2024-05-20T22:22:22.527;539437958866853317;400142;495943;410132;-1343;
2024-05-20T22:22:22.545;539437958885015468;400144;495958;410111;-1395;
2024-05-20T22:22:22.563;539437958903177619;400023;495900;410119;-1353;
2024-05-20T22:22:22.581;539437958921340652;399732;495614;409940;-1346;
2024-05-20T22:22:22.600;539437958939503657;399402;495081;409497;-1369;
2024-05-20T22:22:22.618;539437958957666662;398839;494440;409006;-1397;
2024-05-20T22:22:22.636;539437958975829667;398240;493716;408413;-1327;
2024-05-20T22:22:22.654;539437958993992672;397721;493070;407954;-1326;
2024-05-20T22:22:22.672;539437959012155677;397247;492433;407454;-1303;
2024-05-20T22:22:22.690;539437959030318682;396921;492032;407141;-1320;
2024-05-20T22:22:22.709;539437959048481687;396619;491559;406807;-1297;
2024-05-20T22:22:22.727;539437959066644692;396358;491344;406585;-1292;
2024-05-20T22:22:22.745;539437959084807697;396294;491168;406494;-1354;
2024-05-20T22:22:22.763;539437959102970702;396319;491162;406476;-1355;
2024-05-20T22:22:22.781;539437959121133707;396444;491182;406580;-1338;
2024-05-20T22:22:22.799;539437959139296712;396537;491280;406673;-1335;
2024-05-20T22:22:22.817;539437959157459717;396653;491448;406869;-1291;
2024-05-20T22:22:22.836;539437959175622722;396802;491667;406936;-1348;
2024-05-20T22:22:22.854;539437959193785727;396964;491882;407150;-1329;
2024-05-20T22:22:22.872;539437959211948732;397086;492070;407278;-1370;
2024-05-20T22:22:22.890;539437959230111737;397177;492267;407414;-1351;
2024-05-20T22:22:22.908;539437959248274742;397336;492429;407524;-1334;
2024-05-20T22:22:22.926;539437959266437747;397377;492539;407671;-1356;
2024-05-20T22:22:22.945;539437959284600752;397484;492657;407743;-1375;
2024-05-20T22:22:22.963;539437959302763757;397528;492758;407813;-1354;
2024-05-20T22:22:22.981;539437959320926762;397539;492837;407908;-1351;
2024-05-20T22:22:22.999;539437959339089767;397651;492932;408037;-1354;
2024-05-20T22:22:23.017;539437959357252772;397686;493015;408037;-1338;
2024-05-20T22:22:23.035;539437959375415777;397815;493153;408112;-1317;
2024-05-20T22:22:23.054;539437959393578782;397867;493184;408222;-1355;
2024-05-20T22:22:23.072;539437959411741787;397935;493301;408316;-1402;
2024-05-20T22:22:23.090;539437959429904792;398013;493504;408413;-1346;
2024-05-20T22:22:23.108;539437959448067797;398143;493626;408520;-1348;
2024-05-20T22:22:23.126;539437959466230802;398262;493773;408661;-1423;
2024-05-20T22:22:23.144;539437959484393807;398335;493962;408757;-1329;
2024-05-20T22:22:23.163;539437959502556812;398314;493925;408779;-1358;
2024-05-20T22:22:23.181;539437959520719817;398131;493729;408643;-1352;
2024-05-20T22:22:23.199;539437959538882822;397776;493304;408340;-1343;
2024-05-20T22:22:23.217;539437959557044655;397309;492825;407930;-1325;
2024-05-20T22:22:23.235;539437959575206452;396835;492181;407443;-1405;
2024-05-20T22:22:23.253;539437959593368249;396330;491602;407017;-1355;
2024-05-20T22:22:23.272;539437959611530046;395801;491020;406574;-1324;
2024-05-20T22:22:23.290;539437959629691843;395412;490502;406221;-1337;
2024-05-20T22:22:23.308;539437959647853640;395199;490215;405954;-1320;
2024-05-20T22:22:23.326;539437959666015437;395072;489966;405766;-1294;
2024-05-20T22:22:23.344;539437959684177234;394993;489879;405754;-1415;
2024-05-20T22:22:23.362;539437959702339031;394973;489840;405720;-1327;
2024-05-20T22:22:23.381;539437959720500828;395063;489928;405717;-1396;
2024-05-20T22:22:23.399;539437959738662625;395264;490121;405894;-1347;
2024-05-20T22:22:23.417;539437959756824422;395435;490282;406113;-1380;
2024-05-20T22:22:23.435;539437959774986219;395634;490529;406262;-1415;
2024-05-20T22:22:23.453;539437959793148016;395804;490795;406391;-1385;
2024-05-20T22:22:23.471;539437959811309813;396007;491015;406578;-1391;
2024-05-20T22:22:23.490;539437959829471610;396133;491237;406747;-1379;
2024-05-20T22:22:23.508;539437959847633407;396294;491442;406975;-1365;
2024-05-20T22:22:23.526;539437959865795204;396354;491626;407053;-1357;
2024-05-20T22:22:23.544;539437959883957001;396538;491880;407236;-1393;
2024-05-20T22:22:23.562;539437959902118798;396686;491946;407410;-1334;
2024-05-20T22:22:23.580;539437959920280595;396806;492062;407466;-1368;
2024-05-20T22:22:23.598;539437959938442392;396963;492253;407635;-1301;
2024-05-20T22:22:23.617;539437959956604189;397052;492382;407736;-1348;
2024-05-20T22:22:23.635;539437959974765986;397076;492518;407872;-1369;
2024-05-20T22:22:23.653;539437959992927783;397229;492676;407996;-1335;
2024-05-20T22:22:23.671;539437960011089580;397338;492877;408075;-1373;
2024-05-20T22:22:23.689;539437960029251377;397493;493012;408300;-1324;
2024-05-20T22:22:23.707;539437960047413174;397608;493157;408362;-1354;
2024-05-20T22:22:23.726;539437960065574971;397704;493401;408559;-1372;
2024-05-20T22:22:23.744;539437960083736768;397869;493614;408669;-1311;
2024-05-20T22:22:23.762;539437960101898565;397965;493750;408752;-1327;
2024-05-20T22:22:23.780;539437960120060362;397936;493709;408726;-1372;
2024-05-20T22:22:23.798;539437960138222159;397716;493469;408620;-1345;
2024-05-20T22:22:23.816;539437960156383956;397301;493070;408264;-1333;
2024-05-20T22:22:23.835;539437960174545753;396865;492531;407909;-1361;
2024-05-20T22:22:23.853;539437960192707550;396425;491984;407469;-1293;
2024-05-20T22:22:23.871;539437960210869347;395972;491406;407049;-1329;
2024-05-20T22:22:23.889;539437960229031136;395634;491026;406667;-1396;
2024-05-20T22:22:23.907;539437960247192906;395366;490661;406395;-1311;
2024-05-20T22:22:23.925;539437960265354676;395189;490391;406211;-1343;
2024-05-20T22:22:23.944;539437960283516446;394992;490201;406066;-1358;
2024-05-20T22:22:23.962;539437960301678216;395009;490155;406078;-1362;
2024-05-20T22:22:23.980;539437960319839986;395091;490333;406138;-1436;
2024-05-20T22:22:23.998;539437960338001756;395257;490403;406249;-1393;
2024-05-20T22:22:24.016;539437960356163526;395460;490620;406414;-1301;
2024-05-20T22:22:24.034;539437960374325296;395611;490809;406563;-1308;
2024-05-20T22:22:24.053;539437960392487066;395721;491053;406730;-1303;
2024-05-20T22:22:24.071;539437960410648836;395915;491261;406849;-1314;
2024-05-20T22:22:24.089;539437960428810606;396092;491472;407091;-1303;
2024-05-20T22:22:24.107;539437960446972376;396162;491663;407230;-1386;
2024-05-20T22:22:24.125;539437960465134146;396346;491901;407445;-1307;
2024-05-20T22:22:24.143;539437960483295916;396365;492015;407497;-1382;
2024-05-20T22:22:24.161;539437960501457686;396589;492203;407636;-1378;
2024-05-20T22:22:24.180;539437960519619456;396701;492353;407743;-1343;
2024-05-20T22:22:24.198;539437960537781226;396758;492431;407814;-1351;
2024-05-20T22:22:24.216;539437960555942996;396884;492628;408005;-1415;
2024-05-20T22:22:24.234;539437960574104766;397003;492788;408122;-1329;
2024-05-20T22:22:24.252;539437960592266536;397101;492967;408208;-1378;
2024-05-20T22:22:24.270;539437960610428306;397201;493101;408340;-1363;
2024-05-20T22:22:24.289;539437960628590076;397331;493278;408496;-1346;
2024-05-20T22:22:24.307;539437960646751846;397463;493434;408608;-1343;
2024-05-20T22:22:24.325;539437960664913616;397633;493627;408760;-1355;
2024-05-20T22:22:24.343;539437960683075386;397786;493807;408967;-1338;
2024-05-20T22:22:24.361;539437960701237156;397735;493882;408919;-1336;
2024-05-20T22:22:24.379;539437960719398926;397581;493737;408875;-1345;
2024-05-20T22:22:24.398;539437960737560696;397303;493452;408592;-1321;
2024-05-20T22:22:24.416;539437960755722466;396952;492983;408231;-1318;
2024-05-20T22:22:24.434;539437960773884236;396533;492470;407874;-1351;
2024-05-20T22:22:24.452;539437960792046006;396033;491939;407466;-1324;
2024-05-20T22:22:24.470;539437960810207776;395752;491429;407075;-1309;
2024-05-20T22:22:24.488;539437960828369546;395409;491097;406811;-1389;
2024-05-20T22:22:24.507;539437960846531316;395269;490872;406646;-1346;
2024-05-20T22:22:24.525;539437960864693086;395163;490705;406468;-1356;
2024-05-20T22:22:24.543;539437960882854856;395192;490732;406558;-1280;
2024-05-20T22:22:24.561;539437960901016626;395139;490747;406522;-1335;
2024-05-20T22:22:24.579;539437960919178396;395287;490854;406648;-1398;
2024-05-20T22:22:24.597;539437960937341061;395486;491137;406897;-1325;
2024-05-20T22:22:24.616;539437960955503725;395660;491286;407026;-1382;
2024-05-20T22:22:24.634;539437960973666389;395832;491488;407183;-1398;
2024-05-20T22:22:24.652;539437960991829053;395991;491783;407358;-1354;
2024-05-20T22:22:24.670;539437961009991717;396175;491955;407527;-1386;
2024-05-20T22:22:24.688;539437961028154381;396336;492230;407740;-1320;
2024-05-20T22:22:24.706;539437961046317045;396470;492454;407905;-1375;
2024-05-20T22:22:24.725;539437961064479709;396567;492589;407943;-1335;
2024-05-20T22:22:24.743;539437961082642373;396695;492648;408096;-1330;
2024-05-20T22:22:24.761;539437961100805037;396822;492855;408269;-1348;
2024-05-20T22:22:24.779;539437961118967701;396902;492981;408359;-1318;
2024-05-20T22:22:24.797;539437961137130365;397082;493178;408454;-1346;
2024-05-20T22:22:24.815;539437961155293029;397149;493252;408518;-1336;
2024-05-20T22:22:24.833;539437961173455693;397271;493500;408683;-1369;
2024-05-20T22:22:24.852;539437961191618357;397383;493682;408836;-1356;
2024-05-20T22:22:24.870;539437961209781021;397499;493908;408912;-1326;
2024-05-20T22:22:24.888;539437961227943685;397600;494084;409073;-1337;
2024-05-20T22:22:24.906;539437961246106349;397666;494229;409188;-1382;
2024-05-20T22:22:24.924;539437961264269013;397819;494346;409298;-1311;
2024-05-20T22:22:24.942;539437961282431677;397927;494594;409419;-1341;
2024-05-20T22:22:24.961;539437961300594341;397859;494566;409404;-1399;
2024-05-20T22:22:24.979;539437961318757005;397673;494407;409392;-1378;
2024-05-20T22:22:24.997;539437961336919669;397451;494121;409133;-1308;
2024-05-20T22:22:25.015;539437961355082333;396949;493580;408764;-1341;
2024-05-20T22:22:25.033;539437961373244997;396481;493028;408316;-1345;
2024-05-20T22:22:25.051;539437961391407661;396092;492463;407900;-1331;
2024-05-20T22:22:25.070;539437961409570325;395653;491949;407439;-1389;
2024-05-20T22:22:25.088;539437961427732989;395338;491530;407142;-1385;
2024-05-20T22:22:25.106;539437961445895653;395093;491239;406929;-1314;
2024-05-20T22:22:25.124;539437961464058317;394989;491064;406859;-1316;
2024-05-20T22:22:25.142;539437961482220981;394989;491026;406736;-1323;
2024-05-20T22:22:25.160;539437961500383645;395090;491100;406873;-1324;
2024-05-20T22:22:25.179;539437961518546309;395209;491242;406941;-1346;
2024-05-20T22:22:25.197;539437961536708973;395333;491435;407050;-1328;
2024-05-20T22:22:25.215;539437961554871637;395479;491594;407240;-1287;
2024-05-20T22:22:25.233;539437961573034301;395748;491835;407478;-1308;
2024-05-20T22:22:25.251;539437961591196965;395914;492078;407560;-1339;
2024-05-20T22:22:25.269;539437961609359076;396077;492291;407739;-1338;
2024-05-20T22:22:25.288;539437961627521162;396266;492512;407919;-1373;
2024-05-20T22:22:25.306;539437961645683248;396344;492684;408100;-1375;
2024-05-20T22:22:25.324;539437961663845334;396543;492919;408251;-1341;
2024-05-20T22:22:25.342;539437961682007420;396662;493098;408444;-1352;
2024-05-20T22:22:25.360;539437961700169506;396818;493357;408610;-1303;
2024-05-20T22:22:25.378;539437961718331592;396942;493490;408656;-1353;
2024-05-20T22:22:25.397;539437961736493678;397072;493666;408839;-1305;
2024-05-20T22:22:25.415;539437961754655764;397216;493773;408917;-1306;
2024-05-20T22:22:25.433;539437961772817850;397303;493989;409060;-1346;
2024-05-20T22:22:25.451;539437961790979936;397484;494154;409193;-1308;
2024-05-20T22:22:25.469;539437961809142022;397539;494375;409318;-1321;
2024-05-20T22:22:25.487;539437961827304108;397740;494494;409449;-1296;
2024-05-20T22:22:25.505;539437961845466194;397831;494645;409598;-1340;
2024-05-20T22:22:25.524;539437961863628280;397915;494831;409684;-1376;
2024-05-20T22:22:25.542;539437961881790366;398068;495031;409841;-1326;
2024-05-20T22:22:25.560;539437961899952452;398112;495158;409947;-1329;
2024-05-20T22:22:25.578;539437961918114538;398025;495139;409863;-1341;
2024-05-20T22:22:25.596;539437961936276624;397826;494823;409697;-1363;
2024-05-20T22:22:25.614;539437961954438710;397387;494423;409359;-1348;
2024-05-20T22:22:25.633;539437961972600796;396971;493944;408967;-1392;
2024-05-20T22:22:25.651;539437961990762882;396601;493417;408538;-1342;
2024-05-20T22:22:25.669;539437962008924968;396166;492944;408182;-1361;
2024-05-20T22:22:25.687;539437962027087054;395902;492526;407856;-1336;
2024-05-20T22:22:25.705;539437962045249140;395631;492215;407676;-1385;
2024-05-20T22:22:25.723;539437962063411226;395506;492012;407478;-1340;
2024-05-20T22:22:25.742;539437962081573312;395484;491881;407367;-1387;
2024-05-20T22:22:25.760;539437962099735398;395460;491891;407350;-1364;
2024-05-20T22:22:25.778;539437962117897484;395567;492003;407419;-1339;
2024-05-20T22:22:25.796;539437962136059570;395667;492125;407477;-1414;
2024-05-20T22:22:25.814;539437962154221656;395818;492408;407684;-1344;
2024-05-20T22:22:25.832;539437962172383742;396071;492646;407958;-1293;
2024-05-20T22:22:25.851;539437962190545828;396208;492850;408096;-1344;
2024-05-20T22:22:25.869;539437962208707914;396456;493033;408233;-1342;
2024-05-20T22:22:25.887;539437962226870000;396676;493298;408439;-1329;
2024-05-20T22:22:25.905;539437962245032086;396801;493599;408639;-1323;
2024-05-20T22:22:25.923;539437962263194172;396934;493781;408752;-1389;
2024-05-20T22:22:25.941;539437962281356931;397073;493860;408916;-1341;
2024-05-20T22:22:25.960;539437962299519679;397241;494095;409073;-1340;
2024-05-20T22:22:25.978;539437962317682427;397321;494302;409172;-1381;
2024-05-20T22:22:25.996;539437962335845175;397454;494415;409333;-1327;
2024-05-20T22:22:26.014;539437962354007923;397519;494579;409412;-1360;
