Phone timestamp;sensor timestamp [ns];channel 0;channel 1;channel 2;ambient
2024-05-20T22:18:41.434;539437737752989151;412756;522852;423441;-1396;
2024-05-20T22:18:41.452;539437737771159568;412890;523052;423521;-1458;
2024-05-20T22:18:41.470;539437737789329985;413040;523224;423631;-1480;
2024-05-20T22:18:41.488;539437737807500402;413258;523434;423816;-1468;
2024-05-20T22:18:41.506;539437737825670819;413468;523708;423973;-1471;
2024-05-20T22:18:41.524;539437737843841236;413651;523912;424222;-1451;
2024-05-20T22:18:41.543;539437737862011653;413872;524119;424349;-1479;
2024-05-20T22:18:41.561;539437737880182070;414072;524382;424502;-1419;
2024-05-20T22:18:41.579;539437737898352487;414255;524629;424721;-1468;
2024-05-20T22:18:41.597;539437737916522904;414385;524737;424823;-1412;
2024-05-20T22:18:41.615;539437737934693321;414579;524885;424960;-1459;
2024-05-20T22:18:41.633;539437737952863738;414585;525049;425041;-1473;
2024-05-20T22:18:41.652;539437737971034155;414755;525132;425131;-1417;
2024-05-20T22:18:41.670;539437737989204572;414877;525262;425270;-1447;
2024-05-20T22:18:41.688;539437738007374989;414919;525341;425392;-1487;
2024-05-20T22:18:41.706;539437738025545406;415043;525583;425523;-1516;
2024-05-20T22:18:41.724;539437738043715823;415161;525676;425600;-1448;
2024-05-20T22:18:41.742;539437738061886240;415084;525678;425593;-1447;
2024-05-20T22:18:41.761;539437738080056657;414871;525431;425365;-1462;
2024-05-20T22:18:41.779;539437738098227074;414525;525134;425119;-1468;
2024-05-20T22:18:41.797;539437738116397491;414081;524589;424657;-1459;
2024-05-20T22:18:41.815;539437738134567908;413674;524151;424312;-1420;
2024-05-20T22:18:41.833;539437738152738325;413337;523738;423908;-1479;
2024-05-20T22:18:41.851;539437738170908742;413108;523465;423688;-1439;
2024-05-20T22:18:41.870;539437738189079159;412951;523230;423538;-1437;
2024-05-20T22:18:41.888;539437738207249576;412938;523253;423500;-1501;
2024-05-20T22:18:41.906;539437738225419993;413098;523380;423574;-1406;
2024-05-20T22:18:41.924;539437738243590410;413225;523498;423699;-1443;
2024-05-20T22:18:41.942;539437738261760827;413390;523735;423809;-1460;
2024-05-20T22:18:41.960;539437738279931244;413592;523915;424013;-1407;
2024-05-20T22:18:41.979;539437738298101661;413785;524163;424123;-1451;
2024-05-20T22:18:41.997;539437738316272078;414051;524348;424348;-1480;
2024-05-20T22:18:42.015;539437738334442495;414211;524629;424589;-1477;
2024-05-20T22:18:42.033;539437738352612912;414429;524845;424638;-1466;
2024-05-20T22:18:42.051;539437738370783329;414598;525026;424834;-1451;
2024-05-20T22:18:42.069;539437738388953746;414729;525304;425030;-1396;
2024-05-20T22:18:42.088;539437738407124163;414914;525418;425178;-1406;
2024-05-20T22:18:42.106;539437738425294580;415032;525539;425292;-1434;
2024-05-20T22:18:42.124;539437738443465005;415091;525693;425410;-1397;
2024-05-20T22:18:42.142;539437738461635422;415276;525855;425506;-1396;
2024-05-20T22:18:42.160;539437738479805839;415371;525987;425639;-1410;
2024-05-20T22:18:42.178;539437738497976256;415481;526063;425745;-1388;
2024-05-20T22:18:42.197;539437738516146673;415578;526216;425755;-1414;
2024-05-20T22:18:42.215;539437738534317090;415521;526231;425733;-1423;
2024-05-20T22:18:42.233;539437738552487507;415282;525998;425597;-1434;
2024-05-20T22:18:42.251;539437738570657924;414843;525589;425251;-1487;
2024-05-20T22:18:42.269;539437738588828341;414406;525192;424871;-1467;
2024-05-20T22:18:42.288;539437738606998758;414053;524720;424530;-1456;
2024-05-20T22:18:42.306;539437738625169175;413699;524351;424148;-1445;
2024-05-20T22:18:42.324;539437738643339592;413443;524091;423913;-1460;
2024-05-20T22:18:42.342;539437738661510009;413399;523931;423809;-1392;
2024-05-20T22:18:42.360;539437738679680426;413408;523913;423782;-1363;
2024-05-20T22:18:42.378;539437738697850843;413549;524025;423821;-1409;
2024-05-20T22:18:42.397;539437738716021260;413674;524072;423921;-1420;
2024-05-20T22:18:42.415;539437738734191677;413817;524296;424054;-1463;
2024-05-20T22:18:42.433;539437738752362094;413994;524433;424160;-1460;
2024-05-20T22:18:42.451;539437738770532511;414163;524751;424399;-1448;
2024-05-20T22:18:42.469;539437738788702928;414376;524877;424579;-1431;
2024-05-20T22:18:42.487;539437738806873345;414605;525111;424749;-1350;
2024-05-20T22:18:42.506;539437738825043762;414723;525334;424945;-1410;
2024-05-20T22:18:42.524;539437738843214179;414838;525469;424996;-1437;
2024-05-20T22:18:42.542;539437738861384596;414896;525601;425120;-1417;
2024-05-20T22:18:42.560;539437738879555013;415015;525713;425256;-1420;
2024-05-20T22:18:42.578;539437738897725430;415121;525804;425342;-1414;
2024-05-20T22:18:42.596;539437738915895847;415246;525947;425482;-1371;
2024-05-20T22:18:42.615;539437738934066264;415279;525982;425535;-1466;
2024-05-20T22:18:42.633;539437738952236681;415363;526133;425643;-1369;
2024-05-20T22:18:42.651;539437738970407098;415383;526200;425661;-1406;
2024-05-20T22:18:42.669;539437738988577515;415290;526149;425650;-1451;
2024-05-20T22:18:42.687;539437739006747932;415021;526005;425553;-1434;
2024-05-20T22:18:42.705;539437739024918349;414629;525654;425275;-1386;
2024-05-20T22:18:42.724;539437739043088766;414194;525184;424811;-1442;
2024-05-20T22:18:42.742;539437739061259183;413776;524596;424369;-1406;
2024-05-20T22:18:42.760;539437739079429600;413360;524096;423986;-1472;
2024-05-20T22:18:42.778;539437739097600017;413101;523752;423669;-1453;
2024-05-20T22:18:42.796;539437739115770434;412865;523405;423368;-1463;
2024-05-20T22:18:42.814;539437739133940851;412902;523318;423247;-1436;
2024-05-20T22:18:42.833;539437739152111268;412900;523343;423175;-1380;
2024-05-20T22:18:42.851;539437739170281865;412970;523422;423213;-1421;
2024-05-20T22:18:42.869;539437739188452434;413225;523690;423408;-1355;
2024-05-20T22:18:42.887;539437739206623003;413478;523860;423583;-1413;
2024-05-20T22:18:42.905;539437739224793572;413619;524130;423733;-1397;
2024-05-20T22:18:42.923;539437739242964141;413737;524234;423830;-1443;
2024-05-20T22:18:42.942;539437739261134710;413875;524439;423965;-1407;
2024-05-20T22:18:42.960;539437739279305279;413939;524668;424082;-1416;
2024-05-20T22:18:42.978;539437739297475848;414083;524786;424220;-1445;
2024-05-20T22:18:42.996;539437739315646417;414107;524931;424303;-1413;
2024-05-20T22:18:43.014;539437739333816986;414223;524979;424353;-1465;
2024-05-20T22:18:43.032;539437739351987555;414185;525088;424396;-1462;
2024-05-20T22:18:43.051;539437739370158124;414298;525214;424402;-1412;
2024-05-20T22:18:43.069;539437739388328693;414405;525327;424517;-1446;
2024-05-20T22:18:43.087;539437739406499262;414484;525469;424626;-1446;
2024-05-20T22:18:43.105;539437739424669831;414655;525692;424878;-1472;
2024-05-20T22:18:43.123;539437739442840400;414897;525757;425039;-1458;
2024-05-20T22:18:43.142;539437739461010969;414979;525889;425165;-1437;
2024-05-20T22:18:43.160;539437739479181538;414951;525898;425117;-1429;
2024-05-20T22:18:43.178;539437739497352107;414657;525612;424829;-1471;
2024-05-20T22:18:43.196;539437739515522676;414294;525264;424527;-1411;
2024-05-20T22:18:43.214;539437739533693245;413816;524763;424018;-1402;
2024-05-20T22:18:43.232;539437739551863814;413445;524302;423587;-1420;
2024-05-20T22:18:43.251;539437739570034383;413213;523994;423313;-1431;
2024-05-20T22:18:43.269;539437739588204952;412977;523790;423100;-1444;
2024-05-20T22:18:43.287;539437739606375521;412916;523696;422975;-1472;
2024-05-20T22:18:43.305;539437739624546090;413000;523716;423083;-1461;
2024-05-20T22:18:43.323;539437739642716659;413122;523865;423091;-1459;
2024-05-20T22:18:43.341;539437739660887228;413342;524001;423228;-1472;
2024-05-20T22:18:43.360;539437739679057797;413630;524342;423468;-1427;
2024-05-20T22:18:43.378;539437739697228366;413922;524512;423649;-1410;
2024-05-20T22:18:43.396;539437739715398935;414171;524871;423898;-1449;
2024-05-20T22:18:43.414;539437739733569504;414550;525275;424259;-1327;
2024-05-20T22:18:43.432;539437739751740073;414975;525656;424623;-1432;
2024-05-20T22:18:43.450;539437739769910642;415451;526068;425143;-1493;
2024-05-20T22:18:43.469;539437739788081211;415989;526453;425601;-1403;
2024-05-20T22:18:43.487;539437739806251780;416316;526792;425883;-1464;
2024-05-20T22:18:43.505;539437739824422349;416483;527071;426182;-1472;
2024-05-20T22:18:43.523;539437739842592918;416760;527317;426328;-1462;
2024-05-20T22:18:43.541;539437739860763487;416954;527529;426507;-1494;
2024-05-20T22:18:43.559;539437739878934056;417079;527726;426682;-1448;
2024-05-20T22:18:43.578;539437739897105589;417235;527953;426731;-1467;
2024-05-20T22:18:43.596;539437739915277108;417199;527943;426713;-1445;
2024-05-20T22:18:43.614;539437739933448627;417267;527920;426807;-1414;
2024-05-20T22:18:43.632;539437739951620146;417226;527854;426775;-1464;
2024-05-20T22:18:43.650;539437739969791665;416990;527648;426574;-1413;
2024-05-20T22:18:43.668;539437739987963184;416451;527193;426094;-1453;
2024-05-20T22:18:43.687;539437740006134703;415930;526647;425569;-1451;
2024-05-20T22:18:43.705;539437740024306222;415338;526051;425057;-1443;
2024-05-20T22:18:43.723;539437740042477741;415076;525754;424691;-1436;
2024-05-20T22:18:43.741;539437740060649260;414942;525467;424529;-1400;
2024-05-20T22:18:43.759;539437740078820779;414774;525291;424348;-1448;
2024-05-20T22:18:43.778;539437740096992298;414723;525228;424262;-1412;
2024-05-20T22:18:43.796;539437740115163817;414764;525220;424272;-1431;
2024-05-20T22:18:43.814;539437740133335336;414864;525314;424303;-1478;
2024-05-20T22:18:43.832;539437740151506855;414991;525511;424446;-1436;
2024-05-20T22:18:43.850;539437740169678374;415229;525586;424519;-1442;
2024-05-20T22:18:43.868;539437740187849893;415428;525878;424724;-1412;
2024-05-20T22:18:43.887;539437740206021412;415713;526157;424903;-1473;
2024-05-20T22:18:43.905;539437740224192931;416093;526544;425265;-1472;
2024-05-20T22:18:43.923;539437740242364450;416516;526944;425648;-1420;
2024-05-20T22:18:43.941;539437740260535969;416879;527293;426034;-1365;
2024-05-20T22:18:43.959;539437740278707488;417197;527580;426230;-1439;
2024-05-20T22:18:43.977;539437740296879007;417466;527834;426526;-1444;
2024-05-20T22:18:43.996;539437740315050526;417680;528081;426781;-1464;
2024-05-20T22:18:44.014;539437740333222045;417928;528235;427038;-1410;
2024-05-20T22:18:44.032;539437740351393564;418182;528470;427240;-1440;
2024-05-20T22:18:44.050;539437740369565083;418424;528693;427493;-1420;
2024-05-20T22:18:44.068;539437740387736602;418624;528883;427699;-1460;
2024-05-20T22:18:44.086;539437740405908121;418748;529071;427852;-1436;
2024-05-20T22:18:44.105;539437740424079640;418892;529139;427921;-1447;
2024-05-20T22:18:44.123;539437740442251159;418751;529026;427839;-1422;
2024-05-20T22:18:44.141;539437740460422678;418416;528684;427604;-1412;
2024-05-20T22:18:44.159;539437740478594197;417931;528310;427269;-1457;
2024-05-20T22:18:44.177;539437740496765716;417461;527777;426745;-1481;
2024-05-20T22:18:44.195;539437740514937235;416846;527297;426310;-1457;
2024-05-20T22:18:44.214;539437740533108754;416305;526762;425854;-1412;
2024-05-20T22:18:44.232;539437740551279287;415925;526317;425676;-1415;
2024-05-20T22:18:44.250;539437740569449788;415818;526258;425462;-1397;
2024-05-20T22:18:44.268;539437740587620289;416139;526515;425493;-1445;
2024-05-20T22:18:44.286;539437740605790790;416541;526964;425653;-1466;
2024-05-20T22:18:44.304;539437740623961291;417003;527379;426009;-1459;
2024-05-20T22:18:44.323;539437740642131792;417533;527790;426428;-1392;
2024-05-20T22:18:44.341;539437740660302293;418004;528186;426826;-1389;
2024-05-20T22:18:44.359;539437740678472794;417989;528090;427071;-1443;
2024-05-20T22:18:44.377;539437740696643295;418059;528241;427268;-1444;
2024-05-20T22:18:44.395;539437740714813796;418345;528286;427163;-1443;
2024-05-20T22:18:44.413;539437740732984297;418904;528847;427402;-1490;
2024-05-20T22:18:44.432;539437740751154798;419659;529745;427957;-1398;
2024-05-20T22:18:44.450;539437740769325299;420427;530618;428604;-1383;
2024-05-20T22:18:44.468;539437740787495800;420950;530929;429009;-1450;
2024-05-20T22:18:44.486;539437740805666301;420989;531039;429285;-1405;
2024-05-20T22:18:44.504;539437740823836802;420839;530878;429335;-1479;
2024-05-20T22:18:44.523;539437740842007303;420651;530788;429341;-1408;
2024-05-20T22:18:44.541;539437740860177804;420580;530909;429345;-1385;
2024-05-20T22:18:44.559;539437740878348305;420627;530990;429286;-1404;
2024-05-20T22:18:44.577;539437740896518806;420635;531017;429253;-1411;
2024-05-20T22:18:44.595;539437740914689307;420568;531102;429217;-1392;
2024-05-20T22:18:44.613;539437740932859808;420455;531015;429046;-1399;
2024-05-20T22:18:44.632;539437740951030309;420264;530702;428936;-1400;
2024-05-20T22:18:44.650;539437740969200810;419977;530257;428645;-1427;
2024-05-20T22:18:44.668;539437740987371311;419574;529836;428348;-1445;
2024-05-20T22:18:44.686;539437741005541812;419277;529540;427989;-1412;
2024-05-20T22:18:44.704;539437741023712313;418942;529307;427730;-1422;
2024-05-20T22:18:44.722;539437741041882814;418829;529261;427610;-1382;
2024-05-20T22:18:44.741;539437741060053315;418812;529198;427504;-1491;
2024-05-20T22:18:44.759;539437741078223816;418943;529361;427545;-1471;
2024-05-20T22:18:44.777;539437741096394317;419116;529523;427686;-1415;
2024-05-20T22:18:44.795;539437741114564818;419261;529753;427834;-1436;
2024-05-20T22:18:44.813;539437741132735319;419536;530043;428093;-1399;
2024-05-20T22:18:44.831;539437741150905820;419730;530300;428358;-1421;
2024-05-20T22:18:44.850;539437741169076321;419916;530491;428496;-1450;
2024-05-20T22:18:44.868;539437741187246822;420136;530785;428676;-1433;
2024-05-20T22:18:44.886;539437741205416161;420352;531032;428860;-1422;
2024-05-20T22:18:44.904;539437741223585488;420478;531265;429007;-1417;
2024-05-20T22:18:44.922;539437741241754815;420646;531411;429167;-1450;
2024-05-20T22:18:44.940;539437741259924142;420789;531587;429312;-1458;
2024-05-20T22:18:44.959;539437741278093469;420919;531743;429440;-1475;
2024-05-20T22:18:44.977;539437741296262796;421141;531986;429597;-1449;
2024-05-20T22:18:44.995;539437741314432123;421239;532180;429773;-1421;
2024-05-20T22:18:45.013;539437741332601450;421316;532333;429872;-1416;
2024-05-20T22:18:45.031;539437741350770777;421453;532442;429987;-1454;
2024-05-20T22:18:45.049;539437741368940104;421502;532509;430065;-1490;
2024-05-20T22:18:45.068;539437741387109431;421382;532513;430074;-1497;
2024-05-20T22:18:45.086;539437741405278758;421138;532258;429825;-1457;
2024-05-20T22:18:45.104;539437741423448085;420842;531959;429576;-1432;
2024-05-20T22:18:45.122;539437741441617412;420515;531558;429176;-1410;
2024-05-20T22:18:45.140;539437741459786739;420206;531251;428976;-1426;
2024-05-20T22:18:45.158;539437741477956066;420057;531059;428732;-1385;
2024-05-20T22:18:45.177;539437741496125393;419879;530902;428539;-1427;
2024-05-20T22:18:45.195;539437741514294720;419888;530882;428484;-1420;
2024-05-20T22:18:45.213;539437741532464047;419973;530939;428519;-1437;
2024-05-20T22:18:45.231;539437741550633374;420037;530959;428580;-1444;
2024-05-20T22:18:45.249;539437741568802701;420321;531235;428740;-1433;
2024-05-20T22:18:45.267;539437741586972028;420442;531474;428869;-1495;
2024-05-20T22:18:45.286;539437741605141355;420761;531710;429050;-1427;
2024-05-20T22:18:45.304;539437741623310682;421007;531929;429323;-1458;
2024-05-20T22:18:45.322;539437741641480009;421206;532166;429587;-1378;
2024-05-20T22:18:45.340;539437741659649336;421398;532430;429773;-1493;
2024-05-20T22:18:45.358;539437741677818663;421622;532644;429983;-1449;
2024-05-20T22:18:45.376;539437741695987990;421842;532863;430106;-1390;
2024-05-20T22:18:45.395;539437741714157317;422016;533119;430326;-1436;
2024-05-20T22:18:45.413;539437741732326644;422213;533302;430498;-1393;
2024-05-20T22:18:45.431;539437741750495971;422383;533490;430647;-1394;
2024-05-20T22:18:45.449;539437741768665298;422530;533745;430762;-1433;
2024-05-20T22:18:45.467;539437741786834625;422689;533820;430858;-1359;
2024-05-20T22:18:45.486;539437741805003952;422802;533974;431030;-1421;
2024-05-20T22:18:45.504;539437741823173279;422962;534108;431126;-1427;
2024-05-20T22:18:45.522;539437741841342606;422853;534127;431130;-1432;
2024-05-20T22:18:45.540;539437741859511933;422702;534009;431035;-1466;
2024-05-20T22:18:45.558;539437741877681260;422374;533683;430781;-1483;
2024-05-20T22:18:45.576;539437741895850587;421958;533285;430389;-1496;
2024-05-20T22:18:45.595;539437741914019914;421673;532930;430092;-1484;
2024-05-20T22:18:45.613;539437741932189241;421447;532700;429815;-1476;
2024-05-20T22:18:45.631;539437741950358568;421355;532488;429631;-1446;
2024-05-20T22:18:45.649;539437741968530240;421254;532380;429514;-1431;
2024-05-20T22:18:45.667;539437741986701892;421319;532414;429472;-1432;
2024-05-20T22:18:45.685;539437742004873544;421398;532532;429521;-1422;
2024-05-20T22:18:45.704;539437742023045196;421569;532647;429661;-1445;
2024-05-20T22:18:45.722;539437742041216848;421798;532923;429828;-1419;
2024-05-20T22:18:45.740;539437742059388500;421991;533134;430014;-1429;
2024-05-20T22:18:45.758;539437742077560152;422260;533361;430222;-1335;
2024-05-20T22:18:45.776;539437742095731804;422427;533619;430397;-1425;
2024-05-20T22:18:45.794;539437742113903456;422642;533875;430566;-1426;
2024-05-20T22:18:45.813;539437742132075108;422857;534051;430702;-1394;
2024-05-20T22:18:45.831;539437742150246760;423018;534245;430930;-1453;
2024-05-20T22:18:45.849;539437742168418412;423134;534389;431035;-1496;
2024-05-20T22:18:45.867;539437742186590064;423432;534624;431192;-1464;
2024-05-20T22:18:45.885;539437742204761716;423557;534761;431315;-1473;
2024-05-20T22:18:45.903;539437742222933368;423669;534970;431496;-1493;
2024-05-20T22:18:45.922;539437742241105020;423861;535122;431635;-1372;
2024-05-20T22:18:45.940;539437742259276672;423955;535356;431843;-1437;
2024-05-20T22:18:45.958;539437742277448324;424094;535515;431918;-1392;
2024-05-20T22:18:45.976;539437742295619976;424127;535569;432011;-1430;
2024-05-20T22:18:45.994;539437742313791628;424020;535481;431946;-1382;
2024-05-20T22:18:46.012;539437742331963280;423671;535205;431656;-1426;
2024-05-20T22:18:46.031;539437742350134932;423320;534848;431335;-1348;
2024-05-20T22:18:46.049;539437742368306584;422881;534524;430934;-1404;
2024-05-20T22:18:46.067;539437742386478236;422539;534138;430611;-1382;
2024-05-20T22:18:46.085;539437742404649888;422349;533863;430317;-1433;
2024-05-20T22:18:46.103;539437742422821540;422157;533743;430116;-1437;
2024-05-20T22:18:46.122;539437742440993192;422114;533657;430035;-1407;
2024-05-20T22:18:46.140;539437742459164844;422214;533680;430146;-1402;
2024-05-20T22:18:46.158;539437742477336496;422270;533753;430087;-1454;
2024-05-20T22:18:46.176;539437742495508148;422450;533958;430239;-1416;
2024-05-20T22:18:46.194;539437742513679800;422550;534100;430380;-1484;
2024-05-20T22:18:46.212;539437742531851452;422777;534365;430500;-1442;
2024-05-20T22:18:46.231;539437742550023104;422993;534549;430783;-1398;
2024-05-20T22:18:46.249;539437742568194756;423266;534828;430965;-1372;
2024-05-20T22:18:46.267;539437742586366408;423408;535014;431158;-1416;
2024-05-20T22:18:46.285;539437742604538060;423564;535230;431273;-1467;
2024-05-20T22:18:46.303;539437742622709712;423821;535368;431443;-1414;
2024-05-20T22:18:46.321;539437742640881364;423966;535579;431544;-1438;
2024-05-20T22:18:46.340;539437742659053016;424010;535817;431694;-1430;
2024-05-20T22:18:46.358;539437742677224668;424185;535956;431864;-1353;
2024-05-20T22:18:46.376;539437742695396320;424359;536128;431950;-1427;
2024-05-20T22:18:46.394;539437742713567972;424483;536238;432000;-1440;
2024-05-20T22:18:46.412;539437742731738497;424555;536361;432178;-1388;
2024-05-20T22:18:46.430;539437742749908986;424695;536606;432321;-1399;
2024-05-20T22:18:46.449;539437742768079475;424713;536598;432382;-1430;
2024-05-20T22:18:46.467;539437742786249964;424552;536501;432257;-1488;
2024-05-20T22:18:46.485;539437742804420453;424255;536175;432010;-1474;
2024-05-20T22:18:46.503;539437742822590942;423859;535884;431749;-1480;
2024-05-20T22:18:46.521;539437742840761431;423542;535545;431375;-1407;
2024-05-20T22:18:46.539;539437742858931920;423318;535252;431127;-1463;
2024-05-20T22:18:46.558;539437742877102409;423141;535069;430947;-1415;
2024-05-20T22:18:46.576;539437742895272898;423008;534964;430780;-1474;
2024-05-20T22:18:46.594;539437742913443387;423040;535001;430772;-1410;
2024-05-20T22:18:46.612;539437742931613876;423075;535045;430777;-1454;
2024-05-20T22:18:46.630;539437742949784365;423213;535189;430887;-1375;
2024-05-20T22:18:46.648;539437742967954854;423298;535279;430968;-1462;
2024-05-20T22:18:46.667;539437742986125343;423556;535588;431195;-1445;
2024-05-20T22:18:46.685;539437743004295832;423769;535825;431388;-1436;
2024-05-20T22:18:46.703;539437743022466321;423984;536104;431537;-1463;
2024-05-20T22:18:46.721;539437743040636810;424199;536280;431759;-1409;
2024-05-20T22:18:46.739;539437743058807299;424431;536434;431937;-1433;
2024-05-20T22:18:46.757;539437743076977788;424748;536831;432274;-1377;
2024-05-20T22:18:46.776;539437743095148277;424813;536909;432381;-1312;
2024-05-20T22:18:46.794;539437743113318766;424997;537156;432494;-1385;
2024-05-20T22:18:46.812;539437743131489255;425191;537397;432662;-1484;
2024-05-20T22:18:46.830;539437743149659744;425324;537539;432817;-1442;
2024-05-20T22:18:46.848;539437743167830233;425424;537728;433003;-1463;
2024-05-20T22:18:46.867;539437743186000722;425608;537859;433144;-1453;
2024-05-20T22:18:46.885;539437743204171211;425798;538039;433341;-1451;
2024-05-20T22:18:46.903;539437743222341700;425876;538264;433393;-1441;
2024-05-20T22:18:46.921;539437743240512189;425978;538403;433538;-1408;
2024-05-20T22:18:46.939;539437743258682678;426041;538403;433501;-1434;
2024-05-20T22:18:46.957;539437743276853167;425753;538237;433381;-1428;
2024-05-20T22:18:46.976;539437743295023656;425517;537963;433140;-1359;
2024-05-20T22:18:46.994;539437743313194145;425252;537712;432847;-1410;
2024-05-20T22:18:47.012;539437743331364634;424882;537420;432525;-1377;
2024-05-20T22:18:47.030;539437743349535123;424659;537203;432405;-1407;
2024-05-20T22:18:47.048;539437743367705612;424544;536973;432266;-1392;
2024-05-20T22:18:47.066;539437743385876101;424475;536959;432131;-1411;
2024-05-20T22:18:47.085;539437743404046590;424493;537008;432153;-1428;
2024-05-20T22:18:47.103;539437743422217079;424670;537181;432367;-1430;
2024-05-20T22:18:47.121;539437743440387568;424848;537392;432400;-1455;
2024-05-20T22:18:47.139;539437743458558057;425090;537590;432565;-1377;
2024-05-20T22:18:47.157;539437743476728546;425235;537784;432770;-1436;
2024-05-20T22:18:47.175;539437743494899839;425456;538161;432929;-1377;
2024-05-20T22:18:47.194;539437743513071128;425690;538334;433140;-1461;
2024-05-20T22:18:47.212;539437743531242417;425798;538517;433326;-1444;
2024-05-20T22:18:47.230;539437743549413706;426012;538784;433566;-1394;
2024-05-20T22:18:47.248;539437743567584995;426179;539048;433734;-1411;
2024-05-20T22:18:47.266;539437743585756284;426297;539111;433883;-1391;
2024-05-20T22:18:47.284;539437743603927573;426450;539240;434037;-1357;
2024-05-20T22:18:47.303;539437743622098862;426597;539427;434185;-1335;
2024-05-20T22:18:47.321;539437743640270151;426706;539584;434331;-1414;
2024-05-20T22:18:47.339;539437743658441440;426891;539789;434515;-1372;
2024-05-20T22:18:47.357;539437743676612729;426987;539973;434628;-1398;
2024-05-20T22:18:47.375;539437743694784018;427159;540092;434718;-1403;
2024-05-20T22:18:47.393;539437743712955307;427185;540234;434868;-1380;
2024-05-20T22:18:47.412;539437743731126596;427241;540315;434865;-1420;
2024-05-20T22:18:47.430;539437743749297885;427053;540222;434718;-1381;
2024-05-20T22:18:47.448;539437743767469174;426798;540033;434602;-1406;
2024-05-20T22:18:47.466;539437743785640463;426483;539699;434333;-1381;
2024-05-20T22:18:47.484;539437743803811752;426149;539342;434060;-1400;
2024-05-20T22:18:47.502;539437743821983041;426037;539228;433846;-1404;
2024-05-20T22:18:47.521;539437743840154330;425832;539012;433612;-1450;
2024-05-20T22:18:47.539;539437743858325619;425815;538944;433575;-1416;
2024-05-20T22:18:47.557;539437743876496908;425823;539052;433583;-1409;
2024-05-20T22:18:47.575;539437743894668197;425949;539179;433648;-1359;
2024-05-20T22:18:47.593;539437743912839486;426039;539333;433758;-1423;
2024-05-20T22:18:47.612;539437743931010775;426209;539519;433946;-1438;
2024-05-20T22:18:47.630;539437743949182064;426372;539776;434158;-1431;
2024-05-20T22:18:47.648;539437743967353353;426585;539995;434329;-1421;
2024-05-20T22:18:47.666;539437743985524642;426770;540114;434485;-1423;
2024-05-20T22:18:47.684;539437744003695931;426944;540347;434625;-1416;
2024-05-20T22:18:47.702;539437744021867220;427130;540581;434813;-1394;
2024-05-20T22:18:47.721;539437744040038509;427343;540763;434948;-1387;
2024-05-20T22:18:47.739;539437744058209798;427463;540951;435120;-1419;
2024-05-20T22:18:47.757;539437744076381087;427563;541078;435272;-1396;
2024-05-20T22:18:47.775;539437744094552376;427730;541173;435376;-1450;
2024-05-20T22:18:47.793;539437744112723665;427833;541307;435522;-1391;
2024-05-20T22:18:47.811;539437744130894954;427946;541466;435565;-1419;
2024-05-20T22:18:47.830;539437744149066243;428079;541621;435743;-1404;
2024-05-20T22:18:47.848;539437744167237532;428116;541728;435878;-1447;
2024-05-20T22:18:47.866;539437744185408821;428239;541923;435988;-1386;
2024-05-20T22:18:47.884;539437744203580110;428158;541926;436000;-1471;
2024-05-20T22:18:47.902;539437744221751399;428006;541732;435861;-1429;
2024-05-20T22:18:47.920;539437744239922688;427658;541459;435654;-1459;
2024-05-20T22:18:47.939;539437744258092406;427370;541176;435321;-1402;
2024-05-20T22:18:47.957;539437744276262096;427036;540851;435003;-1407;
2024-05-20T22:18:47.975;539437744294431786;426763;540562;434723;-1414;
2024-05-20T22:18:47.993;539437744312601476;426574;540389;434452;-1394;
2024-05-20T22:18:48.011;539437744330771166;426460;540242;434382;-1405;
2024-05-20T22:18:48.029;539437744348940856;426450;540280;434353;-1385;
2024-05-20T22:18:48.048;539437744367110546;426485;540370;434402;-1364;
2024-05-20T22:18:48.066;539437744385280236;426667;540473;434420;-1414;
2024-05-20T22:18:48.084;539437744403449926;426746;540668;434610;-1424;
2024-05-20T22:18:48.102;539437744421619616;426974;540824;434764;-1394;
2024-05-20T22:18:48.120;539437744439789306;427043;540976;434865;-1406;
2024-05-20T22:18:48.138;539437744457958996;427225;541154;435050;-1404;
2024-05-20T22:18:48.157;539437744476128686;427403;541418;435157;-1408;
2024-05-20T22:18:48.175;539437744494298376;427617;541555;435381;-1448;
2024-05-20T22:18:48.193;539437744512468066;427720;541668;435483;-1439;
2024-05-20T22:18:48.211;539437744530637756;427831;541851;435642;-1419;
2024-05-20T22:18:48.229;539437744548807446;428001;542021;435745;-1388;
2024-05-20T22:18:48.247;539437744566977136;428088;542184;435811;-1424;
2024-05-20T22:18:48.266;539437744585146826;428174;542324;435952;-1468;
2024-05-20T22:18:48.284;539437744603316516;428285;542461;436059;-1470;
2024-05-20T22:18:48.302;539437744621486206;428361;542596;436195;-1383;
2024-05-20T22:18:48.320;539437744639655896;428434;542713;436303;-1415;
2024-05-20T22:18:48.338;539437744657825586;428519;542779;436378;-1381;
2024-05-20T22:18:48.357;539437744675995276;428509;542789;436349;-1453;
2024-05-20T22:18:48.375;539437744694164966;428359;542701;436334;-1344;
2024-05-20T22:18:48.393;539437744712334656;428078;542447;436037;-1381;
2024-05-20T22:18:48.411;539437744730504346;427608;541980;435634;-1419;
2024-05-20T22:18:48.429;539437744748674036;427171;541623;435301;-1438;
2024-05-20T22:18:48.447;539437744766843726;426869;541227;434880;-1406;
2024-05-20T22:18:48.466;539437744785013416;426599;540937;434612;-1448;
2024-05-20T22:18:48.484;539437744803183106;426449;540825;434455;-1424;
2024-05-20T22:18:48.502;539437744821352796;426399;540665;434433;-1393;
2024-05-20T22:18:48.520;539437744839522486;426345;540635;434388;-1417;
2024-05-20T22:18:48.538;539437744857692176;426474;540746;434408;-1351;
2024-05-20T22:18:48.556;539437744875861866;426583;540879;434486;-1426;
2024-05-20T22:18:48.575;539437744894031556;426730;541047;434526;-1434;
2024-05-20T22:18:48.593;539437744912201246;426956;541342;434740;-1393;
2024-05-20T22:18:48.611;539437744930370936;427133;541417;434834;-1357;
2024-05-20T22:18:48.629;539437744948540626;427294;541641;435017;-1394;
2024-05-20T22:18:48.647;539437744966710316;427439;541830;435158;-1413;
2024-05-20T22:18:48.665;539437744984880006;427553;541932;435315;-1382;
2024-05-20T22:18:48.684;539437745003049696;427620;542050;435383;-1468;
2024-05-20T22:18:48.702;539437745021220003;427725;542286;435600;-1466;
2024-05-20T22:18:48.720;539437745039390274;427898;542366;435640;-1416;
2024-05-20T22:18:48.738;539437745057560545;427971;542479;435767;-1419;
2024-05-20T22:18:48.756;539437745075730816;428083;542633;435851;-1374;
2024-05-20T22:18:48.774;539437745093901087;428067;542687;435915;-1422;
2024-05-20T22:18:48.793;539437745112071358;428109;542708;435996;-1390;
2024-05-20T22:18:48.811;539437745130241629;428235;542857;436107;-1387;
2024-05-20T22:18:48.829;539437745148411900;428306;542960;436161;-1426;
2024-05-20T22:18:48.847;539437745166582171;428349;542985;436214;-1437;
2024-05-20T22:18:48.865;539437745184752442;428218;542979;436180;-1417;
2024-05-20T22:18:48.883;539437745202922713;428004;542715;435954;-1436;
2024-05-20T22:18:48.902;539437745221092984;427528;542407;435662;-1442;
2024-05-20T22:18:48.920;539437745239263255;427218;542001;435286;-1389;
2024-05-20T22:18:48.938;539437745257433526;426963;541672;435050;-1377;
2024-05-20T22:18:48.956;539437745275603797;426681;541416;434769;-1453;
2024-05-20T22:18:48.974;539437745293774068;426601;541273;434588;-1398;
2024-05-20T22:18:48.992;539437745311944339;426532;541239;434489;-1408;
2024-05-20T22:18:49.011;539437745330114610;426621;541234;434517;-1388;
2024-05-20T22:18:49.029;539437745348284881;426645;541300;434601;-1382;
2024-05-20T22:18:49.047;539437745366455152;426786;541447;434612;-1446;
2024-05-20T22:18:49.065;539437745384625423;426900;541599;434780;-1432;
2024-05-20T22:18:49.083;539437745402795694;427145;541798;434941;-1432;
2024-05-20T22:18:49.101;539437745420965965;427288;542058;435120;-1382;
2024-05-20T22:18:49.120;539437745439136236;427529;542193;435308;-1436;
2024-05-20T22:18:49.138;539437745457306507;427692;542355;435450;-1413;
2024-05-20T22:18:49.156;539437745475476778;427800;542576;435596;-1468;
2024-05-20T22:18:49.174;539437745493647049;428001;542781;435757;-1407;
2024-05-20T22:18:49.192;539437745511817320;428121;542844;435926;-1354;
2024-05-20T22:18:49.210;539437745529987591;428204;542973;435994;-1400;
2024-05-20T22:18:49.229;539437745548157862;428345;543184;436131;-1456;
2024-05-20T22:18:49.247;539437745566328133;428436;543290;436247;-1359;
2024-05-20T22:18:49.265;539437745584498404;428584;543369;436361;-1373;
2024-05-20T22:18:49.283;539437745602668675;428604;543520;436441;-1455;
2024-05-20T22:18:49.301;539437745620838946;428733;543554;436532;-1450;
2024-05-20T22:18:49.320;539437745639009217;428826;543696;436596;-1445;
2024-05-20T22:18:49.338;539437745657179488;428877;543783;436715;-1443;
2024-05-20T22:18:49.356;539437745675349759;428782;543778;436715;-1380;
2024-05-20T22:18:49.374;539437745693520030;428638;543579;436494;-1407;
2024-05-20T22:18:49.392;539437745711690301;428266;543238;436245;-1426;
2024-05-20T22:18:49.410;539437745729860572;427963;542962;436068;-1397;
2024-05-20T22:18:49.429;539437745748030843;427673;542633;435766;-1433;
2024-05-20T22:18:49.447;539437745766201114;427464;542416;435514;-1446;
2024-05-20T22:18:49.465;539437745784369524;427330;542269;435364;-1453;
2024-05-20T22:18:49.483;539437745802537906;427291;542213;435220;-1462;
2024-05-20T22:18:49.501;539437745820706288;427327;542217;435257;-1497;
2024-05-20T22:18:49.519;539437745838874670;427498;542414;435428;-1454;
2024-05-20T22:18:49.538;539437745857043052;427667;542507;435581;-1453;
2024-05-20T22:18:49.556;539437745875211434;427837;542773;435704;-1377;
2024-05-20T22:18:49.574;539437745893379816;428022;542958;435853;-1400;
2024-05-20T22:18:49.592;539437745911548198;428217;543116;436056;-1364;
2024-05-20T22:18:49.610;539437745929716580;428373;543437;436222;-1437;
2024-05-20T22:18:49.628;539437745947884962;428544;543561;436330;-1497;
2024-05-20T22:18:49.647;539437745966053344;428704;543742;436557;-1428;
2024-05-20T22:18:49.665;539437745984221726;428819;543905;436689;-1383;
2024-05-20T22:18:49.683;539437746002390108;429044;544042;436875;-1430;
2024-05-20T22:18:49.701;539437746020558490;429139;544260;436985;-1414;
2024-05-20T22:18:49.719;539437746038726872;429304;544367;437189;-1390;
2024-05-20T22:18:49.737;539437746056895254;429340;544444;437237;-1393;
2024-05-20T22:18:49.756;539437746075063636;429454;544495;437277;-1425;
2024-05-20T22:18:49.774;539437746093232018;429506;544662;437370;-1402;
2024-05-20T22:18:49.792;539437746111400400;429572;544713;437468;-1383;
2024-05-20T22:18:49.810;539437746129568782;429652;544807;437525;-1375;
2024-05-20T22:18:49.828;539437746147737164;429596;544779;437508;-1477;
2024-05-20T22:18:49.846;539437746165905546;429423;544604;437372;-1431;
2024-05-20T22:18:49.865;539437746184073928;429072;544334;437141;-1426;
2024-05-20T22:18:49.883;539437746202242310;428683;543925;436791;-1377;
2024-05-20T22:18:49.901;539437746220410692;428416;543573;436476;-1428;
2024-05-20T22:18:49.919;539437746238579074;428143;543282;436182;-1399;
2024-05-20T22:18:49.937;539437746256747456;427874;543055;435957;-1459;
2024-05-20T22:18:49.955;539437746274915838;427795;542963;435933;-1466;
2024-05-20T22:18:49.974;539437746293084220;427897;542993;435960;-1389;
2024-05-20T22:18:49.992;539437746311252602;428066;543038;436023;-1410;
2024-05-20T22:18:50.010;539437746329420984;428160;543140;436020;-1392;
2024-05-20T22:18:50.028;539437746347589366;428320;543330;436180;-1411;
2024-05-20T22:18:50.046;539437746365757748;428522;543520;436339;-1426;
2024-05-20T22:18:50.064;539437746383926130;428662;543716;436555;-1388;
2024-05-20T22:18:50.083;539437746402094512;428842;543834;436697;-1399;
2024-05-20T22:18:50.101;539437746420262894;429014;544060;436827;-1373;
2024-05-20T22:18:50.119;539437746438431276;429142;544108;436964;-1456;
2024-05-20T22:18:50.137;539437746456599658;429258;544314;437132;-1461;
2024-05-20T22:18:50.155;539437746474768040;429380;544562;437284;-1461;
2024-05-20T22:18:50.173;539437746492936422;429473;544664;437353;-1425;
2024-05-20T22:18:50.192;539437746511104804;429578;544766;437415;-1433;
2024-05-20T22:18:50.210;539437746529273186;429653;544791;437446;-1497;
2024-05-20T22:18:50.228;539437746547443611;429793;544933;437647;-1424;
2024-05-20T22:18:50.246;539437746565614028;429867;545047;437743;-1417;
2024-05-20T22:18:50.264;539437746583784445;429915;545166;437795;-1417;
2024-05-20T22:18:50.282;539437746601954862;429965;545257;437865;-1423;
2024-05-20T22:18:50.301;539437746620125279;429864;545177;437907;-1438;
2024-05-20T22:18:50.319;539437746638295696;429623;544939;437655;-1460;
2024-05-20T22:18:50.337;539437746656466113;429205;544421;437349;-1466;
2024-05-20T22:18:50.355;539437746674636530;428757;544051;436976;-1431;
2024-05-20T22:18:50.373;539437746692806947;428367;543659;436631;-1427;
2024-05-20T22:18:50.391;539437746710977364;428055;543211;436305;-1434;
2024-05-20T22:18:50.410;539437746729147781;427817;542969;435959;-1416;
2024-05-20T22:18:50.428;539437746747318198;427651;542784;435774;-1409;
2024-05-20T22:18:50.446;539437746765488615;427591;542584;435658;-1396;
2024-05-20T22:18:50.464;539437746783659032;427542;542525;435558;-1427;
2024-05-20T22:18:50.482;539437746801829449;427579;542504;435492;-1414;
2024-05-20T22:18:50.501;539437746819999866;427615;542589;435549;-1438;
2024-05-20T22:18:50.519;539437746838170283;427688;542655;435510;-1462;
2024-05-20T22:18:50.537;539437746856340700;427759;542836;435637;-1429;
2024-05-20T22:18:50.555;539437746874511117;427833;542959;435717;-1420;
2024-05-20T22:18:50.573;539437746892681534;427925;543026;435721;-1449;
2024-05-20T22:18:50.591;539437746910851951;428099;543145;435863;-1404;
2024-05-20T22:18:50.610;539437746929022368;428145;543267;436003;-1391;
2024-05-20T22:18:50.628;539437746947192785;428251;543250;436053;-1446;
2024-05-20T22:18:50.646;539437746965363202;428255;543313;436132;-1391;
2024-05-20T22:18:50.664;539437746983533619;428346;543414;436195;-1409;
2024-05-20T22:18:50.682;539437747001704036;428287;543420;436177;-1443;
2024-05-20T22:18:50.700;539437747019874453;428309;543503;436242;-1380;
2024-05-20T22:18:50.719;539437747038044870;428337;543531;436233;-1434;
2024-05-20T22:18:50.737;539437747056215287;428392;543512;436232;-1403;
2024-05-20T22:18:50.755;539437747074385704;428393;543534;436271;-1420;
2024-05-20T22:18:50.773;539437747092556121;428198;543460;436176;-1424;
2024-05-20T22:18:50.791;539437747110726538;427966;543169;435921;-1404;
2024-05-20T22:18:50.809;539437747128896955;427436;542691;435568;-1440;
2024-05-20T22:18:50.828;539437747147067372;426975;542155;435073;-1474;
2024-05-20T22:18:50.846;539437747165237789;426450;541546;434599;-1442;
2024-05-20T22:18:50.864;539437747183408206;426026;541042;434194;-1380;
2024-05-20T22:18:50.882;539437747201577861;425650;540591;433841;-1428;
2024-05-20T22:18:50.900;539437747219747478;425405;540308;433511;-1417;
2024-05-20T22:18:50.918;539437747237917095;425352;540164;433405;-1404;
2024-05-20T22:18:50.937;539437747256086712;425263;539923;433344;-1416;
2024-05-20T22:18:50.955;539437747274256329;425275;539972;433299;-1385;
2024-05-20T22:18:50.973;539437747292425946;425320;539984;433364;-1425;
2024-05-20T22:18:50.991;539437747310595563;425463;540065;433442;-1463;
2024-05-20T22:18:51.009;539437747328765180;425672;540192;433650;-1434;
2024-05-20T22:18:51.027;539437747346934797;425820;540421;433742;-1420;
2024-05-20T22:18:51.046;539437747365104414;425887;540415;433846;-1385;
2024-05-20T22:18:51.064;539437747383274031;426029;540552;433928;-1475;
2024-05-20T22:18:51.082;539437747401443648;426146;540630;433984;-1416;
2024-05-20T22:18:51.100;539437747419613265;426304;540758;434129;-1346;
2024-05-20T22:18:51.118;539437747437782882;426327;540800;434185;-1433;
2024-05-20T22:18:51.136;539437747455952499;426422;540896;434326;-1395;
2024-05-20T22:18:51.155;539437747474122116;426519;540987;434404;-1408;
2024-05-20T22:18:51.173;539437747492291733;426534;541031;434458;-1440;
2024-05-20T22:18:51.191;539437747510461350;426643;541143;434626;-1438;
2024-05-20T22:18:51.209;539437747528630967;426764;541244;434679;-1410;
2024-05-20T22:18:51.227;539437747546800584;426823;541215;434760;-1468;
2024-05-20T22:18:51.245;539437747564970201;426830;541318;434771;-1409;
2024-05-20T22:18:51.264;539437747583139818;426689;541154;434645;-1458;
2024-05-20T22:18:51.282;539437747601309435;426384;540813;434453;-1453;
2024-05-20T22:18:51.300;539437747619479052;425915;540393;434089;-1453;
2024-05-20T22:18:51.318;539437747637648669;425514;539946;433650;-1485;
2024-05-20T22:18:51.336;539437747655818286;425167;539473;433366;-1460;
2024-05-20T22:18:51.354;539437747673987903;424851;538968;433041;-1495;
2024-05-20T22:18:51.373;539437747692157520;424636;538729;432754;-1420;
2024-05-20T22:18:51.391;539437747710327137;424589;538540;432597;-1473;
2024-05-20T22:18:51.409;539437747728496754;424551;538464;432592;-1425;
2024-05-20T22:18:51.427;539437747746666371;424570;538493;432671;-1476;
2024-05-20T22:18:51.445;539437747764835988;424686;538507;432714;-1500;
2024-05-20T22:18:51.464;539437747783005605;424892;538718;432876;-1440;
2024-05-20T22:18:51.482;539437747801175222;425041;538874;432999;-1420;
2024-05-20T22:18:51.500;539437747819344839;425306;539093;433120;-1346;
2024-05-20T22:18:51.518;539437747837514456;425416;539245;433344;-1416;
2024-05-20T22:18:51.536;539437747855684073;425688;539417;433534;-1397;
2024-05-20T22:18:51.554;539437747873853690;425907;539576;433686;-1398;
2024-05-20T22:18:51.573;539437747892023307;425931;539715;433822;-1433;
2024-05-20T22:18:51.591;539437747910192924;426040;539840;433903;-1448;
2024-05-20T22:18:51.609;539437747928362541;426160;539926;433994;-1423;
2024-05-20T22:18:51.627;539437747946532158;426206;539982;434038;-1427;
2024-05-20T22:18:51.645;539437747964699447;426234;540052;434064;-1443;
2024-05-20T22:18:51.663;539437747982866732;426395;540131;434196;-1414;
2024-05-20T22:18:51.682;539437748001034017;426389;540190;434209;-1445;
2024-05-20T22:18:51.700;539437748019201302;426501;540268;434291;-1437;
2024-05-20T22:18:51.718;539437748037368587;426542;540281;434442;-1406;
2024-05-20T22:18:51.736;539437748055535872;426525;540296;434358;-1463;
2024-05-20T22:18:51.754;539437748073703157;426309;540066;434216;-1427;
2024-05-20T22:18:51.772;539437748091870442;425923;539656;433931;-1456;
2024-05-20T22:18:51.791;539437748110037727;425577;539207;433653;-1451;
2024-05-20T22:18:51.809;539437748128205012;425172;538780;433228;-1442;
2024-05-20T22:18:51.827;539437748146372297;424849;538391;432968;-1500;
2024-05-20T22:18:51.845;539437748164539582;424662;538148;432794;-1408;
2024-05-20T22:18:51.863;539437748182706867;424632;537959;432592;-1424;
2024-05-20T22:18:51.881;539437748200874152;424588;537810;432557;-1447;
2024-05-20T22:18:51.900;539437748219041437;424679;537930;432653;-1383;
2024-05-20T22:18:51.918;539437748237208722;424775;537943;432654;-1437;
2024-05-20T22:18:51.936;539437748255376007;424932;538055;432797;-1438;
2024-05-20T22:18:51.954;539437748273543292;425123;538219;433012;-1405;
2024-05-20T22:18:51.972;539437748291710577;425318;538390;433093;-1431;
2024-05-20T22:18:51.990;539437748309877862;425464;538616;433256;-1412;
2024-05-20T22:18:52.009;539437748328045147;425602;538738;433410;-1379;
2024-05-20T22:18:52.027;539437748346212432;425750;538944;433553;-1458;
2024-05-20T22:18:52.045;539437748364379717;425889;539102;433700;-1442;
2024-05-20T22:18:52.063;539437748382547002;425988;539178;433853;-1415;
2024-05-20T22:18:52.081;539437748400714287;426160;539283;433995;-1462;
2024-05-20T22:18:52.099;539437748418881572;426187;539396;434002;-1456;
2024-05-20T22:18:52.118;539437748437048857;426286;539462;434131;-1453;
2024-05-20T22:18:52.136;539437748455216142;426327;539520;434132;-1501;
2024-05-20T22:18:52.154;539437748473383427;426444;539663;434257;-1455;
2024-05-20T22:18:52.172;539437748491550712;426514;539747;434338;-1408;
2024-05-20T22:18:52.190;539437748509717997;426576;539769;434438;-1419;
2024-05-20T22:18:52.208;539437748527885282;426553;539781;434505;-1428;
2024-05-20T22:18:52.227;539437748546052567;426349;539563;434333;-1357;
2024-05-20T22:18:52.245;539437748564219852;425948;539185;434037;-1400;
2024-05-20T22:18:52.263;539437748582387137;425551;538783;433690;-1395;
2024-05-20T22:18:52.281;539437748600554422;425138;538208;433282;-1398;
2024-05-20T22:18:52.299;539437748618721707;424825;537789;432968;-1445;
2024-05-20T22:18:52.317;539437748636888992;424568;537474;432725;-1372;
2024-05-20T22:18:52.336;539437748655058696;424436;537223;432463;-1400;
2024-05-20T22:18:52.354;539437748673228390;424369;537091;432428;-1424;
2024-05-20T22:18:52.372;539437748691398084;424398;537079;432369;-1391;
2024-05-20T22:18:52.390;539437748709567778;424533;537074;432406;-1467;
2024-05-20T22:18:52.408;539437748727737472;424740;537256;432553;-1423;
2024-05-20T22:18:52.426;539437748745907166;424886;537404;432730;-1391;
2024-05-20T22:18:52.445;539437748764076860;425058;537595;432922;-1362;
2024-05-20T22:18:52.463;539437748782246554;425236;537750;433056;-1362;
2024-05-20T22:18:52.481;539437748800416248;425360;537901;433165;-1388;
2024-05-20T22:18:52.499;539437748818585942;425556;538019;433323;-1353;
2024-05-20T22:18:52.517;539437748836755636;425722;538192;433458;-1357;
2024-05-20T22:18:52.535;539437748854925330;425855;538325;433596;-1391;
2024-05-20T22:18:52.554;539437748873095024;425918;538414;433644;-1403;
2024-05-20T22:18:52.572;539437748891264718;426033;538582;433825;-1436;
2024-05-20T22:18:52.590;539437748909434412;426164;538642;433891;-1424;
2024-05-20T22:18:52.608;539437748927604106;426232;538750;434057;-1428;
2024-05-20T22:18:52.626;539437748945773800;426344;538850;434141;-1368;
2024-05-20T22:18:52.644;539437748963943494;426394;538848;434152;-1412;
2024-05-20T22:18:52.663;539437748982113188;426470;538941;434213;-1447;
2024-05-20T22:18:52.681;539437749000282882;426403;538864;434161;-1421;
2024-05-20T22:18:52.699;539437749018452576;426172;538594;434062;-1409;
2024-05-20T22:18:52.717;539437749036622270;425713;538160;433770;-1369;
2024-05-20T22:18:52.735;539437749054791964;425273;537653;433291;-1363;
2024-05-20T22:18:52.753;539437749072961658;424816;537035;432844;-1362;
2024-05-20T22:18:52.772;539437749091131352;424447;536543;432407;-1400;
2024-05-20T22:18:52.790;539437749109301046;424073;536176;432077;-1443;
2024-05-20T22:18:52.808;539437749127470740;423893;535890;431893;-1439;
2024-05-20T22:18:52.826;539437749145640434;423771;535694;431747;-1423;
2024-05-20T22:18:52.844;539437749163810128;423779;535644;431728;-1402;
2024-05-20T22:18:52.862;539437749181979822;423816;535581;431727;-1511;
2024-05-20T22:18:52.881;539437749200149516;424021;535682;431785;-1410;
2024-05-20T22:18:52.899;539437749218319210;424108;535775;431894;-1443;
2024-05-20T22:18:52.917;539437749236488904;424183;535868;431955;-1445;
2024-05-20T22:18:52.935;539437749254658598;424268;535970;432030;-1449;
2024-05-20T22:18:52.953;539437749272828292;424355;536099;432129;-1459;
2024-05-20T22:18:52.972;539437749290997986;424477;536253;432231;-1427;
2024-05-20T22:18:52.990;539437749309167680;424630;536352;432384;-1382;
2024-05-20T22:18:53.008;539437749327337374;424683;536448;432385;-1404;
2024-05-20T22:18:53.026;539437749345506277;424782;536456;432463;-1480;
2024-05-20T22:18:53.044;539437749363675168;424822;536549;432493;-1441;
2024-05-20T22:18:53.062;539437749381844059;424792;536491;432562;-1413;
2024-05-20T22:18:53.081;539437749400012950;424829;536555;432625;-1412;
2024-05-20T22:18:53.099;539437749418181841;424943;536611;432625;-1462;
2024-05-20T22:18:53.117;539437749436350732;424905;536694;432640;-1406;
2024-05-20T22:18:53.135;539437749454519623;424984;536676;432759;-1374;
2024-05-20T22:18:53.153;539437749472688514;424866;536570;432662;-1425;
2024-05-20T22:18:53.171;539437749490857405;424702;536395;432530;-1399;
2024-05-20T22:18:53.190;539437749509026296;424248;535862;432110;-1381;
2024-05-20T22:18:53.208;539437749527195187;423706;535328;431640;-1450;
2024-05-20T22:18:53.226;539437749545364078;423196;534680;431220;-1476;
2024-05-20T22:18:53.244;539437749563532969;422714;534153;430794;-1484;
2024-05-20T22:18:53.262;539437749581701860;422356;533676;430490;-1438;
2024-05-20T22:18:53.280;539437749599870751;422086;533279;430112;-1449;
2024-05-20T22:18:53.299;539437749618039642;421979;533131;429990;-1471;
2024-05-20T22:18:53.317;539437749636208533;421918;532962;429925;-1457;
2024-05-20T22:18:53.335;539437749654377424;422034;532986;429945;-1433;
2024-05-20T22:18:53.353;539437749672546315;422079;533063;429935;-1443;
2024-05-20T22:18:53.371;539437749690715206;422214;533131;430061;-1436;
2024-05-20T22:18:53.389;539437749708884097;422359;533249;430183;-1431;
2024-05-20T22:18:53.408;539437749727052988;422558;533480;430343;-1460;
2024-05-20T22:18:53.426;539437749745221879;422680;533513;430435;-1498;
2024-05-20T22:18:53.444;539437749763390770;422845;533694;430607;-1471;
2024-05-20T22:18:53.462;539437749781559661;423001;533865;430788;-1415;
2024-05-20T22:18:53.480;539437749799728552;423115;533924;430904;-1459;
2024-05-20T22:18:53.498;539437749817897443;423175;534028;430941;-1463;
2024-05-20T22:18:53.517;539437749836066334;423209;534056;430973;-1479;
2024-05-20T22:18:53.535;539437749854235225;423359;534156;431121;-1470;
2024-05-20T22:18:53.553;539437749872404116;423465;534206;431251;-1413;
2024-05-20T22:18:53.571;539437749890573007;423514;534366;431317;-1369;
2024-05-20T22:18:53.589;539437749908741898;423648;534382;431374;-1382;
2024-05-20T22:18:53.607;539437749926910789;423778;534551;431462;-1375;
2024-05-20T22:18:53.626;539437749945079680;423841;534670;431585;-1380;
2024-05-20T22:18:53.644;539437749963248571;423892;534626;431635;-1398;
2024-05-20T22:18:53.662;539437749981417462;423736;534583;431626;-1405;
2024-05-20T22:18:53.680;539437749999586142;423437;534304;431369;-1381;
2024-05-20T22:18:53.698;539437750017754804;423075;533860;431078;-1350;
2024-05-20T22:18:53.716;539437750035923466;422721;533345;430610;-1400;
2024-05-20T22:18:53.735;539437750054092128;422339;532861;430227;-1440;
2024-05-20T22:18:53.753;539437750072260790;422018;532528;429984;-1387;
2024-05-20T22:18:53.771;539437750090429452;421827;532243;429800;-1399;
2024-05-20T22:18:53.789;539437750108598114;421730;532106;429654;-1385;
2024-05-20T22:18:53.807;539437750126766776;421755;531994;429656;-1373;
2024-05-20T22:18:53.825;539437750144935438;421792;532087;429694;-1436;
2024-05-20T22:18:53.844;539437750163104100;421906;532096;429710;-1446;
2024-05-20T22:18:53.862;539437750181272762;422078;532239;429865;-1414;
2024-05-20T22:18:53.880;539437750199441424;422289;532438;430019;-1420;
2024-05-20T22:18:53.898;539437750217610086;422451;532650;430227;-1365;
2024-05-20T22:18:53.916;539437750235778748;422647;532816;430365;-1453;
2024-05-20T22:18:53.934;539437750253947410;422808;532990;430542;-1525;
2024-05-20T22:18:53.953;539437750272116072;423050;533163;430711;-1455;
2024-05-20T22:18:53.971;539437750290284734;423110;533344;430829;-1419;
2024-05-20T22:18:53.989;539437750308453396;423242;533477;430985;-1344;
2024-05-20T22:18:54.007;539437750326622058;423386;533629;431056;-1383;
2024-05-20T22:18:54.025;539437750344790720;423414;533768;431116;-1456;
2024-05-20T22:18:54.043;539437750362959382;423590;533865;431296;-1410;
2024-05-20T22:18:54.062;539437750381128044;423691;533976;431431;-1397;
2024-05-20T22:18:54.080;539437750399296706;423735;534085;431438;-1361;
2024-05-20T22:18:54.098;539437750417465368;423827;534120;431558;-1382;
2024-05-20T22:18:54.116;539437750435634030;423964;534245;431701;-1388;
2024-05-20T22:18:54.134;539437750453802692;424017;534373;431720;-1424;
2024-05-20T22:18:54.152;539437750471971354;424082;534449;431784;-1406;
2024-05-20T22:18:54.171;539437750490140016;424047;534404;431823;-1382;
2024-05-20T22:18:54.189;539437750508308678;423759;534127;431601;-1416;
2024-05-20T22:18:54.207;539437750526477340;423468;533836;431367;-1465;
2024-05-20T22:18:54.225;539437750544646002;423151;533405;430967;-1421;
2024-05-20T22:18:54.243;539437750562814664;422814;533022;430624;-1338;
2024-05-20T22:18:54.261;539437750580983326;422553;532609;430305;-1362;
2024-05-20T22:18:54.280;539437750599151988;422397;532395;430205;-1402;
2024-05-20T22:18:54.298;539437750617320650;422333;532303;430091;-1314;
2024-05-20T22:18:54.316;539437750635489312;422325;532221;430083;-1356;
2024-05-20T22:18:54.334;539437750653657974;422419;532268;430196;-1361;
2024-05-20T22:18:54.352;539437750671826636;422518;532390;430146;-1342;
2024-05-20T22:18:54.371;539437750689995298;422629;532548;430305;-1402;
2024-05-20T22:18:54.389;539437750708163960;422836;532680;430482;-1340;
2024-05-20T22:18:54.407;539437750726333236;422984;532863;430634;-1379;
2024-05-20T22:18:54.425;539437750744502490;423212;533110;430823;-1326;
2024-05-20T22:18:54.443;539437750762671744;423350;533267;430931;-1385;
2024-05-20T22:18:54.461;539437750780840998;423432;533421;431045;-1394;
2024-05-20T22:18:54.480;539437750799010252;423582;533565;431206;-1428;
2024-05-20T22:18:54.498;539437750817179506;423698;533670;431296;-1382;
2024-05-20T22:18:54.516;539437750835348760;423824;533820;431461;-1414;
2024-05-20T22:18:54.534;539437750853518014;423891;533819;431532;-1382;
2024-05-20T22:18:54.552;539437750871687268;423969;533910;431578;-1371;
2024-05-20T22:18:54.570;539437750889856522;424041;534080;431648;-1376;
2024-05-20T22:18:54.589;539437750908025776;424151;534155;431796;-1354;
2024-05-20T22:18:54.607;539437750926195030;424247;534304;431883;-1362;
2024-05-20T22:18:54.625;539437750944364284;424308;534412;431979;-1346;
2024-05-20T22:18:54.643;539437750962533538;424391;534480;431974;-1423;
2024-05-20T22:18:54.661;539437750980702792;424404;534581;432071;-1380;
2024-05-20T22:18:54.679;539437750998872046;424163;534331;431943;-1359;
2024-05-20T22:18:54.698;539437751017041300;423881;533956;431706;-1396;
2024-05-20T22:18:54.716;539437751035210554;423457;533510;431262;-1441;
2024-05-20T22:18:54.734;539437751053379808;423165;533127;430941;-1425;
2024-05-20T22:18:54.752;539437751071549062;422868;532784;430675;-1375;
2024-05-20T22:18:54.770;539437751089718316;422643;532473;430446;-1351;
2024-05-20T22:18:54.788;539437751107887570;422514;532309;430230;-1369;
2024-05-20T22:18:54.807;539437751126056824;422510;532295;430244;-1406;
2024-05-20T22:18:54.825;539437751144226078;422554;532305;430219;-1396;
2024-05-20T22:18:54.843;539437751162395332;422730;532381;430359;-1375;
2024-05-20T22:18:54.861;539437751180564586;422920;532551;430439;-1347;
2024-05-20T22:18:54.879;539437751198733840;423086;532736;430625;-1389;
2024-05-20T22:18:54.897;539437751216903094;423261;532978;430899;-1372;
2024-05-20T22:18:54.916;539437751235072348;423414;533104;430944;-1404;
2024-05-20T22:18:54.934;539437751253241602;423612;533280;431135;-1356;
2024-05-20T22:18:54.952;539437751271410856;423741;533412;431196;-1365;
2024-05-20T22:18:54.970;539437751289580110;423898;533569;431410;-1405;
2024-05-20T22:18:54.988;539437751307749364;423995;533664;431499;-1378;
2024-05-20T22:18:55.006;539437751325918618;424078;533794;431578;-1369;
2024-05-20T22:18:55.025;539437751344087872;424148;533832;431605;-1376;
2024-05-20T22:18:55.043;539437751362257126;424208;534026;431728;-1411;
2024-05-20T22:18:55.061;539437751380426380;424339;534188;431808;-1354;
2024-05-20T22:18:55.079;539437751398595634;424390;534232;431904;-1416;
2024-05-20T22:18:55.097;539437751416764888;424457;534283;431950;-1408;
2024-05-20T22:18:55.115;539437751434934142;424478;534374;432044;-1386;
2024-05-20T22:18:55.134;539437751453103396;424537;534465;432146;-1399;
2024-05-20T22:18:55.152;539437751471272650;424655;534520;432167;-1467;
2024-05-20T22:18:55.170;539437751489438671;424600;534538;432117;-1414;
2024-05-20T22:18:55.188;539437751507604675;424357;534346;431931;-1368;
2024-05-20T22:18:55.206;539437751525770679;423960;533868;431638;-1416;
2024-05-20T22:18:55.224;539437751543936683;423538;533472;431183;-1358;
2024-05-20T22:18:55.243;539437751562102687;423010;532934;430796;-1391;
2024-05-20T22:18:55.261;539437751580268691;422610;532416;430367;-1417;
2024-05-20T22:18:55.279;539437751598434695;422342;532028;430128;-1396;
2024-05-20T22:18:55.297;539437751616600699;422126;531813;429831;-1442;
2024-05-20T22:18:55.315;539437751634766703;422087;531723;429737;-1408;
2024-05-20T22:18:55.333;539437751652932707;422130;531721;429725;-1419;
2024-05-20T22:18:55.352;539437751671098711;422152;531770;429755;-1395;
2024-05-20T22:18:55.370;539437751689264715;422293;531874;429860;-1350;
2024-05-20T22:18:55.388;539437751707430719;422425;531983;429881;-1426;
2024-05-20T22:18:55.406;539437751725596723;422581;532172;430080;-1422;
2024-05-20T22:18:55.424;539437751743762727;422709;532256;430154;-1403;
2024-05-20T22:18:55.442;539437751761928731;422806;532466;430350;-1392;
2024-05-20T22:18:55.461;539437751780094735;423011;532598;430445;-1412;
2024-05-20T22:18:55.479;539437751798260739;423223;532761;430590;-1389;
2024-05-20T22:18:55.497;539437751816426743;423221;532889;430670;-1444;
2024-05-20T22:18:55.515;539437751834592747;423351;532995;430801;-1381;
2024-05-20T22:18:55.533;539437751852758751;423408;533170;430901;-1390;
2024-05-20T22:18:55.551;539437751870924755;423506;533238;430996;-1375;
2024-05-20T22:18:55.570;539437751889090759;423606;533323;431068;-1385;
2024-05-20T22:18:55.588;539437751907256763;423691;533398;431140;-1421;
2024-05-20T22:18:55.606;539437751925422767;423759;533453;431211;-1404;
2024-05-20T22:18:55.624;539437751943588771;423754;533546;431222;-1432;
2024-05-20T22:18:55.642;539437751961754775;423862;533677;431318;-1340;
2024-05-20T22:18:55.660;539437751979920779;424006;533784;431428;-1345;
2024-05-20T22:18:55.679;539437751998086783;423902;533742;431415;-1382;
2024-05-20T22:18:55.697;539437752016252787;423762;533536;431296;-1417;
2024-05-20T22:18:55.715;539437752034418791;423412;533242;431011;-1444;
2024-05-20T22:18:55.733;539437752052584795;423038;532819;430686;-1424;
2024-05-20T22:18:55.751;539437752070750799;422535;532370;430274;-1393;
2024-05-20T22:18:55.769;539437752088916803;422201;531959;429902;-1484;
2024-05-20T22:18:55.788;539437752107082807;422000;531617;429672;-1426;
2024-05-20T22:18:55.806;539437752125248811;421846;531515;429483;-1425;
2024-05-20T22:18:55.824;539437752143414815;421770;531345;429373;-1431;
2024-05-20T22:18:55.842;539437752161582682;421803;531322;429366;-1428;
2024-05-20T22:18:55.860;539437752179750519;421939;531439;429449;-1409;
2024-05-20T22:18:55.878;539437752197918356;422111;531563;429528;-1375;
2024-05-20T22:18:55.897;539437752216086193;422215;531696;429597;-1414;
2024-05-20T22:18:55.915;539437752234254030;422395;531891;429807;-1423;
2024-05-20T22:18:55.933;539437752252421867;422621;532121;429954;-1357;
2024-05-20T22:18:55.951;539437752270589704;422786;532317;430154;-1377;
2024-05-20T22:18:55.969;539437752288757541;422957;532441;430333;-1416;
2024-05-20T22:18:55.987;539437752306925378;423136;532601;430526;-1402;
2024-05-20T22:18:56.006;539437752325093215;423317;532822;430702;-1443;
2024-05-20T22:18:56.024;539437752343261052;423417;532965;430780;-1437;
2024-05-20T22:18:56.042;539437752361428889;423522;533140;430853;-1402;
2024-05-20T22:18:56.060;539437752379596726;423674;533197;430960;-1438;
2024-05-20T22:18:56.078;539437752397764563;423788;533341;431089;-1396;
2024-05-20T22:18:56.096;539437752415932400;423873;533522;431193;-1455;
2024-05-20T22:18:56.115;539437752434100237;423978;533637;431360;-1440;
2024-05-20T22:18:56.133;539437752452268074;424035;533741;431397;-1408;
2024-05-20T22:18:56.151;539437752470435911;424125;533853;431506;-1399;
2024-05-20T22:18:56.169;539437752488603748;424251;534025;431642;-1405;
2024-05-20T22:18:56.187;539437752506771585;424388;534136;431745;-1422;
2024-05-20T22:18:56.205;539437752524939422;424305;534108;431751;-1368;
2024-05-20T22:18:56.224;539437752543107259;424238;534043;431644;-1381;
2024-05-20T22:18:56.242;539437752561275096;423929;533737;431412;-1311;
2024-05-20T22:18:56.260;539437752579442933;423600;533352;431104;-1355;
2024-05-20T22:18:56.278;539437752597610770;423257;533044;430799;-1371;
2024-05-20T22:18:56.296;539437752615778607;422930;532642;430515;-1419;
2024-05-20T22:18:56.314;539437752633946444;422791;532465;430326;-1399;
2024-05-20T22:18:56.333;539437752652114281;422709;532375;430192;-1410;
2024-05-20T22:18:56.351;539437752670282118;422697;532308;430149;-1440;
2024-05-20T22:18:56.369;539437752688449955;422820;532378;430224;-1414;
2024-05-20T22:18:56.387;539437752706617792;422964;532499;430316;-1396;
2024-05-20T22:18:56.405;539437752724785629;423155;532772;430443;-1408;
2024-05-20T22:18:56.423;539437752742953466;423256;532861;430551;-1442;
2024-05-20T22:18:56.442;539437752761121303;423532;533158;430769;-1421;
2024-05-20T22:18:56.460;539437752779289140;423778;533373;430975;-1405;
2024-05-20T22:18:56.478;539437752797456977;423897;533561;431097;-1411;
2024-05-20T22:18:56.496;539437752815624814;424014;533817;431305;-1422;
2024-05-20T22:18:56.514;539437752833792651;424159;533916;431451;-1415;
2024-05-20T22:18:56.532;539437752851960488;424335;534075;431596;-1390;
2024-05-20T22:18:56.551;539437752870128325;424439;534290;431704;-1427;
2024-05-20T22:18:56.569;539437752888296162;424608;534402;431860;-1389;
2024-05-20T22:18:56.587;539437752906463999;424608;534472;431880;-1441;
2024-05-20T22:18:56.605;539437752924631380;424739;534614;432054;-1407;
2024-05-20T22:18:56.623;539437752942798745;424849;534800;432094;-1362;
2024-05-20T22:18:56.641;539437752960966110;424879;534870;432194;-1463;
2024-05-20T22:18:56.660;539437752979133475;424996;534930;432265;-1464;
2024-05-20T22:18:56.678;539437752997300840;425153;535083;432341;-1446;
2024-05-20T22:18:56.696;539437753015468205;425192;535226;432501;-1391;
2024-05-20T22:18:56.714;539437753033635570;425177;535202;432486;-1414;
2024-05-20T22:18:56.732;539437753051802935;424916;535042;432401;-1381;
2024-05-20T22:18:56.750;539437753069970300;424652;534780;432131;-1362;
2024-05-20T22:18:56.769;539437753088137665;424279;534364;431820;-1391;
2024-05-20T22:18:56.787;539437753106305030;423939;533970;431455;-1428;
2024-05-20T22:18:56.805;539437753124472395;423773;533796;431288;-1414;
2024-05-20T22:18:56.823;539437753142639760;423666;533694;431165;-1371;
2024-05-20T22:18:56.841;539437753160807125;423656;533597;431149;-1441;
2024-05-20T22:18:56.859;539437753178974490;423672;533566;431045;-1410;
2024-05-20T22:18:56.878;539437753197141855;423806;533670;431106;-1364;
2024-05-20T22:18:56.896;539437753215309220;423942;533800;431258;-1415;
2024-05-20T22:18:56.914;539437753233476585;424101;533983;431378;-1432;
2024-05-20T22:18:56.932;539437753251643950;424328;534216;431610;-1376;
2024-05-20T22:18:56.950;539437753269811315;424546;534461;431755;-1381;
2024-05-20T22:18:56.968;539437753287978680;424681;534668;431903;-1439;
2024-05-20T22:18:56.987;539437753306146045;424871;534884;432086;-1406;
2024-05-20T22:18:57.005;539437753324313410;425022;535032;432234;-1413;
2024-05-20T22:18:57.023;539437753342480775;425168;535223;432378;-1398;
2024-05-20T22:18:57.041;539437753360648140;425310;535338;432494;-1381;
2024-05-20T22:18:57.059;539437753378815505;425374;535486;432612;-1407;
2024-05-20T22:18:57.077;539437753396982870;425523;535632;432689;-1403;
2024-05-20T22:18:57.096;539437753415150235;425562;535712;432841;-1439;
2024-05-20T22:18:57.114;539437753433317600;425718;535859;432967;-1414;
2024-05-20T22:18:57.132;539437753451484965;425806;535951;433048;-1377;
2024-05-20T22:18:57.150;539437753469652330;425865;536099;433131;-1413;
2024-05-20T22:18:57.168;539437753487819695;425945;536206;433224;-1375;
2024-05-20T22:18:57.186;539437753505987060;426026;536305;433273;-1403;
2024-05-20T22:18:57.205;539437753524154425;426061;536327;433351;-1375;
2024-05-20T22:18:57.223;539437753542321790;425751;536207;433165;-1457;
2024-05-20T22:18:57.241;539437753560489155;425517;535890;432906;-1411;
2024-05-20T22:18:57.259;539437753578656520;425116;535513;432503;-1423;
2024-05-20T22:18:57.277;539437753596823885;424756;535097;432245;-1399;
2024-05-20T22:18:57.296;539437753614991250;424477;534768;431876;-1356;
2024-05-20T22:18:57.314;539437753633158615;424201;534448;431643;-1389;
2024-05-20T22:18:57.332;539437753651325980;424146;534315;431525;-1374;
2024-05-20T22:18:57.350;539437753669493345;424067;534197;431423;-1407;
2024-05-20T22:18:57.368;539437753687661528;424196;534258;431482;-1369;
2024-05-20T22:18:57.386;539437753705829675;424212;534317;431471;-1389;
2024-05-20T22:18:57.405;539437753723997822;424373;534543;431592;-1440;
2024-05-20T22:18:57.423;539437753742165969;424562;534750;431739;-1479;
2024-05-20T22:18:57.441;539437753760334116;424779;535013;431948;-1389;
2024-05-20T22:18:57.459;539437753778502263;425006;535226;432101;-1431;
2024-05-20T22:18:57.477;539437753796670410;425115;535367;432265;-1406;
2024-05-20T22:18:57.495;539437753814838557;425259;535520;432411;-1447;
2024-05-20T22:18:57.514;539437753833006704;425431;535743;432568;-1375;
2024-05-20T22:18:57.532;539437753851174851;425558;535825;432600;-1417;
2024-05-20T22:18:57.550;539437753869342998;425610;536028;432730;-1413;
2024-05-20T22:18:57.568;539437753887511145;425733;536098;432829;-1420;
2024-05-20T22:18:57.586;539437753905679292;425727;536192;432882;-1479;
2024-05-20T22:18:57.604;539437753923847439;425873;536302;433056;-1388;
2024-05-20T22:18:57.623;539437753942015586;425883;536382;433077;-1432;
2024-05-20T22:18:57.641;539437753960183733;425988;536485;433146;-1445;
2024-05-20T22:18:57.659;539437753978351880;426036;536501;433196;-1433;
2024-05-20T22:18:57.677;539437753996520027;426130;536670;433268;-1415;
2024-05-20T22:18:57.695;539437754014688174;426145;536814;433393;-1404;
2024-05-20T22:18:57.713;539437754032856321;426024;536697;433279;-1362;
2024-05-20T22:18:57.732;539437754051024468;425837;536484;433078;-1390;
2024-05-20T22:18:57.750;539437754069192615;425340;535970;432663;-1476;
2024-05-20T22:18:57.768;539437754087360762;424847;535465;432250;-1505;
2024-05-20T22:18:57.786;539437754105528909;424408;535097;431871;-1478;
2024-05-20T22:18:57.804;539437754123697056;424081;534721;431589;-1455;
2024-05-20T22:18:57.822;539437754141865203;423875;534400;431309;-1460;
2024-05-20T22:18:57.841;539437754160033350;423739;534261;431082;-1449;
2024-05-20T22:18:57.859;539437754178201497;423703;534196;431002;-1409;
2024-05-20T22:18:57.877;539437754196369644;423715;534200;431052;-1392;
2024-05-20T22:18:57.895;539437754214537791;423818;534271;431110;-1390;
2024-05-20T22:18:57.913;539437754232705938;423878;534390;431241;-1410;
2024-05-20T22:18:57.931;539437754250874085;424049;534588;431396;-1405;
2024-05-20T22:18:57.950;539437754269042232;424227;534706;431485;-1399;
2024-05-20T22:18:57.968;539437754287210379;424427;534897;431671;-1409;
2024-05-20T22:18:57.986;539437754305378526;424532;535037;431746;-1464;
2024-05-20T22:18:58.004;539437754323546673;424704;535289;431945;-1450;
2024-05-20T22:18:58.022;539437754341714820;424852;535452;432121;-1454;
2024-05-20T22:18:58.040;539437754359882967;424975;535548;432154;-1492;
2024-05-20T22:18:58.059;539437754378051114;425062;535648;432248;-1483;
2024-05-20T22:18:58.077;539437754396219860;425181;535774;432374;-1460;
2024-05-20T22:18:58.095;539437754414388606;425236;535906;432519;-1455;
2024-05-20T22:18:58.113;539437754432557352;425272;535973;432594;-1468;
2024-05-20T22:18:58.131;539437754450726098;425375;536091;432633;-1431;
2024-05-20T22:18:58.149;539437754468894844;425505;536182;432718;-1447;
2024-05-20T22:18:58.168;539437754487063590;425567;536260;432745;-1457;
2024-05-20T22:18:58.186;539437754505232336;425665;536383;432864;-1411;
2024-05-20T22:18:58.204;539437754523401082;425635;536420;432983;-1450;
2024-05-20T22:18:58.222;539437754541569828;425493;536315;432904;-1407;
2024-05-20T22:18:58.240;539437754559738574;425185;536079;432607;-1511;
2024-05-20T22:18:58.258;539437754577907320;424833;535773;432327;-1433;
2024-05-20T22:18:58.277;539437754596076066;424467;535268;431906;-1424;
2024-05-20T22:18:58.295;539437754614244812;424103;534881;431627;-1458;
2024-05-20T22:18:58.313;539437754632413558;423878;534566;431281;-1380;
2024-05-20T22:18:58.331;539437754650582304;423668;534369;431073;-1414;
2024-05-20T22:18:58.349;539437754668751050;423518;534219;430960;-1466;
2024-05-20T22:18:58.367;539437754686919796;423571;534248;430992;-1462;
2024-05-20T22:18:58.386;539437754705088542;423673;534323;431055;-1427;
2024-05-20T22:18:58.404;539437754723257288;423856;534485;431176;-1455;
2024-05-20T22:18:58.422;539437754741426034;423953;534653;431254;-1472;
2024-05-20T22:18:58.440;539437754759594780;424243;534855;431426;-1430;
2024-05-20T22:18:58.458;539437754777763526;424421;535193;431711;-1472;
2024-05-20T22:18:58.476;539437754795932272;424591;535337;431859;-1455;
2024-05-20T22:18:58.495;539437754814101018;424815;535504;432027;-1423;
2024-05-20T22:18:58.513;539437754832269764;424888;535685;432117;-1387;
2024-05-20T22:18:58.531;539437754850438510;425069;535830;432286;-1398;
2024-05-20T22:18:58.549;539437754868607256;425205;535920;432466;-1408;
2024-05-20T22:18:58.567;539437754886776002;425206;536078;432545;-1407;
2024-05-20T22:18:58.585;539437754904944748;425286;536147;432617;-1433;
2024-05-20T22:18:58.604;539437754923113494;425345;536246;432691;-1422;
2024-05-20T22:18:58.622;539437754941282240;425448;536339;432754;-1444;
2024-05-20T22:18:58.640;539437754959450986;425535;536441;432860;-1397;
2024-05-20T22:18:58.658;539437754977619732;425609;536503;432870;-1466;
2024-05-20T22:18:58.676;539437754995788478;425692;536637;432950;-1388;
2024-05-20T22:18:58.694;539437755013957224;425699;536664;432971;-1391;
2024-05-20T22:18:58.713;539437755032125970;425764;536764;433075;-1393;
2024-05-20T22:18:58.731;539437755050294716;425666;536660;433030;-1439;
2024-05-20T22:18:58.749;539437755068463462;425377;536435;432828;-1424;
2024-05-20T22:18:58.767;539437755086632208;425043;536122;432549;-1463;
2024-05-20T22:18:58.785;539437755104800954;424687;535690;432244;-1439;
2024-05-20T22:18:58.803;539437755122969700;424361;535397;431941;-1433;
2024-05-20T22:18:58.822;539437755141138446;424178;535131;431754;-1386;
2024-05-20T22:18:58.840;539437755159308151;423934;534932;431552;-1466;
2024-05-20T22:18:58.858;539437755177477823;423837;534888;431432;-1420;
2024-05-20T22:18:58.876;539437755195647495;423866;534901;431451;-1388;
2024-05-20T22:18:58.894;539437755213817167;424005;534888;431442;-1437;
2024-05-20T22:18:58.912;539437755231986839;424125;535052;431582;-1402;
2024-05-20T22:18:58.931;539437755250156511;424289;535207;431647;-1463;
2024-05-20T22:18:58.949;539437755268326183;424440;535438;431830;-1439;
2024-05-20T22:18:58.967;539437755286495855;424559;535599;431941;-1440;
2024-05-20T22:18:58.985;539437755304665527;424738;535771;432117;-1437;
2024-05-20T22:18:59.003;539437755322835199;424888;536022;432263;-1436;
2024-05-20T22:18:59.022;539437755341004871;424971;536135;432440;-1430;
2024-05-20T22:18:59.040;539437755359174543;425138;536276;432577;-1446;
2024-05-20T22:18:59.058;539437755377344215;425268;536394;432698;-1431;
2024-05-20T22:18:59.076;539437755395513887;425471;536519;432829;-1404;
2024-05-20T22:18:59.094;539437755413683559;425558;536692;432911;-1454;
2024-05-20T22:18:59.112;539437755431853231;425595;536747;433014;-1460;
2024-05-20T22:18:59.131;539437755450022903;425626;536832;433073;-1430;
2024-05-20T22:18:59.149;539437755468192575;425711;536953;433118;-1455;
2024-05-20T22:18:59.167;539437755486362247;425786;537054;433247;-1377;
2024-05-20T22:18:59.185;539437755504531919;425869;537113;433357;-1436;
2024-05-20T22:18:59.203;539437755522701591;425858;537210;433328;-1396;
2024-05-20T22:18:59.221;539437755540871263;425809;537030;433292;-1425;
2024-05-20T22:18:59.240;539437755559040935;425579;536855;433132;-1374;
2024-05-20T22:18:59.258;539437755577210607;425273;536587;432928;-1379;
2024-05-20T22:18:59.276;539437755595380279;424935;536216;432599;-1430;
2024-05-20T22:18:59.294;539437755613549951;424579;535831;432258;-1403;
2024-05-20T22:18:59.312;539437755631719623;424433;535654;432156;-1331;
2024-05-20T22:18:59.330;539437755649889295;424293;535478;431949;-1427;
2024-05-20T22:18:59.349;539437755668058967;424254;535428;431859;-1438;
2024-05-20T22:18:59.367;539437755686228639;424266;535406;431861;-1460;
2024-05-20T22:18:59.385;539437755704398311;424399;535415;431942;-1428;
2024-05-20T22:18:59.403;539437755722567983;424464;535626;432027;-1446;
2024-05-20T22:18:59.421;539437755740737655;424630;535790;432211;-1430;
2024-05-20T22:18:59.439;539437755758907327;424847;536008;432347;-1400;
2024-05-20T22:18:59.458;539437755777076999;424900;536175;432467;-1393;
2024-05-20T22:18:59.476;539437755795246671;425071;536347;432610;-1407;
2024-05-20T22:18:59.494;539437755813416343;425257;536503;432814;-1449;
2024-05-20T22:18:59.512;539437755831586015;425421;536690;432935;-1386;
2024-05-20T22:18:59.530;539437755849755687;425524;536824;433052;-1429;
2024-05-20T22:18:59.548;539437755867925359;425610;536895;433157;-1426;
2024-05-20T22:18:59.567;539437755886095031;425648;537061;433242;-1427;
2024-05-20T22:18:59.585;539437755904263978;425767;537137;433362;-1386;
2024-05-20T22:18:59.603;539437755922432908;425825;537224;433355;-1382;
2024-05-20T22:18:59.621;539437755940601838;425906;537277;433444;-1449;
2024-05-20T22:18:59.639;539437755958770768;425927;537346;433519;-1409;
2024-05-20T22:18:59.657;539437755976939698;426091;537434;433612;-1390;
2024-05-20T22:18:59.676;539437755995108628;426077;537378;433572;-1405;
2024-05-20T22:18:59.694;539437756013277558;426026;537440;433632;-1407;
2024-05-20T22:18:59.712;539437756031446488;425765;537207;433448;-1420;
2024-05-20T22:18:59.730;539437756049615418;425427;536908;433252;-1377;
2024-05-20T22:18:59.748;539437756067784348;425022;536430;432785;-1397;
2024-05-20T22:18:59.766;539437756085953278;424533;535931;432361;-1410;
2024-05-20T22:18:59.785;539437756104122208;424215;535521;431988;-1408;
2024-05-20T22:18:59.803;539437756122291138;423912;535187;431752;-1439;
2024-05-20T22:18:59.821;539437756140460068;423754;534958;431601;-1359;
2024-05-20T22:18:59.839;539437756158628998;423639;534915;431456;-1445;
2024-05-20T22:18:59.857;539437756176797928;423708;534990;431491;-1354;
2024-05-20T22:18:59.875;539437756194966858;423786;534992;431511;-1387;
2024-05-20T22:18:59.894;539437756213135788;423989;535069;431588;-1379;
2024-05-20T22:18:59.912;539437756231304718;424043;535115;431641;-1433;
2024-05-20T22:18:59.930;539437756249473648;424182;535293;431811;-1399;
2024-05-20T22:18:59.948;539437756267642578;424199;535460;431916;-1410;
2024-05-20T22:18:59.966;539437756285811508;424412;535534;432020;-1407;
2024-05-20T22:18:59.984;539437756303980438;424460;535711;432147;-1416;
2024-05-20T22:19:00.003;539437756322149368;424528;535805;432221;-1441;
2024-05-20T22:19:00.021;539437756340318298;424635;535887;432272;-1439;
2024-05-20T22:19:00.039;539437756358487228;424682;535976;432350;-1439;
2024-05-20T22:19:00.057;539437756376656158;424731;536045;432348;-1376;
2024-05-20T22:19:00.075;539437756394825088;424700;536062;432489;-1382;
2024-05-20T22:19:00.094;539437756412994018;424764;536135;432503;-1370;
2024-05-20T22:19:00.112;539437756431162948;424820;536162;432549;-1355;
2024-05-20T22:19:00.130;539437756449331878;424813;536168;432589;-1391;
2024-05-20T22:19:00.148;539437756467500808;424727;536147;432518;-1419;
2024-05-20T22:19:00.166;539437756485669738;424784;536150;432537;-1424;
2024-05-20T22:19:00.184;539437756503838668;424584;536043;432466;-1410;
2024-05-20T22:19:00.203;539437756522007598;424226;535707;432252;-1334;
2024-05-20T22:19:00.221;539437756540176528;423730;535117;431755;-1459;
2024-05-20T22:19:00.239;539437756558345458;423092;534611;431305;-1441;
2024-05-20T22:19:00.257;539437756576514388;422612;534081;430800;-1438;
2024-05-20T22:19:00.275;539437756594683318;422251;533537;430352;-1436;
2024-05-20T22:19:00.293;539437756612851361;421933;533113;430039;-1400;
2024-05-20T22:19:00.312;539437756631019368;421756;532878;429780;-1373;
2024-05-20T22:19:00.330;539437756649187375;421672;532702;429685;-1395;
2024-05-20T22:19:00.348;539437756667355382;421603;532700;429695;-1440;
2024-05-20T22:19:00.366;539437756685523389;421771;532702;429729;-1357;
2024-05-20T22:19:00.384;539437756703691396;421833;532783;429756;-1429;
2024-05-20T22:19:00.402;539437756721859403;421978;532928;429928;-1439;
2024-05-20T22:19:00.421;539437756740027410;422067;533001;429955;-1405;
2024-05-20T22:19:00.439;539437756758195417;422215;533204;430116;-1391;
2024-05-20T22:19:00.457;539437756776363424;422288;533273;430196;-1405;
2024-05-20T22:19:00.475;539437756794531431;422445;533460;430322;-1371;
2024-05-20T22:19:00.493;539437756812699438;422524;533533;430455;-1368;
2024-05-20T22:19:00.511;539437756830867445;422687;533642;430569;-1318;
2024-05-20T22:19:00.530;539437756849035452;422763;533747;430596;-1381;
2024-05-20T22:19:00.548;539437756867203459;422787;533823;430670;-1427;
2024-05-20T22:19:00.566;539437756885371466;422953;533904;430752;-1410;
2024-05-20T22:19:00.584;539437756903539473;422990;533974;430914;-1375;
2024-05-20T22:19:00.602;539437756921707480;423073;534026;430957;-1383;
2024-05-20T22:19:00.620;539437756939875487;423167;534107;430976;-1458;
2024-05-20T22:19:00.639;539437756958043494;423225;534168;431099;-1381;
2024-05-20T22:19:00.657;539437756976211501;423237;534213;431142;-1338;
2024-05-20T22:19:00.675;539437756994379508;423129;534142;431042;-1414;
2024-05-20T22:19:00.693;539437757012547515;422873;533902;430913;-1407;
2024-05-20T22:19:00.711;539437757030715522;422429;533498;430548;-1372;
2024-05-20T22:19:00.729;539437757048883529;422066;532968;430197;-1380;
2024-05-20T22:19:00.748;539437757067051536;421699;532574;429882;-1352;
2024-05-20T22:19:00.766;539437757085219543;421375;532133;429413;-1388;
2024-05-20T22:19:00.784;539437757103387550;421155;531875;429169;-1400;
2024-05-20T22:19:00.802;539437757121555557;420990;531679;429023;-1406;
2024-05-20T22:19:00.820;539437757139723564;421013;531596;428981;-1365;
2024-05-20T22:19:00.838;539437757157891571;421010;531625;429006;-1408;
2024-05-20T22:19:00.857;539437757176059578;421096;531689;429080;-1374;
2024-05-20T22:19:00.875;539437757194227585;421231;531792;429133;-1328;
2024-05-20T22:19:00.893;539437757212395592;421384;531900;429277;-1395;
2024-05-20T22:19:00.911;539437757230563599;421614;532057;429473;-1350;
2024-05-20T22:19:00.929;539437757248731606;421730;532284;429592;-1361;
2024-05-20T22:19:00.947;539437757266899613;421855;532380;429681;-1383;
2024-05-20T22:19:00.966;539437757285067620;421998;532501;429883;-1444;
2024-05-20T22:19:00.984;539437757303236388;422046;532659;429981;-1376;
2024-05-20T22:19:01.002;539437757321405126;422140;532766;430030;-1395;
2024-05-20T22:19:01.020;539437757339573864;422287;532827;430112;-1437;
2024-05-20T22:19:01.038;539437757357742602;422357;532928;430276;-1356;
2024-05-20T22:19:01.056;539437757375911340;422454;532918;430269;-1387;
2024-05-20T22:19:01.075;539437757394080078;422493;532960;430306;-1405;
2024-05-20T22:19:01.093;539437757412248816;422457;533111;430369;-1402;
2024-05-20T22:19:01.111;539437757430417554;422506;533217;430454;-1400;
2024-05-20T22:19:01.129;539437757448586292;422543;533216;430536;-1436;
2024-05-20T22:19:01.147;539437757466755030;422655;533324;430629;-1388;
2024-05-20T22:19:01.165;539437757484923768;422625;533288;430598;-1417;
2024-05-20T22:19:01.184;539437757503092506;422407;533101;430406;-1416;
2024-05-20T22:19:01.202;539437757521261244;421969;532679;430146;-1383;
2024-05-20T22:19:01.220;539437757539429982;421538;532173;429663;-1420;
2024-05-20T22:19:01.238;539437757557598720;421144;531694;429298;-1360;
2024-05-20T22:19:01.256;539437757575767458;420839;531321;428983;-1372;
2024-05-20T22:19:01.274;539437757593936196;420610;531058;428744;-1333;
2024-05-20T22:19:01.293;539437757612104934;420469;530840;428572;-1320;
2024-05-20T22:19:01.311;539437757630273672;420425;530791;428509;-1359;
2024-05-20T22:19:01.329;539437757648442410;420520;530858;428551;-1397;
2024-05-20T22:19:01.347;539437757666611148;420586;530900;428640;-1391;
2024-05-20T22:19:01.365;539437757684779886;420690;530972;428721;-1460;
2024-05-20T22:19:01.383;539437757702948624;420887;531224;428845;-1385;
2024-05-20T22:19:01.402;539437757721117362;421125;531361;429017;-1372;
2024-05-20T22:19:01.420;539437757739286100;421225;531441;429132;-1422;
2024-05-20T22:19:01.438;539437757757454838;421342;531624;429299;-1437;
2024-05-20T22:19:01.456;539437757775623576;421423;531685;429343;-1429;
2024-05-20T22:19:01.474;539437757793792314;421600;531838;429505;-1410;
2024-05-20T22:19:01.492;539437757811961052;421684;531962;429605;-1453;
2024-05-20T22:19:01.511;539437757830129790;421782;532027;429658;-1414;
2024-05-20T22:19:01.529;539437757848298528;421828;532092;429792;-1405;
2024-05-20T22:19:01.547;539437757866467266;421940;532189;429798;-1383;
2024-05-20T22:19:01.565;539437757884636004;421966;532252;429941;-1363;
2024-05-20T22:19:01.583;539437757902804742;421997;532305;429954;-1409;
2024-05-20T22:19:01.601;539437757920973480;422051;532360;429990;-1432;
2024-05-20T22:19:01.620;539437757939142218;422127;532470;430071;-1438;
2024-05-20T22:19:01.638;539437757957310956;422083;532406;430104;-1407;
2024-05-20T22:19:01.656;539437757975479694;421939;532305;430019;-1397;
2024-05-20T22:19:01.674;539437757993648432;421532;531967;429704;-1446;
2024-05-20T22:19:01.692;539437758011817170;421130;531505;429330;-1385;
2024-05-20T22:19:01.710;539437758029984878;420756;530940;428905;-1434;
2024-05-20T22:19:01.729;539437758048152564;420332;530467;428499;-1431;
2024-05-20T22:19:01.747;539437758066320250;419967;530126;428270;-1474;
2024-05-20T22:19:01.765;539437758084487936;419783;529809;428048;-1467;
2024-05-20T22:19:01.783;539437758102655622;419750;529680;427919;-1439;
2024-05-20T22:19:01.801;539437758120823308;419761;529668;427873;-1399;
2024-05-20T22:19:01.820;539437758138990994;419834;529659;427867;-1407;
2024-05-20T22:19:01.838;539437758157158680;419927;529764;427953;-1395;
2024-05-20T22:19:01.856;539437758175326366;420002;529853;428000;-1413;
2024-05-20T22:19:01.874;539437758193494052;420174;530059;428196;-1387;
2024-05-20T22:19:01.892;539437758211661738;420279;530139;428316;-1425;
2024-05-20T22:19:01.910;539437758229829424;420427;530266;428464;-1430;
2024-05-20T22:19:01.929;539437758247997110;420569;530444;428552;-1466;
2024-05-20T22:19:01.947;539437758266164796;420677;530568;428666;-1383;
2024-05-20T22:19:01.965;539437758284332482;420809;530653;428737;-1400;
2024-05-20T22:19:01.983;539437758302500168;420855;530669;428845;-1407;
2024-05-20T22:19:02.001;539437758320667854;420871;530781;428852;-1410;
2024-05-20T22:19:02.019;539437758338835540;420886;530789;428910;-1411;
2024-05-20T22:19:02.038;539437758357003226;420959;530838;428927;-1460;
2024-05-20T22:19:02.056;539437758375170912;420979;530861;429015;-1425;
2024-05-20T22:19:02.074;539437758393338598;420985;530865;428977;-1440;
2024-05-20T22:19:02.092;539437758411506284;421028;530882;428985;-1414;
2024-05-20T22:19:02.110;539437758429673970;420976;530857;429007;-1437;
2024-05-20T22:19:02.128;539437758447841656;420940;530839;428971;-1415;
2024-05-20T22:19:02.147;539437758466009342;420667;530617;428817;-1373;
2024-05-20T22:19:02.165;539437758484177028;420155;530100;428439;-1388;
2024-05-20T22:19:02.183;539437758502344714;419526;529548;427931;-1426;
2024-05-20T22:19:02.201;539437758520512400;418948;528822;427362;-1459;
2024-05-20T22:19:02.219;539437758538680086;418472;528181;426866;-1395;
2024-05-20T22:19:02.237;539437758556847772;417981;527660;426426;-1423;
2024-05-20T22:19:02.256;539437758575015458;417677;527217;426088;-1358;
2024-05-20T22:19:02.274;539437758593183144;417453;526969;425833;-1419;
2024-05-20T22:19:02.292;539437758611350830;417402;526744;425727;-1437;
2024-05-20T22:19:02.310;539437758629518516;417355;526644;425573;-1477;
2024-05-20T22:19:02.328;539437758647686202;417432;526665;425660;-1440;
2024-05-20T22:19:02.346;539437758665853888;417594;526792;425755;-1415;
2024-05-20T22:19:02.365;539437758684021574;417718;526851;425840;-1413;
2024-05-20T22:19:02.383;539437758702189260;417803;526938;425958;-1405;
2024-05-20T22:19:02.401;539437758720355385;417916;527121;426116;-1419;
2024-05-20T22:19:02.419;539437758738521478;418131;527333;426279;-1360;
2024-05-20T22:19:02.437;539437758756687571;418218;527324;426358;-1427;
2024-05-20T22:19:02.455;539437758774853664;418262;527389;426385;-1425;
2024-05-20T22:19:02.474;539437758793019757;418245;527406;426404;-1458;
2024-05-20T22:19:02.492;539437758811185850;418331;527475;426440;-1370;
2024-05-20T22:19:02.510;539437758829351943;418263;527480;426563;-1330;
2024-05-20T22:19:02.528;539437758847518036;418305;527407;426522;-1415;
2024-05-20T22:19:02.546;539437758865684129;418407;527453;426589;-1378;
2024-05-20T22:19:02.564;539437758883850222;418417;527451;426622;-1394;
2024-05-20T22:19:02.583;539437758902016315;418461;527557;426683;-1351;
2024-05-20T22:19:02.601;539437758920182408;418479;527626;426717;-1391;
2024-05-20T22:19:02.619;539437758938348501;418431;527586;426670;-1423;
2024-05-20T22:19:02.637;539437758956514594;418292;527355;426558;-1437;
2024-05-20T22:19:02.655;539437758974680687;417815;526880;426161;-1497;
2024-05-20T22:19:02.673;539437758992846780;417289;526311;425792;-1414;
2024-05-20T22:19:02.692;539437759011012873;416790;525699;425288;-1381;
2024-05-20T22:19:02.710;539437759029178966;416325;525118;424758;-1404;
2024-05-20T22:19:02.728;539437759047345059;415900;524608;424390;-1354;
2024-05-20T22:19:02.746;539437759065511152;415565;524212;424076;-1454;
2024-05-20T22:19:02.764;539437759083677245;415433;523974;423838;-1369;
2024-05-20T22:19:02.782;539437759101843338;415389;523849;423793;-1427;
2024-05-20T22:19:02.801;539437759120009431;415421;523837;423804;-1409;
2024-05-20T22:19:02.819;539437759138175524;415551;523894;423869;-1341;
2024-05-20T22:19:02.837;539437759156341617;415680;523931;423932;-1352;
2024-05-20T22:19:02.855;539437759174507710;415831;524101;424077;-1376;
2024-05-20T22:19:02.873;539437759192673803;416023;524241;424224;-1415;
2024-05-20T22:19:02.891;539437759210839896;416214;524428;424380;-1368;
2024-05-20T22:19:02.910;539437759229005989;416331;524587;424467;-1381;
2024-05-20T22:19:02.928;539437759247172082;416519;524758;424673;-1387;
2024-05-20T22:19:02.946;539437759265338175;416702;524962;424886;-1338;
2024-05-20T22:19:02.964;539437759283504268;416863;524985;425002;-1351;
2024-05-20T22:19:02.982;539437759301670361;416900;525100;425098;-1426;
2024-05-20T22:19:03.000;539437759319836454;416973;525236;425205;-1343;
2024-05-20T22:19:03.019;539437759338002547;417069;525352;425266;-1427;
2024-05-20T22:19:03.037;539437759356168640;417164;525457;425321;-1434;
2024-05-20T22:19:03.055;539437759374338083;417224;525468;425442;-1417;
2024-05-20T22:19:03.073;539437759392507510;417331;525546;425482;-1379;
2024-05-20T22:19:03.091;539437759410676937;417326;525647;425568;-1388;
2024-05-20T22:19:03.109;539437759428846364;417436;525725;425604;-1362;
2024-05-20T22:19:03.128;539437759447015791;417412;525656;425562;-1412;
2024-05-20T22:19:03.146;539437759465185218;417139;525443;425409;-1403;
2024-05-20T22:19:03.164;539437759483354645;416837;525092;425130;-1345;
2024-05-20T22:19:03.182;539437759501524072;416254;524501;424754;-1427;
2024-05-20T22:19:03.200;539437759519693499;415828;523936;424255;-1443;
2024-05-20T22:19:03.218;539437759537862926;415346;523370;423888;-1408;
2024-05-20T22:19:03.237;539437759556032353;415108;522969;423577;-1371;
2024-05-20T22:19:03.255;539437759574201780;414910;522822;423346;-1374;
2024-05-20T22:19:03.273;539437759592371207;414845;522577;423204;-1372;
2024-05-20T22:19:03.291;539437759610540634;414891;522584;423202;-1428;
2024-05-20T22:19:03.309;539437759628710061;414962;522627;423248;-1424;
2024-05-20T22:19:03.327;539437759646879488;415097;522777;423375;-1388;
2024-05-20T22:19:03.346;539437759665048915;415321;522954;423539;-1381;
2024-05-20T22:19:03.364;539437759683218342;415467;523160;423727;-1398;
2024-05-20T22:19:03.382;539437759701387769;415625;523272;423860;-1487;
2024-05-20T22:19:03.400;539437759719557196;415788;523497;423935;-1390;
2024-05-20T22:19:03.418;539437759737726623;415941;523673;424089;-1392;
2024-05-20T22:19:03.436;539437759755896050;416058;523850;424213;-1387;
2024-05-20T22:19:03.455;539437759774065477;416128;523904;424298;-1411;
2024-05-20T22:19:03.473;539437759792234904;416264;523979;424487;-1382;
2024-05-20T22:19:03.491;539437759810404331;416352;524110;424476;-1388;
2024-05-20T22:19:03.509;539437759828573758;416435;524149;424553;-1336;
2024-05-20T22:19:03.527;539437759846743185;416398;524215;424583;-1414;
2024-05-20T22:19:03.545;539437759864912612;416417;524223;424656;-1411;
2024-05-20T22:19:03.564;539437759883082039;416508;524293;424676;-1468;
2024-05-20T22:19:03.582;539437759901251466;416616;524336;424731;-1446;
2024-05-20T22:19:03.600;539437759919420893;416567;524355;424760;-1396;
2024-05-20T22:19:03.618;539437759937590320;416516;524393;424758;-1379;
2024-05-20T22:19:03.636;539437759955759747;416258;524104;424532;-1403;
2024-05-20T22:19:03.654;539437759973929174;415892;523668;424248;-1348;
2024-05-20T22:19:03.673;539437759992098601;415375;523195;423870;-1363;
2024-05-20T22:19:03.691;539437760010268028;414936;522656;423461;-1326;
2024-05-20T22:19:03.709;539437760028437455;414539;522178;423086;-1358;
2024-05-20T22:19:03.727;539437760046606628;414268;521791;422788;-1339;
2024-05-20T22:19:03.745;539437760064775793;414123;521626;422529;-1379;
2024-05-20T22:19:03.763;539437760082944958;413967;521442;422448;-1436;
2024-05-20T22:19:03.782;539437760101114123;414062;521470;422489;-1356;
2024-05-20T22:19:03.800;539437760119283288;414239;521534;422617;-1328;
2024-05-20T22:19:03.818;539437760137452453;414389;521669;422659;-1355;
2024-05-20T22:19:03.836;539437760155621618;414537;521865;422810;-1317;
2024-05-20T22:19:03.854;539437760173790783;414665;522028;422929;-1378;
2024-05-20T22:19:03.872;539437760191959948;414844;522256;423124;-1398;
2024-05-20T22:19:03.891;539437760210129113;415042;522422;423318;-1411;
2024-05-20T22:19:03.909;539437760228298278;415166;522593;423394;-1431;
2024-05-20T22:19:03.927;539437760246467443;415297;522713;423530;-1393;
2024-05-20T22:19:03.945;539437760264636608;415389;522796;423623;-1358;
2024-05-20T22:19:03.963;539437760282805773;415519;522871;423727;-1432;
2024-05-20T22:19:03.981;539437760300974938;415535;522985;423839;-1427;
2024-05-20T22:19:04.000;539437760319144103;415585;523089;423896;-1382;
2024-05-20T22:19:04.018;539437760337313268;415683;523150;423911;-1350;
2024-05-20T22:19:04.036;539437760355482433;415718;523211;423960;-1378;
2024-05-20T22:19:04.054;539437760373651598;415824;523296;424051;-1339;
2024-05-20T22:19:04.072;539437760391820763;415809;523342;424115;-1390;
2024-05-20T22:19:04.091;539437760409989928;415876;523424;424125;-1379;
2024-05-20T22:19:04.109;539437760428159093;415841;523320;424111;-1330;
2024-05-20T22:19:04.127;539437760446328258;415574;523088;423956;-1437;
2024-05-20T22:19:04.145;539437760464497423;415158;522686;423636;-1436;
2024-05-20T22:19:04.163;539437760482666588;414649;522120;423145;-1374;
2024-05-20T22:19:04.181;539437760500835753;414119;521467;422701;-1343;
2024-05-20T22:19:04.200;539437760519004918;413597;520944;422198;-1322;
2024-05-20T22:19:04.218;539437760537174083;413205;520448;421781;-1334;
2024-05-20T22:19:04.236;539437760555343248;412903;520145;421540;-1393;
2024-05-20T22:19:04.254;539437760573512413;412721;519863;421363;-1376;
2024-05-20T22:19:04.272;539437760591681578;412710;519748;421270;-1406;
2024-05-20T22:19:04.290;539437760609850743;412780;519723;421282;-1444;
2024-05-20T22:19:04.309;539437760628019908;412870;519873;421369;-1343;
2024-05-20T22:19:04.327;539437760646189073;412982;519902;421478;-1405;
2024-05-20T22:19:04.345;539437760664358238;413208;520153;421644;-1431;
2024-05-20T22:19:04.363;539437760682527403;413281;520293;421753;-1389;
2024-05-20T22:19:04.381;539437760700696568;413422;520491;421822;-1409;
2024-05-20T22:19:04.399;539437760718865733;413603;520556;421963;-1402;
2024-05-20T22:19:04.418;539437760737034898;413745;520736;422148;-1380;
2024-05-20T22:19:04.436;539437760755203915;413810;520851;422255;-1424;
2024-05-20T22:19:04.454;539437760773372930;413910;520879;422315;-1409;
2024-05-20T22:19:04.472;539437760791541945;413991;520997;422412;-1398;
2024-05-20T22:19:04.490;539437760809710960;414015;521128;422479;-1340;
2024-05-20T22:19:04.508;539437760827879975;414070;521120;422546;-1379;
2024-05-20T22:19:04.527;539437760846048990;414238;521277;422701;-1350;
2024-05-20T22:19:04.545;539437760864218005;414258;521296;422694;-1420;
2024-05-20T22:19:04.563;539437760882387020;414303;521450;422805;-1412;
2024-05-20T22:19:04.581;539437760900556035;414379;521493;422869;-1404;
2024-05-20T22:19:04.599;539437760918725050;414456;521652;422931;-1398;
2024-05-20T22:19:04.617;539437760936894065;414252;521577;422808;-1449;
2024-05-20T22:19:04.636;539437760955063080;414012;521255;422604;-1460;
2024-05-20T22:19:04.654;539437760973232095;413625;520802;422321;-1338;
2024-05-20T22:19:04.672;539437760991401110;413114;520321;421939;-1445;
2024-05-20T22:19:04.690;539437761009570125;412686;519738;421484;-1374;
2024-05-20T22:19:04.708;539437761027739140;412304;519237;421110;-1311;
2024-05-20T22:19:04.726;539437761045908155;411978;518877;420767;-1404;
2024-05-20T22:19:04.745;539437761064077170;411816;518592;420566;-1385;
2024-05-20T22:19:04.763;539437761082246185;411825;518521;420476;-1462;
2024-05-20T22:19:04.781;539437761100415200;411807;518462;420478;-1433;
2024-05-20T22:19:04.799;539437761118584215;411903;518631;420611;-1390;
2024-05-20T22:19:04.817;539437761136753230;412146;518737;420704;-1417;
2024-05-20T22:19:04.835;539437761154922245;412385;519046;420976;-1386;
2024-05-20T22:19:04.854;539437761173091260;412572;519265;421146;-1397;
2024-05-20T22:19:04.872;539437761191260275;412787;519485;421345;-1413;
2024-05-20T22:19:04.890;539437761209429290;413103;519757;421605;-1361;
2024-05-20T22:19:04.908;539437761227598305;413194;519983;421788;-1378;
2024-05-20T22:19:04.926;539437761245767320;413419;520168;422007;-1390;
2024-05-20T22:19:04.944;539437761263936335;413650;520414;422196;-1464;
2024-05-20T22:19:04.963;539437761282105350;413786;520549;422286;-1410;
2024-05-20T22:19:04.981;539437761300274365;413822;520717;422360;-1477;
2024-05-20T22:19:04.999;539437761318443380;413994;520874;422443;-1451;
2024-05-20T22:19:05.017;539437761336612395;414042;520964;422592;-1445;
2024-05-20T22:19:05.035;539437761354781410;414189;521072;422690;-1453;
2024-05-20T22:19:05.053;539437761372950425;414352;521175;422788;-1464;
2024-05-20T22:19:05.072;539437761391119440;414461;521412;422989;-1389;
2024-05-20T22:19:05.090;539437761409288455;414556;521554;423038;-1449;
2024-05-20T22:19:05.108;539437761427458544;414728;521646;423110;-1385;
2024-05-20T22:19:05.126;539437761445628597;414717;521778;423221;-1387;
2024-05-20T22:19:05.144;539437761463798650;414605;521674;423134;-1358;
2024-05-20T22:19:05.162;539437761481968703;414267;521358;422948;-1396;
2024-05-20T22:19:05.181;539437761500138756;413965;520976;422697;-1391;
2024-05-20T22:19:05.199;539437761518308809;413495;520484;422263;-1423;
2024-05-20T22:19:05.217;539437761536478862;413158;520096;421958;-1424;
2024-05-20T22:19:05.235;539437761554648915;412943;519777;421633;-1423;
2024-05-20T22:19:05.253;539437761572818968;412807;519515;421464;-1467;
2024-05-20T22:19:05.271;539437761590989021;412735;519499;421445;-1451;
2024-05-20T22:19:05.290;539437761609159074;412764;519577;421424;-1442;
2024-05-20T22:19:05.308;539437761627329127;412856;519709;421508;-1412;
2024-05-20T22:19:05.326;539437761645499180;413007;519829;421600;-1438;
2024-05-20T22:19:05.344;539437761663669233;413176;520076;421822;-1411;
2024-05-20T22:19:05.362;539437761681839286;413401;520204;421996;-1439;
2024-05-20T22:19:05.381;539437761700009339;413715;520561;422203;-1427;
2024-05-20T22:19:05.399;539437761718179392;413950;520842;422375;-1403;
2024-05-20T22:19:05.417;539437761736349445;414165;521038;422608;-1388;
2024-05-20T22:19:05.435;539437761754519498;414394;521248;422853;-1428;
2024-05-20T22:19:05.453;539437761772689551;414554;521507;423002;-1411;
2024-05-20T22:19:05.471;539437761790859604;414705;521710;423156;-1365;
2024-05-20T22:19:05.490;539437761809029657;414874;521857;423297;-1356;
2024-05-20T22:19:05.508;539437761827199710;414992;522002;423407;-1364;
2024-05-20T22:19:05.526;539437761845369763;415068;522163;423512;-1376;
2024-05-20T22:19:05.544;539437761863539816;415166;522294;423651;-1416;
2024-05-20T22:19:05.562;539437761881709869;415318;522404;423791;-1397;
2024-05-20T22:19:05.580;539437761899879922;415406;522550;423911;-1350;
2024-05-20T22:19:05.599;539437761918049975;415622;522825;424054;-1385;
2024-05-20T22:19:05.617;539437761936220028;415770;522952;424177;-1431;
2024-05-20T22:19:05.635;539437761954390081;415815;523088;424285;-1387;
2024-05-20T22:19:05.653;539437761972560134;415711;522978;424237;-1404;
2024-05-20T22:19:05.671;539437761990730187;415475;522734;424066;-1355;
2024-05-20T22:19:05.689;539437762008900240;415083;522428;423759;-1348;
2024-05-20T22:19:05.708;539437762027070293;414741;522042;423427;-1278;
2024-05-20T22:19:05.726;539437762045240346;414380;521624;423082;-1312;
2024-05-20T22:19:05.744;539437762063410399;414204;521414;422877;-1416;
2024-05-20T22:19:05.762;539437762081580452;414144;521312;422798;-1419;
2024-05-20T22:19:05.780;539437762099750505;414171;521252;422784;-1387;
2024-05-20T22:19:05.798;539437762117920558;414125;521305;422768;-1471;
2024-05-20T22:19:05.817;539437762136090611;414388;521527;422929;-1351;
2024-05-20T22:19:05.835;539437762154260664;414574;521705;423090;-1429;
2024-05-20T22:19:05.853;539437762172430717;414791;522022;423296;-1391;
2024-05-20T22:19:05.871;539437762190597614;415047;522173;423465;-1429;
2024-05-20T22:19:05.889;539437762208764507;415274;522505;423703;-1441;
2024-05-20T22:19:05.907;539437762226931400;415446;522770;423969;-1407;
2024-05-20T22:19:05.926;539437762245098293;415694;522990;424128;-1363;
2024-05-20T22:19:05.944;539437762263265186;415839;523205;424310;-1380;
2024-05-20T22:19:05.962;539437762281432079;416009;523379;424475;-1430;
2024-05-20T22:19:05.980;539437762299598972;416159;523534;424639;-1468;
2024-05-20T22:19:05.998;539437762317765865;416265;523731;424771;-1344;
2024-05-20T22:19:06.016;539437762335932758;416430;523993;424898;-1388;
2024-05-20T22:19:06.035;539437762354099651;416518;524106;425034;-1374;
2024-05-20T22:19:06.053;539437762372266544;416708;524260;425144;-1417;
2024-05-20T22:19:06.071;539437762390433437;416807;524472;425309;-1390;
2024-05-20T22:19:06.089;539437762408600330;416961;524688;425509;-1341;
2024-05-20T22:19:06.107;539437762426767223;417063;524839;425609;-1379;
2024-05-20T22:19:06.125;539437762444934116;417171;525051;425748;-1336;
2024-05-20T22:19:06.144;539437762463101009;417243;525088;425864;-1374;
2024-05-20T22:19:06.162;539437762481267902;417049;524913;425642;-1407;
2024-05-20T22:19:06.180;539437762499434795;416776;524627;425430;-1353;
2024-05-20T22:19:06.198;539437762517601688;416380;524156;425101;-1416;
2024-05-20T22:19:06.216;539437762535768581;416073;523743;424827;-1397;
2024-05-20T22:19:06.234;539437762553935474;415693;523400;424516;-1442;
2024-05-20T22:19:06.253;539437762572102367;415568;523231;424328;-1373;
2024-05-20T22:19:06.271;539437762590269260;415542;523064;424204;-1351;
2024-05-20T22:19:06.289;539437762608436153;415494;523036;424126;-1426;
2024-05-20T22:19:06.307;539437762626603046;415567;523089;424252;-1420;
2024-05-20T22:19:06.325;539437762644769939;415734;523230;424336;-1390;
2024-05-20T22:19:06.343;539437762662936832;415977;523487;424549;-1431;
2024-05-20T22:19:06.362;539437762681103725;416210;523743;424747;-1385;
2024-05-20T22:19:06.380;539437762699270618;416347;523931;424859;-1449;
2024-05-20T22:19:06.398;539437762717437511;416601;524209;425063;-1393;
2024-05-20T22:19:06.416;539437762735604404;416757;524427;425211;-1429;
2024-05-20T22:19:06.434;539437762753771297;416963;524685;425465;-1358;
2024-05-20T22:19:06.452;539437762771938190;417105;524900;425589;-1411;
2024-05-20T22:19:06.471;539437762790105083;417256;525064;425718;-1369;
2024-05-20T22:19:06.489;539437762808271976;417366;525234;425821;-1431;
2024-05-20T22:19:06.507;539437762826438869;417497;525454;426036;-1372;
2024-05-20T22:19:06.525;539437762844605762;417623;525554;426104;-1382;
2024-05-20T22:19:06.543;539437762862772655;417697;525684;426172;-1372;
2024-05-20T22:19:06.561;539437762880939548;417843;525855;426327;-1394;
2024-05-20T22:19:06.580;539437762899106441;417934;525968;426410;-1385;
2024-05-20T22:19:06.598;539437762917273334;417995;526113;426524;-1403;
2024-05-20T22:19:06.616;539437762935440227;418127;526229;426622;-1351;
2024-05-20T22:19:06.634;539437762953608092;418133;526297;426676;-1321;
2024-05-20T22:19:06.652;539437762971775929;417984;526212;426609;-1356;
2024-05-20T22:19:06.670;539437762989943766;417645;525909;426325;-1373;
2024-05-20T22:19:06.689;539437763008111603;417306;525503;426031;-1345;
2024-05-20T22:19:06.707;539437763026279440;416853;525069;425604;-1373;
2024-05-20T22:19:06.725;539437763044447277;416464;524635;425248;-1309;
2024-05-20T22:19:06.743;539437763062615114;416146;524351;424945;-1388;
2024-05-20T22:19:06.761;539437763080782951;416044;524116;424748;-1370;
2024-05-20T22:19:06.779;539437763098950788;416009;524051;424686;-1327;
2024-05-20T22:19:06.798;539437763117118625;416017;524008;424618;-1387;
2024-05-20T22:19:06.816;539437763135286462;416055;524094;424746;-1414;
2024-05-20T22:19:06.834;539437763153454299;416165;524249;424841;-1398;
2024-05-20T22:19:06.852;539437763171622136;416359;524475;424978;-1389;
2024-05-20T22:19:06.870;539437763189789973;416563;524659;425118;-1353;
2024-05-20T22:19:06.888;539437763207957810;416752;524816;425260;-1372;
2024-05-20T22:19:06.907;539437763226125647;416918;525072;425472;-1372;
2024-05-20T22:19:06.925;539437763244293484;417116;525298;425647;-1347;
2024-05-20T22:19:06.943;539437763262461321;417298;525435;425823;-1373;
2024-05-20T22:19:06.961;539437763280629158;417436;525670;425915;-1466;
2024-05-20T22:19:06.979;539437763298796995;417502;525901;426079;-1445;
2024-05-20T22:19:06.997;539437763316964832;417753;526079;426222;-1360;
2024-05-20T22:19:07.016;539437763335132669;417777;526158;426320;-1408;
2024-05-20T22:19:07.034;539437763353300506;417824;526278;426441;-1405;
2024-05-20T22:19:07.052;539437763371468343;417896;526432;426478;-1374;
2024-05-20T22:19:07.070;539437763389636180;418057;526567;426627;-1383;
2024-05-20T22:19:07.088;539437763407804017;418143;526602;426734;-1428;
2024-05-20T22:19:07.106;539437763425971854;418223;526755;426842;-1360;
2024-05-20T22:19:07.125;539437763444139691;418274;526879;426921;-1406;
2024-05-20T22:19:07.143;539437763462307528;418287;526988;426955;-1416;
2024-05-20T22:19:07.161;539437763480475365;418203;526895;426877;-1336;
2024-05-20T22:19:07.179;539437763498643202;417886;526541;426640;-1407;
2024-05-20T22:19:07.197;539437763516811039;417459;526132;426264;-1374;
2024-05-20T22:19:07.215;539437763534978876;417058;525708;425931;-1373;
2024-05-20T22:19:07.234;539437763553146713;416713;525256;425596;-1415;
2024-05-20T22:19:07.252;539437763571314550;416405;525011;425334;-1413;
2024-05-20T22:19:07.270;539437763589482387;416331;524715;425185;-1439;
2024-05-20T22:19:07.288;539437763607650224;416308;524785;425118;-1389;
2024-05-20T22:19:07.306;539437763625818061;416343;524745;425106;-1434;
2024-05-20T22:19:07.324;539437763643985898;416431;524896;425234;-1361;
2024-05-20T22:19:07.343;539437763662153735;416515;525022;425295;-1378;
2024-05-20T22:19:07.361;539437763680321572;416694;525197;425396;-1325;
2024-05-20T22:19:07.379;539437763698489409;416886;525470;425593;-1441;
2024-05-20T22:19:07.397;539437763716659452;417127;525693;425832;-1340;
2024-05-20T22:19:07.415;539437763734829469;417237;525912;425944;-1413;
2024-05-20T22:19:07.434;539437763752999486;417475;526116;426122;-1352;
2024-05-20T22:19:07.452;539437763771169503;417626;526304;426335;-1383;
2024-05-20T22:19:07.470;539437763789339520;417772;526431;426438;-1416;
2024-05-20T22:19:07.488;539437763807509537;417906;526671;426634;-1419;
2024-05-20T22:19:07.506;539437763825679554;418043;526881;426768;-1429;
2024-05-20T22:19:07.524;539437763843849571;418152;527049;426806;-1451;
2024-05-20T22:19:07.543;539437763862019588;418254;527146;426966;-1403;
2024-05-20T22:19:07.561;539437763880189605;418373;527386;427126;-1424;
2024-05-20T22:19:07.579;539437763898359622;418498;527411;427188;-1423;
2024-05-20T22:19:07.597;539437763916529639;418558;527548;427270;-1377;
2024-05-20T22:19:07.615;539437763934699656;418657;527739;427369;-1371;
2024-05-20T22:19:07.633;539437763952869673;418760;527814;427504;-1396;
2024-05-20T22:19:07.652;539437763971039690;418824;527869;427548;-1360;
2024-05-20T22:19:07.670;539437763989209707;418693;527836;427523;-1380;
2024-05-20T22:19:07.688;539437764007379724;418402;527555;427357;-1377;
2024-05-20T22:19:07.706;539437764025549741;418096;527236;427080;-1378;
2024-05-20T22:19:07.724;539437764043719758;417720;526791;426664;-1361;
2024-05-20T22:19:07.742;539437764061889775;417438;526468;426465;-1403;
2024-05-20T22:19:07.761;539437764080059792;417317;526323;426246;-1388;
2024-05-20T22:19:07.779;539437764098229809;417151;526249;426212;-1336;
2024-05-20T22:19:07.797;539437764116399826;417192;526096;426133;-1385;
2024-05-20T22:19:07.815;539437764134569843;417270;526154;426136;-1402;
2024-05-20T22:19:07.833;539437764152739860;417388;526275;426274;-1396;
2024-05-20T22:19:07.851;539437764170909877;417564;526509;426415;-1412;
2024-05-20T22:19:07.870;539437764189079894;417763;526685;426655;-1405;
2024-05-20T22:19:07.888;539437764207249911;417964;526945;426833;-1405;
2024-05-20T22:19:07.906;539437764225419928;418207;527221;426991;-1342;
2024-05-20T22:19:07.924;539437764243589945;418351;527422;427127;-1372;
2024-05-20T22:19:07.942;539437764261759962;418564;527606;427364;-1374;
2024-05-20T22:19:07.960;539437764279929979;418777;527857;427539;-1405;
2024-05-20T22:19:07.979;539437764298099996;418984;528003;427715;-1372;
2024-05-20T22:19:07.997;539437764316270013;419062;528265;427869;-1344;
2024-05-20T22:19:08.015;539437764334440030;419164;528399;428009;-1376;
2024-05-20T22:19:08.033;539437764352610047;419329;528505;428109;-1397;
2024-05-20T22:19:08.051;539437764370780064;419484;528614;428269;-1398;
2024-05-20T22:19:08.069;539437764388950081;419541;528808;428348;-1404;
2024-05-20T22:19:08.088;539437764407120098;419635;529023;428431;-1440;
2024-05-20T22:19:08.106;539437764425290115;419758;529112;428558;-1417;
2024-05-20T22:19:08.124;539437764443460132;419851;529301;428683;-1443;
2024-05-20T22:19:08.142;539437764461630149;419985;529436;428843;-1431;
2024-05-20T22:19:08.160;539437764479799968;420152;529615;428958;-1369;
2024-05-20T22:19:08.178;539437764497969767;420029;529632;428974;-1413;
2024-05-20T22:19:08.197;539437764516139566;419942;529392;428836;-1383;
2024-05-20T22:19:08.215;539437764534309365;419660;529176;428680;-1382;
2024-05-20T22:19:08.233;539437764552479164;419264;528823;428378;-1450;
2024-05-20T22:19:08.251;539437764570648963;419009;528501;428099;-1398;
2024-05-20T22:19:08.269;539437764588818762;418825;528309;427985;-1359;
2024-05-20T22:19:08.287;539437764606988561;418689;528250;427830;-1288;
2024-05-20T22:19:08.306;539437764625158360;418693;528107;427804;-1343;
2024-05-20T22:19:08.324;539437764643328159;418758;528260;427796;-1400;
2024-05-20T22:19:08.342;539437764661497958;418868;528394;427912;-1420;
2024-05-20T22:19:08.360;539437764679667757;419062;528590;428035;-1429;
2024-05-20T22:19:08.378;539437764697837556;419254;528753;428143;-1356;
2024-05-20T22:19:08.397;539437764716007355;419439;528931;428344;-1376;
2024-05-20T22:19:08.415;539437764734177154;419681;529156;428567;-1410;
2024-05-20T22:19:08.433;539437764752346953;419862;529452;428759;-1385;
2024-05-20T22:19:08.451;539437764770516752;419991;529592;428929;-1376;
2024-05-20T22:19:08.469;539437764788686551;420160;529792;429088;-1379;
2024-05-20T22:19:08.487;539437764806856350;420334;530049;429281;-1425;
2024-05-20T22:19:08.506;539437764825026149;420488;530161;429449;-1348;
2024-05-20T22:19:08.524;539437764843195948;420637;530272;429527;-1393;
2024-05-20T22:19:08.542;539437764861365747;420767;530434;429722;-1376;
2024-05-20T22:19:08.560;539437764879535546;420919;530632;429808;-1359;
2024-05-20T22:19:08.578;539437764897705345;420941;530752;429901;-1411;
2024-05-20T22:19:08.596;539437764915875144;421045;530971;430037;-1389;
2024-05-20T22:19:08.615;539437764934044943;421249;531102;430169;-1365;
2024-05-20T22:19:08.633;539437764952214742;421309;531202;430251;-1399;
2024-05-20T22:19:08.651;539437764970384541;421407;531365;430357;-1350;
2024-05-20T22:19:08.669;539437764988554340;421533;531518;430452;-1354;
2024-05-20T22:19:08.687;539437765006724139;421436;531414;430453;-1393;
2024-05-20T22:19:08.705;539437765024893938;421180;531267;430339;-1415;
2024-05-20T22:19:08.724;539437765043063737;420857;531005;430095;-1398;
2024-05-20T22:19:08.742;539437765061233536;420570;530708;429793;-1434;
2024-05-20T22:19:08.760;539437765079403335;420357;530431;429537;-1381;
2024-05-20T22:19:08.778;539437765097573134;420182;530244;429408;-1392;
2024-05-20T22:19:08.796;539437765115742933;420116;530162;429351;-1420;
2024-05-20T22:19:08.814;539437765133912732;420079;530125;429326;-1407;
2024-05-20T22:19:08.833;539437765152082531;420233;530187;429365;-1436;
2024-05-20T22:19:08.851;539437765170252330;420396;530406;429552;-1351;
2024-05-20T22:19:08.869;539437765188422129;420557;530526;429627;-1436;
2024-05-20T22:19:08.887;539437765206591928;420769;530843;429868;-1408;
2024-05-20T22:19:08.905;539437765224761727;420960;531109;430038;-1407;
2024-05-20T22:19:08.923;539437765242931618;421199;531328;430269;-1386;
2024-05-20T22:19:08.942;539437765261101501;421321;531459;430423;-1375;
2024-05-20T22:19:08.960;539437765279271384;421530;531731;430599;-1407;
2024-05-20T22:19:08.978;539437765297441267;421711;531933;430802;-1400;
2024-05-20T22:19:08.996;539437765315611150;421854;532068;430952;-1402;
2024-05-20T22:19:09.014;539437765333781033;421996;532217;431074;-1406;
2024-05-20T22:19:09.032;539437765351950916;422134;532375;431124;-1428;
2024-05-20T22:19:09.051;539437765370120799;422195;532489;431265;-1420;
2024-05-20T22:19:09.069;539437765388290682;422378;532731;431379;-1365;
2024-05-20T22:19:09.087;539437765406460565;422467;532828;431497;-1371;
2024-05-20T22:19:09.105;539437765424630448;422554;532926;431610;-1393;
2024-05-20T22:19:09.123;539437765442800331;422678;533106;431751;-1331;
2024-05-20T22:19:09.141;539437765460970214;422750;533275;431860;-1395;
2024-05-20T22:19:09.160;539437765479140097;422828;533390;431891;-1393;
2024-05-20T22:19:09.178;539437765497309980;422844;533386;432015;-1394;
2024-05-20T22:19:09.196;539437765515479863;422611;533240;431904;-1347;
2024-05-20T22:19:09.214;539437765533649746;422376;532937;431682;-1338;
2024-05-20T22:19:09.232;539437765551819629;422019;532590;431430;-1324;
2024-05-20T22:19:09.251;539437765569989512;421690;532255;431130;-1346;
2024-05-20T22:19:09.269;539437765588159395;421449;531882;430832;-1398;
2024-05-20T22:19:09.287;539437765606329278;421300;531738;430664;-1344;
2024-05-20T22:19:09.305;539437765624499161;421234;531553;430582;-1329;
2024-05-20T22:19:09.323;539437765642669044;421214;531546;430541;-1347;
2024-05-20T22:19:09.341;539437765660838927;421399;531596;430591;-1378;
2024-05-20T22:19:09.360;539437765679008810;421505;531741;430728;-1345;
2024-05-20T22:19:09.378;539437765697178693;421620;531920;430831;-1380;
2024-05-20T22:19:09.396;539437765715348576;421812;532186;431081;-1361;
2024-05-20T22:19:09.414;539437765733518459;422010;532337;431222;-1361;
2024-05-20T22:19:09.432;539437765751688342;422226;532585;431374;-1326;
2024-05-20T22:19:09.450;539437765769858225;422372;532811;431537;-1352;
2024-05-20T22:19:09.469;539437765788028108;422526;532966;431642;-1353;
2024-05-20T22:19:09.487;539437765806197991;422636;533107;431706;-1395;
2024-05-20T22:19:09.505;539437765824367874;422771;533263;431870;-1393;
2024-05-20T22:19:09.523;539437765842537757;422860;533397;432009;-1350;
2024-05-20T22:19:09.541;539437765860707640;422940;533513;432145;-1382;
2024-05-20T22:19:09.559;539437765878877523;423030;533593;432177;-1415;
2024-05-20T22:19:09.578;539437765897047406;423079;533691;432265;-1404;
2024-05-20T22:19:09.596;539437765915217289;423227;533835;432415;-1346;
2024-05-20T22:19:09.614;539437765933387172;423230;533936;432457;-1365;
2024-05-20T22:19:09.632;539437765951557055;423279;534052;432485;-1333;
2024-05-20T22:19:09.650;539437765969726225;423300;534124;432537;-1400;
2024-05-20T22:19:09.668;539437765987895383;423307;534124;432583;-1436;
2024-05-20T22:19:09.687;539437766006064541;423165;534075;432546;-1345;
2024-05-20T22:19:09.705;539437766024233699;422894;533810;432356;-1363;
2024-05-20T22:19:09.723;539437766042402857;422570;533426;432001;-1395;
2024-05-20T22:19:09.741;539437766060572015;422155;532964;431616;-1405;
2024-05-20T22:19:09.759;539437766078741173;421667;532430;431224;-1427;
2024-05-20T22:19:09.777;539437766096910331;421421;532102;430972;-1380;
2024-05-20T22:19:09.796;539437766115079489;421224;531858;430760;-1343;
2024-05-20T22:19:09.814;539437766133248647;421112;531741;430670;-1322;
2024-05-20T22:19:09.832;539437766151417805;421114;531694;430612;-1289;
2024-05-20T22:19:09.850;539437766169586963;421159;531715;430689;-1333;
2024-05-20T22:19:09.868;539437766187756121;421287;531800;430706;-1361;
2024-05-20T22:19:09.886;539437766205925279;421444;531958;430845;-1386;
2024-05-20T22:19:09.905;539437766224094437;421575;532147;430988;-1448;
2024-05-20T22:19:09.923;539437766242263595;421690;532343;431098;-1405;
2024-05-20T22:19:09.941;539437766260432753;421909;532497;431257;-1352;
2024-05-20T22:19:09.959;539437766278601911;421990;532581;431443;-1417;
2024-05-20T22:19:09.977;539437766296771069;422156;532801;431584;-1447;
2024-05-20T22:19:09.995;539437766314940227;422280;532989;431686;-1417;
2024-05-20T22:19:10.014;539437766333109385;422348;533092;431866;-1408;
2024-05-20T22:19:10.032;539437766351278543;422423;533258;431963;-1428;
2024-05-20T22:19:10.050;539437766369447701;422527;533302;432013;-1432;
2024-05-20T22:19:10.068;539437766387616859;422581;533391;432070;-1386;
2024-05-20T22:19:10.086;539437766405786017;422726;533443;432120;-1381;
2024-05-20T22:19:10.104;539437766423955175;422793;533586;432236;-1407;
2024-05-20T22:19:10.123;539437766442124333;422814;533681;432325;-1442;
2024-05-20T22:19:10.141;539437766460293491;422902;533795;432393;-1406;
2024-05-20T22:19:10.159;539437766478462649;422960;533839;432496;-1370;
2024-05-20T22:19:10.177;539437766496631807;423070;533923;432527;-1374;
2024-05-20T22:19:10.195;539437766514800965;422972;533889;432534;-1409;
2024-05-20T22:19:10.213;539437766532970123;422721;533738;432391;-1412;
2024-05-20T22:19:10.232;539437766551139281;422350;533308;432179;-1436;
2024-05-20T22:19:10.250;539437766569308439;421934;532851;431803;-1374;
2024-05-20T22:19:10.268;539437766587477597;421580;532405;431439;-1416;
2024-05-20T22:19:10.286;539437766605646755;421278;532004;431116;-1474;
2024-05-20T22:19:10.304;539437766623815913;421115;531833;430924;-1456;
2024-05-20T22:19:10.322;539437766641985071;421073;531687;430818;-1410;
2024-05-20T22:19:10.341;539437766660154229;421056;531628;430755;-1412;
2024-05-20T22:19:10.359;539437766678323387;421107;531711;430791;-1345;
2024-05-20T22:19:10.377;539437766696493587;421212;531742;430902;-1356;
2024-05-20T22:19:10.395;539437766714663749;421396;531911;431007;-1352;
2024-05-20T22:19:10.413;539437766732833911;421480;532065;431138;-1392;
2024-05-20T22:19:10.432;539437766751004073;421680;532268;431364;-1413;
2024-05-20T22:19:10.450;539437766769174235;421897;532436;431512;-1411;
2024-05-20T22:19:10.468;539437766787344397;422043;532610;431669;-1389;
2024-05-20T22:19:10.486;539437766805514559;422163;532814;431725;-1395;
2024-05-20T22:19:10.504;539437766823684721;422204;532992;431899;-1364;
2024-05-20T22:19:10.522;539437766841854883;422285;533096;432007;-1381;
2024-05-20T22:19:10.541;539437766860025045;422441;533228;432073;-1431;
2024-05-20T22:19:10.559;539437766878195207;422562;533383;432214;-1388;
2024-05-20T22:19:10.577;539437766896365369;422629;533437;432301;-1397;
2024-05-20T22:19:10.595;539437766914535531;422626;533470;432320;-1429;
2024-05-20T22:19:10.613;539437766932705693;422694;533553;432438;-1409;
2024-05-20T22:19:10.631;539437766950875855;422779;533575;432476;-1346;
2024-05-20T22:19:10.650;539437766969046017;422839;533699;432450;-1425;
2024-05-20T22:19:10.668;539437766987216179;422887;533848;432658;-1323;
2024-05-20T22:19:10.686;539437767005386341;422996;533920;432750;-1422;
2024-05-20T22:19:10.704;539437767023556503;422975;533893;432739;-1375;
2024-05-20T22:19:10.722;539437767041726665;422796;533681;432560;-1378;
2024-05-20T22:19:10.740;539437767059896827;422402;533359;432291;-1376;
2024-05-20T22:19:10.759;539437767078066989;421984;532956;431972;-1396;
2024-05-20T22:19:10.777;539437767096237151;421687;532532;431720;-1403;
2024-05-20T22:19:10.795;539437767114407313;421431;532136;431406;-1337;
2024-05-20T22:19:10.813;539437767132577475;421205;531893;431208;-1373;
2024-05-20T22:19:10.831;539437767150747637;421091;531731;431113;-1386;
2024-05-20T22:19:10.849;539437767168917799;421077;531664;431078;-1409;
2024-05-20T22:19:10.868;539437767187087961;421140;531692;431091;-1356;
2024-05-20T22:19:10.886;539437767205258123;421192;531801;431156;-1409;
2024-05-20T22:19:10.904;539437767223428285;421404;531969;431301;-1351;
2024-05-20T22:19:10.922;539437767241598447;421578;532100;431403;-1380;
2024-05-20T22:19:10.940;539437767259768609;421745;532249;431504;-1377;
2024-05-20T22:19:10.958;539437767277938771;421889;532410;431686;-1427;
2024-05-20T22:19:10.977;539437767296108933;422003;532556;431853;-1402;
2024-05-20T22:19:10.995;539437767314279095;422192;532664;431926;-1359;
2024-05-20T22:19:11.013;539437767332449257;422241;532879;432079;-1354;
2024-05-20T22:19:11.031;539437767350619419;422296;532970;432122;-1400;
2024-05-20T22:19:11.049;539437767368789581;422353;533162;432180;-1354;
2024-05-20T22:19:11.067;539437767386959743;422527;533190;432380;-1353;
2024-05-20T22:19:11.086;539437767405129905;422618;533357;432434;-1380;
2024-05-20T22:19:11.104;539437767423300067;422649;533336;432502;-1409;
2024-05-20T22:19:11.122;539437767441470229;422719;533468;432496;-1357;
2024-05-20T22:19:11.140;539437767459639339;422779;533535;432590;-1348;
2024-05-20T22:19:11.158;539437767477808411;422800;533602;432625;-1361;
2024-05-20T22:19:11.176;539437767495977483;422868;533682;432656;-1394;
2024-05-20T22:19:11.195;539437767514146555;422945;533775;432725;-1381;
2024-05-20T22:19:11.213;539437767532315627;422869;533680;432720;-1375;
2024-05-20T22:19:11.231;539437767550484699;422696;533597;432694;-1406;
2024-05-20T22:19:11.249;539437767568653771;422344;533164;432353;-1388;
2024-05-20T22:19:11.267;539437767586822843;422018;532767;432051;-1371;
2024-05-20T22:19:11.286;539437767604991915;421676;532357;431689;-1402;
2024-05-20T22:19:11.304;539437767623160987;421413;532011;431471;-1388;
2024-05-20T22:19:11.322;539437767641330059;421276;531766;431310;-1415;
2024-05-20T22:19:11.340;539437767659499131;421150;531606;431216;-1460;
2024-05-20T22:19:11.358;539437767677668203;421193;531549;431167;-1408;
2024-05-20T22:19:11.376;539437767695837275;421194;531531;431181;-1348;
2024-05-20T22:19:11.395;539437767714006347;421279;531653;431167;-1407;
2024-05-20T22:19:11.413;539437767732175419;421449;531774;431313;-1371;
2024-05-20T22:19:11.431;539437767750344491;421556;531902;431421;-1390;
2024-05-20T22:19:11.449;539437767768513563;421742;532139;431609;-1415;
2024-05-20T22:19:11.467;539437767786682635;421899;532271;431752;-1433;
2024-05-20T22:19:11.485;539437767804851707;422114;532484;431918;-1387;
2024-05-20T22:19:11.504;539437767823020779;422162;532595;431967;-1451;
2024-05-20T22:19:11.522;539437767841189851;422305;532729;432078;-1424;
2024-05-20T22:19:11.540;539437767859358923;422303;532849;432095;-1479;
2024-05-20T22:19:11.558;539437767877527995;422428;532886;432262;-1463;
2024-05-20T22:19:11.576;539437767895697067;422550;532999;432321;-1468;
2024-05-20T22:19:11.594;539437767913866139;422599;533107;432368;-1464;
2024-05-20T22:19:11.613;539437767932035211;422702;533206;432427;-1403;
2024-05-20T22:19:11.631;539437767950204283;422714;533209;432526;-1400;
2024-05-20T22:19:11.649;539437767968373355;422656;533299;432542;-1421;
2024-05-20T22:19:11.667;539437767986542427;422772;533390;432650;-1362;
