Phone timestamp;sensor timestamp [ns];channel 0;channel 1;channel 2;ambient
2024-05-20T22:39:20.252;539438976628983331;299954;270792;287767;-1350;
2024-05-20T22:39:20.270;539438976647137086;299833;270619;287668;-1303;
2024-05-20T22:39:20.288;539438976665290841;299641;270453;287529;-1317;
2024-05-20T22:39:20.306;539438976683444596;299486;270261;287361;-1350;
2024-05-20T22:39:20.324;539438976701598351;299336;270188;287270;-1354;
2024-05-20T22:39:20.342;539438976719752106;299143;269968;287065;-1345;
2024-05-20T22:39:20.360;539438976737905861;298991;269879;287009;-1374;
2024-05-20T22:39:20.379;539438976756059616;298892;269804;286927;-1340;
2024-05-20T22:39:20.397;539438976774213371;298798;269714;286862;-1399;
2024-05-20T22:39:20.415;539438976792367126;298743;269615;286793;-1310;
2024-05-20T22:39:20.433;539438976810520881;298631;269514;286656;-1337;
2024-05-20T22:39:20.451;539438976828674636;298600;269468;286653;-1322;
2024-05-20T22:39:20.469;539438976846828391;298393;269322;286480;-1342;
2024-05-20T22:39:20.487;539438976864982146;298108;269028;286264;-1312;
2024-05-20T22:39:20.506;539438976883135901;297862;268770;286038;-1284;
2024-05-20T22:39:20.524;539438976901289656;297501;268450;285810;-1297;
2024-05-20T22:39:20.542;539438976919443411;297220;268044;285597;-1282;
2024-05-20T22:39:20.560;539438976937597166;297050;267845;285542;-1294;
2024-05-20T22:39:20.578;539438976955750921;296901;267742;285533;-1344;
2024-05-20T22:39:20.596;539438976973904676;296871;267633;285721;-1326;
2024-05-20T22:39:20.615;539438976992058431;296921;267706;285936;-1333;
2024-05-20T22:39:20.633;539438977010212186;297051;267874;286309;-1309;
2024-05-20T22:39:20.651;539438977028365941;297201;268132;286678;-1302;
2024-05-20T22:39:20.669;539438977046519696;297444;268449;287161;-1277;
2024-05-20T22:39:20.687;539438977064673451;297799;268740;287558;-1294;
2024-05-20T22:39:20.705;539438977082827206;298034;269083;287968;-1329;
2024-05-20T22:39:20.723;539438977100980961;298381;269453;288405;-1284;
2024-05-20T22:39:20.742;539438977119134716;298649;269721;288795;-1342;
2024-05-20T22:39:20.760;539438977137288471;298963;270136;289210;-1304;
2024-05-20T22:39:20.778;539438977155442226;299300;270497;289574;-1278;
2024-05-20T22:39:20.796;539438977173595981;299549;270830;289889;-1321;
2024-05-20T22:39:20.814;539438977191749736;299816;270981;290132;-1286;
2024-05-20T22:39:20.832;539438977209903491;299946;271209;290280;-1330;
2024-05-20T22:39:20.851;539438977228057246;300034;271313;290355;-1339;
2024-05-20T22:39:20.869;539438977246211001;300034;271433;290389;-1301;
2024-05-20T22:39:20.887;539438977264364756;300004;271393;290270;-1306;
2024-05-20T22:39:20.905;539438977282518511;299988;271479;290189;-1265;
2024-05-20T22:39:20.923;539438977300672266;299952;271501;290000;-1279;
2024-05-20T22:39:20.941;539438977318826021;299931;271431;289832;-1282;
2024-05-20T22:39:20.959;539438977336979776;299865;271284;289608;-1286;
2024-05-20T22:39:20.978;539438977355133562;299806;271245;289472;-1306;
2024-05-20T22:39:20.996;539438977373287317;299696;271151;289228;-1295;
2024-05-20T22:39:21.014;539438977391441072;299577;270926;288949;-1328;
2024-05-20T22:39:21.032;539438977409594827;299272;270599;288590;-1265;
2024-05-20T22:39:21.050;539438977427748582;298832;270058;288016;-1362;
2024-05-20T22:39:21.068;539438977445902337;298270;269502;287439;-1319;
2024-05-20T22:39:21.087;539438977464056092;297670;268992;286805;-1296;
2024-05-20T22:39:21.105;539438977482209847;296964;268368;286220;-1297;
2024-05-20T22:39:21.123;539438977500363602;296350;267693;285543;-1295;
2024-05-20T22:39:21.141;539438977518517357;295805;267183;285109;-1285;
2024-05-20T22:39:21.159;539438977536671112;295340;266803;284682;-1270;
2024-05-20T22:39:21.177;539438977554824867;295041;266579;284404;-1314;
2024-05-20T22:39:21.195;539438977572978622;294916;266452;284199;-1229;
2024-05-20T22:39:21.214;539438977591132377;294850;266398;284177;-1251;
2024-05-20T22:39:21.232;539438977609286132;294950;266372;284204;-1246;
2024-05-20T22:39:21.250;539438977627439887;295067;266596;284327;-1305;
2024-05-20T22:39:21.268;539438977645593642;295246;266773;284641;-1297;
2024-05-20T22:39:21.286;539438977663747397;295496;266959;284904;-1322;
2024-05-20T22:39:21.304;539438977681901152;295722;267144;285417;-1269;
2024-05-20T22:39:21.323;539438977700054907;295652;267097;285775;-1289;
2024-05-20T22:39:21.341;539438977718208662;295458;267057;286119;-1269;
2024-05-20T22:39:21.359;539438977736362417;295213;266905;286287;-1317;
2024-05-20T22:39:21.377;539438977754516172;294931;266780;286452;-1301;
2024-05-20T22:39:21.395;539438977772669927;294783;266700;286521;-1336;
2024-05-20T22:39:21.413;539438977790823682;294778;266831;286674;-1319;
2024-05-20T22:39:21.431;539438977808977437;294813;266912;286824;-1279;
2024-05-20T22:39:21.450;539438977827131192;294859;266996;287012;-1285;
2024-05-20T22:39:21.468;539438977845284947;295147;267282;287351;-1248;
2024-05-20T22:39:21.486;539438977863438702;295302;267486;287529;-1254;
2024-05-20T22:39:21.504;539438977881592457;295577;267801;287806;-1291;
2024-05-20T22:39:21.522;539438977899746212;295842;268137;288029;-1266;
2024-05-20T22:39:21.540;539438977917899967;295987;268244;288279;-1258;
2024-05-20T22:39:21.559;539438977936053722;296072;268388;288352;-1303;
2024-05-20T22:39:21.577;539438977954207477;296031;268401;288379;-1221;
2024-05-20T22:39:21.595;539438977972361232;295967;268349;288232;-1214;
2024-05-20T22:39:21.613;539438977990514987;295736;268128;288011;-1226;
2024-05-20T22:39:21.631;539438978008668742;295406;267864;287773;-1190;
2024-05-20T22:39:21.649;539438978026822231;294986;267447;287456;-1291;
2024-05-20T22:39:21.667;539438978044975718;294597;267124;287277;-1223;
2024-05-20T22:39:21.686;539438978063129205;294277;266728;286949;-1237;
2024-05-20T22:39:21.704;539438978081282692;293944;266426;286653;-1279;
2024-05-20T22:39:21.722;539438978099436179;293633;266089;286334;-1318;
2024-05-20T22:39:21.740;539438978117589666;293552;265943;286207;-1302;
2024-05-20T22:39:21.758;539438978135743153;293632;265965;286089;-1270;
2024-05-20T22:39:21.776;539438978153896640;293773;266089;286111;-1330;
2024-05-20T22:39:21.795;539438978172050127;293983;266161;286179;-1336;
2024-05-20T22:39:21.813;539438978190203614;294289;266340;286272;-1308;
2024-05-20T22:39:21.831;539438978208357101;294635;266585;286396;-1306;
2024-05-20T22:39:21.849;539438978226510588;295071;266888;286644;-1290;
2024-05-20T22:39:21.867;539438978244664075;295510;267211;286839;-1313;
2024-05-20T22:39:21.885;539438978262817562;295891;267437;286999;-1259;
2024-05-20T22:39:21.903;539438978280971049;296151;267643;287157;-1266;
2024-05-20T22:39:21.922;539438978299124536;296293;267728;287289;-1291;
2024-05-20T22:39:21.940;539438978317278023;296346;267796;287232;-1376;
2024-05-20T22:39:21.958;539438978335431510;296368;267825;287257;-1338;
2024-05-20T22:39:21.976;539438978353584997;296463;267875;287221;-1294;
2024-05-20T22:39:21.994;539438978371738484;296575;267941;287294;-1272;
2024-05-20T22:39:22.012;539438978389891971;296667;268061;287387;-1299;
2024-05-20T22:39:22.031;539438978408045458;296861;268287;287484;-1257;
2024-05-20T22:39:22.049;539438978426198945;296980;268388;287579;-1317;
2024-05-20T22:39:22.067;539438978444352432;297192;268621;287692;-1307;
2024-05-20T22:39:22.085;539438978462505919;297419;268820;287791;-1274;
2024-05-20T22:39:22.103;539438978480659406;297548;268905;287958;-1313;
2024-05-20T22:39:22.121;539438978498812893;297635;269117;288114;-1268;
2024-05-20T22:39:22.139;539438978516966380;297584;269077;288261;-1297;
2024-05-20T22:39:22.158;539438978535119867;297498;269072;288206;-1266;
2024-05-20T22:39:22.176;539438978553273354;297441;269021;288171;-1345;
2024-05-20T22:39:22.194;539438978571426841;297368;268942;288216;-1340;
2024-05-20T22:39:22.212;539438978589580328;297366;268845;288215;-1306;
2024-05-20T22:39:22.230;539438978607733815;297256;268783;288397;-1273;
2024-05-20T22:39:22.248;539438978625887302;297168;268659;288612;-1306;
2024-05-20T22:39:22.267;539438978644040789;297209;268673;288792;-1250;
2024-05-20T22:39:22.285;539438978662194276;297358;268749;289073;-1261;
2024-05-20T22:39:22.303;539438978680347763;297482;268894;289346;-1297;
2024-05-20T22:39:22.321;539438978698501250;297710;269181;289761;-1239;
2024-05-20T22:39:22.339;539438978716654737;297847;269399;290062;-1276;
2024-05-20T22:39:22.357;539438978734808224;298142;269652;290353;-1282;
2024-05-20T22:39:22.375;539438978752961711;298380;270037;290715;-1286;
2024-05-20T22:39:22.394;539438978771115198;298723;270384;291151;-1272;
2024-05-20T22:39:22.412;539438978789268728;298976;270677;291373;-1256;
2024-05-20T22:39:22.430;539438978807422236;299307;270987;291738;-1248;
2024-05-20T22:39:22.448;539438978825575744;299483;271293;291984;-1210;
2024-05-20T22:39:22.466;539438978843729252;299693;271534;292259;-1269;
2024-05-20T22:39:22.484;539438978861882760;299888;271758;292480;-1268;
2024-05-20T22:39:22.503;539438978880036268;300134;272006;292854;-1253;
2024-05-20T22:39:22.521;539438978898189776;300417;272302;293212;-1259;
2024-05-20T22:39:22.539;539438978916343284;300792;272603;293566;-1300;
2024-05-20T22:39:22.557;539438978934496792;301292;272928;294032;-1269;
2024-05-20T22:39:22.575;539438978952650300;301982;273464;294560;-1304;
2024-05-20T22:39:22.593;539438978970803808;302642;274076;295167;-1240;
2024-05-20T22:39:22.611;539438978988957316;303032;274442;295596;-1253;
2024-05-20T22:39:22.630;539438979007110824;303369;274699;295937;-1282;
2024-05-20T22:39:22.648;539438979025264332;303614;274955;296174;-1274;
2024-05-20T22:39:22.666;539438979043417840;303769;275107;296280;-1260;
2024-05-20T22:39:22.684;539438979061571348;303793;275205;296342;-1272;
2024-05-20T22:39:22.702;539438979079724856;303622;275031;296109;-1250;
2024-05-20T22:39:22.720;539438979097878364;303400;274877;295803;-1250;
2024-05-20T22:39:22.739;539438979116031872;303117;274584;295412;-1343;
2024-05-20T22:39:22.757;539438979134185380;302881;274414;295135;-1321;
2024-05-20T22:39:22.775;539438979152338888;302609;274181;294810;-1268;
2024-05-20T22:39:22.793;539438979170492396;302332;273837;294486;-1299;
2024-05-20T22:39:22.811;539438979188645904;302105;273538;294142;-1328;
2024-05-20T22:39:22.829;539438979206799412;301847;273332;293945;-1333;
2024-05-20T22:39:22.847;539438979224952920;301818;273172;293693;-1285;
2024-05-20T22:39:22.866;539438979243106428;301652;273036;293471;-1293;
2024-05-20T22:39:22.884;539438979261259936;301576;272926;293323;-1245;
2024-05-20T22:39:22.902;539438979279413444;301431;272699;293095;-1296;
2024-05-20T22:39:22.920;539438979297566952;301378;272534;293005;-1289;
2024-05-20T22:39:22.938;539438979315720460;301208;272404;292772;-1251;
2024-05-20T22:39:22.956;539438979333873968;301051;272211;292618;-1287;
2024-05-20T22:39:22.975;539438979352027476;300851;272022;292431;-1216;
2024-05-20T22:39:22.993;539438979370180984;300557;271809;292132;-1302;
2024-05-20T22:39:23.011;539438979388334492;300356;271549;291857;-1239;
2024-05-20T22:39:23.029;539438979406488000;300021;271249;291522;-1284;
2024-05-20T22:39:23.047;539438979424641508;299827;271081;291313;-1330;
2024-05-20T22:39:23.065;539438979442795016;299716;270954;291151;-1306;
2024-05-20T22:39:23.083;539438979460948817;299544;270847;290978;-1318;
2024-05-20T22:39:23.102;539438979479102594;299541;270830;290892;-1248;
2024-05-20T22:39:23.120;539438979497256371;299421;270673;290742;-1342;
2024-05-20T22:39:23.138;539438979515410148;299476;270694;290753;-1270;
2024-05-20T22:39:23.156;539438979533563925;299500;270739;290782;-1279;
2024-05-20T22:39:23.174;539438979551717702;299555;270773;290893;-1330;
2024-05-20T22:39:23.192;539438979569871479;299614;270870;290856;-1322;
2024-05-20T22:39:23.211;539438979588025256;299674;270889;290900;-1284;
2024-05-20T22:39:23.229;539438979606179033;299738;270896;290906;-1316;
2024-05-20T22:39:23.247;539438979624332810;299708;270788;290809;-1301;
2024-05-20T22:39:23.265;539438979642486587;299523;270671;290616;-1299;
2024-05-20T22:39:23.283;539438979660640364;299349;270487;290390;-1341;
2024-05-20T22:39:23.301;539438979678794141;299144;270318;290220;-1306;
2024-05-20T22:39:23.319;539438979696947918;298964;270106;290002;-1303;
2024-05-20T22:39:23.338;539438979715101695;298837;269856;289808;-1259;
2024-05-20T22:39:23.356;539438979733255472;298596;269694;289644;-1250;
2024-05-20T22:39:23.374;539438979751409249;298478;269664;289574;-1252;
2024-05-20T22:39:23.392;539438979769563026;298313;269547;289452;-1270;
2024-05-20T22:39:23.410;539438979787716803;298351;269477;289435;-1251;
2024-05-20T22:39:23.428;539438979805870580;298313;269425;289392;-1323;
2024-05-20T22:39:23.447;539438979824024357;298350;269481;289448;-1276;
2024-05-20T22:39:23.465;539438979842178134;298367;269460;289454;-1252;
2024-05-20T22:39:23.483;539438979860331911;298350;269448;289432;-1285;
2024-05-20T22:39:23.501;539438979878485688;298344;269416;289446;-1297;
2024-05-20T22:39:23.519;539438979896639465;298430;269514;289472;-1223;
2024-05-20T22:39:23.537;539438979914793242;298356;269474;289483;-1268;
2024-05-20T22:39:23.555;539438979932947019;298350;269373;289339;-1307;
2024-05-20T22:39:23.574;539438979951100796;298313;269328;289252;-1335;
2024-05-20T22:39:23.592;539438979969254573;298382;269348;289256;-1295;
2024-05-20T22:39:23.610;539438979987408350;298328;269284;289287;-1297;
2024-05-20T22:39:23.628;539438980005562127;298297;269251;289202;-1313;
2024-05-20T22:39:23.646;539438980023715904;298276;269286;289196;-1279;
2024-05-20T22:39:23.664;539438980041869681;298321;269310;289205;-1327;
2024-05-20T22:39:23.683;539438980060023458;298391;269328;289217;-1268;
2024-05-20T22:39:23.701;539438980078177235;298418;269378;289230;-1291;
2024-05-20T22:39:23.719;539438980096331012;298480;269401;289337;-1294;
2024-05-20T22:39:23.737;539438980114484789;298512;269478;289350;-1316;
2024-05-20T22:39:23.755;539438980132638566;298612;269514;289371;-1313;
2024-05-20T22:39:23.773;539438980150792343;298606;269502;289387;-1316;
2024-05-20T22:39:23.791;539438980168946120;298549;269493;289267;-1248;
2024-05-20T22:39:23.810;539438980187099897;298380;269289;289056;-1309;
2024-05-20T22:39:23.828;539438980205253674;298221;269155;288991;-1304;
2024-05-20T22:39:23.846;539438980223406613;298014;268845;288736;-1343;
2024-05-20T22:39:23.864;539438980241559518;297853;268717;288480;-1337;
2024-05-20T22:39:23.882;539438980259712423;297653;268570;288267;-1295;
2024-05-20T22:39:23.900;539438980277865328;297518;268453;288174;-1269;
2024-05-20T22:39:23.919;539438980296018233;297445;268341;288107;-1282;
2024-05-20T22:39:23.937;539438980314171138;297429;268377;288101;-1279;
2024-05-20T22:39:23.955;539438980332324043;297474;268362;288101;-1364;
2024-05-20T22:39:23.973;539438980350476948;297636;268479;288211;-1294;
2024-05-20T22:39:23.991;539438980368629853;297767;268578;288266;-1273;
2024-05-20T22:39:24.009;539438980386782758;297915;268697;288463;-1227;
2024-05-20T22:39:24.027;539438980404935663;297986;268720;288489;-1307;
2024-05-20T22:39:24.046;539438980423088568;298054;268822;288549;-1289;
2024-05-20T22:39:24.064;539438980441241473;298161;268928;288665;-1285;
2024-05-20T22:39:24.082;539438980459394378;298245;269046;288765;-1268;
2024-05-20T22:39:24.100;539438980477547283;298252;269017;288801;-1330;
2024-05-20T22:39:24.118;539438980495700188;298361;269096;288844;-1307;
2024-05-20T22:39:24.136;539438980513853093;298396;269147;288852;-1348;
2024-05-20T22:39:24.155;539438980532005998;298523;269252;288971;-1291;
2024-05-20T22:39:24.173;539438980550158903;298556;269289;288917;-1394;
2024-05-20T22:39:24.191;539438980568311808;298590;269315;289035;-1329;
2024-05-20T22:39:24.209;539438980586464713;298670;269441;289110;-1318;
2024-05-20T22:39:24.227;539438980604617618;298703;269520;289142;-1355;
2024-05-20T22:39:24.245;539438980622770523;298904;269657;289267;-1288;
2024-05-20T22:39:24.263;539438980640923428;299009;269706;289342;-1310;
2024-05-20T22:39:24.282;539438980659076333;299191;269835;289460;-1265;
2024-05-20T22:39:24.300;539438980677229238;299279;269981;289591;-1259;
2024-05-20T22:39:24.318;539438980695382143;299374;270021;289648;-1258;
2024-05-20T22:39:24.336;539438980713535048;299344;270061;289657;-1291;
2024-05-20T22:39:24.354;539438980731687953;299256;269947;289554;-1350;
2024-05-20T22:39:24.372;539438980749840858;299133;269851;289451;-1280;
2024-05-20T22:39:24.391;539438980767993763;298979;269670;289218;-1321;
2024-05-20T22:39:24.409;539438980786146668;298798;269510;289042;-1307;
2024-05-20T22:39:24.427;539438980804299573;298700;269495;288913;-1284;
2024-05-20T22:39:24.445;539438980822452478;298625;269379;288853;-1299;
2024-05-20T22:39:24.463;539438980840605383;298545;269275;288754;-1308;
2024-05-20T22:39:24.481;539438980858758288;298550;269267;288734;-1313;
2024-05-20T22:39:24.499;539438980876911193;298735;269360;288864;-1275;
2024-05-20T22:39:24.518;539438980895064098;298855;269436;288878;-1287;
2024-05-20T22:39:24.536;539438980913217003;298978;269523;288990;-1289;
2024-05-20T22:39:24.554;539438980931369908;299127;269656;289099;-1314;
2024-05-20T22:39:24.572;539438980949522813;299213;269754;289237;-1267;
2024-05-20T22:39:24.590;539438980967675718;299329;269975;289384;-1348;
2024-05-20T22:39:24.608;539438980985825704;299469;270060;289499;-1280;
2024-05-20T22:39:24.626;539438981003975681;299574;270152;289568;-1304;
2024-05-20T22:39:24.645;539438981022125658;299693;270223;289649;-1301;
2024-05-20T22:39:24.663;539438981040275635;299704;270284;289654;-1295;
2024-05-20T22:39:24.681;539438981058425612;299747;270261;289698;-1269;
2024-05-20T22:39:24.699;539438981076575589;299836;270334;289712;-1260;
2024-05-20T22:39:24.717;539438981094725566;299811;270433;289796;-1304;
2024-05-20T22:39:24.735;539438981112875543;299892;270435;289785;-1314;
2024-05-20T22:39:24.754;539438981131025520;299960;270534;289820;-1331;
2024-05-20T22:39:24.772;539438981149175497;300039;270546;289891;-1320;
2024-05-20T22:39:24.790;539438981167325474;300121;270550;289913;-1341;
2024-05-20T22:39:24.808;539438981185475451;300245;270683;290089;-1352;
2024-05-20T22:39:24.826;539438981203625428;300406;270895;290166;-1307;
2024-05-20T22:39:24.844;539438981221775405;300443;270952;290205;-1341;
2024-05-20T22:39:24.862;539438981239925382;300563;271022;290325;-1311;
2024-05-20T22:39:24.881;539438981258075359;300663;271091;290395;-1321;
2024-05-20T22:39:24.899;539438981276225336;300601;271064;290395;-1323;
2024-05-20T22:39:24.917;539438981294375313;300556;271051;290331;-1306;
2024-05-20T22:39:24.935;539438981312525290;300439;270882;290210;-1318;
2024-05-20T22:39:24.953;539438981330675267;300256;270789;290030;-1317;
2024-05-20T22:39:24.971;539438981348825244;300028;270596;289887;-1335;
2024-05-20T22:39:24.989;539438981366975221;299931;270516;289748;-1316;
2024-05-20T22:39:25.008;539438981385125198;299796;270425;289631;-1321;
2024-05-20T22:39:25.026;539438981403275175;299757;270335;289563;-1279;
2024-05-20T22:39:25.044;539438981421425152;299768;270226;289554;-1310;
2024-05-20T22:39:25.062;539438981439575129;299763;270261;289573;-1310;
2024-05-20T22:39:25.080;539438981457725106;299900;270359;289676;-1276;
2024-05-20T22:39:25.098;539438981475875083;300032;270430;289747;-1303;
2024-05-20T22:39:25.117;539438981494025060;300182;270640;289895;-1309;
2024-05-20T22:39:25.135;539438981512175037;300272;270747;290003;-1302;
2024-05-20T22:39:25.153;539438981530325014;300447;270819;290070;-1238;
2024-05-20T22:39:25.171;539438981548474991;300476;270903;290107;-1286;
2024-05-20T22:39:25.189;539438981566624968;300529;270927;290166;-1259;
2024-05-20T22:39:25.207;539438981584774945;300478;270971;290177;-1283;
2024-05-20T22:39:25.225;539438981602924922;300514;271011;290250;-1292;
2024-05-20T22:39:25.244;539438981621074899;300522;271022;290260;-1294;
2024-05-20T22:39:25.262;539438981639224876;300556;271029;290302;-1295;
2024-05-20T22:39:25.280;539438981657374853;300610;271129;290323;-1295;
2024-05-20T22:39:25.298;539438981675524830;300666;271155;290361;-1305;
2024-05-20T22:39:25.316;539438981693674807;300731;271206;290422;-1241;
2024-05-20T22:39:25.334;539438981711824784;300761;271290;290526;-1223;
2024-05-20T22:39:25.352;539438981729974761;300737;271268;290506;-1312;
2024-05-20T22:39:25.371;539438981748124738;300880;271356;290536;-1302;
2024-05-20T22:39:25.389;539438981766276860;300943;271356;290582;-1267;
2024-05-20T22:39:25.407;539438981784428966;301120;271471;290755;-1216;
2024-05-20T22:39:25.425;539438981802581072;301251;271574;290852;-1291;
2024-05-20T22:39:25.443;539438981820733178;301241;271628;290872;-1268;
2024-05-20T22:39:25.461;539438981838885284;301218;271573;290887;-1277;
2024-05-20T22:39:25.480;539438981857037390;301206;271607;290876;-1295;
2024-05-20T22:39:25.498;539438981875189496;301074;271536;290714;-1278;
2024-05-20T22:39:25.516;539438981893341602;300865;271317;290531;-1277;
2024-05-20T22:39:25.534;539438981911493708;300763;271276;290492;-1271;
2024-05-20T22:39:25.552;539438981929645814;300563;271147;290270;-1206;
2024-05-20T22:39:25.570;539438981947797920;300387;271058;290153;-1284;
2024-05-20T22:39:25.588;539438981965950026;300301;270889;290035;-1294;
2024-05-20T22:39:25.607;539438981984102132;300290;270831;289950;-1288;
2024-05-20T22:39:25.625;539438982002254238;300269;270880;290008;-1249;
2024-05-20T22:39:25.643;539438982020406344;300360;270889;290025;-1313;
2024-05-20T22:39:25.661;539438982038558450;300372;270888;290046;-1300;
2024-05-20T22:39:25.679;539438982056710556;300501;270959;290153;-1277;
2024-05-20T22:39:25.697;539438982074862662;300562;271047;290258;-1283;
2024-05-20T22:39:25.716;539438982093014768;300639;271137;290325;-1277;
2024-05-20T22:39:25.734;539438982111166874;300728;271281;290454;-1240;
2024-05-20T22:39:25.752;539438982129318980;300867;271293;290507;-1251;
2024-05-20T22:39:25.770;539438982147471086;300883;271411;290538;-1285;
2024-05-20T22:39:25.788;539438982165623192;300939;271458;290588;-1279;
2024-05-20T22:39:25.806;539438982183775298;300950;271432;290578;-1254;
2024-05-20T22:39:25.824;539438982201927404;300975;271501;290612;-1294;
2024-05-20T22:39:25.843;539438982220079510;300971;271508;290592;-1335;
2024-05-20T22:39:25.861;539438982238231616;301013;271464;290630;-1292;
2024-05-20T22:39:25.879;539438982256383722;300997;271493;290612;-1294;
2024-05-20T22:39:25.897;539438982274535828;301092;271603;290686;-1251;
2024-05-20T22:39:25.915;539438982292687934;301036;271586;290697;-1304;
2024-05-20T22:39:25.933;539438982310840040;301079;271604;290722;-1344;
2024-05-20T22:39:25.952;539438982328992146;301183;271626;290745;-1364;
2024-05-20T22:39:25.970;539438982347144252;301200;271663;290773;-1279;
2024-05-20T22:39:25.988;539438982365296358;301252;271744;290874;-1326;
2024-05-20T22:39:26.006;539438982383448464;301349;271866;290946;-1268;
2024-05-20T22:39:26.024;539438982401600570;301404;271961;291013;-1256;
2024-05-20T22:39:26.042;539438982419752676;301403;271937;291031;-1278;
2024-05-20T22:39:26.060;539438982437904782;301374;271869;290875;-1254;
2024-05-20T22:39:26.079;539438982456056888;301147;271713;290775;-1261;
2024-05-20T22:39:26.097;539438982474208994;301025;271596;290671;-1237;
2024-05-20T22:39:26.115;539438982492361100;300830;271457;290396;-1270;
2024-05-20T22:39:26.133;539438982510513206;300643;271298;290295;-1260;
2024-05-20T22:39:26.151;539438982528667046;300464;271171;290142;-1263;
2024-05-20T22:39:26.169;539438982546820855;300357;271082;290067;-1278;
2024-05-20T22:39:26.187;539438982564974664;300307;270987;290017;-1268;
2024-05-20T22:39:26.206;539438982583128473;300250;270980;289999;-1259;
2024-05-20T22:39:26.224;539438982601282282;300319;271001;290033;-1295;
2024-05-20T22:39:26.242;539438982619436091;300377;271112;290109;-1289;
2024-05-20T22:39:26.260;539438982637589900;300473;271171;290120;-1289;
2024-05-20T22:39:26.278;539438982655743709;300592;271229;290212;-1303;
2024-05-20T22:39:26.296;539438982673897518;300632;271297;290291;-1304;
2024-05-20T22:39:26.315;539438982692051327;300804;271424;290410;-1284;
2024-05-20T22:39:26.333;539438982710205136;300869;271520;290530;-1219;
2024-05-20T22:39:26.351;539438982728358945;300867;271519;290543;-1272;
2024-05-20T22:39:26.369;539438982746512754;300851;271516;290511;-1301;
2024-05-20T22:39:26.387;539438982764666563;300874;271512;290501;-1272;
2024-05-20T22:39:26.405;539438982782820372;300938;271598;290537;-1259;
2024-05-20T22:39:26.423;539438982800974181;300933;271553;290577;-1219;
2024-05-20T22:39:26.442;539438982819127990;300893;271533;290515;-1263;
2024-05-20T22:39:26.460;539438982837281799;300816;271546;290566;-1288;
2024-05-20T22:39:26.478;539438982855435608;300865;271608;290561;-1268;
2024-05-20T22:39:26.496;539438982873589417;300953;271609;290602;-1221;
2024-05-20T22:39:26.514;539438982891743226;300929;271579;290567;-1289;
2024-05-20T22:39:26.532;539438982909897035;301001;271662;290668;-1245;
2024-05-20T22:39:26.551;539438982928050844;301040;271735;290722;-1194;
2024-05-20T22:39:26.569;539438982946204653;301140;271800;290769;-1240;
2024-05-20T22:39:26.587;539438982964358462;301123;271811;290732;-1270;
2024-05-20T22:39:26.605;539438982982512271;301052;271743;290671;-1273;
2024-05-20T22:39:26.623;539438983000666080;301021;271703;290631;-1325;
2024-05-20T22:39:26.641;539438983018819889;300753;271553;290457;-1336;
2024-05-20T22:39:26.659;539438983036973698;300588;271456;290315;-1260;
2024-05-20T22:39:26.678;539438983055127507;300455;271259;290124;-1296;
2024-05-20T22:39:26.696;539438983073281316;300293;271121;290011;-1308;
2024-05-20T22:39:26.714;539438983091435125;300195;271004;289916;-1277;
2024-05-20T22:39:26.732;539438983109588934;299995;270864;289804;-1306;
2024-05-20T22:39:26.750;539438983127742743;299983;270898;289814;-1242;
2024-05-20T22:39:26.768;539438983145896552;299995;270898;289790;-1243;
2024-05-20T22:39:26.787;539438983164050361;300047;270906;289847;-1261;
2024-05-20T22:39:26.805;539438983182204170;300135;271003;289938;-1278;
2024-05-20T22:39:26.823;539438983200357979;300239;271120;290094;-1312;
2024-05-20T22:39:26.841;539438983218511788;300358;271234;290185;-1318;
2024-05-20T22:39:26.859;539438983236665597;300513;271283;290236;-1272;
2024-05-20T22:39:26.877;539438983254819406;300570;271397;290298;-1299;
2024-05-20T22:39:26.895;539438983272973215;300656;271434;290349;-1274;
2024-05-20T22:39:26.914;539438983291127024;300733;271506;290431;-1234;
2024-05-20T22:39:26.932;539438983309281756;300715;271589;290452;-1265;
2024-05-20T22:39:26.950;539438983327436478;300700;271575;290502;-1262;
2024-05-20T22:39:26.968;539438983345591200;300716;271636;290543;-1286;
2024-05-20T22:39:26.986;539438983363745922;300714;271604;290550;-1269;
2024-05-20T22:39:27.004;539438983381900644;300739;271607;290557;-1313;
2024-05-20T22:39:27.023;539438983400055366;300834;271671;290600;-1337;
2024-05-20T22:39:27.041;539438983418210088;300834;271744;290605;-1289;
2024-05-20T22:39:27.059;539438983436364810;300912;271813;290750;-1258;
2024-05-20T22:39:27.077;539438983454519532;300934;271803;290699;-1263;
2024-05-20T22:39:27.095;539438983472674254;301025;271909;290786;-1251;
2024-05-20T22:39:27.113;539438983490828976;301133;271955;290810;-1274;
2024-05-20T22:39:27.132;539438983508983698;301250;271990;290951;-1228;
2024-05-20T22:39:27.150;539438983527138420;301242;272053;291000;-1271;
2024-05-20T22:39:27.168;539438983545293142;301212;272039;290955;-1276;
2024-05-20T22:39:27.186;539438983563447864;301057;271914;290881;-1287;
2024-05-20T22:39:27.204;539438983581602586;300888;271815;290719;-1283;
2024-05-20T22:39:27.222;539438983599757308;300610;271575;290427;-1336;
2024-05-20T22:39:27.240;539438983617912030;300406;271371;290289;-1287;
2024-05-20T22:39:27.259;539438983636066752;300188;271187;290106;-1278;
2024-05-20T22:39:27.277;539438983654221474;299936;271004;289899;-1284;
2024-05-20T22:39:27.295;539438983672376196;299824;270880;289836;-1242;
2024-05-20T22:39:27.313;539438983690530918;299746;270844;289789;-1226;
2024-05-20T22:39:27.331;539438983708685640;299707;270810;289765;-1274;
2024-05-20T22:39:27.349;539438983726840362;299708;270867;289776;-1244;
2024-05-20T22:39:27.368;539438983744995084;299830;270926;289885;-1260;
2024-05-20T22:39:27.386;539438983763149806;299928;270998;289971;-1227;
2024-05-20T22:39:27.404;539438983781304528;300030;271080;290117;-1237;
2024-05-20T22:39:27.422;539438983799459250;300210;271218;290175;-1266;
2024-05-20T22:39:27.440;539438983817613972;300290;271338;290218;-1267;
2024-05-20T22:39:27.458;539438983835768694;300314;271279;290265;-1294;
2024-05-20T22:39:27.476;539438983853923416;300267;271366;290295;-1253;
2024-05-20T22:39:27.495;539438983872078138;300336;271460;290316;-1206;
2024-05-20T22:39:27.513;539438983890232860;300297;271437;290333;-1308;
2024-05-20T22:39:27.531;539438983908387582;300331;271385;290358;-1304;
2024-05-20T22:39:27.549;539438983926542304;300289;271423;290313;-1330;
2024-05-20T22:39:27.567;539438983944697026;300286;271455;290366;-1293;
2024-05-20T22:39:27.585;539438983962851748;300342;271427;290344;-1284;
2024-05-20T22:39:27.604;539438983981006470;300381;271427;290367;-1282;
2024-05-20T22:39:27.622;539438983999161192;300399;271481;290423;-1296;
2024-05-20T22:39:27.640;539438984017315914;300491;271549;290496;-1280;
2024-05-20T22:39:27.658;539438984035470636;300502;271604;290517;-1260;
2024-05-20T22:39:27.676;539438984053625358;300552;271632;290553;-1275;
2024-05-20T22:39:27.694;539438984071781276;300630;271761;290645;-1337;
2024-05-20T22:39:27.712;539438984089937160;300760;271835;290735;-1285;
2024-05-20T22:39:27.731;539438984108093044;300676;271767;290686;-1345;
2024-05-20T22:39:27.749;539438984126248928;300541;271689;290594;-1294;
2024-05-20T22:39:27.767;539438984144404812;300289;271525;290423;-1240;
2024-05-20T22:39:27.785;539438984162560696;300028;271289;290161;-1223;
2024-05-20T22:39:27.803;539438984180716580;299655;271014;289950;-1295;
2024-05-20T22:39:27.821;539438984198872464;299357;270701;289715;-1250;
2024-05-20T22:39:27.840;539438984217028348;299035;270512;289488;-1283;
2024-05-20T22:39:27.858;539438984235184232;298861;270384;289321;-1259;
2024-05-20T22:39:27.876;539438984253340116;298778;270266;289226;-1275;
2024-05-20T22:39:27.894;539438984271496000;298709;270265;289203;-1314;
2024-05-20T22:39:27.912;539438984289651884;298754;270315;289233;-1263;
2024-05-20T22:39:27.930;539438984307807768;298846;270355;289332;-1302;
2024-05-20T22:39:27.948;539438984325963652;298944;270451;289395;-1296;
2024-05-20T22:39:27.967;539438984344119536;298993;270539;289533;-1300;
2024-05-20T22:39:27.985;539438984362275420;299179;270604;289563;-1306;
2024-05-20T22:39:28.003;539438984380431304;299204;270646;289615;-1312;
2024-05-20T22:39:28.021;539438984398587188;299312;270754;289744;-1271;
2024-05-20T22:39:28.039;539438984416743072;299327;270770;289758;-1259;
2024-05-20T22:39:28.057;539438984434898956;299305;270850;289779;-1290;
2024-05-20T22:39:28.076;539438984453054840;299328;270848;289755;-1268;
2024-05-20T22:39:28.094;539438984471210724;299225;270809;289769;-1277;
2024-05-20T22:39:28.112;539438984489366608;299249;270765;289725;-1292;
2024-05-20T22:39:28.130;539438984507522492;299245;270777;289768;-1299;
2024-05-20T22:39:28.148;539438984525678376;299235;270701;289735;-1269;
2024-05-20T22:39:28.166;539438984543834260;299237;270719;289726;-1319;
2024-05-20T22:39:28.185;539438984561990144;299315;270721;289779;-1259;
2024-05-20T22:39:28.203;539438984580146028;299296;270771;289832;-1324;
2024-05-20T22:39:28.221;539438984598301912;299279;270808;289855;-1276;
2024-05-20T22:39:28.239;539438984616457796;299368;270787;289867;-1270;
2024-05-20T22:39:28.257;539438984634613680;299401;270856;289933;-1282;
2024-05-20T22:39:28.275;539438984652769564;299397;270974;289978;-1325;
2024-05-20T22:39:28.293;539438984670925448;299523;270958;290016;-1297;
2024-05-20T22:39:28.312;539438984689081332;299397;270944;289978;-1330;
2024-05-20T22:39:28.330;539438984707237216;299237;270856;289835;-1228;
2024-05-20T22:39:28.348;539438984725393100;298909;270603;289618;-1248;
2024-05-20T22:39:28.366;539438984743548984;298634;270404;289401;-1273;
2024-05-20T22:39:28.384;539438984761704868;298316;270072;289136;-1277;
2024-05-20T22:39:28.402;539438984779860752;298074;269837;288886;-1284;
2024-05-20T22:39:28.421;539438984798016636;297868;269721;288741;-1261;
2024-05-20T22:39:28.439;539438984816172520;297733;269574;288667;-1287;
2024-05-20T22:39:28.457;539438984834326636;297665;269561;288603;-1231;
2024-05-20T22:39:28.475;539438984852480729;297752;269560;288602;-1239;
2024-05-20T22:39:28.493;539438984870634822;297759;269606;288654;-1308;
2024-05-20T22:39:28.511;539438984888788915;297921;269713;288759;-1239;
2024-05-20T22:39:28.529;539438984906943008;298004;269725;288849;-1257;
2024-05-20T22:39:28.548;539438984925097101;298118;269857;289025;-1243;
2024-05-20T22:39:28.566;539438984943251194;298147;269912;289049;-1319;
2024-05-20T22:39:28.584;539438984961405287;298295;270083;289133;-1263;
2024-05-20T22:39:28.602;539438984979559380;298316;270073;289151;-1260;
2024-05-20T22:39:28.620;539438984997713473;298275;270072;289080;-1286;
2024-05-20T22:39:28.638;539438985015867566;298246;270110;289072;-1278;
2024-05-20T22:39:28.657;539438985034021659;298219;270046;289085;-1242;
2024-05-20T22:39:28.675;539438985052175752;298102;270032;289102;-1269;
2024-05-20T22:39:28.693;539438985070329845;298121;269969;289061;-1220;
2024-05-20T22:39:28.711;539438985088483938;298051;269952;289018;-1294;
2024-05-20T22:39:28.729;539438985106638031;298071;270002;289025;-1304;
2024-05-20T22:39:28.747;539438985124792124;298159;270018;289017;-1275;
2024-05-20T22:39:28.765;539438985142946217;298120;269966;289046;-1289;
2024-05-20T22:39:28.784;539438985161100310;298123;269975;289053;-1276;
2024-05-20T22:39:28.802;539438985179254403;298139;270051;289126;-1290;
2024-05-20T22:39:28.820;539438985197408496;298327;270143;289252;-1231;
2024-05-20T22:39:28.838;539438985215562589;298298;270160;289273;-1299;
2024-05-20T22:39:28.856;539438985233716682;298338;270215;289356;-1237;
2024-05-20T22:39:28.874;539438985251870775;298311;270170;289277;-1307;
2024-05-20T22:39:28.893;539438985270024868;298128;270136;289194;-1257;
2024-05-20T22:39:28.911;539438985288178961;297888;269899;289017;-1224;
2024-05-20T22:39:28.929;539438985306333054;297541;269730;288766;-1238;
2024-05-20T22:39:28.947;539438985324487147;297189;269444;288532;-1300;
2024-05-20T22:39:28.965;539438985342641240;296929;269253;288306;-1309;
2024-05-20T22:39:28.983;539438985360795333;296761;269080;288122;-1293;
2024-05-20T22:39:29.001;539438985378949426;296607;268944;288027;-1255;
2024-05-20T22:39:29.020;539438985397103519;296491;268838;287942;-1286;
2024-05-20T22:39:29.038;539438985415257612;296507;268781;287947;-1245;
2024-05-20T22:39:29.056;539438985433411705;296576;268806;287942;-1257;
2024-05-20T22:39:29.074;539438985451565798;296638;268854;288028;-1248;
2024-05-20T22:39:29.092;539438985469719891;296762;268954;288175;-1272;
2024-05-20T22:39:29.110;539438985487873984;296898;269051;288301;-1259;
2024-05-20T22:39:29.129;539438985506028077;296955;269113;288352;-1274;
2024-05-20T22:39:29.147;539438985524182170;297128;269202;288415;-1284;
2024-05-20T22:39:29.165;539438985542336263;297182;269255;288478;-1265;
2024-05-20T22:39:29.183;539438985560490356;297212;269327;288505;-1214;
2024-05-20T22:39:29.201;539438985578644449;297174;269371;288503;-1251;
2024-05-20T22:39:29.219;539438985596798542;297206;269335;288501;-1238;
2024-05-20T22:39:29.237;539438985614952731;297114;269322;288497;-1261;
2024-05-20T22:39:29.256;539438985633106908;297101;269305;288482;-1286;
2024-05-20T22:39:29.274;539438985651261085;297014;269304;288486;-1268;
2024-05-20T22:39:29.292;539438985669415262;297041;269363;288547;-1235;
2024-05-20T22:39:29.310;539438985687569439;297070;269331;288499;-1280;
2024-05-20T22:39:29.328;539438985705723616;297121;269376;288567;-1287;
2024-05-20T22:39:29.346;539438985723877793;297122;269423;288545;-1303;
2024-05-20T22:39:29.365;539438985742031970;297137;269405;288561;-1317;
2024-05-20T22:39:29.383;539438985760186147;297276;269550;288711;-1292;
2024-05-20T22:39:29.401;539438985778340324;297376;269567;288750;-1310;
2024-05-20T22:39:29.419;539438985796494501;297435;269609;288777;-1312;
2024-05-20T22:39:29.437;539438985814648678;297344;269615;288776;-1262;
2024-05-20T22:39:29.455;539438985832802855;297183;269457;288621;-1307;
2024-05-20T22:39:29.473;539438985850957032;296943;269278;288493;-1301;
2024-05-20T22:39:29.492;539438985869111209;296633;269102;288278;-1299;
2024-05-20T22:39:29.510;539438985887265386;296386;268877;288033;-1327;
2024-05-20T22:39:29.528;539438985905419563;296195;268768;287806;-1318;
2024-05-20T22:39:29.546;539438985923573740;296015;268670;287704;-1282;
2024-05-20T22:39:29.564;539438985941727917;295895;268537;287642;-1303;
2024-05-20T22:39:29.582;539438985959882094;295933;268481;287653;-1311;
2024-05-20T22:39:29.601;539438985978036271;296080;268566;287676;-1276;
2024-05-20T22:39:29.619;539438985996190448;296201;268742;287840;-1301;
2024-05-20T22:39:29.637;539438986014344625;296278;268783;287927;-1337;
2024-05-20T22:39:29.655;539438986032498802;296484;268939;288041;-1326;
2024-05-20T22:39:29.673;539438986050652979;296634;269028;288104;-1280;
2024-05-20T22:39:29.691;539438986068807156;296755;269169;288247;-1292;
2024-05-20T22:39:29.709;539438986086961333;296828;269231;288331;-1268;
2024-05-20T22:39:29.728;539438986105115510;296897;269265;288397;-1277;
2024-05-20T22:39:29.746;539438986123269687;297017;269355;288437;-1320;
2024-05-20T22:39:29.764;539438986141423864;297067;269423;288543;-1319;
2024-05-20T22:39:29.782;539438986159578041;297097;269424;288549;-1283;
2024-05-20T22:39:29.800;539438986177732218;297174;269542;288587;-1311;
2024-05-20T22:39:29.818;539438986195886395;297183;269562;288644;-1289;
2024-05-20T22:39:29.837;539438986214040572;297247;269601;288668;-1258;
2024-05-20T22:39:29.855;539438986232194749;297382;269709;288726;-1265;
2024-05-20T22:39:29.873;539438986250348926;297397;269720;288794;-1267;
2024-05-20T22:39:29.891;539438986268503103;297434;269789;288890;-1283;
2024-05-20T22:39:29.909;539438986286657280;297547;269862;288962;-1321;
2024-05-20T22:39:29.927;539438986304811457;297737;270031;289086;-1275;
2024-05-20T22:39:29.945;539438986322965634;297813;270133;289171;-1313;
2024-05-20T22:39:29.964;539438986341119811;297950;270207;289317;-1297;
2024-05-20T22:39:29.982;539438986359273988;297984;270254;289291;-1289;
2024-05-20T22:39:30.000;539438986377429047;297915;270238;289216;-1291;
2024-05-20T22:39:30.018;539438986395584096;297697;270078;289078;-1254;
2024-05-20T22:39:30.036;539438986413739145;297442;269833;288919;-1306;
2024-05-20T22:39:30.054;539438986431894194;297209;269657;288657;-1307;
2024-05-20T22:39:30.073;539438986450049243;296934;269508;288495;-1238;
2024-05-20T22:39:30.091;539438986468204292;296841;269454;288366;-1285;
2024-05-20T22:39:30.109;539438986486359341;296671;269248;288222;-1270;
2024-05-20T22:39:30.127;539438986504514390;296651;269236;288214;-1257;
2024-05-20T22:39:30.145;539438986522669439;296726;269276;288272;-1271;
2024-05-20T22:39:30.163;539438986540824488;296799;269325;288386;-1243;
2024-05-20T22:39:30.181;539438986558979537;296926;269469;288459;-1266;
2024-05-20T22:39:30.200;539438986577134586;297124;269630;288598;-1252;
2024-05-20T22:39:30.218;539438986595289635;297264;269696;288778;-1242;
2024-05-20T22:39:30.236;539438986613444684;297433;269885;288900;-1270;
2024-05-20T22:39:30.254;539438986631599733;297567;269976;288964;-1257;
2024-05-20T22:39:30.272;539438986649754782;297631;269982;288968;-1216;
2024-05-20T22:39:30.290;539438986667909831;297643;270050;289136;-1263;
2024-05-20T22:39:30.309;539438986686064880;297675;270129;289181;-1275;
2024-05-20T22:39:30.327;539438986704219929;297806;270141;289155;-1258;
2024-05-20T22:39:30.345;539438986722374978;297798;270264;289180;-1288;
2024-05-20T22:39:30.363;539438986740530027;297845;270261;289165;-1292;
2024-05-20T22:39:30.381;539438986758685076;297879;270295;289219;-1257;
2024-05-20T22:39:30.399;539438986776840125;297932;270305;289296;-1271;
2024-05-20T22:39:30.418;539438986794995174;298026;270381;289375;-1275;
2024-05-20T22:39:30.436;539438986813150223;298073;270498;289417;-1310;
2024-05-20T22:39:30.454;539438986831305272;298210;270547;289570;-1287;
2024-05-20T22:39:30.472;539438986849460321;298289;270640;289618;-1338;
2024-05-20T22:39:30.490;539438986867615370;298402;270778;289695;-1336;
2024-05-20T22:39:30.508;539438986885770419;298508;270863;289817;-1346;
2024-05-20T22:39:30.526;539438986903925468;298596;270978;289888;-1331;
2024-05-20T22:39:30.545;539438986922080517;298652;270927;289879;-1302;
2024-05-20T22:39:30.563;539438986940235566;298556;270905;289829;-1243;
2024-05-20T22:39:30.581;539438986958390615;298295;270775;289658;-1273;
2024-05-20T22:39:30.599;539438986976545664;298100;270602;289465;-1282;
2024-05-20T22:39:30.617;539438986994700713;297902;270470;289271;-1273;
2024-05-20T22:39:30.635;539438987012855762;297643;270273;289154;-1291;
2024-05-20T22:39:30.654;539438987031010811;297536;270127;288989;-1322;
2024-05-20T22:39:30.672;539438987049165860;297426;270037;288956;-1245;
2024-05-20T22:39:30.690;539438987067320909;297475;270074;288919;-1203;
2024-05-20T22:39:30.708;539438987085475958;297608;270179;289013;-1261;
2024-05-20T22:39:30.726;539438987103631007;297680;270177;289084;-1241;
2024-05-20T22:39:30.744;539438987121786056;297764;270255;289212;-1287;
2024-05-20T22:39:30.762;539438987139937530;297928;270351;289263;-1306;
2024-05-20T22:39:30.781;539438987158088982;298088;270447;289365;-1320;
2024-05-20T22:39:30.799;539438987176240434;298159;270578;289475;-1300;
2024-05-20T22:39:30.817;539438987194391886;298308;270693;289636;-1262;
2024-05-20T22:39:30.835;539438987212543338;298348;270709;289713;-1302;
2024-05-20T22:39:30.853;539438987230694790;298374;270812;289712;-1251;
2024-05-20T22:39:30.871;539438987248846242;298389;270817;289744;-1297;
2024-05-20T22:39:30.890;539438987266997694;298396;270778;289792;-1292;
2024-05-20T22:39:30.908;539438987285149146;298510;270803;289779;-1320;
2024-05-20T22:39:30.926;539438987303300598;298518;270839;289779;-1314;
2024-05-20T22:39:30.944;539438987321452050;298498;270916;289865;-1293;
2024-05-20T22:39:30.962;539438987339603502;298576;270991;289921;-1286;
2024-05-20T22:39:30.980;539438987357754954;298688;271021;289946;-1285;
2024-05-20T22:39:30.998;539438987375906406;298726;271084;290008;-1310;
2024-05-20T22:39:31.017;539438987394057858;298795;271164;290062;-1326;
2024-05-20T22:39:31.035;539438987412209310;298926;271217;290157;-1371;
2024-05-20T22:39:31.053;539438987430360762;298978;271316;290237;-1346;
2024-05-20T22:39:31.071;539438987448512214;299086;271434;290255;-1351;
2024-05-20T22:39:31.089;539438987466663666;299154;271507;290388;-1316;
2024-05-20T22:39:31.107;539438987484815118;299048;271420;290386;-1369;
2024-05-20T22:39:31.125;539438987502966570;299046;271393;290278;-1279;
2024-05-20T22:39:31.144;539438987521118022;298816;271259;290104;-1239;
2024-05-20T22:39:31.162;539438987539269474;298551;271072;289893;-1342;
2024-05-20T22:39:31.180;539438987557420926;298392;270887;289756;-1309;
2024-05-20T22:39:31.198;539438987575572378;298215;270808;289644;-1290;
2024-05-20T22:39:31.216;539438987593723830;298084;270701;289567;-1299;
2024-05-20T22:39:31.234;539438987611875282;298050;270643;289503;-1330;
2024-05-20T22:39:31.253;539438987630026734;298094;270683;289620;-1318;
2024-05-20T22:39:31.271;539438987648178186;298157;270705;289605;-1327;
2024-05-20T22:39:31.289;539438987666329638;298279;270877;289742;-1283;
2024-05-20T22:39:31.307;539438987684481090;298368;270907;289806;-1253;
2024-05-20T22:39:31.325;539438987702632542;298510;271045;289917;-1338;
2024-05-20T22:39:31.343;539438987720783994;298633;271123;290043;-1288;
2024-05-20T22:39:31.361;539438987738935446;298785;271257;290089;-1325;
2024-05-20T22:39:31.380;539438987757086898;298878;271303;290261;-1305;
2024-05-20T22:39:31.398;539438987775238350;298880;271296;290179;-1301;
2024-05-20T22:39:31.416;539438987793389802;298893;271306;290230;-1286;
2024-05-20T22:39:31.434;539438987811541254;298849;271353;290262;-1329;
2024-05-20T22:39:31.452;539438987829692706;298940;271420;290323;-1268;
2024-05-20T22:39:31.470;539438987847844158;298888;271436;290285;-1342;
2024-05-20T22:39:31.489;539438987865995610;298942;271434;290380;-1316;
2024-05-20T22:39:31.507;539438987884147062;298973;271470;290417;-1341;
2024-05-20T22:39:31.525;539438987902299075;299064;271574;290458;-1245;
2024-05-20T22:39:31.543;539438987920451072;299149;271613;290485;-1259;
2024-05-20T22:39:31.561;539438987938603069;299205;271637;290513;-1241;
2024-05-20T22:39:31.579;539438987956755066;299278;271711;290605;-1265;
2024-05-20T22:39:31.597;539438987974907063;299344;271802;290638;-1292;
2024-05-20T22:39:31.616;539438987993059060;299404;271937;290756;-1309;
2024-05-20T22:39:31.634;539438988011211057;299472;271952;290800;-1314;
2024-05-20T22:39:31.652;539438988029363054;299561;272002;290850;-1235;
2024-05-20T22:39:31.670;539438988047515051;299486;271989;290813;-1256;
2024-05-20T22:39:31.688;539438988065667048;299288;271862;290648;-1258;
2024-05-20T22:39:31.706;539438988083819045;299202;271701;290568;-1268;
2024-05-20T22:39:31.724;539438988101971042;298969;271532;290379;-1343;
2024-05-20T22:39:31.743;539438988120123039;298755;271389;290166;-1276;
2024-05-20T22:39:31.761;539438988138275036;298564;271304;290054;-1286;
2024-05-20T22:39:31.779;539438988156427033;298495;271179;289955;-1293;
2024-05-20T22:39:31.797;539438988174579030;298475;271133;289943;-1329;
2024-05-20T22:39:31.815;539438988192731027;298448;271114;289962;-1288;
2024-05-20T22:39:31.833;539438988210883024;298468;271126;290006;-1272;
2024-05-20T22:39:31.852;539438988229035021;298582;271219;290051;-1276;
2024-05-20T22:39:31.870;539438988247187018;298706;271310;290157;-1294;
2024-05-20T22:39:31.888;539438988265339015;298847;271413;290190;-1285;
2024-05-20T22:39:31.906;539438988283491012;298908;271474;290301;-1297;
2024-05-20T22:39:31.924;539438988301643009;299035;271521;290397;-1261;
2024-05-20T22:39:31.942;539438988319795006;299042;271601;290472;-1291;
2024-05-20T22:39:31.960;539438988337947003;299060;271725;290506;-1217;
2024-05-20T22:39:31.979;539438988356099000;299089;271730;290551;-1248;
2024-05-20T22:39:31.997;539438988374250997;299107;271722;290495;-1288;
2024-05-20T22:39:32.015;539438988392402994;299152;271745;290516;-1277;
2024-05-20T22:39:32.033;539438988410554991;299168;271741;290560;-1302;
2024-05-20T22:39:32.051;539438988428706988;299187;271754;290584;-1295;
2024-05-20T22:39:32.069;539438988446858985;299183;271783;290654;-1308;
2024-05-20T22:39:32.088;539438988465010982;299256;271817;290571;-1288;
2024-05-20T22:39:32.106;539438988483162979;299373;271890;290783;-1255;
2024-05-20T22:39:32.124;539438988501314976;299433;271981;290806;-1255;
2024-05-20T22:39:32.142;539438988519466973;299441;272039;290872;-1308;
2024-05-20T22:39:32.160;539438988537618970;299541;272152;290962;-1303;
2024-05-20T22:39:32.178;539438988555770967;299673;272191;290974;-1314;
2024-05-20T22:39:32.196;539438988573922964;299779;272283;291071;-1249;
2024-05-20T22:39:32.215;539438988592074961;299717;272241;291035;-1256;
2024-05-20T22:39:32.233;539438988610226958;299549;272135;290937;-1271;
2024-05-20T22:39:32.251;539438988628378955;299366;272008;290776;-1280;
2024-05-20T22:39:32.269;539438988646530952;299250;271946;290695;-1275;
2024-05-20T22:39:32.287;539438988664684271;299029;271772;290584;-1282;
2024-05-20T22:39:32.305;539438988682837576;298944;271781;290474;-1313;
2024-05-20T22:39:32.324;539438988700990881;298811;271731;290377;-1294;
2024-05-20T22:39:32.342;539438988719144186;298852;271712;290329;-1237;
2024-05-20T22:39:32.360;539438988737297491;298940;271712;290367;-1263;
2024-05-20T22:39:32.378;539438988755450796;298978;271837;290469;-1270;
2024-05-20T22:39:32.396;539438988773604101;299124;271891;290605;-1257;
2024-05-20T22:39:32.414;539438988791757406;299287;271949;290687;-1318;
2024-05-20T22:39:32.432;539438988809910711;299430;272095;290786;-1321;
2024-05-20T22:39:32.451;539438988828064016;299537;272243;290973;-1316;
2024-05-20T22:39:32.469;539438988846217321;299639;272239;291047;-1289;
2024-05-20T22:39:32.487;539438988864370626;299697;272404;291124;-1301;
2024-05-20T22:39:32.505;539438988882523931;299894;272548;291213;-1227;
2024-05-20T22:39:32.523;539438988900677236;299938;272527;291236;-1272;
2024-05-20T22:39:32.541;539438988918830541;299992;272658;291299;-1240;
2024-05-20T22:39:32.560;539438988936983846;299996;272600;291226;-1309;
2024-05-20T22:39:32.578;539438988955137151;300063;272722;291330;-1246;
2024-05-20T22:39:32.596;539438988973290456;300218;272800;291447;-1269;
2024-05-20T22:39:32.614;539438988991443761;300294;272895;291529;-1254;
2024-05-20T22:39:32.632;539438989009597066;300369;272969;291604;-1278;
2024-05-20T22:39:32.650;539438989027750371;300500;273053;291688;-1310;
2024-05-20T22:39:32.668;539438989045903676;300529;273111;291789;-1314;
2024-05-20T22:39:32.687;539438989064056981;300641;273293;291916;-1295;
2024-05-20T22:39:32.705;539438989082210286;300837;273417;292014;-1323;
2024-05-20T22:39:32.723;539438989100363591;300904;273472;292027;-1279;
2024-05-20T22:39:32.741;539438989118516896;301085;273626;292249;-1256;
2024-05-20T22:39:32.759;539438989136670201;301006;273552;292236;-1257;
2024-05-20T22:39:32.777;539438989154823506;300957;273548;292139;-1289;
2024-05-20T22:39:32.795;539438989172976811;300925;273488;292030;-1242;
2024-05-20T22:39:32.814;539438989191130116;300658;273415;291863;-1318;
2024-05-20T22:39:32.832;539438989209283421;300531;273249;291824;-1222;
2024-05-20T22:39:32.850;539438989227436726;300363;273108;291629;-1270;
2024-05-20T22:39:32.868;539438989245590031;300291;273018;291555;-1266;
2024-05-20T22:39:32.886;539438989263743336;300221;273005;291501;-1241;
2024-05-20T22:39:32.904;539438989281896641;300237;272958;291475;-1267;
2024-05-20T22:39:32.923;539438989300049946;300420;273048;291561;-1285;
2024-05-20T22:39:32.941;539438989318203251;300511;273197;291640;-1286;
2024-05-20T22:39:32.959;539438989336356556;300621;273253;291799;-1324;
2024-05-20T22:39:32.977;539438989354509861;300795;273370;291894;-1273;
2024-05-20T22:39:32.995;539438989372663166;300915;273451;291942;-1321;
2024-05-20T22:39:33.013;539438989390816471;301039;273622;292111;-1290;
2024-05-20T22:39:33.031;539438989408969776;301148;273684;292189;-1259;
2024-05-20T22:39:33.050;539438989427125682;301185;273725;292282;-1290;
2024-05-20T22:39:33.068;539438989445281549;301274;273837;292312;-1269;
2024-05-20T22:39:33.086;539438989463437416;301244;273847;292269;-1296;
2024-05-20T22:39:33.104;539438989481593283;301333;273870;292322;-1321;
2024-05-20T22:39:33.122;539438989499749150;301377;273898;292404;-1265;
2024-05-20T22:39:33.140;539438989517905017;301432;274006;292443;-1275;
2024-05-20T22:39:33.159;539438989536060884;301540;274088;292534;-1273;
2024-05-20T22:39:33.177;539438989554216751;301603;274095;292585;-1266;
2024-05-20T22:39:33.195;539438989572372618;301653;274174;292598;-1293;
2024-05-20T22:39:33.213;539438989590528485;301776;274267;292719;-1294;
2024-05-20T22:39:33.231;539438989608684352;301893;274353;292806;-1261;
2024-05-20T22:39:33.249;539438989626840219;302021;274382;292843;-1240;
2024-05-20T22:39:33.268;539438989644996086;302081;274519;292974;-1324;
2024-05-20T22:39:33.286;539438989663151953;302190;274647;293079;-1272;
2024-05-20T22:39:33.304;539438989681307820;302306;274676;293110;-1244;
2024-05-20T22:39:33.322;539438989699463687;302229;274578;293057;-1255;
2024-05-20T22:39:33.340;539438989717619554;302126;274596;292989;-1234;
2024-05-20T22:39:33.358;539438989735775421;301967;274468;292843;-1251;
2024-05-20T22:39:33.376;539438989753931288;301801;274360;292662;-1217;
2024-05-20T22:39:33.395;539438989772087155;301625;274196;292542;-1253;
2024-05-20T22:39:33.413;539438989790243022;301450;274107;292394;-1241;
2024-05-20T22:39:33.431;539438989808398889;301415;274050;292370;-1253;
2024-05-20T22:39:33.449;539438989826554756;301414;274004;292356;-1226;
2024-05-20T22:39:33.467;539438989844710623;301375;274054;292371;-1234;
2024-05-20T22:39:33.485;539438989862866490;301417;274092;292500;-1259;
2024-05-20T22:39:33.504;539438989881022357;301579;274191;292546;-1249;
2024-05-20T22:39:33.522;539438989899178224;301677;274249;292609;-1279;
2024-05-20T22:39:33.540;539438989917334091;301793;274328;292631;-1285;
2024-05-20T22:39:33.558;539438989935489958;301874;274420;292783;-1215;
2024-05-20T22:39:33.576;539438989953645825;301986;274501;292805;-1303;
2024-05-20T22:39:33.594;539438989971801692;301996;274576;292925;-1283;
2024-05-20T22:39:33.612;539438989989957559;302066;274633;292953;-1246;
2024-05-20T22:39:33.631;539438990008113426;302074;274655;292940;-1274;
2024-05-20T22:39:33.649;539438990026269293;302161;274701;292988;-1284;
2024-05-20T22:39:33.667;539438990044425160;302174;274634;292909;-1302;
2024-05-20T22:39:33.685;539438990062581027;302251;274727;293015;-1318;
2024-05-20T22:39:33.703;539438990080736894;302281;274735;293041;-1295;
2024-05-20T22:39:33.721;539438990098892761;302272;274761;293119;-1290;
2024-05-20T22:39:33.740;539438990117048628;302364;274829;293145;-1278;
2024-05-20T22:39:33.758;539438990135204495;302466;274889;293238;-1214;
2024-05-20T22:39:33.776;539438990153360362;302548;274982;293346;-1219;
2024-05-20T22:39:33.794;539438990171516229;302633;275001;293385;-1234;
2024-05-20T22:39:33.812;539438990189672096;302678;275053;293472;-1269;
2024-05-20T22:39:33.830;539438990207827262;302830;275197;293521;-1223;
2024-05-20T22:39:33.848;539438990225982420;302908;275262;293633;-1218;
2024-05-20T22:39:33.867;539438990244137578;302937;275320;293688;-1251;
2024-05-20T22:39:33.885;539438990262292736;302901;275277;293642;-1250;
2024-05-20T22:39:33.903;539438990280447894;302813;275170;293500;-1220;
2024-05-20T22:39:33.921;539438990298603052;302592;275104;293323;-1242;
2024-05-20T22:39:33.939;539438990316758210;302416;274923;293165;-1254;
2024-05-20T22:39:33.957;539438990334913368;302202;274809;292900;-1260;
2024-05-20T22:39:33.976;539438990353068526;301963;274589;292824;-1204;
2024-05-20T22:39:33.994;539438990371223684;301856;274443;292678;-1248;
2024-05-20T22:39:34.012;539438990389378842;301824;274413;292665;-1244;
2024-05-20T22:39:34.030;539438990407534000;301850;274408;292712;-1210;
2024-05-20T22:39:34.048;539438990425689158;301900;274416;292693;-1241;
2024-05-20T22:39:34.066;539438990443844316;301996;274494;292744;-1286;
2024-05-20T22:39:34.085;539438990461999474;302063;274597;292837;-1239;
2024-05-20T22:39:34.103;539438990480154632;302182;274580;292822;-1219;
2024-05-20T22:39:34.121;539438990498309790;302307;274718;292936;-1222;
2024-05-20T22:39:34.139;539438990516464948;302305;274730;292997;-1237;
2024-05-20T22:39:34.157;539438990534620106;302352;274762;292989;-1235;
2024-05-20T22:39:34.175;539438990552775264;302303;274767;293022;-1249;
2024-05-20T22:39:34.193;539438990570930422;302354;274718;293020;-1258;
2024-05-20T22:39:34.212;539438990589085580;302332;274742;292990;-1244;
2024-05-20T22:39:34.230;539438990607240738;302383;274769;292968;-1237;
2024-05-20T22:39:34.248;539438990625395896;302392;274792;293045;-1190;
2024-05-20T22:39:34.266;539438990643551054;302320;274755;292983;-1266;
2024-05-20T22:39:34.284;539438990661706212;302348;274741;293024;-1254;
2024-05-20T22:39:34.302;539438990679861370;302324;274738;293037;-1273;
2024-05-20T22:39:34.321;539438990698016528;302392;274832;293073;-1261;
2024-05-20T22:39:34.339;539438990716171686;302428;274814;293155;-1251;
2024-05-20T22:39:34.357;539438990734326844;302562;274873;293184;-1255;
2024-05-20T22:39:34.375;539438990752482002;302635;274888;293181;-1252;
2024-05-20T22:39:34.393;539438990770637160;302710;274977;293236;-1269;
2024-05-20T22:39:34.411;539438990788792318;302828;275018;293347;-1206;
2024-05-20T22:39:34.429;539438990806947476;302800;275120;293348;-1265;
2024-05-20T22:39:34.448;539438990825102634;302784;275113;293384;-1237;
2024-05-20T22:39:34.466;539438990843257792;302684;275033;293244;-1239;
2024-05-20T22:39:34.484;539438990861412950;302469;274833;293012;-1263;
2024-05-20T22:39:34.502;539438990879568108;302247;274652;292794;-1283;
2024-05-20T22:39:34.520;539438990897723266;302045;274513;292658;-1248;
2024-05-20T22:39:34.538;539438990915878424;301829;274297;292451;-1259;
2024-05-20T22:39:34.557;539438990934033582;301614;274107;292301;-1303;
2024-05-20T22:39:34.575;539438990952188740;301554;273969;292187;-1269;
2024-05-20T22:39:34.593;539438990970343684;301565;273967;292178;-1203;
2024-05-20T22:39:34.611;539438990988498593;301540;273958;292167;-1172;
2024-05-20T22:39:34.629;539438991006653502;301683;273945;292195;-1190;
2024-05-20T22:39:34.647;539438991024808411;301741;274034;292251;-1183;
2024-05-20T22:39:34.665;539438991042963320;301797;274046;292324;-1257;
2024-05-20T22:39:34.684;539438991061118229;301908;274136;292396;-1252;
2024-05-20T22:39:34.702;539438991079273138;301956;274141;292388;-1293;
2024-05-20T22:39:34.720;539438991097428047;301963;274144;292432;-1287;
2024-05-20T22:39:34.738;539438991115582956;302054;274163;292459;-1249;
2024-05-20T22:39:34.756;539438991133737865;302091;274172;292503;-1227;
2024-05-20T22:39:34.774;539438991151892774;302079;274177;292561;-1268;
2024-05-20T22:39:34.793;539438991170047683;302038;274218;292438;-1255;
2024-05-20T22:39:34.811;539438991188202592;302016;274158;292415;-1283;
2024-05-20T22:39:34.829;539438991206357501;302044;274140;292479;-1250;
2024-05-20T22:39:34.847;539438991224512410;301998;274105;292438;-1360;
2024-05-20T22:39:34.865;539438991242667319;302076;274100;292439;-1290;
2024-05-20T22:39:34.883;539438991260822228;302105;274160;292483;-1251;
2024-05-20T22:39:34.901;539438991278977137;302215;274206;292496;-1237;
2024-05-20T22:39:34.920;539438991297132046;302249;274241;292568;-1227;
2024-05-20T22:39:34.938;539438991315286955;302311;274304;292660;-1245;
2024-05-20T22:39:34.956;539438991333441864;302313;274284;292627;-1244;
2024-05-20T22:39:34.974;539438991351596773;302416;274394;292741;-1287;
2024-05-20T22:39:34.992;539438991369751682;302504;274374;292741;-1255;
2024-05-20T22:39:35.010;539438991387906591;302444;274290;292700;-1291;
2024-05-20T22:39:35.029;539438991406061500;302241;274228;292533;-1261;
2024-05-20T22:39:35.047;539438991424216409;302037;274081;292402;-1232;
2024-05-20T22:39:35.065;539438991442371318;301802;273792;292171;-1250;
2024-05-20T22:39:35.083;539438991460526227;301630;273650;291903;-1288;
2024-05-20T22:39:35.101;539438991478681136;301422;273473;291785;-1265;
2024-05-20T22:39:35.119;539438991496836045;301247;273233;291561;-1221;
2024-05-20T22:39:35.138;539438991514990954;301207;273160;291483;-1307;
2024-05-20T22:39:35.156;539438991533145863;301177;273121;291438;-1331;
2024-05-20T22:39:35.174;539438991551300772;301160;273096;291349;-1272;
2024-05-20T22:39:35.192;539438991569455681;301293;273136;291454;-1303;
2024-05-20T22:39:35.210;539438991587610590;301416;273208;291578;-1268;
2024-05-20T22:39:35.228;539438991605765499;301480;273239;291635;-1262;
2024-05-20T22:39:35.246;539438991623920408;301546;273282;291689;-1293;
2024-05-20T22:39:35.265;539438991642075317;301655;273405;291754;-1258;
2024-05-20T22:39:35.283;539438991660230226;301696;273429;291748;-1260;
2024-05-20T22:39:35.301;539438991678385135;301778;273481;291797;-1267;
2024-05-20T22:39:35.319;539438991696540044;301764;273421;291794;-1302;
2024-05-20T22:39:35.337;539438991714694953;301768;273353;291763;-1299;
2024-05-20T22:39:35.355;539438991732849862;301792;273349;291815;-1261;
2024-05-20T22:39:35.374;539438991751003992;301771;273335;291763;-1284;
2024-05-20T22:39:35.392;539438991769158121;301850;273431;291854;-1279;
2024-05-20T22:39:35.410;539438991787312250;301899;273438;291866;-1284;
2024-05-20T22:39:35.428;539438991805466379;301938;273467;291883;-1217;
2024-05-20T22:39:35.446;539438991823620508;302007;273490;291936;-1228;
2024-05-20T22:39:35.464;539438991841774637;302083;273609;291980;-1284;
2024-05-20T22:39:35.482;539438991859928766;302226;273590;292068;-1284;
2024-05-20T22:39:35.501;539438991878082895;302280;273682;292125;-1239;
2024-05-20T22:39:35.519;539438991896237024;302426;273762;292199;-1260;
2024-05-20T22:39:35.537;539438991914391153;302477;273853;292242;-1242;
2024-05-20T22:39:35.555;539438991932545282;302573;273846;292333;-1266;
2024-05-20T22:39:35.573;539438991950699411;302546;273872;292333;-1235;
2024-05-20T22:39:35.591;539438991968853540;302401;273723;292237;-1282;
2024-05-20T22:39:35.610;539438991987007669;302199;273555;291987;-1290;
2024-05-20T22:39:35.628;539438992005161798;302038;273290;291719;-1274;
2024-05-20T22:39:35.646;539438992023315927;301803;273128;291448;-1243;
2024-05-20T22:39:35.664;539438992041470056;301555;272834;291209;-1284;
2024-05-20T22:39:35.682;539438992059624185;301277;272583;290989;-1340;
2024-05-20T22:39:35.700;539438992077778314;301187;272386;290943;-1256;
2024-05-20T22:39:35.718;539438992095932443;301171;272409;290866;-1282;
2024-05-20T22:39:35.737;539438992114086572;301182;272346;290797;-1269;
2024-05-20T22:39:35.755;539438992132240701;301260;272368;290825;-1279;
2024-05-20T22:39:35.773;539438992150394830;301382;272485;290954;-1262;
2024-05-20T22:39:35.791;539438992168548959;301494;272512;290996;-1207;
2024-05-20T22:39:35.809;539438992186703088;301662;272596;291148;-1296;
2024-05-20T22:39:35.827;539438992204857217;301752;272688;291189;-1322;
2024-05-20T22:39:35.846;539438992223011346;301841;272705;291246;-1314;
2024-05-20T22:39:35.864;539438992241165475;301883;272753;291225;-1313;
2024-05-20T22:39:35.882;539438992259319604;301994;272808;291323;-1266;
2024-05-20T22:39:35.900;539438992277473733;302003;272808;291344;-1314;
2024-05-20T22:39:35.918;539438992295627862;302004;272797;291297;-1232;
2024-05-20T22:39:35.936;539438992313781991;301970;272821;291357;-1272;
2024-05-20T22:39:35.954;539438992331936120;302030;272796;291316;-1251;
2024-05-20T22:39:35.973;539438992350090249;302126;272796;291345;-1250;
2024-05-20T22:39:35.991;539438992368244378;302147;272848;291429;-1231;
2024-05-20T22:39:36.009;539438992386398507;302163;272838;291403;-1326;
2024-05-20T22:39:36.027;539438992404552636;302182;272920;291462;-1310;
2024-05-20T22:39:36.045;539438992422706765;302393;273007;291561;-1234;
2024-05-20T22:39:36.063;539438992440860894;302467;272986;291639;-1297;
2024-05-20T22:39:36.082;539438992459015023;302535;273103;291623;-1276;
2024-05-20T22:39:36.100;539438992477169152;302607;273189;291718;-1329;
2024-05-20T22:39:36.118;539438992495323281;302707;273293;291727;-1292;
2024-05-20T22:39:36.136;539438992513477410;302787;273342;291849;-1242;
2024-05-20T22:39:36.154;539438992531631054;302707;273273;291793;-1277;
2024-05-20T22:39:36.172;539438992549784686;302582;273111;291601;-1280;
2024-05-20T22:39:36.190;539438992567938318;302350;272827;291317;-1242;
2024-05-20T22:39:36.209;539438992586091950;302000;272535;291041;-1266;
2024-05-20T22:39:36.227;539438992604245582;301657;272234;290718;-1300;
2024-05-20T22:39:36.245;539438992622399214;301430;271985;290477;-1251;
2024-05-20T22:39:36.263;539438992640552846;301324;271779;290309;-1251;
2024-05-20T22:39:36.281;539438992658706478;301163;271613;290167;-1262;
2024-05-20T22:39:36.299;539438992676860110;301127;271570;290173;-1272;
2024-05-20T22:39:36.318;539438992695013742;301189;271659;290243;-1251;
2024-05-20T22:39:36.336;539438992713167374;301189;271632;290201;-1358;
2024-05-20T22:39:36.354;539438992731321006;301376;271688;290276;-1295;
2024-05-20T22:39:36.372;539438992749474638;301468;271811;290363;-1284;
2024-05-20T22:39:36.390;539438992767628270;301604;271900;290422;-1269;
2024-05-20T22:39:36.408;539438992785781902;301720;271937;290517;-1306;
2024-05-20T22:39:36.426;539438992803935534;301730;271985;290544;-1318;
2024-05-20T22:39:36.445;539438992822089166;301813;271977;290612;-1316;
2024-05-20T22:39:36.463;539438992840242798;301848;272032;290561;-1313;
2024-05-20T22:39:36.481;539438992858396430;301866;271999;290602;-1286;
2024-05-20T22:39:36.499;539438992876550062;301867;272055;290640;-1283;
2024-05-20T22:39:36.517;539438992894703694;301849;272001;290568;-1271;
2024-05-20T22:39:36.535;539438992912857326;301849;271950;290535;-1260;
2024-05-20T22:39:36.554;539438992931010958;301884;271942;290598;-1256;
2024-05-20T22:39:36.572;539438992949164590;301913;271960;290653;-1240;
2024-05-20T22:39:36.590;539438992967318222;301959;271963;290630;-1273;
2024-05-20T22:39:36.608;539438992985471854;301955;272001;290688;-1262;
2024-05-20T22:39:36.626;539438993003625486;302100;272158;290798;-1288;
2024-05-20T22:39:36.644;539438993021779118;302180;272228;290836;-1296;
2024-05-20T22:39:36.662;539438993039932750;302240;272268;290837;-1308;
2024-05-20T22:39:36.681;539438993058086382;302355;272307;290952;-1324;
2024-05-20T22:39:36.699;539438993076240014;302440;272397;291024;-1324;
2024-05-20T22:39:36.717;539438993094393646;302496;272444;291080;-1291;
2024-05-20T22:39:36.735;539438993112547278;302389;272361;290958;-1274;
2024-05-20T22:39:36.753;539438993130700910;302216;272181;290852;-1304;
2024-05-20T22:39:36.771;539438993148854542;301990;271931;290593;-1289;
2024-05-20T22:39:36.790;539438993167008174;301705;271704;290333;-1311;
2024-05-20T22:39:36.808;539438993185161806;301434;271329;290007;-1387;
2024-05-20T22:39:36.826;539438993203315438;301139;271067;289723;-1350;
2024-05-20T22:39:36.844;539438993221469070;300921;270851;289522;-1253;
2024-05-20T22:39:36.862;539438993239622702;300756;270670;289340;-1299;
2024-05-20T22:39:36.880;539438993257776334;300715;270605;289368;-1275;
2024-05-20T22:39:36.898;539438993275929966;300792;270585;289306;-1267;
2024-05-20T22:39:36.917;539438993294083616;300816;270604;289402;-1300;
2024-05-20T22:39:36.935;539438993312237248;300983;270722;289467;-1280;
2024-05-20T22:39:36.953;539438993330390880;301050;270818;289591;-1309;
2024-05-20T22:39:36.971;539438993348544512;301206;270880;289679;-1312;
2024-05-20T22:39:36.989;539438993366698144;301342;271005;289770;-1246;
2024-05-20T22:39:37.007;539438993384851776;301366;271027;289850;-1303;
2024-05-20T22:39:37.026;539438993403005408;301347;270966;289798;-1317;
2024-05-20T22:39:37.044;539438993421159040;301424;271041;289855;-1240;
2024-05-20T22:39:37.062;539438993439312672;301357;270966;289795;-1279;
2024-05-20T22:39:37.080;539438993457466304;301352;270940;289831;-1295;
2024-05-20T22:39:37.098;539438993475619936;301276;270908;289722;-1319;
2024-05-20T22:39:37.116;539438993493773568;301351;270926;289729;-1325;
2024-05-20T22:39:37.134;539438993511927200;301351;270874;289739;-1302;
2024-05-20T22:39:37.153;539438993530080832;301349;270875;289692;-1329;
2024-05-20T22:39:37.171;539438993548234464;301388;270876;289763;-1279;
2024-05-20T22:39:37.189;539438993566388096;301399;270896;289831;-1336;
2024-05-20T22:39:37.207;539438993584541728;301453;270940;289847;-1299;
2024-05-20T22:39:37.225;539438993602695360;301505;270950;289812;-1324;
2024-05-20T22:39:37.243;539438993620848992;301533;270990;289865;-1275;
2024-05-20T22:39:37.262;539438993639002624;301666;271126;290017;-1287;
2024-05-20T22:39:37.280;539438993657156256;301707;271196;290064;-1211;
2024-05-20T22:39:37.298;539438993675309888;301736;271168;290048;-1304;
2024-05-20T22:39:37.316;539438993693463520;301710;271093;290008;-1325;
2024-05-20T22:39:37.334;539438993711617152;301522;270889;289763;-1345;
2024-05-20T22:39:37.352;539438993729770784;301267;270642;289516;-1352;
2024-05-20T22:39:37.370;539438993747924416;300990;270363;289289;-1292;
2024-05-20T22:39:37.389;539438993766078048;300595;270031;288990;-1304;
2024-05-20T22:39:37.407;539438993784231680;300383;269806;288741;-1280;
2024-05-20T22:39:37.425;539438993802385312;300131;269523;288583;-1309;
2024-05-20T22:39:37.443;539438993820538944;300033;269375;288453;-1335;
2024-05-20T22:39:37.461;539438993838692576;300032;269413;288411;-1311;
2024-05-20T22:39:37.479;539438993856846208;300050;269383;288395;-1296;
2024-05-20T22:39:37.498;539438993874999840;300091;269428;288447;-1310;
2024-05-20T22:39:37.516;539438993893153472;300215;269515;288495;-1338;
2024-05-20T22:39:37.534;539438993911307104;300365;269652;288631;-1272;
2024-05-20T22:39:37.552;539438993929460736;300412;269724;288714;-1369;
2024-05-20T22:39:37.570;539438993947614368;300515;269794;288839;-1306;
2024-05-20T22:39:37.588;539438993965768000;300615;269845;288873;-1311;
2024-05-20T22:39:37.606;539438993983921632;300721;269957;288991;-1273;
2024-05-20T22:39:37.625;539438994002075264;300697;269866;288915;-1279;
2024-05-20T22:39:37.643;539438994020228896;300694;269839;288887;-1284;
2024-05-20T22:39:37.661;539438994038382528;300609;269805;288812;-1323;
2024-05-20T22:39:37.679;539438994056536172;300569;269783;288797;-1276;
2024-05-20T22:39:37.697;539438994074689804;300578;269771;288773;-1253;
2024-05-20T22:39:37.715;539438994092843436;300622;269694;288816;-1306;
2024-05-20T22:39:37.734;539438994110997068;300592;269669;288812;-1313;
2024-05-20T22:39:37.752;539438994129150700;300565;269710;288772;-1287;
2024-05-20T22:39:37.770;539438994147304332;300692;269721;288865;-1293;
2024-05-20T22:39:37.788;539438994165457964;300764;269776;288942;-1295;
2024-05-20T22:39:37.806;539438994183611596;300722;269783;288890;-1325;
2024-05-20T22:39:37.824;539438994201765228;300860;269891;288966;-1249;
2024-05-20T22:39:37.842;539438994219918860;300941;270016;289081;-1294;
2024-05-20T22:39:37.861;539438994238072492;300928;269982;289090;-1344;
2024-05-20T22:39:37.879;539438994256226124;300948;269936;289091;-1291;
2024-05-20T22:39:37.897;539438994274379756;300791;269748;288905;-1286;
2024-05-20T22:39:37.915;539438994292533388;300531;269547;288706;-1263;
2024-05-20T22:39:37.933;539438994310687020;300243;269269;288469;-1275;
2024-05-20T22:39:37.951;539438994328840652;299954;268954;288127;-1288;
2024-05-20T22:39:37.970;539438994346994284;299678;268677;287897;-1326;
2024-05-20T22:39:37.988;539438994365147916;299587;268488;287729;-1305;
2024-05-20T22:39:38.006;539438994383301548;299389;268374;287554;-1319;
2024-05-20T22:39:38.024;539438994401455180;299361;268307;287551;-1277;
2024-05-20T22:39:38.042;539438994419608812;299380;268325;287625;-1282;
2024-05-20T22:39:38.060;539438994437762444;299537;268353;287700;-1262;
2024-05-20T22:39:38.078;539438994455916076;299688;268493;287787;-1348;
2024-05-20T22:39:38.097;539438994474069708;299843;268597;287903;-1323;
2024-05-20T22:39:38.115;539438994492223340;299941;268742;287969;-1381;
2024-05-20T22:39:38.133;539438994510376972;300057;268790;288066;-1335;
2024-05-20T22:39:38.151;539438994528530604;300222;268866;288158;-1327;
2024-05-20T22:39:38.169;539438994546684236;300278;268957;288315;-1256;
2024-05-20T22:39:38.187;539438994564837868;300282;268914;288275;-1284;
2024-05-20T22:39:38.206;539438994582991500;300381;269003;288280;-1288;
2024-05-20T22:39:38.224;539438994601145132;300357;268947;288244;-1383;
2024-05-20T22:39:38.242;539438994619298764;300349;268898;288220;-1316;
2024-05-20T22:39:38.260;539438994637452396;300413;268940;288276;-1274;
2024-05-20T22:39:38.278;539438994655606028;300397;268899;288324;-1260;
2024-05-20T22:39:38.296;539438994673759660;300511;269029;288390;-1266;
2024-05-20T22:39:38.314;539438994691913292;300624;269061;288461;-1322;
2024-05-20T22:39:38.333;539438994710066924;300661;269101;288544;-1311;
2024-05-20T22:39:38.351;539438994728220556;300706;269147;288568;-1350;
2024-05-20T22:39:38.369;539438994746374188;300770;269261;288677;-1293;
2024-05-20T22:39:38.387;539438994764527820;300940;269305;288748;-1287;
2024-05-20T22:39:38.405;539438994782681452;301029;269421;288824;-1330;
2024-05-20T22:39:38.423;539438994800835084;301139;269465;288906;-1323;
2024-05-20T22:39:38.442;539438994818989480;301132;269486;288902;-1292;
2024-05-20T22:39:38.460;539438994837143838;301047;269373;288860;-1248;
2024-05-20T22:39:38.478;539438994855298196;300780;269201;288567;-1272;
2024-05-20T22:39:38.496;539438994873452554;300443;268832;288309;-1334;
2024-05-20T22:39:38.514;539438994891606912;300134;268488;288035;-1353;
2024-05-20T22:39:38.532;539438994909761270;299865;268228;287780;-1299;
2024-05-20T22:39:38.550;539438994927915628;299712;268058;287583;-1306;
2024-05-20T22:39:38.569;539438994946069986;299571;267882;287406;-1282;
2024-05-20T22:39:38.587;539438994964224344;299556;267820;287427;-1363;
2024-05-20T22:39:38.605;539438994982378702;299541;267872;287453;-1341;
2024-05-20T22:39:38.623;539438995000533060;299630;267886;287497;-1313;
2024-05-20T22:39:38.641;539438995018687418;299762;267954;287654;-1259;
2024-05-20T22:39:38.659;539438995036841776;299905;268047;287700;-1276;
2024-05-20T22:39:38.678;539438995054996134;300107;268209;287822;-1250;
2024-05-20T22:39:38.696;539438995073150492;300190;268313;287918;-1290;
2024-05-20T22:39:38.714;539438995091304850;300369;268430;288077;-1249;
2024-05-20T22:39:38.732;539438995109459208;300424;268452;288144;-1286;
2024-05-20T22:39:38.750;539438995127613566;300515;268458;288196;-1269;
2024-05-20T22:39:38.768;539438995145767924;300527;268594;288216;-1303;
2024-05-20T22:39:38.786;539438995163922282;300579;268506;288226;-1219;
2024-05-20T22:39:38.805;539438995182076640;300611;268587;288315;-1257;
2024-05-20T22:39:38.823;539438995200230998;300548;268552;288283;-1303;
2024-05-20T22:39:38.841;539438995218385356;300664;268607;288335;-1245;
2024-05-20T22:39:38.859;539438995236539714;300669;268568;288351;-1265;
2024-05-20T22:39:38.877;539438995254694072;300715;268610;288401;-1262;
2024-05-20T22:39:38.895;539438995272848430;300772;268724;288424;-1301;
2024-05-20T22:39:38.914;539438995291002788;300893;268771;288490;-1248;
2024-05-20T22:39:38.932;539438995309157146;301003;268882;288590;-1227;
2024-05-20T22:39:38.950;539438995327311504;301030;268922;288670;-1311;
2024-05-20T22:39:38.968;539438995345465862;301157;268995;288769;-1287;
2024-05-20T22:39:38.986;539438995363620220;301276;269121;288856;-1284;
2024-05-20T22:39:39.004;539438995381774578;301429;269242;288931;-1272;
2024-05-20T22:39:39.022;539438995399928936;301386;269229;288885;-1302;
2024-05-20T22:39:39.041;539438995418083294;301215;269020;288768;-1292;
2024-05-20T22:39:39.059;539438995436237652;300907;268819;288580;-1304;
2024-05-20T22:39:39.077;539438995454392010;300689;268576;288353;-1296;
2024-05-20T22:39:39.095;539438995472546368;300444;268302;288114;-1275;
2024-05-20T22:39:39.113;539438995490700726;300171;268062;287885;-1328;
2024-05-20T22:39:39.131;539438995508855084;300080;267905;287709;-1324;
2024-05-20T22:39:39.150;539438995527009442;299980;267799;287642;-1304;
2024-05-20T22:39:39.168;539438995545163800;299958;267767;287644;-1239;
2024-05-20T22:39:39.186;539438995563318158;300126;267859;287665;-1259;
2024-05-20T22:39:39.204;539438995581472772;300181;267986;287821;-1261;
2024-05-20T22:39:39.222;539438995599627348;300347;268005;287905;-1286;
2024-05-20T22:39:39.240;539438995617781924;300428;268122;287983;-1291;
2024-05-20T22:39:39.258;539438995635936500;300597;268235;288130;-1256;
2024-05-20T22:39:39.277;539438995654091076;300720;268336;288219;-1317;
2024-05-20T22:39:39.295;539438995672245652;300811;268417;288266;-1348;
2024-05-20T22:39:39.313;539438995690400228;300835;268411;288270;-1297;
2024-05-20T22:39:39.331;539438995708554804;300863;268483;288412;-1306;
2024-05-20T22:39:39.349;539438995726709380;300833;268488;288370;-1359;
2024-05-20T22:39:39.367;539438995744863956;300904;268513;288408;-1381;
2024-05-20T22:39:39.386;539438995763018532;300910;268551;288436;-1343;
2024-05-20T22:39:39.404;539438995781173108;300997;268636;288531;-1275;
2024-05-20T22:39:39.422;539438995799327684;301023;268624;288530;-1357;
2024-05-20T22:39:39.440;539438995817482260;301166;268705;288650;-1274;
2024-05-20T22:39:39.458;539438995835636836;301259;268781;288694;-1291;
2024-05-20T22:39:39.476;539438995853791412;301336;268806;288761;-1236;
2024-05-20T22:39:39.494;539438995871945988;301472;268964;288870;-1242;
2024-05-20T22:39:39.513;539438995890100564;301509;268980;288955;-1310;
2024-05-20T22:39:39.531;539438995908255140;301642;269127;289044;-1254;
2024-05-20T22:39:39.549;539438995926409716;301727;269132;289097;-1321;
2024-05-20T22:39:39.567;539438995944564292;301859;269300;289239;-1306;
2024-05-20T22:39:39.585;539438995962718868;301921;269368;289295;-1290;
2024-05-20T22:39:39.603;539438995980873444;301964;269369;289321;-1273;
2024-05-20T22:39:39.622;539438995999028020;301813;269230;289177;-1293;
2024-05-20T22:39:39.640;539438996017182596;301621;269067;288987;-1348;
2024-05-20T22:39:39.658;539438996035337172;301361;268772;288719;-1300;
2024-05-20T22:39:39.676;539438996053491748;301143;268565;288528;-1333;
2024-05-20T22:39:39.694;539438996071646324;300995;268389;288441;-1253;
2024-05-20T22:39:39.712;539438996089800900;300797;268207;288249;-1254;
2024-05-20T22:39:39.730;539438996107955476;300668;268099;288095;-1329;
2024-05-20T22:39:39.749;539438996126110052;300592;268081;288143;-1348;
2024-05-20T22:39:39.767;539438996144264628;300739;268112;288162;-1303;
2024-05-20T22:39:39.785;539438996162419204;300803;268260;288261;-1321;
2024-05-20T22:39:39.803;539438996180573780;300968;268321;288364;-1305;
2024-05-20T22:39:39.821;539438996198728356;301127;268458;288494;-1299;
2024-05-20T22:39:39.839;539438996216882932;301229;268581;288585;-1311;
2024-05-20T22:39:39.858;539438996235037508;301387;268708;288793;-1277;
2024-05-20T22:39:39.876;539438996253192084;301477;268795;288834;-1299;
2024-05-20T22:39:39.894;539438996271346660;301533;268780;288900;-1254;
2024-05-20T22:39:39.912;539438996289501236;301585;268822;288874;-1291;
2024-05-20T22:39:39.930;539438996307655812;301576;268812;288899;-1305;
2024-05-20T22:39:39.948;539438996325810388;301642;268866;288954;-1280;
2024-05-20T22:39:39.966;539438996343965554;301742;268942;288972;-1302;
2024-05-20T22:39:39.985;539438996362120712;301737;268963;289068;-1285;
2024-05-20T22:39:40.003;539438996380275870;301739;269043;289072;-1286;
2024-05-20T22:39:40.021;539438996398431028;301755;269033;289063;-1280;
2024-05-20T22:39:40.039;539438996416586186;301802;269152;289144;-1273;
2024-05-20T22:39:40.057;539438996434741344;301908;269158;289227;-1309;
2024-05-20T22:39:40.075;539438996452896502;301947;269205;289324;-1342;
2024-05-20T22:39:40.094;539438996471051660;301945;269217;289292;-1356;
2024-05-20T22:39:40.112;539438996489206818;301980;269312;289393;-1328;
2024-05-20T22:39:40.130;539438996507361976;302148;269456;289488;-1279;
2024-05-20T22:39:40.148;539438996525517134;302230;269496;289562;-1307;
2024-05-20T22:39:40.166;539438996543672292;302217;269498;289545;-1373;
2024-05-20T22:39:40.184;539438996561827450;302144;269524;289555;-1272;
2024-05-20T22:39:40.202;539438996579982608;302014;269353;289409;-1288;
2024-05-20T22:39:40.221;539438996598137766;301781;269169;289219;-1251;
2024-05-20T22:39:40.239;539438996616292924;301556;268845;289002;-1250;
2024-05-20T22:39:40.257;539438996634448082;301312;268689;288789;-1269;
2024-05-20T22:39:40.275;539438996652603240;301146;268537;288642;-1242;
2024-05-20T22:39:40.293;539438996670758398;301054;268431;288536;-1279;
2024-05-20T22:39:40.311;539438996688913556;300995;268348;288495;-1292;
2024-05-20T22:39:40.330;539438996707068714;301025;268427;288550;-1265;
2024-05-20T22:39:40.348;539438996725223872;301077;268421;288609;-1256;
2024-05-20T22:39:40.366;539438996743379030;301150;268539;288643;-1316;
2024-05-20T22:39:40.384;539438996761534188;301217;268618;288748;-1343;
2024-05-20T22:39:40.402;539438996779689346;301438;268727;288877;-1263;
2024-05-20T22:39:40.420;539438996797844504;301479;268779;288917;-1328;
2024-05-20T22:39:40.439;539438996815999662;301574;268927;289017;-1257;
2024-05-20T22:39:40.457;539438996834154820;301591;268916;289001;-1320;
2024-05-20T22:39:40.475;539438996852309978;301656;268920;289044;-1335;
2024-05-20T22:39:40.493;539438996870465136;301685;268994;289082;-1341;
2024-05-20T22:39:40.511;539438996888620294;301607;268983;289086;-1389;
2024-05-20T22:39:40.529;539438996906775452;301594;269021;289116;-1272;
2024-05-20T22:39:40.547;539438996924930610;301601;269095;289182;-1282;
2024-05-20T22:39:40.566;539438996943085768;301666;269064;289232;-1234;
2024-05-20T22:39:40.584;539438996961240926;301699;269105;289177;-1327;
2024-05-20T22:39:40.602;539438996979396084;301797;269135;289268;-1274;
2024-05-20T22:39:40.620;539438996997551242;301790;269169;289260;-1328;
2024-05-20T22:39:40.638;539438997015706400;301958;269267;289366;-1276;
2024-05-20T22:39:40.656;539438997033861558;301993;269322;289412;-1318;
2024-05-20T22:39:40.675;539438997052016716;302015;269457;289524;-1233;
2024-05-20T22:39:40.693;539438997070171874;302162;269558;289591;-1238;
2024-05-20T22:39:40.711;539438997088327032;302294;269616;289644;-1272;
2024-05-20T22:39:40.729;539438997106482198;302283;269618;289729;-1271;
2024-05-20T22:39:40.747;539438997124637356;302140;269530;289683;-1342;
2024-05-20T22:39:40.765;539438997142792514;301984;269335;289444;-1294;
2024-05-20T22:39:40.783;539438997160947672;301816;269187;289289;-1276;
2024-05-20T22:39:40.802;539438997179102830;301633;269080;289125;-1243;
2024-05-20T22:39:40.820;539438997197257988;301439;268861;288909;-1313;
2024-05-20T22:39:40.838;539438997215413146;301226;268678;288779;-1262;
2024-05-20T22:39:40.856;539438997233568304;301116;268607;288704;-1260;
2024-05-20T22:39:40.874;539438997251723462;301110;268540;288678;-1291;
2024-05-20T22:39:40.892;539438997269878620;301138;268605;288686;-1285;
2024-05-20T22:39:40.911;539438997288033778;301215;268710;288755;-1286;
2024-05-20T22:39:40.929;539438997306188936;301316;268748;288848;-1309;
2024-05-20T22:39:40.947;539438997324344094;301444;268897;288998;-1278;
2024-05-20T22:39:40.965;539438997342499252;301596;269033;289142;-1261;
2024-05-20T22:39:40.983;539438997360654410;301806;269141;289277;-1277;
2024-05-20T22:39:41.001;539438997378809568;301878;269231;289372;-1273;
2024-05-20T22:39:41.019;539438997396964726;301973;269321;289500;-1277;
2024-05-20T22:39:41.038;539438997415119884;301953;269363;289505;-1260;
2024-05-20T22:39:41.056;539438997433275042;301983;269407;289519;-1279;
2024-05-20T22:39:41.074;539438997451430200;302112;269466;289570;-1289;
2024-05-20T22:39:41.092;539438997469585358;302116;269459;289568;-1327;
2024-05-20T22:39:41.110;539438997487740516;302134;269549;289571;-1314;
2024-05-20T22:39:41.128;539438997505895674;302128;269517;289656;-1328;
2024-05-20T22:39:41.147;539438997524050832;302213;269611;289716;-1336;
2024-05-20T22:39:41.165;539438997542205990;302303;269624;289803;-1318;
2024-05-20T22:39:41.183;539438997560361148;302396;269743;289897;-1286;
2024-05-20T22:39:41.201;539438997578516306;302512;269875;289904;-1346;
2024-05-20T22:39:41.219;539438997596671464;302605;269907;290019;-1275;
2024-05-20T22:39:41.237;539438997614826622;302652;270023;290091;-1331;
2024-05-20T22:39:41.255;539438997632981780;302793;270156;290231;-1296;
2024-05-20T22:39:41.274;539438997651136938;302954;270246;290352;-1288;
2024-05-20T22:39:41.292;539438997669292096;303033;270345;290386;-1303;
2024-05-20T22:39:41.310;539438997687447254;302946;270288;290331;-1312;
2024-05-20T22:39:41.328;539438997705602412;302852;270176;290264;-1286;
2024-05-20T22:39:41.346;539438997723757570;302630;269982;290067;-1252;
2024-05-20T22:39:41.364;539438997741912728;302446;269818;289848;-1307;
2024-05-20T22:39:41.383;539438997760067886;302154;269576;289594;-1313;
2024-05-20T22:39:41.401;539438997778223044;302021;269498;289516;-1331;
2024-05-20T22:39:41.419;539438997796378202;301926;269401;289363;-1337;
2024-05-20T22:39:41.437;539438997814533360;301915;269346;289351;-1311;
2024-05-20T22:39:41.455;539438997832688518;301982;269362;289395;-1251;
2024-05-20T22:39:41.473;539438997850843676;302003;269446;289511;-1294;
2024-05-20T22:39:41.492;539438997868997695;302134;269549;289619;-1296;
2024-05-20T22:39:41.510;539438997887151690;302281;269714;289716;-1284;
2024-05-20T22:39:41.528;539438997905305685;302408;269789;289841;-1282;
2024-05-20T22:39:41.546;539438997923459680;302550;269881;289931;-1265;
2024-05-20T22:39:41.564;539438997941613675;302686;269979;289972;-1312;
2024-05-20T22:39:41.582;539438997959767670;302884;270163;290127;-1286;
2024-05-20T22:39:41.600;539438997977921665;302836;270131;290116;-1344;
2024-05-20T22:39:41.619;539438997996075660;302927;270192;290194;-1289;
2024-05-20T22:39:41.637;539438998014229655;302970;270254;290265;-1267;
2024-05-20T22:39:41.655;539438998032383650;302999;270319;290329;-1278;
2024-05-20T22:39:41.673;539438998050537645;303017;270313;290301;-1286;
2024-05-20T22:39:41.691;539438998068691640;303101;270421;290394;-1243;
2024-05-20T22:39:41.709;539438998086845635;303160;270466;290455;-1236;
2024-05-20T22:39:41.728;539438998104999630;303215;270519;290555;-1279;
2024-05-20T22:39:41.746;539438998123153625;303309;270575;290584;-1250;
2024-05-20T22:39:41.764;539438998141307620;303417;270651;290689;-1285;
2024-05-20T22:39:41.782;539438998159461615;303475;270713;290752;-1260;
2024-05-20T22:39:41.800;539438998177615610;303527;270806;290767;-1299;
2024-05-20T22:39:41.818;539438998195769605;303622;270988;290879;-1273;
2024-05-20T22:39:41.836;539438998213923600;303780;271058;291008;-1295;
2024-05-20T22:39:41.855;539438998232077595;303854;271157;291111;-1287;
2024-05-20T22:39:41.873;539438998250231590;303874;271189;291087;-1299;
2024-05-20T22:39:41.891;539438998268385585;303710;271108;290989;-1390;
2024-05-20T22:39:41.909;539438998286539580;303462;270878;290752;-1348;
2024-05-20T22:39:41.927;539438998304693575;303308;270733;290586;-1304;
2024-05-20T22:39:41.945;539438998322847570;303045;270520;290486;-1312;
2024-05-20T22:39:41.964;539438998341001565;302871;270332;290183;-1316;
2024-05-20T22:39:41.982;539438998359155560;302730;270176;290015;-1301;
2024-05-20T22:39:42.000;539438998377309555;302598;270148;290017;-1334;
2024-05-20T22:39:42.018;539438998395463550;302595;270069;289971;-1294;
2024-05-20T22:39:42.036;539438998413617545;302642;270080;289958;-1290;
2024-05-20T22:39:42.054;539438998431771540;302742;270150;290057;-1306;
2024-05-20T22:39:42.072;539438998449925535;302816;270197;290151;-1276;
2024-05-20T22:39:42.091;539438998468079530;302940;270350;290261;-1237;
2024-05-20T22:39:42.109;539438998486233525;303091;270466;290345;-1284;
2024-05-20T22:39:42.127;539438998504387520;303183;270547;290451;-1312;
2024-05-20T22:39:42.145;539438998522541515;303272;270599;290544;-1320;
2024-05-20T22:39:42.163;539438998540695510;303290;270697;290578;-1235;
2024-05-20T22:39:42.181;539438998558849505;303364;270743;290628;-1252;
2024-05-20T22:39:42.200;539438998577003500;303459;270754;290720;-1211;
2024-05-20T22:39:42.218;539438998595157495;303481;270776;290700;-1275;
2024-05-20T22:39:42.236;539438998613311490;303475;270867;290747;-1324;
2024-05-20T22:39:42.254;539438998631466597;303508;270896;290769;-1326;
2024-05-20T22:39:42.272;539438998649621682;303513;270858;290793;-1266;
2024-05-20T22:39:42.290;539438998667776767;303515;270907;290841;-1317;
2024-05-20T22:39:42.308;539438998685931852;303659;270999;290874;-1270;
2024-05-20T22:39:42.327;539438998704086937;303727;271058;290955;-1313;
2024-05-20T22:39:42.345;539438998722242022;303820;271126;291038;-1261;
2024-05-20T22:39:42.363;539438998740397107;303879;271210;291117;-1296;
2024-05-20T22:39:42.381;539438998758552192;304031;271314;291300;-1239;
2024-05-20T22:39:42.399;539438998776707277;304114;271443;291370;-1263;
2024-05-20T22:39:42.417;539438998794862362;304090;271505;291360;-1310;
2024-05-20T22:39:42.436;539438998813017447;304229;271571;291535;-1304;
2024-05-20T22:39:42.454;539438998831172532;304252;271649;291538;-1278;
2024-05-20T22:39:42.472;539438998849327617;304143;271540;291432;-1318;
2024-05-20T22:39:42.490;539438998867482702;303987;271379;291156;-1293;
2024-05-20T22:39:42.508;539438998885637787;303784;271206;291067;-1250;
2024-05-20T22:39:42.526;539438998903792872;303545;270960;290799;-1274;
2024-05-20T22:39:42.544;539438998921947957;303316;270785;290648;-1211;
2024-05-20T22:39:42.563;539438998940103042;303147;270648;290477;-1274;
2024-05-20T22:39:42.581;539438998958258127;303053;270575;290418;-1240;
2024-05-20T22:39:42.599;539438998976413212;302996;270529;290347;-1242;
2024-05-20T22:39:42.617;539438998994568297;303031;270533;290313;-1261;
2024-05-20T22:39:42.635;539438999012723382;303089;270575;290426;-1225;
2024-05-20T22:39:42.653;539438999030878467;303190;270645;290476;-1286;
2024-05-20T22:39:42.672;539438999049033552;303271;270737;290610;-1285;
2024-05-20T22:39:42.690;539438999067188637;303406;270879;290729;-1295;
2024-05-20T22:39:42.708;539438999085343722;303543;270928;290822;-1267;
2024-05-20T22:39:42.726;539438999103498807;303530;271000;290822;-1261;
2024-05-20T22:39:42.744;539438999121653892;303625;271107;290894;-1291;
2024-05-20T22:39:42.762;539438999139808977;303649;271048;290918;-1249;
2024-05-20T22:39:42.780;539438999157964062;303707;271112;290928;-1181;
2024-05-20T22:39:42.799;539438999176119147;303650;271138;290971;-1254;
2024-05-20T22:39:42.817;539438999194274232;303618;271135;290942;-1282;
2024-05-20T22:39:42.835;539438999212429317;303659;271101;290964;-1266;
2024-05-20T22:39:42.853;539438999230584402;303749;271164;290952;-1275;
2024-05-20T22:39:42.871;539438999248739487;303754;271226;291020;-1253;
2024-05-20T22:39:42.889;539438999266894572;303768;271242;291084;-1260;
2024-05-20T22:39:42.908;539438999285049657;303921;271310;291128;-1236;
2024-05-20T22:39:42.926;539438999303204742;303905;271354;291199;-1257;
2024-05-20T22:39:42.944;539438999321359827;303988;271397;291256;-1266;
2024-05-20T22:39:42.962;539438999339514912;304083;271416;291286;-1286;
2024-05-20T22:39:42.980;539438999357669997;304101;271506;291364;-1270;
2024-05-20T22:39:42.998;539438999375825082;304184;271569;291440;-1301;
2024-05-20T22:39:43.016;539438999393978172;304261;271731;291489;-1226;
2024-05-20T22:39:43.035;539438999412131222;304290;271677;291559;-1223;
2024-05-20T22:39:43.053;539438999430284272;304187;271615;291483;-1290;
2024-05-20T22:39:43.071;539438999448437322;304080;271507;291288;-1319;
2024-05-20T22:39:43.089;539438999466590372;303804;271273;291063;-1295;
2024-05-20T22:39:43.107;539438999484743422;303554;271056;290926;-1288;
2024-05-20T22:39:43.125;539438999502896472;303347;270874;290788;-1242;
2024-05-20T22:39:43.144;539438999521049522;303143;270648;290521;-1260;
2024-05-20T22:39:43.162;539438999539202572;302978;270483;290373;-1270;
2024-05-20T22:39:43.180;539438999557355622;302894;270432;290327;-1271;
2024-05-20T22:39:43.198;539438999575508672;302860;270398;290278;-1255;
2024-05-20T22:39:43.216;539438999593661722;302859;270492;290295;-1226;
2024-05-20T22:39:43.234;539438999611814772;302956;270587;290378;-1261;
2024-05-20T22:39:43.252;539438999629967822;303092;270677;290465;-1227;
2024-05-20T22:39:43.271;539438999648120872;303144;270703;290559;-1278;
2024-05-20T22:39:43.289;539438999666273922;303231;270771;290642;-1283;
2024-05-20T22:39:43.307;539438999684426972;303281;270848;290763;-1248;
2024-05-20T22:39:43.325;539438999702580022;303365;270871;290714;-1295;
2024-05-20T22:39:43.343;539438999720733072;303419;270959;290787;-1226;
2024-05-20T22:39:43.361;539438999738886122;303415;270935;290756;-1262;
2024-05-20T22:39:43.380;539438999757039172;303433;270916;290690;-1237;
2024-05-20T22:39:43.398;539438999775192222;303357;270892;290666;-1271;
2024-05-20T22:39:43.416;539438999793345272;303369;270896;290656;-1261;
2024-05-20T22:39:43.434;539438999811498322;303329;270895;290720;-1280;
2024-05-20T22:39:43.452;539438999829651372;303406;270957;290728;-1265;
2024-05-20T22:39:43.470;539438999847804422;303426;271013;290780;-1274;
2024-05-20T22:39:43.488;539438999865957472;303429;271012;290820;-1233;
2024-05-20T22:39:43.507;539438999884110522;303486;271015;290826;-1217;
2024-05-20T22:39:43.525;539438999902263572;303542;271013;290820;-1228;
2024-05-20T22:39:43.543;539438999920416622;303589;271117;290884;-1228;
2024-05-20T22:39:43.561;539438999938569672;303691;271178;290923;-1271;
2024-05-20T22:39:43.579;539438999956722722;303758;271312;291008;-1263;
2024-05-20T22:39:43.597;539438999974875772;303844;271336;291031;-1275;
2024-05-20T22:39:43.616;539438999993028822;303940;271391;291118;-1280;
2024-05-20T22:39:43.634;539439000011181872;303804;271335;291035;-1277;
2024-05-20T22:39:43.652;539439000029334922;303667;271199;290851;-1262;
2024-05-20T22:39:43.670;539439000047487972;303392;271015;290706;-1291;
2024-05-20T22:39:43.688;539439000065641022;303170;270762;290477;-1270;
2024-05-20T22:39:43.706;539439000083794072;303000;270565;290240;-1313;
2024-05-20T22:39:43.724;539439000101947122;302782;270376;290082;-1323;
2024-05-20T22:39:43.743;539439000120100172;302693;270298;289979;-1321;
2024-05-20T22:39:43.761;539439000138253222;302621;270293;289921;-1348;
2024-05-20T22:39:43.779;539439000156407363;302685;270298;289903;-1359;
2024-05-20T22:39:43.797;539439000174561504;302846;270316;290024;-1309;
2024-05-20T22:39:43.815;539439000192715645;302933;270462;290034;-1277;
2024-05-20T22:39:43.833;539439000210869786;303132;270549;290132;-1286;
2024-05-20T22:39:43.852;539439000229023927;303260;270645;290237;-1300;
2024-05-20T22:39:43.870;539439000247178068;303441;270761;290386;-1287;
2024-05-20T22:39:43.888;539439000265332209;303488;270862;290447;-1311;
2024-05-20T22:39:43.906;539439000283486350;303547;270935;290513;-1324;
2024-05-20T22:39:43.924;539439000301640491;303549;270986;290541;-1308;
2024-05-20T22:39:43.942;539439000319794632;303593;270991;290543;-1291;
2024-05-20T22:39:43.960;539439000337948773;303627;270943;290588;-1271;
2024-05-20T22:39:43.979;539439000356102914;303646;270972;290619;-1256;
2024-05-20T22:39:43.997;539439000374257055;303602;270988;290508;-1266;
2024-05-20T22:39:44.015;539439000392411196;303682;271091;290602;-1296;
2024-05-20T22:39:44.033;539439000410565337;303669;271107;290621;-1282;
2024-05-20T22:39:44.051;539439000428719478;303620;271022;290638;-1276;
2024-05-20T22:39:44.069;539439000446873619;303699;271065;290638;-1275;
2024-05-20T22:39:44.088;539439000465027760;303800;271171;290691;-1266;
2024-05-20T22:39:44.106;539439000483181901;303867;271153;290753;-1353;
2024-05-20T22:39:44.124;539439000501336042;303959;271282;290802;-1303;
2024-05-20T22:39:44.142;539439000519490183;304098;271402;290909;-1250;
2024-05-20T22:39:44.160;539439000537644324;304219;271544;291024;-1218;
2024-05-20T22:39:44.178;539439000555798465;304310;271628;291113;-1284;
2024-05-20T22:39:44.196;539439000573952606;304446;271673;291174;-1306;
2024-05-20T22:39:44.215;539439000592106747;304423;271649;291166;-1314;
2024-05-20T22:39:44.233;539439000610260888;304360;271595;291122;-1257;
2024-05-20T22:39:44.251;539439000628415029;304154;271524;290883;-1285;
2024-05-20T22:39:44.269;539439000646569170;303861;271212;290650;-1326;
2024-05-20T22:39:44.287;539439000664723311;303686;270975;290439;-1275;
2024-05-20T22:39:44.305;539439000682877452;303377;270742;290201;-1263;
2024-05-20T22:39:44.324;539439000701031593;303214;270475;289970;-1280;
2024-05-20T22:39:44.342;539439000719185734;303009;270323;289829;-1259;
2024-05-20T22:39:44.360;539439000737339875;302885;270218;289708;-1330;
2024-05-20T22:39:44.378;539439000755494016;302830;270159;289695;-1342;
2024-05-20T22:39:44.396;539439000773648157;302906;270206;289721;-1301;
2024-05-20T22:39:44.414;539439000791802298;302981;270254;289833;-1277;
2024-05-20T22:39:44.432;539439000809956439;303123;270359;289902;-1290;
2024-05-20T22:39:44.451;539439000828110580;303173;270383;289921;-1302;
2024-05-20T22:39:44.469;539439000846264721;303269;270493;290063;-1289;
2024-05-20T22:39:44.487;539439000864418862;303416;270560;290141;-1271;
2024-05-20T22:39:44.505;539439000882573003;303532;270687;290119;-1272;
2024-05-20T22:39:44.523;539439000900727144;303564;270657;290201;-1288;
2024-05-20T22:39:44.541;539439000918881596;303602;270674;290217;-1283;
2024-05-20T22:39:44.560;539439000937036047;303584;270759;290218;-1296;
2024-05-20T22:39:44.578;539439000955190498;303616;270827;290253;-1314;
2024-05-20T22:39:44.596;539439000973344949;303708;270801;290230;-1317;
2024-05-20T22:39:44.614;539439000991499400;303781;270847;290365;-1326;
2024-05-20T22:39:44.632;539439001009653851;303821;270860;290372;-1334;
2024-05-20T22:39:44.650;539439001027808302;303898;270972;290416;-1321;
2024-05-20T22:39:44.668;539439001045962753;303879;271012;290475;-1393;
2024-05-20T22:39:44.687;539439001064117204;304022;271155;290501;-1334;
2024-05-20T22:39:44.705;539439001082271655;304195;271169;290611;-1260;
2024-05-20T22:39:44.723;539439001100426106;304232;271252;290687;-1313;
2024-05-20T22:39:44.741;539439001118580557;304377;271410;290787;-1340;
2024-05-20T22:39:44.759;539439001136735008;304502;271561;290940;-1303;
2024-05-20T22:39:44.777;539439001154889459;304576;271562;291050;-1321;
2024-05-20T22:39:44.796;539439001173043910;304772;271737;291199;-1253;
2024-05-20T22:39:44.814;539439001191198361;304783;271700;291202;-1304;
2024-05-20T22:39:44.832;539439001209352812;304745;271724;291140;-1249;
2024-05-20T22:39:44.850;539439001227507263;304685;271664;290987;-1301;
2024-05-20T22:39:44.868;539439001245661714;304509;271483;290820;-1283;
2024-05-20T22:39:44.886;539439001263816165;304241;271272;290592;-1318;
2024-05-20T22:39:44.904;539439001281970616;304014;271037;290441;-1269;
2024-05-20T22:39:44.923;539439001300125067;303770;270853;290230;-1288;
2024-05-20T22:39:44.941;539439001318279518;303644;270688;290136;-1285;
2024-05-20T22:39:44.959;539439001336433969;303511;270579;290005;-1322;
2024-05-20T22:39:44.977;539439001354588420;303488;270624;290028;-1287;
2024-05-20T22:39:44.995;539439001372742871;303641;270538;290087;-1278;
2024-05-20T22:39:45.013;539439001390897322;303708;270699;290108;-1306;
2024-05-20T22:39:45.032;539439001409051773;303904;270841;290202;-1265;
2024-05-20T22:39:45.050;539439001427206224;304064;270941;290340;-1277;
2024-05-20T22:39:45.068;539439001445360675;304208;271092;290508;-1306;
2024-05-20T22:39:45.086;539439001463515126;304298;271172;290589;-1309;
2024-05-20T22:39:45.104;539439001481669577;304290;271264;290662;-1316;
2024-05-20T22:39:45.122;539439001499824028;304418;271333;290711;-1345;
2024-05-20T22:39:45.140;539439001517978479;304463;271379;290728;-1275;
2024-05-20T22:39:45.159;539439001536132930;304516;271468;290753;-1288;
2024-05-20T22:39:45.177;539439001554287381;304433;271350;290722;-1293;
2024-05-20T22:39:45.195;539439001572441832;304492;271424;290781;-1333;
2024-05-20T22:39:45.213;539439001590596283;304529;271406;290774;-1297;
2024-05-20T22:39:45.231;539439001608750734;304551;271439;290750;-1287;
2024-05-20T22:39:45.249;539439001626905185;304580;271473;290851;-1260;
2024-05-20T22:39:45.268;539439001645059636;304586;271521;290833;-1308;
2024-05-20T22:39:45.286;539439001663213336;304670;271591;290920;-1278;
2024-05-20T22:39:45.304;539439001681367004;304771;271627;290981;-1323;
2024-05-20T22:39:45.322;539439001699520672;304927;271741;291100;-1280;
2024-05-20T22:39:45.340;539439001717674340;304920;271781;291098;-1292;
2024-05-20T22:39:45.358;539439001735828008;305003;271869;291230;-1261;
2024-05-20T22:39:45.376;539439001753981676;305032;271937;291283;-1304;
2024-05-20T22:39:45.395;539439001772135344;305160;271995;291342;-1309;
2024-05-20T22:39:45.413;539439001790289012;305306;272084;291474;-1361;
2024-05-20T22:39:45.431;539439001808442680;305320;272142;291472;-1325;
2024-05-20T22:39:45.449;539439001826596348;305136;271997;291338;-1318;
2024-05-20T22:39:45.467;539439001844750016;304910;271755;291091;-1344;
2024-05-20T22:39:45.485;539439001862903684;304677;271542;290899;-1294;
2024-05-20T22:39:45.504;539439001881057352;304380;271352;290686;-1302;
2024-05-20T22:39:45.522;539439001899211020;304119;271099;290441;-1262;
2024-05-20T22:39:45.540;539439001917364688;303905;270909;290238;-1309;
2024-05-20T22:39:45.558;539439001935518356;303786;270728;290065;-1307;
2024-05-20T22:39:45.576;539439001953672024;303674;270654;290049;-1287;
2024-05-20T22:39:45.594;539439001971825692;303667;270600;290030;-1342;
2024-05-20T22:39:45.612;539439001989979360;303771;270716;290047;-1265;
2024-05-20T22:39:45.631;539439002008133028;303850;270824;290068;-1258;
2024-05-20T22:39:45.649;539439002026286696;303923;270947;290149;-1320;
2024-05-20T22:39:45.667;539439002044440364;304045;270997;290289;-1293;
2024-05-20T22:39:45.685;539439002062594032;304133;271081;290416;-1325;
2024-05-20T22:39:45.703;539439002080747700;304290;271186;290463;-1266;
2024-05-20T22:39:45.721;539439002098901368;304294;271221;290464;-1293;
2024-05-20T22:39:45.740;539439002117055036;304315;271189;290425;-1313;
2024-05-20T22:39:45.758;539439002135208704;304362;271250;290478;-1286;
2024-05-20T22:39:45.776;539439002153362372;304352;271243;290540;-1244;
2024-05-20T22:39:45.794;539439002171516040;304352;271261;290495;-1296;
2024-05-20T22:39:45.812;539439002189669708;304410;271276;290525;-1260;
2024-05-20T22:39:45.830;539439002207823376;304418;271266;290544;-1250;
2024-05-20T22:39:45.848;539439002225977044;304426;271301;290501;-1307;
2024-05-20T22:39:45.867;539439002244130712;304501;271296;290560;-1308;
2024-05-20T22:39:45.885;539439002262284380;304536;271433;290626;-1278;
2024-05-20T22:39:45.903;539439002280438048;304552;271461;290739;-1256;
2024-05-20T22:39:45.921;539439002298591716;304682;271567;290790;-1273;
2024-05-20T22:39:45.939;539439002316745384;304787;271626;290874;-1318;
2024-05-20T22:39:45.957;539439002334899052;304836;271781;290987;-1262;
2024-05-20T22:39:45.976;539439002353052720;305047;271873;291012;-1287;
2024-05-20T22:39:45.994;539439002371206388;305055;271932;291181;-1287;
2024-05-20T22:39:46.012;539439002389360056;305101;271926;291152;-1252;
2024-05-20T22:39:46.030;539439002407513724;305018;271824;291094;-1296;
2024-05-20T22:39:46.048;539439002425668672;304859;271679;290889;-1307;
2024-05-20T22:39:46.066;539439002443823612;304629;271524;290662;-1353;
2024-05-20T22:39:46.084;539439002461978552;304339;271278;290468;-1310;
2024-05-20T22:39:46.103;539439002480133492;304182;271031;290250;-1305;
2024-05-20T22:39:46.121;539439002498288432;303995;270881;290119;-1308;
2024-05-20T22:39:46.139;539439002516443372;303895;270765;290041;-1217;
2024-05-20T22:39:46.157;539439002534598312;303807;270708;289984;-1301;
2024-05-20T22:39:46.175;539439002552753252;303872;270714;289916;-1339;
2024-05-20T22:39:46.193;539439002570908192;303891;270821;289987;-1300;
2024-05-20T22:39:46.212;539439002589063132;303993;270896;290067;-1357;
2024-05-20T22:39:46.230;539439002607218072;304259;271080;290217;-1319;
2024-05-20T22:39:46.248;539439002625373012;304335;271204;290361;-1318;
2024-05-20T22:39:46.266;539439002643527952;304552;271341;290440;-1313;
2024-05-20T22:39:46.284;539439002661682892;304651;271436;290563;-1295;
2024-05-20T22:39:46.302;539439002679837832;304727;271520;290663;-1352;
2024-05-20T22:39:46.321;539439002697992772;304819;271534;290711;-1339;
2024-05-20T22:39:46.339;539439002716147712;304887;271598;290681;-1323;
2024-05-20T22:39:46.357;539439002734302652;304937;271665;290695;-1268;
2024-05-20T22:39:46.375;539439002752457592;305017;271696;290808;-1285;
2024-05-20T22:39:46.393;539439002770612532;304990;271679;290780;-1287;
2024-05-20T22:39:46.411;539439002788767472;305028;271718;290831;-1299;
2024-05-20T22:39:46.429;539439002806922412;305104;271854;290900;-1344;
2024-05-20T22:39:46.448;539439002825077352;305227;271910;290945;-1354;
2024-05-20T22:39:46.466;539439002843232292;305240;271903;290972;-1308;
2024-05-20T22:39:46.484;539439002861387232;305394;272041;291156;-1297;
2024-05-20T22:39:46.502;539439002879542172;305541;272209;291205;-1260;
2024-05-20T22:39:46.520;539439002897697112;305602;272303;291302;-1326;
2024-05-20T22:39:46.538;539439002915852052;305754;272370;291410;-1339;
2024-05-20T22:39:46.557;539439002934006992;305885;272490;291575;-1360;
2024-05-20T22:39:46.575;539439002952161932;306063;272621;291635;-1335;
2024-05-20T22:39:46.593;539439002970316872;306149;272689;291723;-1269;
2024-05-20T22:39:46.611;539439002988471812;306105;272716;291753;-1339;
2024-05-20T22:39:46.629;539439003006626752;305926;272602;291608;-1334;
2024-05-20T22:39:46.647;539439003024781692;305797;272414;291352;-1355;
2024-05-20T22:39:46.665;539439003042936632;305482;272205;291149;-1364;
2024-05-20T22:39:46.684;539439003061091572;305173;271959;290885;-1310;
2024-05-20T22:39:46.702;539439003079246512;304955;271714;290683;-1301;
2024-05-20T22:39:46.720;539439003097401452;304755;271524;290512;-1237;
2024-05-20T22:39:46.738;539439003115556392;304639;271385;290383;-1317;
2024-05-20T22:39:46.756;539439003133711332;304607;271321;290311;-1304;
2024-05-20T22:39:46.774;539439003151866272;304717;271405;290316;-1289;
2024-05-20T22:39:46.793;539439003170021212;304774;271501;290350;-1265;
2024-05-20T22:39:46.811;539439003188174422;304849;271499;290498;-1253;
2024-05-20T22:39:46.829;539439003206327618;305006;271684;290583;-1249;
2024-05-20T22:39:46.847;539439003224480814;305135;271800;290710;-1265;
2024-05-20T22:39:46.865;539439003242634010;305248;271908;290841;-1292;
2024-05-20T22:39:46.883;539439003260787206;305331;271965;290861;-1345;
2024-05-20T22:39:46.901;539439003278940402;305447;272129;290893;-1314;
2024-05-20T22:39:46.920;539439003297093598;305440;272196;290985;-1267;
2024-05-20T22:39:46.938;539439003315246794;305560;272169;290947;-1292;
2024-05-20T22:39:46.956;539439003333399990;305522;272170;290946;-1322;
2024-05-20T22:39:46.974;539439003351553186;305524;272169;290984;-1343;
2024-05-20T22:39:46.992;539439003369706382;305568;272230;291014;-1386;
2024-05-20T22:39:47.010;539439003387859578;305572;272342;291074;-1326;
2024-05-20T22:39:47.029;539439003406012774;305645;272362;291134;-1317;
2024-05-20T22:39:47.047;539439003424165970;305781;272454;291200;-1316;
2024-05-20T22:39:47.065;539439003442319166;305830;272527;291285;-1312;
2024-05-20T22:39:47.083;539439003460472362;305947;272627;291327;-1299;
2024-05-20T22:39:47.101;539439003478625558;306069;272728;291496;-1330;
2024-05-20T22:39:47.119;539439003496778754;306148;272774;291469;-1270;
2024-05-20T22:39:47.137;539439003514931950;306268;272877;291626;-1327;
2024-05-20T22:39:47.156;539439003533085146;306419;272942;291731;-1354;
2024-05-20T22:39:47.174;539439003551238342;306521;273061;291820;-1320;
2024-05-20T22:39:47.192;539439003569391538;306580;273119;291886;-1303;
2024-05-20T22:39:47.210;539439003587544734;306544;273080;291827;-1271;
2024-05-20T22:39:47.228;539439003605697930;306306;272931;291589;-1342;
2024-05-20T22:39:47.246;539439003623851126;306062;272702;291432;-1280;
2024-05-20T22:39:47.265;539439003642004322;305729;272368;291124;-1299;
2024-05-20T22:39:47.283;539439003660157518;305489;272157;290805;-1303;
2024-05-20T22:39:47.301;539439003678310714;305202;271856;290591;-1310;
2024-05-20T22:39:47.319;539439003696463910;304966;271675;290375;-1306;
2024-05-20T22:39:47.337;539439003714617106;304841;271609;290307;-1256;
2024-05-20T22:39:47.355;539439003732770302;304852;271542;290240;-1311;
2024-05-20T22:39:47.373;539439003750923498;304840;271603;290244;-1296;
2024-05-20T22:39:47.392;539439003769076694;304952;271626;290248;-1346;
2024-05-20T22:39:47.410;539439003787229890;305019;271730;290360;-1317;
2024-05-20T22:39:47.428;539439003805383086;305185;271810;290492;-1272;
2024-05-20T22:39:47.446;539439003823536282;305304;271929;290585;-1324;
2024-05-20T22:39:47.464;539439003841689478;305428;272038;290690;-1297;
2024-05-20T22:39:47.482;539439003859842674;305465;272070;290716;-1307;
2024-05-20T22:39:47.501;539439003877995870;305584;272216;290771;-1301;
2024-05-20T22:39:47.519;539439003896149066;305574;272203;290753;-1287;
2024-05-20T22:39:47.537;539439003914302262;305594;272256;290836;-1283;
2024-05-20T22:39:47.555;539439003932455458;305578;272256;290826;-1311;
2024-05-20T22:39:47.573;539439003950610280;305573;272250;290849;-1301;
2024-05-20T22:39:47.591;539439003968765099;305593;272352;290922;-1287;
2024-05-20T22:39:47.609;539439003986919918;305631;272379;290927;-1346;
2024-05-20T22:39:47.628;539439004005074737;305752;272478;290967;-1284;
2024-05-20T22:39:47.646;539439004023229556;305774;272529;291031;-1282;
2024-05-20T22:39:47.664;539439004041384375;305889;272574;291094;-1301;
2024-05-20T22:39:47.682;539439004059539194;305893;272665;291101;-1295;
2024-05-20T22:39:47.700;539439004077694013;305976;272682;291176;-1274;
2024-05-20T22:39:47.718;539439004095848832;306060;272698;291274;-1347;
2024-05-20T22:39:47.737;539439004114003651;306154;272795;291356;-1328;
2024-05-20T22:39:47.755;539439004132158470;306216;272859;291380;-1329;
2024-05-20T22:39:47.773;539439004150313289;306336;273012;291510;-1265;
2024-05-20T22:39:47.791;539439004168468108;306359;273079;291478;-1313;
2024-05-20T22:39:47.809;539439004186622927;306298;273052;291457;-1318;
2024-05-20T22:39:47.827;539439004204777746;306143;272884;291340;-1301;
2024-05-20T22:39:47.845;539439004222932565;305954;272701;291107;-1302;
2024-05-20T22:39:47.864;539439004241087384;305546;272415;290775;-1318;
2024-05-20T22:39:47.882;539439004259242203;305240;272080;290464;-1289;
2024-05-20T22:39:47.900;539439004277397022;304923;271849;290228;-1258;
2024-05-20T22:39:47.918;539439004295551841;304589;271536;290018;-1356;
2024-05-20T22:39:47.936;539439004313706660;304482;271367;289820;-1336;
2024-05-20T22:39:47.954;539439004331861479;304367;271356;289772;-1268;
2024-05-20T22:39:47.973;539439004350016298;304360;271337;289739;-1268;
2024-05-20T22:39:47.991;539439004368171117;304395;271346;289743;-1282;
2024-05-20T22:39:48.009;539439004386325936;304463;271299;289764;-1353;
2024-05-20T22:39:48.027;539439004404480755;304634;271483;289928;-1308;
2024-05-20T22:39:48.045;539439004422635574;304723;271551;289982;-1301;
2024-05-20T22:39:48.063;539439004440790393;304926;271707;290109;-1285;
2024-05-20T22:39:48.081;539439004458945212;304903;271731;290103;-1347;
2024-05-20T22:39:48.100;539439004477100031;304931;271823;290137;-1249;
2024-05-20T22:39:48.118;539439004495254850;304959;271820;290131;-1306;
2024-05-20T22:39:48.136;539439004513409669;304955;271837;290121;-1283;
2024-05-20T22:39:48.154;539439004531564488;304929;271866;290167;-1268;
2024-05-20T22:39:48.172;539439004549719307;304870;271741;290118;-1287;
2024-05-20T22:39:48.190;539439004567874126;304842;271711;290060;-1290;
2024-05-20T22:39:48.209;539439004586028945;304834;271745;290051;-1279;
2024-05-20T22:39:48.227;539439004604183764;304802;271749;290056;-1285;
2024-05-20T22:39:48.245;539439004622338583;304882;271825;290153;-1277;
2024-05-20T22:39:48.263;539439004640493402;304968;271843;290169;-1287;
2024-05-20T22:39:48.281;539439004658648221;304977;271845;290192;-1245;
2024-05-20T22:39:48.299;539439004676803040;305034;271951;290272;-1299;
2024-05-20T22:39:48.317;539439004694957859;305068;271998;290341;-1306;
2024-05-20T22:39:48.336;539439004713112678;305187;272072;290421;-1228;
2024-05-20T22:39:48.354;539439004731267497;305279;272106;290412;-1300;
2024-05-20T22:39:48.372;539439004749422316;305322;272199;290525;-1317;
2024-05-20T22:39:48.390;539439004767575960;305296;272250;290501;-1311;
2024-05-20T22:39:48.408;539439004785729592;305156;272132;290394;-1343;
2024-05-20T22:39:48.426;539439004803883224;304945;271951;290230;-1314;
2024-05-20T22:39:48.445;539439004822036856;304619;271669;289964;-1321;
2024-05-20T22:39:48.463;539439004840190488;304287;271453;289705;-1293;
2024-05-20T22:39:48.481;539439004858344120;304040;271095;289401;-1331;
2024-05-20T22:39:48.499;539439004876497752;303756;270853;289126;-1284;
2024-05-20T22:39:48.517;539439004894651384;303596;270761;289009;-1286;
2024-05-20T22:39:48.535;539439004912805016;303451;270598;288828;-1296;
2024-05-20T22:39:48.553;539439004930958648;303397;270528;288728;-1334;
2024-05-20T22:39:48.572;539439004949112280;303428;270591;288806;-1342;
2024-05-20T22:39:48.590;539439004967265912;303529;270638;288863;-1356;
2024-05-20T22:39:48.608;539439004985419544;303641;270730;288959;-1303;
2024-05-20T22:39:48.626;539439005003573176;303768;270894;289080;-1303;
2024-05-20T22:39:48.644;539439005021726808;303845;270921;289141;-1304;
2024-05-20T22:39:48.662;539439005039880440;303949;271055;289257;-1267;
2024-05-20T22:39:48.681;539439005058034072;303965;271073;289260;-1292;
2024-05-20T22:39:48.699;539439005076187704;303987;271075;289305;-1338;
2024-05-20T22:39:48.717;539439005094341336;303991;271102;289299;-1309;
2024-05-20T22:39:48.735;539439005112494968;303972;271116;289299;-1297;
2024-05-20T22:39:48.753;539439005130648600;303958;271128;289299;-1267;
2024-05-20T22:39:48.771;539439005148802232;304002;271198;289363;-1266;
2024-05-20T22:39:48.789;539439005166955864;303973;271082;289315;-1269;
2024-05-20T22:39:48.808;539439005185109496;303987;271184;289356;-1250;
2024-05-20T22:39:48.826;539439005203263128;303990;271230;289388;-1345;
2024-05-20T22:39:48.844;539439005221416760;304044;271249;289424;-1320;
2024-05-20T22:39:48.862;539439005239570392;304105;271321;289502;-1307;
2024-05-20T22:39:48.880;539439005257724024;304197;271436;289586;-1305;
2024-05-20T22:39:48.898;539439005275877656;304272;271479;289649;-1263;
2024-05-20T22:39:48.917;539439005294031288;304336;271553;289722;-1300;
2024-05-20T22:39:48.935;539439005312184920;304472;271557;289840;-1263;
2024-05-20T22:39:48.953;539439005330338552;304508;271679;289933;-1261;
2024-05-20T22:39:48.971;539439005348492184;304600;271812;289966;-1288;
2024-05-20T22:39:48.989;539439005366645816;304569;271673;289900;-1257;
2024-05-20T22:39:49.007;539439005384799448;304329;271549;289695;-1291;
2024-05-20T22:39:49.025;539439005402953080;304095;271341;289401;-1255;
2024-05-20T22:39:49.044;539439005421106712;303689;271076;289110;-1256;
2024-05-20T22:39:49.062;539439005439260344;303340;270716;288849;-1283;
2024-05-20T22:39:49.080;539439005457413976;303004;270467;288597;-1258;
2024-05-20T22:39:49.098;539439005475567608;302794;270218;288390;-1263;
2024-05-20T22:39:49.116;539439005493721240;302644;270137;288270;-1256;
2024-05-20T22:39:49.134;539439005511874872;302546;270005;288156;-1319;
2024-05-20T22:39:49.153;539439005530030306;302597;270046;288194;-1321;
2024-05-20T22:39:49.171;539439005548185712;302674;270082;288245;-1293;
2024-05-20T22:39:49.189;539439005566341118;302720;270144;288340;-1277;
2024-05-20T22:39:49.207;539439005584496524;302882;270253;288448;-1314;
2024-05-20T22:39:49.225;539439005602651930;302984;270444;288545;-1266;
2024-05-20T22:39:49.243;539439005620807336;303079;270512;288678;-1261;
2024-05-20T22:39:49.261;539439005638962742;303162;270580;288697;-1278;
2024-05-20T22:39:49.280;539439005657118148;303251;270630;288802;-1284;
2024-05-20T22:39:49.298;539439005675273554;303240;270686;288813;-1285;
2024-05-20T22:39:49.316;539439005693428960;303251;270688;288839;-1286;
2024-05-20T22:39:49.334;539439005711584366;303243;270624;288847;-1295;
2024-05-20T22:39:49.352;539439005729739772;303307;270629;288877;-1288;
2024-05-20T22:39:49.370;539439005747895178;303333;270690;288920;-1248;
2024-05-20T22:39:49.389;539439005766050584;303220;270714;288896;-1306;
2024-05-20T22:39:49.407;539439005784205990;303299;270821;288899;-1291;
2024-05-20T22:39:49.425;539439005802361396;303400;270800;288999;-1297;
2024-05-20T22:39:49.443;539439005820516802;303425;270871;289063;-1271;
2024-05-20T22:39:49.461;539439005838672208;303496;270944;289148;-1261;
2024-05-20T22:39:49.479;539439005856827614;303576;271034;289202;-1293;
2024-05-20T22:39:49.497;539439005874983020;303700;271080;289320;-1318;
2024-05-20T22:39:49.516;539439005893138426;303809;271220;289440;-1283;
2024-05-20T22:39:49.534;539439005911293832;303928;271382;289526;-1261;
2024-05-20T22:39:49.552;539439005929449238;303991;271411;289656;-1276;
2024-05-20T22:39:49.570;539439005947604644;303913;271404;289558;-1226;
2024-05-20T22:39:49.588;539439005965760050;303774;271294;289448;-1227;
2024-05-20T22:39:49.606;539439005983915456;303516;271080;289306;-1241;
2024-05-20T22:39:49.625;539439006002070862;303175;270799;288962;-1255;
2024-05-20T22:39:49.643;539439006020226268;302770;270410;288627;-1259;
2024-05-20T22:39:49.661;539439006038381674;302382;270093;288317;-1265;
2024-05-20T22:39:49.679;539439006056537080;302072;269880;288110;-1245;
2024-05-20T22:39:49.697;539439006074692486;301856;269635;287844;-1283;
2024-05-20T22:39:49.715;539439006092847892;301728;269560;287686;-1254;
2024-05-20T22:39:49.734;539439006111003298;301687;269506;287735;-1278;
2024-05-20T22:39:49.752;539439006129158704;301721;269574;287704;-1236;
2024-05-20T22:39:49.770;539439006147314110;301752;269644;287796;-1266;
2024-05-20T22:39:49.788;539439006165469516;301829;269674;287837;-1292;
2024-05-20T22:39:49.806;539439006183624922;301943;269800;287973;-1261;
2024-05-20T22:39:49.824;539439006201780328;302048;269863;288043;-1310;
2024-05-20T22:39:49.842;539439006219935734;302172;269968;288250;-1327;
2024-05-20T22:39:49.861;539439006238091140;302186;269970;288241;-1274;
2024-05-20T22:39:49.879;539439006256246546;302183;269917;288216;-1276;
2024-05-20T22:39:49.897;539439006274401952;302139;269932;288202;-1310;
2024-05-20T22:39:49.915;539439006292557358;302134;269974;288234;-1319;
2024-05-20T22:39:49.933;539439006310711979;302221;269949;288241;-1306;
2024-05-20T22:39:49.951;539439006328866592;302207;269924;288191;-1285;
2024-05-20T22:39:49.970;539439006347021205;302190;270010;288258;-1286;
2024-05-20T22:39:49.988;539439006365175818;302289;269989;288209;-1314;
2024-05-20T22:39:50.006;539439006383330431;302194;270022;288225;-1317;
2024-05-20T22:39:50.024;539439006401485044;302235;270107;288357;-1314;
2024-05-20T22:39:50.042;539439006419639657;302265;270184;288402;-1309;
2024-05-20T22:39:50.060;539439006437794270;302331;270247;288489;-1279;
2024-05-20T22:39:50.078;539439006455948883;302439;270317;288637;-1289;
2024-05-20T22:39:50.097;539439006474103496;302446;270374;288689;-1330;
2024-05-20T22:39:50.115;539439006492258109;302576;270437;288779;-1292;
2024-05-20T22:39:50.133;539439006510412722;302640;270564;288842;-1322;
2024-05-20T22:39:50.151;539439006528567335;302742;270634;288888;-1272;
2024-05-20T22:39:50.169;539439006546721948;302592;270522;288849;-1323;
2024-05-20T22:39:50.187;539439006564876561;302387;270334;288612;-1299;
2024-05-20T22:39:50.206;539439006583031174;302031;270029;288305;-1319;
2024-05-20T22:39:50.224;539439006601185787;301670;269759;288030;-1276;
2024-05-20T22:39:50.242;539439006619340400;301260;269393;287752;-1307;
2024-05-20T22:39:50.260;539439006637495013;300922;269087;287455;-1283;
2024-05-20T22:39:50.278;539439006655649626;300579;268814;287201;-1260;
2024-05-20T22:39:50.296;539439006673804239;300324;268609;286992;-1297;
2024-05-20T22:39:50.314;539439006691958852;300275;268524;286953;-1277;
2024-05-20T22:39:50.333;539439006710113465;300227;268496;286874;-1291;
2024-05-20T22:39:50.351;539439006728268078;300270;268535;286898;-1275;
2024-05-20T22:39:50.369;539439006746422691;300365;268541;286998;-1268;
2024-05-20T22:39:50.387;539439006764577304;300480;268640;287076;-1248;
2024-05-20T22:39:50.405;539439006782731917;300576;268796;287198;-1277;
2024-05-20T22:39:50.423;539439006800886530;300704;268872;287269;-1292;
2024-05-20T22:39:50.442;539439006819041143;300814;268962;287376;-1267;
2024-05-20T22:39:50.460;539439006837195756;300866;269089;287441;-1258;
