Phone timestamp;sensor timestamp [ns];channel 0;channel 1;channel 2;ambient
2024-05-21T20:50:54.680;539518871740769493;471610;572181;397730;-1325;
2024-05-21T20:50:54.698;539518871758929483;471592;572129;397714;-1347;
2024-05-21T20:50:54.716;539518871777089473;471499;572014;397554;-1377;
2024-05-21T20:50:54.734;539518871795249463;471183;571671;397284;-1341;
2024-05-21T20:50:54.752;539518871813409453;470836;571272;397027;-1314;
2024-05-21T20:50:54.770;539518871831569443;470407;570752;396632;-1371;
2024-05-21T20:50:54.788;539518871849729433;470040;570242;396276;-1399;
2024-05-21T20:50:54.807;539518871867889423;469643;569832;395945;-1424;
2024-05-21T20:50:54.825;539518871886049413;469318;569486;395767;-1440;
2024-05-21T20:50:54.843;539518871904209403;469129;569214;395685;-1397;
2024-05-21T20:50:54.861;539518871922369393;468943;569057;395620;-1429;
2024-05-21T20:50:54.879;539518871940529383;468855;569078;395555;-1364;
2024-05-21T20:50:54.897;539518871958689373;468949;569034;395581;-1409;
2024-05-21T20:50:54.916;539518871976849363;469025;569232;395688;-1376;
2024-05-21T20:50:54.934;539518871995009353;469188;569419;395875;-1364;
2024-05-21T20:50:54.952;539518872013169343;469318;569601;396040;-1276;
2024-05-21T20:50:54.970;539518872031329333;469501;569829;396197;-1302;
2024-05-21T20:50:54.988;539518872049489323;469690;570021;396388;-1383;
2024-05-21T20:50:55.006;539518872067649313;469833;570275;396512;-1345;
2024-05-21T20:50:55.025;539518872085809303;470046;570458;396659;-1403;
2024-05-21T20:50:55.043;539518872103969293;470134;570605;396771;-1381;
2024-05-21T20:50:55.061;539518872122129283;470363;570793;396961;-1404;
2024-05-21T20:50:55.079;539518872140289273;470450;570945;397014;-1398;
2024-05-21T20:50:55.097;539518872158449263;470557;571108;397175;-1389;
2024-05-21T20:50:55.115;539518872176609253;470624;571224;397224;-1377;
2024-05-21T20:50:55.133;539518872194769243;470797;571343;397388;-1378;
2024-05-21T20:50:55.152;539518872212929233;470840;571493;397378;-1365;
2024-05-21T20:50:55.170;539518872231089223;470909;571576;397446;-1325;
2024-05-21T20:50:55.188;539518872249249213;471090;571740;397583;-1376;
2024-05-21T20:50:55.206;539518872267409203;471228;571907;397693;-1325;
2024-05-21T20:50:55.224;539518872285569193;471374;572017;397889;-1403;
2024-05-21T20:50:55.242;539518872303729183;471509;572267;397976;-1356;
2024-05-21T20:50:55.261;539518872321889173;471693;572424;398091;-1361;
2024-05-21T20:50:55.279;539518872340049163;471792;572584;398214;-1386;
2024-05-21T20:50:55.297;539518872358209153;471929;572734;398422;-1369;
2024-05-21T20:50:55.315;539518872376369143;472026;572820;398402;-1341;
2024-05-21T20:50:55.333;539518872394529133;471910;572688;398311;-1346;
2024-05-21T20:50:55.351;539518872412689144;471754;572417;398073;-1330;
2024-05-21T20:50:55.370;539518872430849134;471422;572128;397801;-1405;
2024-05-21T20:50:55.388;539518872449009124;471107;571758;397496;-1414;
2024-05-21T20:50:55.406;539518872467169114;470874;571378;397315;-1304;
2024-05-21T20:50:55.424;539518872485329104;470537;571035;397076;-1339;
2024-05-21T20:50:55.442;539518872503489094;470383;570891;396980;-1360;
2024-05-21T20:50:55.460;539518872521649084;470306;570770;396909;-1343;
2024-05-21T20:50:55.479;539518872539809074;470264;570721;396856;-1353;
2024-05-21T20:50:55.497;539518872557969064;470404;570856;396996;-1325;
2024-05-21T20:50:55.515;539518872576129054;470502;571031;397069;-1306;
2024-05-21T20:50:55.533;539518872594289044;470723;571158;397301;-1279;
2024-05-21T20:50:55.551;539518872612449034;470930;571509;397545;-1310;
2024-05-21T20:50:55.569;539518872630609024;471168;571849;397783;-1359;
2024-05-21T20:50:55.587;539518872648769014;471389;572161;397936;-1353;
2024-05-21T20:50:55.606;539518872666929004;471620;572417;398097;-1348;
2024-05-21T20:50:55.624;539518872685088994;471838;572653;398311;-1382;
2024-05-21T20:50:55.642;539518872703248984;472032;572836;398440;-1365;
2024-05-21T20:50:55.660;539518872721408974;472215;572986;398617;-1359;
2024-05-21T20:50:55.678;539518872739568964;472338;573190;398772;-1292;
2024-05-21T20:50:55.696;539518872757728954;472409;573314;398849;-1286;
2024-05-21T20:50:55.715;539518872775888944;472554;573507;398921;-1320;
2024-05-21T20:50:55.733;539518872794048934;472656;573682;399003;-1326;
2024-05-21T20:50:55.751;539518872812208924;472793;573828;399120;-1472;
2024-05-21T20:50:55.769;539518872830368914;473027;574039;399238;-1372;
2024-05-21T20:50:55.787;539518872848528904;473091;574214;399353;-1395;
2024-05-21T20:50:55.805;539518872866688894;473337;574441;399626;-1289;
2024-05-21T20:50:55.824;539518872884848884;473496;574502;399676;-1337;
2024-05-21T20:50:55.842;539518872903008874;473638;574710;399834;-1368;
2024-05-21T20:50:55.860;539518872921168864;473759;574900;399908;-1289;
2024-05-21T20:50:55.878;539518872939328854;473956;575079;400055;-1347;
2024-05-21T20:50:55.896;539518872957488844;474155;575319;400276;-1337;
2024-05-21T20:50:55.914;539518872975648834;474172;575501;400310;-1386;
2024-05-21T20:50:55.933;539518872993808824;474227;575421;400297;-1420;
2024-05-21T20:50:55.951;539518873011968814;474126;575365;400220;-1357;
2024-05-21T20:50:55.969;539518873030128804;473863;575021;399972;-1291;
2024-05-21T20:50:55.987;539518873048288794;473531;574723;399703;-1318;
2024-05-21T20:50:56.005;539518873066448784;473267;574286;399355;-1338;
2024-05-21T20:50:56.023;539518873084608774;473026;573933;399150;-1312;
2024-05-21T20:50:56.041;539518873102768764;472833;573703;399019;-1345;
2024-05-21T20:50:56.060;539518873120928754;472652;573465;398871;-1316;
2024-05-21T20:50:56.078;539518873139088744;472542;573402;398843;-1338;
2024-05-21T20:50:56.096;539518873157248734;472516;573353;398850;-1345;
2024-05-21T20:50:56.114;539518873175407702;472558;573480;398892;-1325;
2024-05-21T20:50:56.132;539518873193566656;472703;573618;399026;-1308;
2024-05-21T20:50:56.150;539518873211725610;472900;573777;399151;-1380;
2024-05-21T20:50:56.169;539518873229884564;473094;573988;399351;-1360;
2024-05-21T20:50:56.187;539518873248043518;473269;574205;399541;-1416;
2024-05-21T20:50:56.205;539518873266202472;473518;574521;399721;-1300;
2024-05-21T20:50:56.223;539518873284361426;473648;574654;399855;-1312;
2024-05-21T20:50:56.241;539518873302520380;473774;574828;400019;-1295;
2024-05-21T20:50:56.259;539518873320679334;473919;575015;400130;-1314;
2024-05-21T20:50:56.278;539518873338838288;473994;575181;400240;-1314;
2024-05-21T20:50:56.296;539518873356997242;474128;575233;400295;-1357;
2024-05-21T20:50:56.314;539518873375156196;474245;575386;400369;-1270;
2024-05-21T20:50:56.332;539518873393315150;474320;575503;400516;-1348;
2024-05-21T20:50:56.350;539518873411474104;474391;575618;400551;-1331;
2024-05-21T20:50:56.368;539518873429633058;474497;575678;400639;-1336;
2024-05-21T20:50:56.387;539518873447792012;474568;575777;400764;-1334;
2024-05-21T20:50:56.405;539518873465950966;474628;575904;400806;-1377;
2024-05-21T20:50:56.423;539518873484109920;474829;575948;400873;-1289;
2024-05-21T20:50:56.441;539518873502268874;474934;576125;400893;-1420;
2024-05-21T20:50:56.459;539518873520427828;475032;576189;401062;-1355;
2024-05-21T20:50:56.477;539518873538586782;475147;576312;401151;-1327;
2024-05-21T20:50:56.495;539518873556745736;475217;576429;401195;-1360;
2024-05-21T20:50:56.514;539518873574904690;475239;576478;401202;-1324;
2024-05-21T20:50:56.532;539518873593063644;475118;576249;401024;-1358;
2024-05-21T20:50:56.550;539518873611222598;474787;575949;400801;-1385;
2024-05-21T20:50:56.568;539518873629381552;474538;575565;400502;-1339;
2024-05-21T20:50:56.586;539518873647540506;474299;575129;400179;-1344;
2024-05-21T20:50:56.604;539518873665699460;473902;574780;399842;-1338;
2024-05-21T20:50:56.623;539518873683858414;473542;574445;399610;-1306;
2024-05-21T20:50:56.641;539518873702017368;473332;574128;399429;-1287;
2024-05-21T20:50:56.659;539518873720176322;473148;573936;399272;-1360;
2024-05-21T20:50:56.677;539518873738335276;473037;573925;399293;-1359;
2024-05-21T20:50:56.695;539518873756494230;473038;573938;399341;-1341;
2024-05-21T20:50:56.713;539518873774653184;473140;574056;399514;-1354;
2024-05-21T20:50:56.732;539518873792812138;473236;574101;399527;-1302;
2024-05-21T20:50:56.750;539518873810971092;473392;574270;399704;-1311;
2024-05-21T20:50:56.768;539518873829130046;473550;574525;399837;-1344;
2024-05-21T20:50:56.786;539518873847289000;473706;574733;399901;-1372;
2024-05-21T20:50:56.804;539518873865447954;473893;574878;400055;-1334;
2024-05-21T20:50:56.822;539518873883606908;474082;575043;400243;-1387;
2024-05-21T20:50:56.840;539518873901765862;474213;575213;400426;-1350;
2024-05-21T20:50:56.859;539518873919927776;474324;575317;400476;-1387;
2024-05-21T20:50:56.877;539518873938089670;474393;575407;400565;-1361;
2024-05-21T20:50:56.895;539518873956251564;474426;575493;400682;-1407;
2024-05-21T20:50:56.913;539518873974413458;474548;575552;400654;-1375;
2024-05-21T20:50:56.931;539518873992575352;474645;575633;400727;-1340;
2024-05-21T20:50:56.949;539518874010737246;474690;575754;400801;-1318;
2024-05-21T20:50:56.968;539518874028899140;474713;575797;400840;-1340;
2024-05-21T20:50:56.986;539518874047061034;474811;575856;400929;-1320;
2024-05-21T20:50:57.004;539518874065222928;474828;575885;400947;-1385;
2024-05-21T20:50:57.022;539518874083384822;474927;575924;400926;-1326;
2024-05-21T20:50:57.040;539518874101546716;474971;575993;401021;-1311;
2024-05-21T20:50:57.058;539518874119708610;475075;576007;401140;-1337;
2024-05-21T20:50:57.077;539518874137870504;475137;576096;401135;-1327;
2024-05-21T20:50:57.095;539518874156032398;475215;576180;401201;-1343;
2024-05-21T20:50:57.113;539518874174194292;475010;576026;401051;-1356;
2024-05-21T20:50:57.131;539518874192356186;474810;575668;400749;-1297;
2024-05-21T20:50:57.149;539518874210518080;474491;575200;400403;-1342;
2024-05-21T20:50:57.167;539518874228679974;474023;574692;400056;-1388;
2024-05-21T20:50:57.186;539518874246841868;473569;574151;399652;-1325;
2024-05-21T20:50:57.204;539518874265003762;473117;573650;399250;-1343;
2024-05-21T20:50:57.222;539518874283165656;472736;573186;399003;-1319;
2024-05-21T20:50:57.240;539518874301327550;472441;572883;398794;-1313;
2024-05-21T20:50:57.258;539518874319489444;472211;572603;398597;-1323;
2024-05-21T20:50:57.276;539518874337651338;472096;572464;398521;-1373;
2024-05-21T20:50:57.295;539518874355813232;472103;572464;398547;-1353;
2024-05-21T20:50:57.313;539518874373975126;472187;572541;398572;-1329;
2024-05-21T20:50:57.331;539518874392137020;472259;572648;398640;-1312;
2024-05-21T20:50:57.349;539518874410298914;472359;572721;398733;-1303;
2024-05-21T20:50:57.367;539518874428460808;472458;572887;398862;-1363;
2024-05-21T20:50:57.385;539518874446622702;472608;573049;399053;-1369;
2024-05-21T20:50:57.404;539518874464784596;472797;573195;399155;-1336;
2024-05-21T20:50:57.422;539518874482946490;472904;573428;399240;-1271;
2024-05-21T20:50:57.440;539518874501108384;473017;573579;399401;-1257;
2024-05-21T20:50:57.458;539518874519270278;473162;573637;399396;-1339;
2024-05-21T20:50:57.476;539518874537432172;473175;573679;399484;-1335;
2024-05-21T20:50:57.494;539518874555594066;473279;573729;399495;-1287;
2024-05-21T20:50:57.512;539518874573755960;473255;573808;399526;-1377;
2024-05-21T20:50:57.531;539518874591917854;473325;573946;399595;-1308;
2024-05-21T20:50:57.549;539518874610079748;473347;573876;399632;-1357;
2024-05-21T20:50:57.567;539518874628241642;473383;573910;399678;-1372;
2024-05-21T20:50:57.585;539518874646403536;473490;574044;399816;-1354;
2024-05-21T20:50:57.603;539518874664561766;473582;574138;399843;-1248;
2024-05-21T20:50:57.621;539518874682719975;473716;574259;399913;-1250;
2024-05-21T20:50:57.640;539518874700878184;473835;574365;399959;-1277;
2024-05-21T20:50:57.658;539518874719036393;474003;574461;400082;-1307;
2024-05-21T20:50:57.676;539518874737194602;474004;574522;400075;-1347;
2024-05-21T20:50:57.694;539518874755352811;473988;574580;400142;-1381;
2024-05-21T20:50:57.712;539518874773511020;473871;574403;399973;-1360;
2024-05-21T20:50:57.730;539518874791669229;473597;574011;399695;-1345;
2024-05-21T20:50:57.749;539518874809827438;473282;573608;399347;-1303;
2024-05-21T20:50:57.767;539518874827985647;472853;573059;398882;-1324;
2024-05-21T20:50:57.785;539518874846143856;472416;572645;398525;-1337;
2024-05-21T20:50:57.803;539518874864302065;472079;572198;398289;-1359;
2024-05-21T20:50:57.821;539518874882460274;471704;571785;398014;-1329;
2024-05-21T20:50:57.839;539518874900618483;471564;571593;397880;-1310;
2024-05-21T20:50:57.858;539518874918776692;471460;571402;397746;-1318;
2024-05-21T20:50:57.876;539518874936934901;471365;571334;397728;-1325;
2024-05-21T20:50:57.894;539518874955093110;471409;571352;397726;-1325;
2024-05-21T20:50:57.912;539518874973251319;471448;571477;397851;-1346;
2024-05-21T20:50:57.930;539518874991409528;471610;571612;397960;-1321;
2024-05-21T20:50:57.948;539518875009567737;471698;571737;398046;-1374;
2024-05-21T20:50:57.966;539518875027725946;471877;572056;398269;-1344;
2024-05-21T20:50:57.985;539518875045884155;472057;572271;398426;-1306;
2024-05-21T20:50:58.003;539518875064042364;472202;572467;398599;-1331;
2024-05-21T20:50:58.021;539518875082200573;472369;572571;398768;-1327;
2024-05-21T20:50:58.039;539518875100358782;472530;572747;398831;-1317;
2024-05-21T20:50:58.057;539518875118516991;472660;572898;398868;-1319;
2024-05-21T20:50:58.075;539518875136675200;472779;572990;398927;-1358;
2024-05-21T20:50:58.094;539518875154833409;472828;573103;398979;-1365;
2024-05-21T20:50:58.112;539518875172991618;472890;573161;399058;-1309;
2024-05-21T20:50:58.130;539518875191149827;472934;573211;399102;-1297;
2024-05-21T20:50:58.148;539518875209308036;473038;573339;399146;-1308;
2024-05-21T20:50:58.166;539518875227466245;473075;573468;399268;-1320;
2024-05-21T20:50:58.184;539518875245624454;473156;573496;399271;-1321;
2024-05-21T20:50:58.203;539518875263782663;473268;573594;399332;-1359;
2024-05-21T20:50:58.221;539518875281940872;473468;573682;399527;-1293;
2024-05-21T20:50:58.239;539518875300099081;473528;573820;399558;-1300;
2024-05-21T20:50:58.257;539518875318257290;473546;573867;399589;-1333;
2024-05-21T20:50:58.275;539518875336415499;473656;573980;399725;-1293;
2024-05-21T20:50:58.293;539518875354573776;473707;574061;399696;-1359;
2024-05-21T20:50:58.311;539518875372732027;473557;573897;399570;-1377;
2024-05-21T20:50:58.330;539518875390890278;473369;573678;399374;-1321;
2024-05-21T20:50:58.348;539518875409048529;473036;573140;398999;-1368;
2024-05-21T20:50:58.366;539518875427206780;472668;572705;398636;-1334;
2024-05-21T20:50:58.384;539518875445365031;472229;572156;398210;-1385;
2024-05-21T20:50:58.402;539518875463523282;471861;571719;397895;-1373;
2024-05-21T20:50:58.420;539518875481681533;471499;571417;397654;-1371;
2024-05-21T20:50:58.439;539518875499839784;471349;571127;397510;-1324;
2024-05-21T20:50:58.457;539518875517998035;471166;570986;397390;-1299;
2024-05-21T20:50:58.475;539518875536156286;471137;570943;397361;-1320;
2024-05-21T20:50:58.493;539518875554314537;471166;570953;397397;-1339;
2024-05-21T20:50:58.511;539518875572472788;471280;571006;397430;-1326;
2024-05-21T20:50:58.529;539518875590631039;471309;571150;397524;-1381;
2024-05-21T20:50:58.548;539518875608789290;471490;571406;397719;-1344;
2024-05-21T20:50:58.566;539518875626947541;471667;571614;397894;-1326;
2024-05-21T20:50:58.584;539518875645105792;471792;571847;398048;-1387;
2024-05-21T20:50:58.602;539518875663264043;471958;571935;398172;-1409;
2024-05-21T20:50:58.620;539518875681422294;472116;572046;398270;-1387;
2024-05-21T20:50:58.638;539518875699580545;472241;572245;398467;-1347;
2024-05-21T20:50:58.656;539518875717738796;472338;572389;398515;-1329;
2024-05-21T20:50:58.675;539518875735897047;472450;572478;398542;-1356;
2024-05-21T20:50:58.693;539518875754055298;472521;572553;398605;-1337;
2024-05-21T20:50:58.711;539518875772213549;472644;572598;398642;-1354;
2024-05-21T20:50:58.729;539518875790371800;472733;572732;398734;-1323;
2024-05-21T20:50:58.747;539518875808530051;472762;572750;398806;-1296;
2024-05-21T20:50:58.765;539518875826688302;472805;572917;398801;-1317;
2024-05-21T20:50:58.784;539518875844846553;472949;572996;398921;-1306;
2024-05-21T20:50:58.802;539518875863004804;472943;573069;399004;-1322;
2024-05-21T20:50:58.820;539518875881163055;473098;573125;399009;-1361;
2024-05-21T20:50:58.838;539518875899321306;473160;573199;399120;-1369;
2024-05-21T20:50:58.856;539518875917479557;473251;573306;399194;-1335;
2024-05-21T20:50:58.874;539518875935637808;473408;573485;399301;-1258;
2024-05-21T20:50:58.893;539518875953796059;473467;573585;399357;-1248;
2024-05-21T20:50:58.911;539518875971954310;473426;573419;399305;-1334;
2024-05-21T20:50:58.929;539518875990112561;473168;573150;399053;-1318;
2024-05-21T20:50:58.947;539518876008270812;472910;572755;398765;-1338;
2024-05-21T20:50:58.965;539518876026431064;472515;572285;398393;-1331;
2024-05-21T20:50:58.983;539518876044591308;472180;571819;397999;-1311;
2024-05-21T20:50:59.001;539518876062751552;471772;571389;397709;-1385;
2024-05-21T20:50:59.020;539518876080911796;471485;571034;397424;-1341;
2024-05-21T20:50:59.038;539518876099072040;471210;570725;397211;-1388;
2024-05-21T20:50:59.056;539518876117232284;471107;570567;397135;-1326;
2024-05-21T20:50:59.074;539518876135392528;471001;570435;397042;-1346;
2024-05-21T20:50:59.092;539518876153552772;471006;570492;397098;-1311;
2024-05-21T20:50:59.110;539518876171713016;471084;570616;397210;-1274;
2024-05-21T20:50:59.129;539518876189873260;471215;570751;397249;-1320;
2024-05-21T20:50:59.147;539518876208033504;471375;571008;397474;-1319;
2024-05-21T20:50:59.165;539518876226193748;471547;571151;397704;-1325;
2024-05-21T20:50:59.183;539518876244353992;471628;571379;397795;-1362;
2024-05-21T20:50:59.201;539518876262514236;471867;571520;397912;-1385;
2024-05-21T20:50:59.219;539518876280674480;472010;571671;398055;-1358;
2024-05-21T20:50:59.238;539518876298834724;472138;571767;398098;-1292;
2024-05-21T20:50:59.256;539518876316994968;472372;571953;398354;-1306;
2024-05-21T20:50:59.274;539518876335155212;472421;572086;398322;-1288;
2024-05-21T20:50:59.292;539518876353315456;472438;572093;398351;-1320;
2024-05-21T20:50:59.310;539518876371475700;472512;572169;398388;-1357;
2024-05-21T20:50:59.328;539518876389635944;472517;572356;398500;-1339;
2024-05-21T20:50:59.347;539518876407796188;472723;572393;398609;-1389;
2024-05-21T20:50:59.365;539518876425956432;472799;572521;398718;-1357;
2024-05-21T20:50:59.383;539518876444116676;472896;572580;398771;-1329;
2024-05-21T20:50:59.401;539518876462276920;473013;572690;398788;-1347;
2024-05-21T20:50:59.419;539518876480437164;473061;572749;398867;-1346;
2024-05-21T20:50:59.437;539518876498597408;473245;572988;398996;-1279;
2024-05-21T20:50:59.455;539518876516757652;473294;573022;398962;-1381;
2024-05-21T20:50:59.474;539518876534917896;473408;573112;399154;-1335;
2024-05-21T20:50:59.492;539518876553078140;473391;573170;399157;-1390;
2024-05-21T20:50:59.510;539518876571238384;473339;573041;399029;-1351;
2024-05-21T20:50:59.528;539518876589398628;473069;572715;398806;-1393;
2024-05-21T20:50:59.546;539518876607558872;472807;572362;398500;-1356;
2024-05-21T20:50:59.564;539518876625719116;472436;571909;398166;-1279;
2024-05-21T20:50:59.583;539518876643879360;472099;571434;397814;-1310;
2024-05-21T20:50:59.601;539518876662039604;471739;570994;397526;-1309;
2024-05-21T20:50:59.619;539518876680199848;471466;570713;397266;-1310;
2024-05-21T20:50:59.637;539518876698360092;471255;570495;397092;-1381;
2024-05-21T20:50:59.655;539518876716520336;471239;570376;397016;-1361;
2024-05-21T20:50:59.673;539518876734680580;471192;570328;397035;-1356;
2024-05-21T20:50:59.692;539518876752840824;471189;570413;397140;-1333;
2024-05-21T20:50:59.710;539518876771001068;471298;570554;397161;-1325;
2024-05-21T20:50:59.728;539518876789159278;471475;570675;397332;-1345;
2024-05-21T20:50:59.746;539518876807317488;471498;570796;397472;-1393;
2024-05-21T20:50:59.764;539518876825475698;471677;570976;397682;-1343;
2024-05-21T20:50:59.782;539518876843633908;471762;571121;397728;-1368;
2024-05-21T20:50:59.801;539518876861792118;471983;571334;397880;-1280;
2024-05-21T20:50:59.819;539518876879950328;472097;571427;397968;-1335;
2024-05-21T20:50:59.837;539518876898108538;472146;571560;398061;-1260;
2024-05-21T20:50:59.855;539518876916266748;472239;571589;398121;-1300;
2024-05-21T20:50:59.873;539518876934424958;472319;571685;398206;-1310;
2024-05-21T20:50:59.891;539518876952583168;472373;571796;398252;-1287;
2024-05-21T20:50:59.909;539518876970741378;472454;571915;398302;-1370;
2024-05-21T20:50:59.928;539518876988899588;472455;571928;398363;-1342;
2024-05-21T20:50:59.946;539518877007057798;472545;572007;398397;-1388;
2024-05-21T20:50:59.964;539518877025216008;472607;572100;398430;-1353;
2024-05-21T20:50:59.982;539518877043374218;472611;572252;398520;-1282;
2024-05-21T20:51:00.000;539518877061532428;472809;572320;398608;-1288;
2024-05-21T20:51:00.018;539518877079690638;472972;572333;398654;-1305;
2024-05-21T20:51:00.037;539518877097848848;473069;572468;398731;-1291;
2024-05-21T20:51:00.055;539518877116007058;473089;572580;398792;-1331;
2024-05-21T20:51:00.073;539518877134165268;473088;572614;398815;-1361;
2024-05-21T20:51:00.091;539518877152323478;473036;572530;398703;-1383;
2024-05-21T20:51:00.109;539518877170481688;472831;572195;398467;-1338;
2024-05-21T20:51:00.127;539518877188639898;472585;571911;398198;-1323;
2024-05-21T20:51:00.146;539518877206798108;472216;571384;397856;-1331;
2024-05-21T20:51:00.164;539518877224956318;471897;570972;397540;-1371;
2024-05-21T20:51:00.182;539518877243114528;471629;570609;397304;-1320;
2024-05-21T20:51:00.200;539518877261272738;471376;570308;397065;-1250;
2024-05-21T20:51:00.218;539518877279430948;471156;570120;396934;-1306;
2024-05-21T20:51:00.236;539518877297589158;471057;570037;396915;-1295;
2024-05-21T20:51:00.254;539518877315747368;471050;569961;396864;-1355;
2024-05-21T20:51:00.273;539518877333905578;471071;570071;396939;-1331;
2024-05-21T20:51:00.291;539518877352063788;471198;570168;397141;-1358;
2024-05-21T20:51:00.309;539518877370221998;471280;570306;397203;-1323;
2024-05-21T20:51:00.327;539518877388380208;471419;570559;397391;-1317;
2024-05-21T20:51:00.345;539518877406538418;471561;570731;397505;-1343;
2024-05-21T20:51:00.363;539518877424696628;471699;570903;397611;-1340;
2024-05-21T20:51:00.382;539518877442854838;471848;571022;397688;-1346;
2024-05-21T20:51:00.400;539518877461013048;471985;571156;397812;-1310;
2024-05-21T20:51:00.418;539518877479173513;472025;571189;397861;-1316;
2024-05-21T20:51:00.436;539518877497333942;472106;571287;397899;-1355;
2024-05-21T20:51:00.454;539518877515494371;472201;571390;397999;-1312;
2024-05-21T20:51:00.472;539518877533654800;472248;571476;398023;-1316;
2024-05-21T20:51:00.491;539518877551815229;472284;571431;398029;-1283;
2024-05-21T20:51:00.509;539518877569975658;472334;571522;398068;-1337;
2024-05-21T20:51:00.527;539518877588136087;472280;571521;398076;-1330;
2024-05-21T20:51:00.545;539518877606296516;472364;571639;398182;-1300;
2024-05-21T20:51:00.563;539518877624456945;472461;571725;398247;-1327;
2024-05-21T20:51:00.581;539518877642617374;472556;571774;398332;-1337;
2024-05-21T20:51:00.600;539518877660777803;472583;571866;398348;-1324;
2024-05-21T20:51:00.618;539518877678938232;472640;571856;398372;-1333;
2024-05-21T20:51:00.636;539518877697098661;472665;571879;398347;-1312;
2024-05-21T20:51:00.654;539518877715259090;472565;571753;398246;-1305;
2024-05-21T20:51:00.672;539518877733419519;472338;571369;397985;-1327;
2024-05-21T20:51:00.690;539518877751579948;471973;570932;397641;-1382;
2024-05-21T20:51:00.708;539518877769740377;471626;570512;397310;-1311;
2024-05-21T20:51:00.727;539518877787900806;471157;570053;396957;-1348;
2024-05-21T20:51:00.745;539518877806061235;470856;569656;396654;-1323;
2024-05-21T20:51:00.763;539518877824221664;470620;569468;396458;-1308;
2024-05-21T20:51:00.781;539518877842382093;470437;569149;396333;-1320;
2024-05-21T20:51:00.799;539518877860542522;470305;569052;396262;-1352;
2024-05-21T20:51:00.817;539518877878702951;470308;569007;396324;-1346;
2024-05-21T20:51:00.836;539518877896863380;470322;569096;396342;-1299;
2024-05-21T20:51:00.854;539518877915023809;470462;569182;396451;-1324;
2024-05-21T20:51:00.872;539518877933184238;470609;569359;396508;-1377;
2024-05-21T20:51:00.890;539518877951344667;470713;569508;396638;-1399;
2024-05-21T20:51:00.908;539518877969505096;470780;569800;396822;-1385;
2024-05-21T20:51:00.926;539518877987665525;470965;569970;396964;-1300;
2024-05-21T20:51:00.945;539518878005825954;471215;570141;397088;-1364;
2024-05-21T20:51:00.963;539518878023986383;471307;570266;397208;-1312;
2024-05-21T20:51:00.981;539518878042146812;471360;570383;397287;-1353;
2024-05-21T20:51:00.999;539518878060307241;471464;570477;397323;-1299;
2024-05-21T20:51:01.017;539518878078467670;471425;570593;397390;-1312;
2024-05-21T20:51:01.035;539518878096628099;471567;570693;397476;-1255;
2024-05-21T20:51:01.054;539518878114788528;471568;570633;397495;-1321;
2024-05-21T20:51:01.072;539518878132948957;471655;570780;397566;-1343;
2024-05-21T20:51:01.090;539518878151109386;471802;570912;397654;-1236;
2024-05-21T20:51:01.108;539518878169269815;471864;570965;397669;-1311;
2024-05-21T20:51:01.126;539518878187430244;471915;571068;397747;-1318;
2024-05-21T20:51:01.144;539518878205590673;472018;571129;397833;-1287;
2024-05-21T20:51:01.162;539518878223751102;472057;571131;397860;-1301;
2024-05-21T20:51:01.181;539518878241911531;472108;571300;397923;-1339;
2024-05-21T20:51:01.199;539518878260071960;472011;571188;397839;-1352;
2024-05-21T20:51:01.217;539518878278231713;471931;571041;397685;-1361;
2024-05-21T20:51:01.235;539518878296391448;471638;570678;397403;-1360;
2024-05-21T20:51:01.253;539518878314551183;471254;570232;397068;-1302;
2024-05-21T20:51:01.271;539518878332710918;470848;569635;396632;-1352;
2024-05-21T20:51:01.290;539518878350870653;470379;569209;396288;-1330;
2024-05-21T20:51:01.308;539518878369030388;470102;568805;395993;-1320;
2024-05-21T20:51:01.326;539518878387190123;469853;568573;395802;-1275;
2024-05-21T20:51:01.344;539518878405349858;469634;568358;395655;-1305;
2024-05-21T20:51:01.362;539518878423509593;469527;568223;395619;-1306;
2024-05-21T20:51:01.380;539518878441669328;469434;568164;395607;-1261;
2024-05-21T20:51:01.399;539518878459829063;469492;568268;395694;-1302;
2024-05-21T20:51:01.417;539518878477988798;469539;568387;395804;-1360;
2024-05-21T20:51:01.435;539518878496148533;469677;568541;395928;-1303;
2024-05-21T20:51:01.453;539518878514308268;469844;568703;396067;-1282;
2024-05-21T20:51:01.471;539518878532468003;470038;568901;396246;-1269;
2024-05-21T20:51:01.489;539518878550627738;470158;568995;396324;-1311;
2024-05-21T20:51:01.508;539518878568787473;470223;569147;396430;-1386;
2024-05-21T20:51:01.526;539518878586947208;470334;569345;396568;-1307;
2024-05-21T20:51:01.544;539518878605106943;470431;569413;396584;-1394;
2024-05-21T20:51:01.562;539518878623266678;470472;569533;396689;-1333;
2024-05-21T20:51:01.580;539518878641426413;470590;569586;396717;-1300;
2024-05-21T20:51:01.598;539518878659586148;470600;569692;396734;-1311;
2024-05-21T20:51:01.616;539518878677745883;470679;569758;396795;-1336;
2024-05-21T20:51:01.635;539518878695905618;470734;569834;396831;-1386;
2024-05-21T20:51:01.653;539518878714065353;470813;569887;396890;-1330;
2024-05-21T20:51:01.671;539518878732225088;470845;569967;396942;-1351;
2024-05-21T20:51:01.689;539518878750384823;470903;570019;396953;-1390;
2024-05-21T20:51:01.707;539518878768544558;470967;570119;397054;-1324;
2024-05-21T20:51:01.725;539518878786704293;471012;570205;397154;-1304;
2024-05-21T20:51:01.744;539518878804864028;471120;570367;397208;-1314;
2024-05-21T20:51:01.762;539518878823023763;471121;570207;397141;-1289;
2024-05-21T20:51:01.780;539518878841183498;470957;570037;396970;-1338;
2024-05-21T20:51:01.798;539518878859343233;470723;569782;396697;-1324;
2024-05-21T20:51:01.816;539518878877502968;470347;569296;396257;-1340;
2024-05-21T20:51:01.834;539518878895662703;469824;568751;395912;-1334;
2024-05-21T20:51:01.853;539518878913822438;469407;568291;395560;-1319;
2024-05-21T20:51:01.871;539518878931982209;468937;567744;395238;-1313;
2024-05-21T20:51:01.889;539518878950141944;468686;567511;395027;-1278;
2024-05-21T20:51:01.907;539518878968301679;468444;567242;394872;-1317;
2024-05-21T20:51:01.925;539518878986461414;468326;567183;394787;-1314;
2024-05-21T20:51:01.943;539518879004621149;468326;567126;394846;-1290;
2024-05-21T20:51:01.962;539518879022780884;468307;567123;394812;-1312;
2024-05-21T20:51:01.980;539518879040940619;468394;567268;394930;-1328;
2024-05-21T20:51:01.998;539518879059100354;468547;567437;395085;-1339;
2024-05-21T20:51:02.016;539518879077260089;468719;567582;395208;-1333;
2024-05-21T20:51:02.034;539518879095419824;468848;567827;395357;-1314;
2024-05-21T20:51:02.052;539518879113579559;469023;568072;395464;-1252;
2024-05-21T20:51:02.070;539518879131739294;469096;568228;395623;-1340;
2024-05-21T20:51:02.089;539518879149899029;469253;568325;395655;-1322;
2024-05-21T20:51:02.107;539518879168058764;469419;568543;395847;-1294;
2024-05-21T20:51:02.125;539518879186218499;469501;568610;395847;-1327;
2024-05-21T20:51:02.143;539518879204378234;469519;568649;395937;-1327;
2024-05-21T20:51:02.161;539518879222537969;469654;568744;395993;-1301;
2024-05-21T20:51:02.179;539518879240697704;469719;568846;396023;-1339;
2024-05-21T20:51:02.198;539518879258857439;469725;568917;396081;-1319;
2024-05-21T20:51:02.216;539518879277017174;469887;569052;396219;-1297;
2024-05-21T20:51:02.234;539518879295176909;469898;569132;396310;-1246;
2024-05-21T20:51:02.252;539518879313336644;470089;569265;396420;-1290;
2024-05-21T20:51:02.270;539518879331496379;470146;569445;396476;-1351;
2024-05-21T20:51:02.288;539518879349656114;470232;569509;396609;-1311;
2024-05-21T20:51:02.307;539518879367815849;470362;569650;396656;-1353;
2024-05-21T20:51:02.325;539518879385975584;470453;569790;396760;-1371;
2024-05-21T20:51:02.343;539518879404135319;470501;569830;396793;-1318;
2024-05-21T20:51:02.361;539518879422295054;470437;569729;396655;-1252;
2024-05-21T20:51:02.379;539518879440454789;470114;569402;396358;-1304;
2024-05-21T20:51:02.397;539518879458614524;469836;569090;396077;-1334;
2024-05-21T20:51:02.416;539518879476774259;469412;568615;395741;-1304;
2024-05-21T20:51:02.434;539518879494933994;468960;568220;395367;-1266;
2024-05-21T20:51:02.452;539518879513093729;468628;567734;395018;-1340;
2024-05-21T20:51:02.470;539518879531253464;468386;567505;394871;-1296;
2024-05-21T20:51:02.488;539518879549413199;468180;567316;394755;-1310;
2024-05-21T20:51:02.506;539518879567572934;468043;567126;394689;-1324;
2024-05-21T20:51:02.524;539518879585732669;468055;567151;394655;-1385;
2024-05-21T20:51:02.543;539518879603892404;468087;567228;394765;-1411;
2024-05-21T20:51:02.561;539518879622052139;468171;567427;394938;-1296;
2024-05-21T20:51:02.579;539518879640211874;468353;567619;395050;-1310;
2024-05-21T20:51:02.597;539518879658371609;468473;567763;395163;-1324;
2024-05-21T20:51:02.615;539518879676531344;468696;567997;395352;-1308;
2024-05-21T20:51:02.633;539518879694688918;468873;568249;395544;-1309;
2024-05-21T20:51:02.652;539518879712846474;469028;568393;395628;-1299;
2024-05-21T20:51:02.670;539518879731004030;469147;568485;395776;-1291;
2024-05-21T20:51:02.688;539518879749161586;469208;568720;395873;-1294;
2024-05-21T20:51:02.706;539518879767319142;469398;568841;395888;-1330;
2024-05-21T20:51:02.724;539518879785476698;469469;568984;396077;-1308;
2024-05-21T20:51:02.742;539518879803634254;469543;569066;396124;-1296;
2024-05-21T20:51:02.761;539518879821791810;469623;569192;396272;-1269;
2024-05-21T20:51:02.779;539518879839949366;469670;569171;396205;-1305;
2024-05-21T20:51:02.797;539518879858106922;469714;569231;396302;-1329;
2024-05-21T20:51:02.815;539518879876264478;469772;569369;396300;-1316;
2024-05-21T20:51:02.833;539518879894422034;469842;569462;396308;-1319;
2024-05-21T20:51:02.851;539518879912579590;469920;569534;396415;-1295;
2024-05-21T20:51:02.869;539518879930737146;470068;569631;396547;-1280;
2024-05-21T20:51:02.888;539518879948894702;470176;569757;396662;-1265;
2024-05-21T20:51:02.906;539518879967052258;470193;569815;396674;-1270;
2024-05-21T20:51:02.924;539518879985209814;470121;569727;396572;-1294;
2024-05-21T20:51:02.942;539518880003367370;469967;569451;396418;-1255;
2024-05-21T20:51:02.960;539518880021524926;469680;569189;396108;-1277;
2024-05-21T20:51:02.978;539518880039682482;469194;568684;395731;-1292;
2024-05-21T20:51:02.997;539518880057840038;468751;568185;395352;-1299;
2024-05-21T20:51:03.015;539518880075997594;468346;567779;395006;-1300;
2024-05-21T20:51:03.033;539518880094155150;468076;567398;394806;-1253;
2024-05-21T20:51:03.051;539518880112312706;467768;567225;394572;-1301;
2024-05-21T20:51:03.069;539518880130470262;467638;566941;394412;-1305;
2024-05-21T20:51:03.087;539518880148627818;467559;566877;394412;-1283;
2024-05-21T20:51:03.106;539518880166785374;467488;566882;394487;-1306;
2024-05-21T20:51:03.124;539518880184942930;467491;567023;394544;-1299;
2024-05-21T20:51:03.142;539518880203100486;467608;567114;394593;-1263;
2024-05-21T20:51:03.160;539518880221258042;467758;567273;394680;-1294;
2024-05-21T20:51:03.178;539518880239415598;467919;567503;394873;-1269;
2024-05-21T20:51:03.196;539518880257573154;468041;567649;395021;-1290;
2024-05-21T20:51:03.214;539518880275730710;468181;567751;395129;-1282;
2024-05-21T20:51:03.233;539518880293888266;468258;567949;395242;-1328;
2024-05-21T20:51:03.251;539518880312045822;468386;568015;395311;-1280;
2024-05-21T20:51:03.269;539518880330203378;468479;568084;395400;-1280;
2024-05-21T20:51:03.287;539518880348360934;468479;568160;395427;-1318;
2024-05-21T20:51:03.305;539518880366518490;468579;568259;395453;-1311;
2024-05-21T20:51:03.323;539518880384676046;468618;568335;395499;-1314;
2024-05-21T20:51:03.342;539518880402833602;468611;568378;395525;-1348;
2024-05-21T20:51:03.360;539518880420991158;468769;568515;395598;-1335;
2024-05-21T20:51:03.378;539518880439148714;468798;568489;395616;-1353;
2024-05-21T20:51:03.396;539518880457308355;468919;568680;395771;-1243;
2024-05-21T20:51:03.414;539518880475467966;468900;568719;395798;-1372;
2024-05-21T20:51:03.432;539518880493627577;468992;568728;395916;-1369;
2024-05-21T20:51:03.451;539518880511787188;469090;568909;395991;-1319;
2024-05-21T20:51:03.469;539518880529946799;469104;568972;396033;-1325;
2024-05-21T20:51:03.487;539518880548106410;469297;569093;396171;-1299;
2024-05-21T20:51:03.505;539518880566266021;469305;569124;396176;-1305;
2024-05-21T20:51:03.523;539518880584425632;469219;568983;396035;-1321;
2024-05-21T20:51:03.541;539518880602585243;468848;568601;395681;-1347;
2024-05-21T20:51:03.559;539518880620744854;468503;568185;395343;-1323;
2024-05-21T20:51:03.578;539518880638904465;467965;567605;394870;-1353;
2024-05-21T20:51:03.596;539518880657064076;467519;567098;394507;-1316;
2024-05-21T20:51:03.614;539518880675223687;467134;566685;394216;-1329;
2024-05-21T20:51:03.632;539518880693383298;466791;566387;393930;-1289;
2024-05-21T20:51:03.650;539518880711542909;466561;566168;393766;-1292;
2024-05-21T20:51:03.668;539518880729702520;466399;566038;393703;-1317;
2024-05-21T20:51:03.687;539518880747862131;466421;566067;393720;-1234;
2024-05-21T20:51:03.705;539518880766021742;466476;566029;393804;-1316;
2024-05-21T20:51:03.723;539518880784181353;466571;566128;393877;-1345;
2024-05-21T20:51:03.741;539518880802340964;466690;566390;393970;-1311;
2024-05-21T20:51:03.759;539518880820500575;466767;566565;394197;-1345;
2024-05-21T20:51:03.777;539518880838660186;466991;566784;394302;-1308;
2024-05-21T20:51:03.796;539518880856819797;467123;566954;394490;-1311;
2024-05-21T20:51:03.814;539518880874979408;467263;567138;394635;-1354;
2024-05-21T20:51:03.832;539518880893139019;467452;567325;394724;-1290;
2024-05-21T20:51:03.850;539518880911298630;467560;567433;394884;-1293;
2024-05-21T20:51:03.868;539518880929458241;467644;567525;394985;-1339;
2024-05-21T20:51:03.886;539518880947617852;467722;567706;395053;-1350;
2024-05-21T20:51:03.905;539518880965777463;467779;567735;395090;-1311;
2024-05-21T20:51:03.923;539518880983937074;467871;567778;395103;-1303;
2024-05-21T20:51:03.941;539518881002096685;467932;567974;395195;-1279;
2024-05-21T20:51:03.959;539518881020256296;467992;568018;395261;-1370;
2024-05-21T20:51:03.977;539518881038415907;468122;568137;395355;-1331;
2024-05-21T20:51:03.995;539518881056575518;468189;568276;395361;-1322;
2024-05-21T20:51:04.013;539518881074735129;468334;568370;395475;-1303;
2024-05-21T20:51:04.032;539518881092894740;468434;568499;395567;-1326;
2024-05-21T20:51:04.050;539518881111054351;468545;568635;395680;-1341;
2024-05-21T20:51:04.068;539518881129213416;468643;568752;395757;-1300;
2024-05-21T20:51:04.086;539518881147372450;468819;568898;395902;-1294;
2024-05-21T20:51:04.104;539518881165531484;468854;569072;395996;-1288;
2024-05-21T20:51:04.122;539518881183690518;468929;569146;396086;-1279;
2024-05-21T20:51:04.141;539518881201849552;468826;568975;395919;-1323;
2024-05-21T20:51:04.159;539518881220008586;468587;568666;395646;-1359;
2024-05-21T20:51:04.177;539518881238167620;468148;568201;395305;-1379;
2024-05-21T20:51:04.195;539518881256326654;467695;567757;394943;-1355;
2024-05-21T20:51:04.213;539518881274485688;467258;567216;394534;-1356;
2024-05-21T20:51:04.231;539518881292644722;466816;566859;394243;-1348;
2024-05-21T20:51:04.250;539518881310803756;466522;566528;393904;-1354;
2024-05-21T20:51:04.268;539518881328962790;466185;566249;393751;-1318;
2024-05-21T20:51:04.286;539518881347121824;466224;566139;393715;-1296;
2024-05-21T20:51:04.304;539518881365280858;466056;566178;393782;-1286;
2024-05-21T20:51:04.322;539518881383439892;466126;566193;393792;-1326;
2024-05-21T20:51:04.340;539518881401598926;466288;566375;394013;-1344;
2024-05-21T20:51:04.358;539518881419757960;466441;566577;394114;-1340;
2024-05-21T20:51:04.377;539518881437916994;466639;566787;394363;-1334;
2024-05-21T20:51:04.395;539518881456076028;466842;567049;394488;-1300;
2024-05-21T20:51:04.413;539518881474235062;467049;567367;394710;-1299;
2024-05-21T20:51:04.431;539518881492394096;467266;567684;394917;-1290;
2024-05-21T20:51:04.449;539518881510553130;467439;567760;395013;-1303;
2024-05-21T20:51:04.467;539518881528712164;467581;567989;395187;-1316;
2024-05-21T20:51:04.486;539518881546871198;467776;568082;395203;-1321;
2024-05-21T20:51:04.504;539518881565030232;467839;568207;395381;-1333;
2024-05-21T20:51:04.522;539518881583189266;468012;568427;395500;-1336;
2024-05-21T20:51:04.540;539518881601348300;468109;568544;395531;-1359;
2024-05-21T20:51:04.558;539518881619507334;468258;568729;395656;-1364;
2024-05-21T20:51:04.576;539518881637666368;468403;568841;395792;-1303;
2024-05-21T20:51:04.595;539518881655825402;468390;568955;395873;-1261;
2024-05-21T20:51:04.613;539518881673984436;468553;569024;395973;-1258;
2024-05-21T20:51:04.631;539518881692143470;468729;569166;396056;-1336;
2024-05-21T20:51:04.649;539518881710302504;468830;569387;396133;-1326;
2024-05-21T20:51:04.667;539518881728461538;469018;569547;396291;-1340;
2024-05-21T20:51:04.685;539518881746620572;469110;569729;396405;-1323;
2024-05-21T20:51:04.704;539518881764779606;469243;569943;396562;-1290;
2024-05-21T20:51:04.722;539518881782938640;469448;570072;396695;-1265;
2024-05-21T20:51:04.740;539518881801097832;469638;570255;396809;-1300;
2024-05-21T20:51:04.758;539518881819256986;469755;570384;396912;-1289;
2024-05-21T20:51:04.776;539518881837416140;469757;570409;396953;-1310;
2024-05-21T20:51:04.794;539518881855575294;469546;570217;396728;-1343;
2024-05-21T20:51:04.812;539518881873734448;469267;569815;396453;-1325;
2024-05-21T20:51:04.831;539518881891893602;468812;569432;396039;-1303;
2024-05-21T20:51:04.849;539518881910052756;468380;568941;395679;-1304;
2024-05-21T20:51:04.867;539518881928211910;467958;568519;395336;-1340;
2024-05-21T20:51:04.885;539518881946371064;467611;568135;395104;-1343;
2024-05-21T20:51:04.903;539518881964530218;467332;567912;394925;-1355;
2024-05-21T20:51:04.921;539518881982689372;467161;567738;394847;-1338;
2024-05-21T20:51:04.940;539518882000848526;467100;567671;394819;-1347;
2024-05-21T20:51:04.958;539518882019007680;467128;567684;394928;-1293;
2024-05-21T20:51:04.976;539518882037166834;467180;567816;394974;-1380;
2024-05-21T20:51:04.994;539518882055325988;467325;567974;395066;-1377;
2024-05-21T20:51:05.012;539518882073485142;467472;568210;395265;-1362;
2024-05-21T20:51:05.030;539518882091644296;467641;568394;395452;-1335;
2024-05-21T20:51:05.049;539518882109803450;467913;568659;395647;-1370;
2024-05-21T20:51:05.067;539518882127962604;468110;568875;395775;-1288;
2024-05-21T20:51:05.085;539518882146121758;468282;569054;395957;-1336;
2024-05-21T20:51:05.103;539518882164280912;468462;569251;396116;-1330;
2024-05-21T20:51:05.121;539518882182440066;468540;569364;396259;-1406;
2024-05-21T20:51:05.139;539518882200599220;468660;569504;396287;-1335;
2024-05-21T20:51:05.157;539518882218758374;468703;569657;396358;-1333;
2024-05-21T20:51:05.176;539518882236917528;468800;569726;396455;-1324;
2024-05-21T20:51:05.194;539518882255076682;468967;569870;396520;-1337;
2024-05-21T20:51:05.212;539518882273235836;469033;569932;396624;-1388;
2024-05-21T20:51:05.230;539518882291394990;469148;570004;396661;-1377;
2024-05-21T20:51:05.248;539518882309554144;469275;570205;396790;-1336;
2024-05-21T20:51:05.266;539518882327713298;469264;570251;396849;-1414;
2024-05-21T20:51:05.285;539518882345872452;469435;570405;396938;-1393;
2024-05-21T20:51:05.303;539518882364031606;469574;570497;397095;-1381;
2024-05-21T20:51:05.321;539518882382190760;469769;570728;397250;-1417;
2024-05-21T20:51:05.339;539518882400349914;469807;570941;397363;-1373;
2024-05-21T20:51:05.357;539518882418509068;470016;571058;397488;-1302;
2024-05-21T20:51:05.375;539518882436668222;470146;571182;397614;-1289;
2024-05-21T20:51:05.394;539518882454827376;470199;571201;397594;-1307;
2024-05-21T20:51:05.412;539518882472986530;470009;571074;397405;-1360;
2024-05-21T20:51:05.430;539518882491145684;469755;570701;397193;-1381;
2024-05-21T20:51:05.448;539518882509304838;469431;570368;396925;-1360;
2024-05-21T20:51:05.466;539518882527463992;469046;569980;396607;-1302;
2024-05-21T20:51:05.484;539518882545623146;468631;569600;396287;-1325;
2024-05-21T20:51:05.503;539518882563782756;468351;569197;395999;-1344;
2024-05-21T20:51:05.521;539518882581942330;468103;568898;395828;-1356;
2024-05-21T20:51:05.539;539518882600101904;467937;568799;395731;-1317;
2024-05-21T20:51:05.557;539518882618261478;467842;568712;395703;-1341;
2024-05-21T20:51:05.575;539518882636421052;467862;568748;395769;-1323;
2024-05-21T20:51:05.593;539518882654580626;467969;568860;395945;-1280;
2024-05-21T20:51:05.611;539518882672740200;468104;569021;396081;-1275;
2024-05-21T20:51:05.630;539518882690899774;468251;569252;396215;-1286;
2024-05-21T20:51:05.648;539518882709059348;468451;569470;396406;-1309;
2024-05-21T20:51:05.666;539518882727218922;468599;569643;396502;-1338;
2024-05-21T20:51:05.684;539518882745378496;468878;569896;396677;-1337;
2024-05-21T20:51:05.702;539518882763538070;469045;570038;396852;-1325;
2024-05-21T20:51:05.720;539518882781697644;469164;570145;396916;-1318;
2024-05-21T20:51:05.739;539518882799857218;469283;570280;397031;-1339;
2024-05-21T20:51:05.757;539518882818016792;469457;570503;397144;-1285;
2024-05-21T20:51:05.775;539518882836176366;469527;570604;397286;-1342;
2024-05-21T20:51:05.793;539518882854335940;469693;570715;397409;-1302;
2024-05-21T20:51:05.811;539518882872495514;469753;570808;397453;-1331;
2024-05-21T20:51:05.829;539518882890655088;469800;570883;397529;-1343;
2024-05-21T20:51:05.848;539518882908814662;469933;570998;397575;-1327;
2024-05-21T20:51:05.866;539518882926974236;470047;571071;397686;-1365;
2024-05-21T20:51:05.884;539518882945133810;470130;571269;397764;-1319;
2024-05-21T20:51:05.902;539518882963293384;470202;571366;397892;-1307;
2024-05-21T20:51:05.920;539518882981452958;470327;571437;398002;-1310;
2024-05-21T20:51:05.938;539518882999612532;470454;571587;398045;-1267;
2024-05-21T20:51:05.957;539518883017772106;470617;571693;398225;-1274;
2024-05-21T20:51:05.975;539518883035931680;470638;571800;398265;-1351;
2024-05-21T20:51:05.993;539518883054091254;470772;571970;398417;-1304;
2024-05-21T20:51:06.011;539518883072250828;470877;571967;398416;-1287;
2024-05-21T20:51:06.029;539518883090410402;470780;571954;398369;-1306;
2024-05-21T20:51:06.047;539518883108569976;470607;571655;398188;-1338;
2024-05-21T20:51:06.065;539518883126729550;470255;571259;397865;-1282;
2024-05-21T20:51:06.084;539518883144889124;469872;570771;397482;-1345;
2024-05-21T20:51:06.102;539518883163048698;469316;570186;397068;-1364;
2024-05-21T20:51:06.120;539518883181208272;468938;569737;396710;-1336;
2024-05-21T20:51:06.138;539518883199367846;468570;569399;396462;-1285;
2024-05-21T20:51:06.156;539518883217527420;468323;569092;396302;-1321;
2024-05-21T20:51:06.174;539518883235686994;468096;568854;396184;-1304;
2024-05-21T20:51:06.193;539518883253848071;468007;568752;396155;-1347;
2024-05-21T20:51:06.211;539518883272009114;468015;568803;396127;-1323;
2024-05-21T20:51:06.229;539518883290170157;468122;568958;396271;-1353;
2024-05-21T20:51:06.247;539518883308331200;468226;569122;396393;-1363;
2024-05-21T20:51:06.265;539518883326492243;468399;569286;396570;-1333;
2024-05-21T20:51:06.283;539518883344653286;468530;569504;396697;-1345;
2024-05-21T20:51:06.302;539518883362814329;468785;569703;396928;-1317;
2024-05-21T20:51:06.320;539518883380975372;468955;569824;397056;-1318;
2024-05-21T20:51:06.338;539518883399136415;469058;570024;397260;-1347;
2024-05-21T20:51:06.356;539518883417297458;469169;570172;397383;-1326;
2024-05-21T20:51:06.374;539518883435458501;469372;570333;397363;-1339;
2024-05-21T20:51:06.392;539518883453619544;469546;570526;397529;-1359;
2024-05-21T20:51:06.411;539518883471780587;469655;570591;397636;-1316;
2024-05-21T20:51:06.429;539518883489941630;469732;570777;397758;-1342;
2024-05-21T20:51:06.447;539518883508102673;469937;570923;397792;-1346;
2024-05-21T20:51:06.465;539518883526263716;470024;571009;397907;-1308;
2024-05-21T20:51:06.483;539518883544424759;470102;571082;398008;-1337;
2024-05-21T20:51:06.501;539518883562585802;470234;571167;398057;-1342;
2024-05-21T20:51:06.519;539518883580746845;470313;571262;398115;-1345;
2024-05-21T20:51:06.538;539518883598907888;470433;571423;398311;-1338;
2024-05-21T20:51:06.556;539518883617068931;470553;571639;398424;-1318;
2024-05-21T20:51:06.574;539518883635229974;470705;571796;398564;-1350;
2024-05-21T20:51:06.592;539518883653391017;470831;571881;398671;-1342;
2024-05-21T20:51:06.610;539518883671552060;471033;572046;398813;-1335;
2024-05-21T20:51:06.628;539518883689713103;471206;572229;398950;-1361;
2024-05-21T20:51:06.647;539518883707874146;471308;572415;399084;-1340;
2024-05-21T20:51:06.665;539518883726035189;471300;572396;398969;-1391;
2024-05-21T20:51:06.683;539518883744196232;471161;572131;398896;-1356;
2024-05-21T20:51:06.701;539518883762357275;470892;571818;398570;-1423;
2024-05-21T20:51:06.719;539518883780518318;470511;571416;398172;-1439;
2024-05-21T20:51:06.737;539518883798679361;470172;571027;397863;-1369;
2024-05-21T20:51:06.756;539518883816840404;469750;570579;397586;-1328;
2024-05-21T20:51:06.774;539518883835001447;469442;570201;397344;-1317;
2024-05-21T20:51:06.792;539518883853162490;469263;570015;397230;-1306;
2024-05-21T20:51:06.810;539518883871323533;469052;569858;397148;-1320;
2024-05-21T20:51:06.828;539518883889484576;468971;569866;397198;-1318;
2024-05-21T20:51:06.846;539518883907645619;469042;569824;397204;-1314;
2024-05-21T20:51:06.865;539518883925806662;469124;569900;397356;-1325;
2024-05-21T20:51:06.883;539518883943967705;469297;570129;397466;-1295;
2024-05-21T20:51:06.901;539518883962128748;469476;570382;397646;-1334;
2024-05-21T20:51:06.919;539518883980289791;469662;570554;397808;-1337;
2024-05-21T20:51:06.937;539518883998450834;469819;570809;398037;-1354;
2024-05-21T20:51:06.955;539518884016610664;470116;570958;398192;-1292;
2024-05-21T20:51:06.974;539518884034770472;470282;571207;398335;-1285;
2024-05-21T20:51:06.992;539518884052930280;470490;571394;398413;-1300;
2024-05-21T20:51:07.010;539518884071090088;470600;571533;398554;-1333;
2024-05-21T20:51:07.028;539518884089249896;470811;571750;398731;-1297;
2024-05-21T20:51:07.046;539518884107409704;470846;571904;398807;-1313;
2024-05-21T20:51:07.064;539518884125569512;470964;571937;398928;-1317;
2024-05-21T20:51:07.082;539518884143729320;471103;572091;399060;-1383;
2024-05-21T20:51:07.101;539518884161889128;471232;572253;399092;-1330;
2024-05-21T20:51:07.119;539518884180048936;471365;572429;399272;-1252;
2024-05-21T20:51:07.137;539518884198208744;471492;572529;399318;-1253;
2024-05-21T20:51:07.155;539518884216368552;471583;572656;399396;-1274;
2024-05-21T20:51:07.173;539518884234528360;471707;572783;399491;-1286;
2024-05-21T20:51:07.191;539518884252688168;471894;572968;399668;-1328;
2024-05-21T20:51:07.210;539518884270847976;472098;573125;399761;-1341;
2024-05-21T20:51:07.228;539518884289007784;472212;573303;399897;-1317;
2024-05-21T20:51:07.246;539518884307167592;472379;573535;400059;-1327;
2024-05-21T20:51:07.264;539518884325327400;472540;573695;400175;-1319;
2024-05-21T20:51:07.282;539518884343487208;472704;573847;400313;-1277;
2024-05-21T20:51:07.300;539518884361647016;472699;573850;400303;-1309;
2024-05-21T20:51:07.319;539518884379806824;472623;573685;400195;-1296;
2024-05-21T20:51:07.337;539518884397966632;472360;573432;400009;-1314;
2024-05-21T20:51:07.355;539518884416126440;472009;573022;399702;-1328;
2024-05-21T20:51:07.373;539518884434286248;471686;572715;399416;-1316;
2024-05-21T20:51:07.391;539518884452446056;471420;572278;399157;-1346;
2024-05-21T20:51:07.409;539518884470605864;471150;572013;398935;-1300;
2024-05-21T20:51:07.427;539518884488765672;470921;571798;398787;-1356;
2024-05-21T20:51:07.446;539518884506925480;470744;571622;398756;-1297;
2024-05-21T20:51:07.464;539518884525085288;470713;571628;398760;-1370;
2024-05-21T20:51:07.482;539518884543245096;470784;571694;398908;-1346;
2024-05-21T20:51:07.500;539518884561404904;470951;571806;398928;-1383;
2024-05-21T20:51:07.518;539518884579564712;471100;572050;399076;-1324;
2024-05-21T20:51:07.536;539518884597724520;471321;572198;399224;-1354;
2024-05-21T20:51:07.555;539518884615884328;471488;572393;399475;-1325;
2024-05-21T20:51:07.573;539518884634044136;471637;572653;399620;-1338;
2024-05-21T20:51:07.591;539518884652203944;471792;572849;399733;-1314;
2024-05-21T20:51:07.609;539518884670363752;472032;573095;399915;-1307;
2024-05-21T20:51:07.627;539518884688523560;472232;573304;400075;-1318;
2024-05-21T20:51:07.645;539518884706683368;472290;573430;400207;-1331;
2024-05-21T20:51:07.664;539518884724843176;472409;573509;400298;-1338;
2024-05-21T20:51:07.682;539518884743002984;472543;573628;400388;-1339;
2024-05-21T20:51:07.700;539518884761162792;472691;573757;400519;-1306;
2024-05-21T20:51:07.718;539518884779323349;472745;573901;400529;-1363;
2024-05-21T20:51:07.736;539518884797483884;472938;574080;400692;-1320;
2024-05-21T20:51:07.754;539518884815644419;473035;574163;400700;-1324;
2024-05-21T20:51:07.773;539518884833804954;473178;574324;400888;-1370;
2024-05-21T20:51:07.791;539518884851965489;473259;574427;400947;-1369;
2024-05-21T20:51:07.809;539518884870126024;473391;574562;401028;-1335;
2024-05-21T20:51:07.827;539518884888286559;473468;574687;401125;-1343;
2024-05-21T20:51:07.845;539518884906447094;473721;574850;401262;-1344;
2024-05-21T20:51:07.863;539518884924607629;473865;575017;401447;-1398;
2024-05-21T20:51:07.881;539518884942768164;473886;575146;401515;-1345;
2024-05-21T20:51:07.900;539518884960928699;474121;575311;401693;-1279;
2024-05-21T20:51:07.918;539518884979089234;474180;575351;401661;-1304;
2024-05-21T20:51:07.936;539518884997249769;474104;575284;401630;-1319;
2024-05-21T20:51:07.954;539518885015410304;473913;574943;401401;-1359;
2024-05-21T20:51:07.972;539518885033570839;473608;574619;401131;-1309;
2024-05-21T20:51:07.990;539518885051731374;473301;574284;400863;-1365;
2024-05-21T20:51:08.009;539518885069891909;473004;573923;400689;-1313;
2024-05-21T20:51:08.027;539518885088052444;472722;573576;400454;-1357;
2024-05-21T20:51:08.045;539518885106212979;472559;573412;400290;-1268;
2024-05-21T20:51:08.063;539518885124373514;472405;573249;400176;-1341;
2024-05-21T20:51:08.081;539518885142534049;472362;573180;400124;-1312;
2024-05-21T20:51:08.099;539518885160694584;472348;573186;400164;-1361;
2024-05-21T20:51:08.118;539518885178855119;472455;573301;400288;-1341;
2024-05-21T20:51:08.136;539518885197015654;472567;573494;400448;-1305;
2024-05-21T20:51:08.154;539518885215176189;472714;573580;400605;-1337;
2024-05-21T20:51:08.172;539518885233336724;472879;573796;400687;-1330;
2024-05-21T20:51:08.190;539518885251497259;473086;574019;400951;-1269;
2024-05-21T20:51:08.208;539518885269657794;473288;574173;401061;-1317;
2024-05-21T20:51:08.227;539518885287818329;473496;574357;401209;-1318;
2024-05-21T20:51:08.245;539518885305978864;473598;574512;401315;-1307;
2024-05-21T20:51:08.263;539518885324139399;473759;574722;401512;-1245;
2024-05-21T20:51:08.281;539518885342299934;473922;574908;401558;-1292;
2024-05-21T20:51:08.299;539518885360460469;474028;575060;401649;-1337;
2024-05-21T20:51:08.317;539518885378621004;474163;575167;401725;-1323;
2024-05-21T20:51:08.336;539518885396781539;474279;575251;401750;-1334;
2024-05-21T20:51:08.354;539518885414942074;474367;575377;401909;-1297;
2024-05-21T20:51:08.372;539518885433102609;474484;575524;402085;-1314;
2024-05-21T20:51:08.390;539518885451263144;474535;575584;402138;-1352;
2024-05-21T20:51:08.408;539518885469423679;474725;575700;402220;-1372;
2024-05-21T20:51:08.426;539518885487584214;474909;575879;402345;-1322;
2024-05-21T20:51:08.444;539518885505744749;475037;576022;402471;-1306;
2024-05-21T20:51:08.463;539518885523905284;475124;576221;402587;-1319;
2024-05-21T20:51:08.481;539518885542064303;475294;576385;402726;-1296;
2024-05-21T20:51:08.499;539518885560223312;475472;576451;402808;-1278;
2024-05-21T20:51:08.517;539518885578382321;475523;576526;402901;-1304;
2024-05-21T20:51:08.535;539518885596541330;475516;576549;402893;-1345;
2024-05-21T20:51:08.553;539518885614700339;475371;576378;402720;-1323;
2024-05-21T20:51:08.572;539518885632859348;475146;576133;402508;-1285;
2024-05-21T20:51:08.590;539518885651018357;474771;575743;402216;-1343;
2024-05-21T20:51:08.608;539518885669177366;474474;575338;401891;-1343;
2024-05-21T20:51:08.626;539518885687336375;474092;574942;401571;-1361;
2024-05-21T20:51:08.644;539518885705495384;473805;574563;401368;-1304;
2024-05-21T20:51:08.662;539518885723654393;473603;574306;401229;-1324;
2024-05-21T20:51:08.681;539518885741813402;473424;574184;401106;-1330;
2024-05-21T20:51:08.699;539518885759972411;473375;574022;401072;-1314;
2024-05-21T20:51:08.717;539518885778131420;473319;574114;401084;-1328;
2024-05-21T20:51:08.735;539518885796290429;473428;574156;401218;-1278;
2024-05-21T20:51:08.753;539518885814449438;473472;574224;401277;-1266;
2024-05-21T20:51:08.771;539518885832608447;473646;574450;401437;-1232;
2024-05-21T20:51:08.789;539518885850767456;473779;574545;401534;-1303;
2024-05-21T20:51:08.808;539518885868926465;473932;574725;401691;-1319;
2024-05-21T20:51:08.826;539518885887085474;474120;574961;401810;-1293;
2024-05-21T20:51:08.844;539518885905244483;474198;575080;401887;-1370;
2024-05-21T20:51:08.862;539518885923403492;474390;575252;402064;-1337;
2024-05-21T20:51:08.880;539518885941562501;474538;575382;402157;-1347;
2024-05-21T20:51:08.898;539518885959721510;474600;575485;402149;-1300;
2024-05-21T20:51:08.917;539518885977880519;474693;575577;402294;-1316;
2024-05-21T20:51:08.935;539518885996039528;474794;575655;402372;-1331;
2024-05-21T20:51:08.953;539518886014198537;474904;575803;402473;-1311;
2024-05-21T20:51:08.971;539518886032357546;474991;575817;402513;-1322;
2024-05-21T20:51:08.989;539518886050516555;475086;575947;402603;-1310;
2024-05-21T20:51:09.007;539518886068675564;475146;576012;402583;-1355;
2024-05-21T20:51:09.026;539518886086834573;475302;576112;402766;-1292;
2024-05-21T20:51:09.044;539518886104993582;475382;576200;402799;-1297;
2024-05-21T20:51:09.062;539518886123152591;475521;576394;402858;-1314;
2024-05-21T20:51:09.080;539518886141311600;475603;576499;402987;-1356;
2024-05-21T20:51:09.098;539518886159470609;475761;576640;403120;-1335;
2024-05-21T20:51:09.116;539518886177629618;475836;576738;403198;-1319;
2024-05-21T20:51:09.135;539518886195788627;475959;576854;403302;-1290;
2024-05-21T20:51:09.153;539518886213947636;476045;576913;403310;-1361;
2024-05-21T20:51:09.171;539518886232106645;475935;576869;403259;-1313;
2024-05-21T20:51:09.189;539518886250265654;475793;576606;403074;-1348;
2024-05-21T20:51:09.207;539518886268424663;475457;576317;402851;-1354;
2024-05-21T20:51:09.225;539518886286583672;475088;575839;402434;-1345;
2024-05-21T20:51:09.243;539518886304743561;474754;575455;402064;-1329;
2024-05-21T20:51:09.262;539518886322903442;474413;575033;401813;-1339;
2024-05-21T20:51:09.280;539518886341063323;474098;574636;401592;-1296;
2024-05-21T20:51:09.298;539518886359223204;473899;574447;401442;-1316;
2024-05-21T20:51:09.316;539518886377383085;473729;574280;401382;-1278;
2024-05-21T20:51:09.334;539518886395542966;473604;574219;401333;-1317;
2024-05-21T20:51:09.352;539518886413702847;473655;574346;401425;-1283;
2024-05-21T20:51:09.371;539518886431862728;473764;574409;401427;-1251;
2024-05-21T20:51:09.389;539518886450022609;473870;574528;401610;-1303;
2024-05-21T20:51:09.407;539518886468182490;474008;574659;401681;-1307;
2024-05-21T20:51:09.425;539518886486342371;474259;574866;401859;-1320;
2024-05-21T20:51:09.443;539518886504502252;474400;575071;401941;-1319;
2024-05-21T20:51:09.461;539518886522662133;474579;575201;402077;-1374;
2024-05-21T20:51:09.480;539518886540822014;474740;575364;402283;-1341;
2024-05-21T20:51:09.498;539518886558981895;474863;575592;402374;-1346;
2024-05-21T20:51:09.516;539518886577141776;474909;575668;402429;-1347;
2024-05-21T20:51:09.534;539518886595301657;475129;575819;402597;-1283;
2024-05-21T20:51:09.552;539518886613461538;475218;575971;402703;-1277;
2024-05-21T20:51:09.570;539518886631621419;475261;575985;402701;-1284;
2024-05-21T20:51:09.589;539518886649781300;475329;576072;402775;-1362;
2024-05-21T20:51:09.607;539518886667941181;475408;576143;402829;-1310;
2024-05-21T20:51:09.625;539518886686101062;475523;576196;402834;-1354;
2024-05-21T20:51:09.643;539518886704260943;475612;576375;402960;-1363;
2024-05-21T20:51:09.661;539518886722420824;475788;576468;403030;-1309;
2024-05-21T20:51:09.679;539518886740580705;475871;576589;403184;-1324;
2024-05-21T20:51:09.697;539518886758740586;476010;576716;403209;-1353;
2024-05-21T20:51:09.716;539518886776900467;476097;576859;403294;-1329;
2024-05-21T20:51:09.734;539518886795060348;476197;576963;403393;-1348;
2024-05-21T20:51:09.752;539518886813220229;476421;577159;403490;-1295;
2024-05-21T20:51:09.770;539518886831380110;476522;577339;403670;-1301;
2024-05-21T20:51:09.788;539518886849539991;476515;577343;403772;-1394;
2024-05-21T20:51:09.806;539518886867699872;476544;577425;403709;-1333;
2024-05-21T20:51:09.825;539518886885859753;476453;577205;403556;-1285;
2024-05-21T20:51:09.843;539518886904019634;476170;576937;403273;-1339;
2024-05-21T20:51:09.861;539518886922179515;475851;576471;402931;-1352;
2024-05-21T20:51:09.879;539518886940339396;475535;576136;402632;-1311;
2024-05-21T20:51:09.897;539518886958499277;475146;575734;402334;-1346;
2024-05-21T20:51:09.915;539518886976659158;474874;575371;402112;-1334;
2024-05-21T20:51:09.934;539518886994819039;474693;575214;402024;-1319;
2024-05-21T20:51:09.952;539518887012978920;474545;575043;401857;-1311;
2024-05-21T20:51:09.970;539518887031138801;474508;574967;401818;-1285;
2024-05-21T20:51:09.988;539518887049298682;474568;575037;401882;-1318;
2024-05-21T20:51:10.006;539518887067459975;474633;575100;401965;-1324;
2024-05-21T20:51:10.024;539518887085621236;474683;575181;402020;-1350;
2024-05-21T20:51:10.043;539518887103782497;474830;575370;402195;-1350;
2024-05-21T20:51:10.061;539518887121943758;475056;575563;402373;-1369;
2024-05-21T20:51:10.079;539518887140105019;475211;575769;402511;-1333;
2024-05-21T20:51:10.097;539518887158266280;475381;575965;402687;-1280;
2024-05-21T20:51:10.115;539518887176427541;475476;576122;402794;-1307;
2024-05-21T20:51:10.133;539518887194588802;475653;576283;402962;-1309;
2024-05-21T20:51:10.151;539518887212750063;475716;576364;403054;-1303;
2024-05-21T20:51:10.170;539518887230911324;475864;576499;403131;-1238;
2024-05-21T20:51:10.188;539518887249072585;475929;576596;403150;-1340;
2024-05-21T20:51:10.206;539518887267233846;476009;576702;403212;-1337;
2024-05-21T20:51:10.224;539518887285395107;476158;576810;403298;-1325;
2024-05-21T20:51:10.242;539518887303556368;476288;576892;403346;-1306;
2024-05-21T20:51:10.260;539518887321717629;476279;576931;403384;-1374;
2024-05-21T20:51:10.279;539518887339878890;476387;577099;403470;-1339;
2024-05-21T20:51:10.297;539518887358040151;476424;577132;403486;-1378;
2024-05-21T20:51:10.315;539518887376201412;476612;577201;403593;-1340;
2024-05-21T20:51:10.333;539518887394362673;476717;577414;403711;-1304;
2024-05-21T20:51:10.351;539518887412523934;476762;577527;403782;-1364;
2024-05-21T20:51:10.369;539518887430685195;476839;577572;403882;-1369;
2024-05-21T20:51:10.388;539518887448846456;477017;577715;403957;-1337;
2024-05-21T20:51:10.406;539518887467007717;477166;577855;404083;-1325;
2024-05-21T20:51:10.424;539518887485168978;477227;577919;404099;-1327;
2024-05-21T20:51:10.442;539518887503330239;477234;577932;404055;-1335;
2024-05-21T20:51:10.460;539518887521491500;477069;577781;403914;-1388;
2024-05-21T20:51:10.478;539518887539652761;476889;577450;403667;-1385;
2024-05-21T20:51:10.497;539518887557814022;476560;577123;403392;-1355;
2024-05-21T20:51:10.515;539518887575975283;476218;576668;403110;-1319;
2024-05-21T20:51:10.533;539518887594136544;475821;576268;402722;-1370;
2024-05-21T20:51:10.551;539518887612297805;475512;575915;402511;-1326;
2024-05-21T20:51:10.569;539518887630459066;475233;575632;402314;-1350;
2024-05-21T20:51:10.587;539518887648620327;475075;575485;402245;-1373;
2024-05-21T20:51:10.606;539518887666781588;474983;575453;402160;-1346;
2024-05-21T20:51:10.624;539518887684942849;474956;575412;402208;-1320;
2024-05-21T20:51:10.642;539518887703104110;475025;575438;402244;-1354;
2024-05-21T20:51:10.660;539518887721265371;475106;575526;402316;-1321;
2024-05-21T20:51:10.678;539518887739426632;475283;575660;402387;-1351;
2024-05-21T20:51:10.696;539518887757587893;475361;575829;402565;-1348;
2024-05-21T20:51:10.714;539518887775749154;475520;575940;402659;-1335;
2024-05-21T20:51:10.733;539518887793910415;475657;576149;402738;-1329;
2024-05-21T20:51:10.751;539518887812071676;475821;576303;402898;-1306;
2024-05-21T20:51:10.769;539518887830233246;475854;576375;402975;-1309;
2024-05-21T20:51:10.787;539518887848394798;475943;576511;403036;-1297;
2024-05-21T20:51:10.805;539518887866556350;476061;576631;403112;-1277;
2024-05-21T20:51:10.823;539518887884717902;476129;576678;403169;-1333;
2024-05-21T20:51:10.842;539518887902879454;476215;576781;403222;-1310;
2024-05-21T20:51:10.860;539518887921041006;476394;576834;403300;-1314;
2024-05-21T20:51:10.878;539518887939202558;476424;576891;403346;-1358;
2024-05-21T20:51:10.896;539518887957364110;476434;576895;403417;-1359;
2024-05-21T20:51:10.914;539518887975525662;476479;576988;403429;-1339;
2024-05-21T20:51:10.932;539518887993687214;476609;577124;403491;-1373;
2024-05-21T20:51:10.951;539518888011848766;476705;577247;403532;-1342;
2024-05-21T20:51:10.969;539518888030010318;476823;577354;403672;-1324;
2024-05-21T20:51:10.987;539518888048171870;476922;577469;403747;-1391;
2024-05-21T20:51:11.005;539518888066333422;476994;577633;403869;-1360;
2024-05-21T20:51:11.023;539518888084494974;477106;577676;403944;-1353;
2024-05-21T20:51:11.041;539518888102656526;477282;577838;404042;-1322;
2024-05-21T20:51:11.060;539518888120818078;477157;577715;404006;-1312;
2024-05-21T20:51:11.078;539518888138979630;476982;577490;403753;-1361;
2024-05-21T20:51:11.096;539518888157141182;476797;577224;403484;-1338;
2024-05-21T20:51:11.114;539518888175302734;476430;576756;403123;-1340;
2024-05-21T20:51:11.132;539518888193464286;476099;576356;402821;-1292;
2024-05-21T20:51:11.150;539518888211625838;475720;575924;402509;-1331;
2024-05-21T20:51:11.169;539518888229787390;475433;575613;402228;-1299;
2024-05-21T20:51:11.187;539518888247948942;475146;575326;402038;-1324;
2024-05-21T20:51:11.205;539518888266110494;474962;575159;401936;-1373;
2024-05-21T20:51:11.223;539518888284272046;474906;575183;401972;-1302;
2024-05-21T20:51:11.241;539518888302433598;474906;575142;401963;-1326;
2024-05-21T20:51:11.259;539518888320595150;474963;575236;402022;-1297;
2024-05-21T20:51:11.277;539518888338756702;475008;575292;402095;-1326;
2024-05-21T20:51:11.296;539518888356918254;475196;575487;402243;-1341;
2024-05-21T20:51:11.314;539518888375079806;475339;575542;402322;-1337;
2024-05-21T20:51:11.332;539518888393241358;475467;575745;402453;-1306;
2024-05-21T20:51:11.350;539518888411402910;475625;575923;402585;-1329;
2024-05-21T20:51:11.368;539518888429564462;475698;576040;402736;-1340;
2024-05-21T20:51:11.386;539518888447726014;475784;576140;402785;-1280;
2024-05-21T20:51:11.405;539518888465887566;475845;576253;402800;-1368;
2024-05-21T20:51:11.423;539518888484049118;475934;576389;402891;-1299;
2024-05-21T20:51:11.441;539518888502210670;475989;576409;402952;-1310;
2024-05-21T20:51:11.459;539518888520372222;476082;576517;402978;-1295;
2024-05-21T20:51:11.477;539518888538533774;476094;576493;402914;-1343;
2024-05-21T20:51:11.495;539518888556695326;476265;576582;403059;-1300;
2024-05-21T20:51:11.514;539518888574856878;476268;576724;403090;-1299;
2024-05-21T20:51:11.532;539518888593018661;476311;576774;403096;-1340;
2024-05-21T20:51:11.550;539518888611180417;476367;576826;403152;-1321;
2024-05-21T20:51:11.568;539518888629342173;476461;576843;403249;-1316;
2024-05-21T20:51:11.586;539518888647503929;476508;576942;403272;-1360;
2024-05-21T20:51:11.604;539518888665665685;476631;577043;403413;-1339;
2024-05-21T20:51:11.623;539518888683827441;476789;577177;403479;-1276;
2024-05-21T20:51:11.641;539518888701989197;476821;577275;403550;-1312;
2024-05-21T20:51:11.659;539518888720150953;476865;577389;403529;-1365;
2024-05-21T20:51:11.677;539518888738312709;476883;577361;403476;-1329;
2024-05-21T20:51:11.695;539518888756474465;476743;577136;403380;-1356;
2024-05-21T20:51:11.713;539518888774636221;476536;576821;403112;-1338;
2024-05-21T20:51:11.732;539518888792797977;476107;576462;402813;-1316;
2024-05-21T20:51:11.750;539518888810959733;475643;575899;402344;-1368;
2024-05-21T20:51:11.768;539518888829121489;475123;575304;401910;-1324;
2024-05-21T20:51:11.786;539518888847283245;474765;574825;401523;-1377;
2024-05-21T20:51:11.804;539518888865445001;474390;574446;401244;-1396;
2024-05-21T20:51:11.822;539518888883606757;474059;574177;401107;-1331;
2024-05-21T20:51:11.840;539518888901768513;473866;573978;400885;-1324;
2024-05-21T20:51:11.859;539518888919930269;473723;573805;400811;-1338;
2024-05-21T20:51:11.877;539518888938092025;473737;573849;400863;-1263;
2024-05-21T20:51:11.895;539518888956253781;473681;573831;400872;-1320;
2024-05-21T20:51:11.913;539518888974415537;473777;573936;400981;-1329;
2024-05-21T20:51:11.931;539518888992577293;473903;574039;400981;-1305;
2024-05-21T20:51:11.949;539518889010739049;474003;574200;401150;-1345;
2024-05-21T20:51:11.968;539518889028900805;474154;574346;401349;-1309;
2024-05-21T20:51:11.986;539518889047062561;474224;574475;401389;-1319;
2024-05-21T20:51:12.004;539518889065224317;474358;574565;401499;-1365;
2024-05-21T20:51:12.022;539518889083386073;474441;574665;401589;-1321;
2024-05-21T20:51:12.040;539518889101547829;474576;574791;401658;-1282;
2024-05-21T20:51:12.058;539518889119709585;474576;574774;401651;-1303;
2024-05-21T20:51:12.077;539518889137871341;474630;574872;401747;-1369;
2024-05-21T20:51:12.095;539518889156033097;474675;574993;401793;-1306;
2024-05-21T20:51:12.113;539518889174194853;474717;575027;401723;-1357;
2024-05-21T20:51:12.131;539518889192356609;474733;575050;401700;-1325;
2024-05-21T20:51:12.149;539518889210518365;474863;575191;401778;-1292;
2024-05-21T20:51:12.167;539518889228680121;474854;575166;401873;-1326;
2024-05-21T20:51:12.186;539518889246841877;475039;575257;401981;-1317;
2024-05-21T20:51:12.204;539518889265003271;475079;575326;402011;-1243;
2024-05-21T20:51:12.222;539518889283164653;475165;575438;402033;-1325;
2024-05-21T20:51:12.240;539518889301326035;475181;575561;402039;-1300;
2024-05-21T20:51:12.258;539518889319487417;475285;575588;402140;-1296;
2024-05-21T20:51:12.276;539518889337648799;475389;575701;402251;-1278;
2024-05-21T20:51:12.295;539518889355810181;475473;575810;402293;-1312;
2024-05-21T20:51:12.313;539518889373971563;475468;575838;402316;-1323;
2024-05-21T20:51:12.331;539518889392132945;475370;575699;402198;-1328;
2024-05-21T20:51:12.349;539518889410294327;475085;575370;401931;-1326;
2024-05-21T20:51:12.367;539518889428455709;474707;574917;401522;-1330;
2024-05-21T20:51:12.385;539518889446617091;474170;574398;401128;-1310;
2024-05-21T20:51:12.404;539518889464778473;473742;573900;400734;-1378;
2024-05-21T20:51:12.422;539518889482939855;473384;573325;400338;-1325;
2024-05-21T20:51:12.440;539518889501101237;473077;572988;400034;-1325;
2024-05-21T20:51:12.458;539518889519262619;472789;572780;399840;-1341;
2024-05-21T20:51:12.476;539518889537424001;472643;572608;399684;-1333;
2024-05-21T20:51:12.494;539518889555585383;472511;572511;399693;-1351;
2024-05-21T20:51:12.512;539518889573746765;472398;572433;399635;-1361;
2024-05-21T20:51:12.531;539518889591908147;472488;572504;399728;-1317;
2024-05-21T20:51:12.549;539518889610069529;472600;572680;399835;-1364;
2024-05-21T20:51:12.567;539518889628230911;472703;572736;399935;-1310;
2024-05-21T20:51:12.585;539518889646392293;472765;572932;400006;-1355;
2024-05-21T20:51:12.603;539518889664553675;473015;573130;400147;-1304;
2024-05-21T20:51:12.621;539518889682715057;473123;573220;400259;-1343;
2024-05-21T20:51:12.640;539518889700876439;473291;573358;400403;-1362;
2024-05-21T20:51:12.658;539518889719037821;473400;573416;400436;-1346;
2024-05-21T20:51:12.676;539518889737199203;473438;573509;400493;-1365;
2024-05-21T20:51:12.694;539518889755360585;473481;573625;400553;-1299;
2024-05-21T20:51:12.712;539518889773521967;473564;573679;400636;-1307;
2024-05-21T20:51:12.730;539518889791683349;473637;573772;400590;-1312;
2024-05-21T20:51:12.749;539518889809844731;473643;573749;400641;-1322;
2024-05-21T20:51:12.767;539518889828006113;473699;573805;400638;-1368;
2024-05-21T20:51:12.785;539518889846167495;473704;573866;400720;-1330;
2024-05-21T20:51:12.803;539518889864328877;473792;573957;400768;-1358;
2024-05-21T20:51:12.821;539518889882490259;473928;574069;400835;-1296;
2024-05-21T20:51:12.839;539518889900651641;473971;574145;400935;-1345;
2024-05-21T20:51:12.858;539518889918813023;474053;574214;401034;-1326;
2024-05-21T20:51:12.876;539518889936974405;474121;574331;401073;-1340;
2024-05-21T20:51:12.894;539518889955138834;474250;574443;401153;-1287;
2024-05-21T20:51:12.912;539518889973303227;474357;574590;401244;-1342;
2024-05-21T20:51:12.930;539518889991467620;474409;574671;401355;-1310;
2024-05-21T20:51:12.948;539518890009632013;474522;574738;401372;-1305;
2024-05-21T20:51:12.967;539518890027796406;474394;574571;401265;-1308;
2024-05-21T20:51:12.985;539518890045960799;474191;574367;400998;-1328;
2024-05-21T20:51:13.003;539518890064125192;473830;573935;400639;-1307;
2024-05-21T20:51:13.021;539518890082289585;473331;573425;400204;-1319;
2024-05-21T20:51:13.039;539518890100453978;472944;572837;399853;-1311;
2024-05-21T20:51:13.057;539518890118618371;472519;572352;399524;-1348;
2024-05-21T20:51:13.076;539518890136782764;472173;572079;399267;-1318;
2024-05-21T20:51:13.094;539518890154947157;471832;571744;399015;-1374;
2024-05-21T20:51:13.112;539518890173111550;471616;571631;398924;-1314;
2024-05-21T20:51:13.130;539518890191275943;471655;571506;398875;-1274;
2024-05-21T20:51:13.148;539518890209440336;471563;571436;398970;-1369;
2024-05-21T20:51:13.166;539518890227604729;471660;571585;398998;-1323;
2024-05-21T20:51:13.184;539518890245769122;471755;571711;399083;-1299;
2024-05-21T20:51:13.203;539518890263933515;471875;571802;399196;-1311;
2024-05-21T20:51:13.221;539518890282097908;472024;572013;399356;-1302;
2024-05-21T20:51:13.239;539518890300262301;472156;572191;399448;-1308;
2024-05-21T20:51:13.257;539518890318426694;472310;572316;399584;-1339;
2024-05-21T20:51:13.275;539518890336591087;472390;572414;399645;-1350;
2024-05-21T20:51:13.293;539518890354755480;472560;572609;399804;-1352;
2024-05-21T20:51:13.312;539518890372919873;472573;572674;399843;-1280;
2024-05-21T20:51:13.330;539518890391084266;472712;572706;399898;-1307;
2024-05-21T20:51:13.348;539518890409248659;472828;572861;399957;-1289;
2024-05-21T20:51:13.366;539518890427413052;472858;572948;400020;-1363;
2024-05-21T20:51:13.384;539518890445577445;472885;573002;400065;-1362;
2024-05-21T20:51:13.402;539518890463741838;472929;572966;400095;-1361;
2024-05-21T20:51:13.421;539518890481906231;473014;573053;400178;-1336;
2024-05-21T20:51:13.439;539518890500070624;473074;573149;400262;-1368;
2024-05-21T20:51:13.457;539518890518235017;473151;573237;400282;-1343;
2024-05-21T20:51:13.475;539518890536399410;473167;573310;400288;-1359;
2024-05-21T20:51:13.493;539518890554563803;473294;573413;400437;-1368;
2024-05-21T20:51:13.511;539518890572728196;473342;573521;400505;-1360;
2024-05-21T20:51:13.530;539518890590892589;473434;573594;400550;-1322;
2024-05-21T20:51:13.548;539518890609056982;473607;573748;400627;-1330;
2024-05-21T20:51:13.566;539518890627221375;473610;573807;400779;-1334;
2024-05-21T20:51:13.584;539518890645384190;473588;573782;400700;-1365;
2024-05-21T20:51:13.602;539518890663546977;473501;573592;400480;-1277;
2024-05-21T20:51:13.620;539518890681709764;473175;573211;400244;-1331;
2024-05-21T20:51:13.639;539518890699872551;472828;572812;399894;-1266;
2024-05-21T20:51:13.657;539518890718035338;472345;572364;399544;-1305;
2024-05-21T20:51:13.675;539518890736198125;471934;571854;399183;-1325;
2024-05-21T20:51:13.693;539518890754360912;471645;571591;398928;-1354;
2024-05-21T20:51:13.711;539518890772523699;471391;571184;398733;-1311;
2024-05-21T20:51:13.729;539518890790686486;471136;571011;398649;-1330;
2024-05-21T20:51:13.748;539518890808849273;471096;570971;398592;-1320;
2024-05-21T20:51:13.766;539518890827012060;471054;570881;398557;-1344;
2024-05-21T20:51:13.784;539518890845174847;471048;570946;398602;-1360;
2024-05-21T20:51:13.802;539518890863337634;471198;571078;398727;-1306;
2024-05-21T20:51:13.820;539518890881500421;471239;571167;398758;-1331;
2024-05-21T20:51:13.838;539518890899663208;471320;571312;398921;-1347;
2024-05-21T20:51:13.857;539518890917825995;471474;571426;399110;-1316;
2024-05-21T20:51:13.875;539518890935988782;471609;571538;399200;-1295;
2024-05-21T20:51:13.893;539518890954151569;471683;571688;399292;-1295;
2024-05-21T20:51:13.911;539518890972314356;471804;571850;399370;-1324;
2024-05-21T20:51:13.929;539518890990477143;471907;571948;399491;-1336;
2024-05-21T20:51:13.947;539518891008639930;471951;571990;399525;-1339;
2024-05-21T20:51:13.966;539518891026802717;472023;572089;399606;-1320;
2024-05-21T20:51:13.984;539518891044965504;472089;572115;399635;-1289;
2024-05-21T20:51:14.002;539518891063128291;472175;572251;399726;-1293;
2024-05-21T20:51:14.020;539518891081291078;472222;572319;399758;-1322;
2024-05-21T20:51:14.038;539518891099453865;472255;572323;399848;-1300;
2024-05-21T20:51:14.056;539518891117616652;472363;572387;399906;-1318;
2024-05-21T20:51:14.075;539518891135779439;472397;572470;399956;-1371;
2024-05-21T20:51:14.093;539518891153942226;472511;572575;400028;-1342;
2024-05-21T20:51:14.111;539518891172105013;472598;572678;400040;-1286;
2024-05-21T20:51:14.129;539518891190267800;472738;572745;400140;-1354;
2024-05-21T20:51:14.147;539518891208430587;472822;572868;400209;-1348;
2024-05-21T20:51:14.165;539518891226593374;472896;572932;400295;-1339;
2024-05-21T20:51:14.183;539518891244756161;472872;572935;400304;-1377;
2024-05-21T20:51:14.202;539518891262918948;472741;572708;400151;-1323;
2024-05-21T20:51:14.220;539518891281081735;472482;572414;399828;-1326;
2024-05-21T20:51:14.238;539518891299244522;472080;572003;399491;-1356;
2024-05-21T20:51:14.256;539518891317407309;471704;571486;399118;-1302;
2024-05-21T20:51:14.274;539518891335570096;471278;571099;398849;-1339;
2024-05-21T20:51:14.292;539518891353734463;470956;570745;398589;-1329;
2024-05-21T20:51:14.311;539518891371898815;470710;570552;398506;-1331;
2024-05-21T20:51:14.329;539518891390063167;470543;570369;398456;-1314;
2024-05-21T20:51:14.347;539518891408227519;470442;570275;398308;-1272;
2024-05-21T20:51:14.365;539518891426391871;470427;570286;398403;-1346;
2024-05-21T20:51:14.383;539518891444556223;470495;570389;398508;-1301;
2024-05-21T20:51:14.401;539518891462720575;470542;570437;398549;-1328;
2024-05-21T20:51:14.420;539518891480884927;470708;570604;398668;-1318;
2024-05-21T20:51:14.438;539518891499049279;470875;570771;398768;-1325;
2024-05-21T20:51:14.456;539518891517213631;471041;570960;398992;-1320;
2024-05-21T20:51:14.474;539518891535377983;471156;571158;399156;-1323;
2024-05-21T20:51:14.492;539518891553542335;471312;571256;399212;-1382;
2024-05-21T20:51:14.510;539518891571706687;471445;571430;399311;-1356;
2024-05-21T20:51:14.529;539518891589871039;471471;571527;399385;-1341;
2024-05-21T20:51:14.547;539518891608035391;471524;571591;399353;-1362;
2024-05-21T20:51:14.565;539518891626199743;471575;571652;399503;-1302;
2024-05-21T20:51:14.583;539518891644364095;471658;571719;399508;-1368;
2024-05-21T20:51:14.601;539518891662528447;471641;571800;399559;-1357;
2024-05-21T20:51:14.619;539518891680692799;471672;571725;399600;-1327;
2024-05-21T20:51:14.638;539518891698857151;471786;571863;399700;-1293;
2024-05-21T20:51:14.656;539518891717021503;471829;571879;399708;-1312;
2024-05-21T20:51:14.674;539518891735185855;471870;571919;399771;-1359;
2024-05-21T20:51:14.692;539518891753350207;471960;571976;399785;-1305;
2024-05-21T20:51:14.710;539518891771514559;472091;572096;399924;-1286;
2024-05-21T20:51:14.728;539518891789678911;472106;572140;400010;-1277;
2024-05-21T20:51:14.747;539518891807843263;472211;572270;400083;-1283;
2024-05-21T20:51:14.765;539518891826007615;472285;572329;400119;-1351;
2024-05-21T20:51:14.783;539518891844171967;472273;572287;400122;-1311;
2024-05-21T20:51:14.801;539518891862336319;472122;572124;399941;-1371;
2024-05-21T20:51:14.819;539518891880500671;471817;571752;399665;-1328;
2024-05-21T20:51:14.837;539518891898665023;471408;571254;399263;-1353;
2024-05-21T20:51:14.856;539518891916829375;470902;570680;398933;-1335;
2024-05-21T20:51:14.874;539518891934993727;470451;570126;398501;-1308;
2024-05-21T20:51:14.892;539518891953158079;470013;569658;398168;-1305;
2024-05-21T20:51:14.910;539518891971322431;469549;569285;397835;-1330;
2024-05-21T20:51:14.928;539518891989486783;469290;568990;397720;-1313;
2024-05-21T20:51:14.946;539518892007651135;469060;568713;397565;-1318;
2024-05-21T20:51:14.965;539518892025815487;469058;568664;397554;-1329;
2024-05-21T20:51:14.983;539518892043979839;469040;568633;397601;-1297;
2024-05-21T20:51:15.001;539518892062141966;469035;568619;397693;-1325;
2024-05-21T20:51:15.019;539518892080304063;469089;568714;397719;-1350;
2024-05-21T20:51:15.037;539518892098466160;469215;568890;397855;-1338;
2024-05-21T20:51:15.055;539518892116628257;469353;569077;398008;-1299;
2024-05-21T20:51:15.074;539518892134790354;469534;569193;398116;-1326;
2024-05-21T20:51:15.092;539518892152952451;469625;569410;398238;-1337;
2024-05-21T20:51:15.110;539518892171114548;469708;569559;398325;-1320;
2024-05-21T20:51:15.128;539518892189276645;469825;569605;398434;-1337;
2024-05-21T20:51:15.146;539518892207438742;469859;569676;398462;-1345;
2024-05-21T20:51:15.164;539518892225600839;470029;569768;398446;-1353;
2024-05-21T20:51:15.182;539518892243762936;470209;569917;398651;-1286;
2024-05-21T20:51:15.201;539518892261925033;470242;570035;398660;-1334;
2024-05-21T20:51:15.219;539518892280087130;470376;570127;398719;-1289;
2024-05-21T20:51:15.237;539518892298249227;470372;570197;398791;-1299;
2024-05-21T20:51:15.255;539518892316411324;470411;570235;398844;-1287;
2024-05-21T20:51:15.273;539518892334573421;470508;570363;398982;-1305;
2024-05-21T20:51:15.291;539518892352735518;470619;570428;399047;-1289;
2024-05-21T20:51:15.310;539518892370897615;470658;570541;399174;-1303;
2024-05-21T20:51:15.328;539518892389059712;470779;570647;399302;-1280;
2024-05-21T20:51:15.346;539518892407221809;470878;570706;399344;-1319;
2024-05-21T20:51:15.364;539518892425383906;470999;570760;399417;-1323;
2024-05-21T20:51:15.382;539518892443546003;471030;570826;399462;-1346;
2024-05-21T20:51:15.400;539518892461708100;470963;570795;399370;-1312;
2024-05-21T20:51:15.419;539518892479870197;470758;570524;399130;-1322;
2024-05-21T20:51:15.437;539518892498032294;470461;570160;398842;-1324;
2024-05-21T20:51:15.455;539518892516194391;469991;569661;398377;-1388;
2024-05-21T20:51:15.473;539518892534356488;469561;569200;398116;-1321;
2024-05-21T20:51:15.491;539518892552518585;469134;568717;397757;-1319;
2024-05-21T20:51:15.509;539518892570680682;468760;568392;397465;-1321;
2024-05-21T20:51:15.528;539518892588842779;468413;568057;397320;-1335;
2024-05-21T20:51:15.546;539518892607004876;468220;567843;397156;-1338;
2024-05-21T20:51:15.564;539518892625166973;468163;567755;397154;-1371;
2024-05-21T20:51:15.582;539518892643329070;468169;567780;397143;-1311;
2024-05-21T20:51:15.600;539518892661491167;468219;567760;397220;-1357;
2024-05-21T20:51:15.618;539518892679653264;468340;567916;397374;-1292;
2024-05-21T20:51:15.637;539518892697815361;468429;568066;397477;-1257;
2024-05-21T20:51:15.655;539518892715977458;468639;568247;397668;-1237;
2024-05-21T20:51:15.673;539518892734139555;468750;568427;397748;-1320;
2024-05-21T20:51:15.691;539518892752301652;468975;568707;397932;-1292;
2024-05-21T20:51:15.709;539518892770463749;469070;568836;398136;-1308;
2024-05-21T20:51:15.727;539518892788625846;469208;568858;398185;-1313;
2024-05-21T20:51:15.746;539518892806787943;469262;568991;398180;-1334;
2024-05-21T20:51:15.764;539518892824951548;469376;569110;398330;-1302;
2024-05-21T20:51:15.782;539518892843115118;469484;569218;398336;-1278;
2024-05-21T20:51:15.800;539518892861278688;469466;569317;398422;-1288;
2024-05-21T20:51:15.818;539518892879442258;469546;569411;398446;-1278;
2024-05-21T20:51:15.836;539518892897605828;469604;569439;398542;-1322;
2024-05-21T20:51:15.854;539518892915769398;469682;569515;398645;-1331;
2024-05-21T20:51:15.873;539518892933932968;469857;569652;398716;-1319;
2024-05-21T20:51:15.891;539518892952096538;469878;569702;398718;-1323;
2024-05-21T20:51:15.909;539518892970260108;470047;569932;398901;-1274;
2024-05-21T20:51:15.927;539518892988423678;470077;569908;398934;-1353;
2024-05-21T20:51:15.945;539518893006587248;470219;570116;399038;-1288;
2024-05-21T20:51:15.963;539518893024750818;470381;570202;399177;-1293;
2024-05-21T20:51:15.982;539518893042914388;470558;570400;399226;-1273;
2024-05-21T20:51:16.000;539518893061077958;470655;570522;399309;-1290;
2024-05-21T20:51:16.018;539518893079241528;470536;570489;399280;-1288;
2024-05-21T20:51:16.036;539518893097405098;470435;570298;399144;-1324;
2024-05-21T20:51:16.054;539518893115568668;470112;569956;398829;-1342;
2024-05-21T20:51:16.072;539518893133732238;469801;569572;398509;-1322;
2024-05-21T20:51:16.091;539518893151895808;469378;569137;398215;-1321;
2024-05-21T20:51:16.109;539518893170059378;468959;568624;397871;-1329;
2024-05-21T20:51:16.127;539518893188222948;468567;568205;397612;-1338;
2024-05-21T20:51:16.145;539518893206386518;468249;567904;397408;-1316;
2024-05-21T20:51:16.163;539518893224550088;468076;567704;397262;-1290;
2024-05-21T20:51:16.181;539518893242713658;467880;567581;397215;-1345;
2024-05-21T20:51:16.200;539518893260877228;467922;567529;397192;-1326;
2024-05-21T20:51:16.218;539518893279040798;467933;567615;397260;-1303;
2024-05-21T20:51:16.236;539518893297204368;468078;567810;397428;-1319;
2024-05-21T20:51:16.254;539518893315367938;468180;567901;397567;-1309;
2024-05-21T20:51:16.272;539518893333531508;468386;568064;397656;-1286;
2024-05-21T20:51:16.290;539518893351695078;468486;568274;397865;-1296;
2024-05-21T20:51:16.309;539518893369858648;468638;568404;397989;-1299;
2024-05-21T20:51:16.327;539518893388022218;468806;568627;398072;-1316;
2024-05-21T20:51:16.345;539518893406185788;468906;568756;398148;-1323;
2024-05-21T20:51:16.363;539518893424349358;469004;568864;398265;-1287;
2024-05-21T20:51:16.381;539518893442512928;469161;568916;398403;-1276;
2024-05-21T20:51:16.399;539518893460676498;469173;569023;398398;-1291;
2024-05-21T20:51:16.418;539518893478840068;469261;569063;398458;-1337;
2024-05-21T20:51:16.436;539518893497002145;469312;569132;398552;-1357;
2024-05-21T20:51:16.454;539518893515164206;469453;569254;398560;-1287;
2024-05-21T20:51:16.472;539518893533326267;469491;569331;398615;-1317;
2024-05-21T20:51:16.490;539518893551488328;469568;569491;398690;-1293;
2024-05-21T20:51:16.508;539518893569650389;469635;569551;398745;-1271;
2024-05-21T20:51:16.527;539518893587812450;469730;569719;398838;-1268;
2024-05-21T20:51:16.545;539518893605974511;469865;569724;398910;-1331;
2024-05-21T20:51:16.563;539518893624136572;470035;569908;399059;-1303;
2024-05-21T20:51:16.581;539518893642298633;470106;569915;399098;-1352;
2024-05-21T20:51:16.599;539518893660460694;470215;570127;399262;-1312;
2024-05-21T20:51:16.617;539518893678622755;470286;570164;399284;-1277;
2024-05-21T20:51:16.636;539518893696784816;470239;570119;399195;-1263;
2024-05-21T20:51:16.654;539518893714946877;470090;570013;399055;-1329;
2024-05-21T20:51:16.672;539518893733108938;469844;569644;398818;-1290;
2024-05-21T20:51:16.690;539518893751270999;469454;569273;398440;-1345;
2024-05-21T20:51:16.708;539518893769433060;469044;568804;398114;-1354;
2024-05-21T20:51:16.726;539518893787595121;468665;568423;397846;-1342;
2024-05-21T20:51:16.744;539518893805757182;468306;568035;397601;-1320;
2024-05-21T20:51:16.763;539518893823919243;468059;567755;397440;-1285;
2024-05-21T20:51:16.781;539518893842081304;467867;567586;397353;-1309;
2024-05-21T20:51:16.799;539518893860243365;467779;567494;397298;-1322;
2024-05-21T20:51:16.817;539518893878405426;467810;567554;397377;-1314;
2024-05-21T20:51:16.835;539518893896567487;467822;567560;397409;-1345;
2024-05-21T20:51:16.853;539518893914729548;467958;567657;397506;-1321;
2024-05-21T20:51:16.872;539518893932891609;468088;567763;397647;-1268;
2024-05-21T20:51:16.890;539518893951053670;468258;567995;397750;-1302;
2024-05-21T20:51:16.908;539518893969215731;468409;568182;397884;-1316;
2024-05-21T20:51:16.926;539518893987377792;468549;568314;398041;-1356;
2024-05-21T20:51:16.944;539518894005539853;468655;568539;398165;-1266;
2024-05-21T20:51:16.962;539518894023701914;468824;568683;398238;-1295;
2024-05-21T20:51:16.981;539518894041863975;468879;568768;398359;-1346;
2024-05-21T20:51:16.999;539518894060026036;468989;568881;398444;-1293;
2024-05-21T20:51:17.017;539518894078188097;469100;569004;398471;-1288;
2024-05-21T20:51:17.035;539518894096350158;469173;569069;398517;-1297;
2024-05-21T20:51:17.053;539518894114512219;469297;569173;398569;-1311;
2024-05-21T20:51:17.071;539518894132674280;469383;569278;398636;-1356;
2024-05-21T20:51:17.090;539518894150836341;469433;569399;398742;-1313;
2024-05-21T20:51:17.108;539518894168998402;469567;569514;398836;-1334;
2024-05-21T20:51:17.126;539518894187160463;469724;569614;398934;-1295;
2024-05-21T20:51:17.144;539518894205322524;469740;569714;398997;-1276;
2024-05-21T20:51:17.162;539518894223484585;469811;569862;399049;-1292;
2024-05-21T20:51:17.180;539518894241646646;469980;569977;399185;-1292;
2024-05-21T20:51:17.199;539518894259809461;470137;570126;399326;-1329;
2024-05-21T20:51:17.217;539518894277972248;470238;570200;399381;-1326;
2024-05-21T20:51:17.235;539518894296135035;470247;570265;399451;-1324;
2024-05-21T20:51:17.253;539518894314297822;470183;570070;399337;-1308;
2024-05-21T20:51:17.271;539518894332460609;469977;569944;399082;-1304;
2024-05-21T20:51:17.289;539518894350623396;469642;569531;398785;-1240;
2024-05-21T20:51:17.308;539518894368786183;469221;569026;398448;-1296;
2024-05-21T20:51:17.326;539518894386948970;468824;568674;398102;-1339;
2024-05-21T20:51:17.344;539518894405111757;468443;568241;397851;-1291;
2024-05-21T20:51:17.362;539518894423274544;468202;567923;397620;-1299;
2024-05-21T20:51:17.380;539518894441437331;468029;567742;397514;-1320;
2024-05-21T20:51:17.398;539518894459600118;467927;567653;397445;-1323;
2024-05-21T20:51:17.416;539518894477762905;467838;567570;397417;-1352;
2024-05-21T20:51:17.435;539518894495925692;467879;567727;397533;-1341;
2024-05-21T20:51:17.453;539518894514088479;467947;567767;397578;-1376;
2024-05-21T20:51:17.471;539518894532251266;468081;567906;397748;-1360;
2024-05-21T20:51:17.489;539518894550414053;468253;568134;397920;-1347;
2024-05-21T20:51:17.507;539518894568576840;468343;568362;398048;-1344;
2024-05-21T20:51:17.525;539518894586739627;468563;568533;398221;-1343;
2024-05-21T20:51:17.544;539518894604902414;468735;568597;398307;-1329;
2024-05-21T20:51:17.562;539518894623065201;468889;568795;398441;-1335;
2024-05-21T20:51:17.580;539518894641227988;468965;568823;398488;-1359;
2024-05-21T20:51:17.598;539518894659390775;469044;568954;398539;-1330;
2024-05-21T20:51:17.616;539518894677553562;469105;569013;398625;-1353;
2024-05-21T20:51:17.634;539518894695716349;469159;569094;398668;-1336;
2024-05-21T20:51:17.653;539518894713879136;469245;569226;398777;-1312;
2024-05-21T20:51:17.671;539518894732041923;469294;569287;398795;-1375;
2024-05-21T20:51:17.689;539518894750204710;469342;569378;398807;-1303;
2024-05-21T20:51:17.707;539518894768367497;469454;569479;398950;-1224;
2024-05-21T20:51:17.725;539518894786530284;469500;569566;399015;-1263;
2024-05-21T20:51:17.743;539518894804693071;469620;569629;399070;-1307;
2024-05-21T20:51:17.762;539518894822855858;469777;569774;399168;-1282;
2024-05-21T20:51:17.780;539518894841018645;469891;569897;399248;-1256;
2024-05-21T20:51:17.798;539518894859181432;470022;570046;399388;-1273;
2024-05-21T20:51:17.816;539518894877344219;470099;570155;399451;-1341;
2024-05-21T20:51:17.834;539518894895507006;470227;570298;399499;-1343;
2024-05-21T20:51:17.852;539518894913669793;470271;570400;399639;-1334;
2024-05-21T20:51:17.871;539518894931832580;470238;570255;399578;-1294;
2024-05-21T20:51:17.889;539518894949995367;469990;569962;399337;-1327;
2024-05-21T20:51:17.907;539518894968158154;469740;569606;399030;-1321;
2024-05-21T20:51:17.925;539518894986321641;469248;569151;398666;-1320;
2024-05-21T20:51:17.943;539518895004485106;468801;568676;398332;-1311;
2024-05-21T20:51:17.961;539518895022648571;468389;568139;397952;-1307;
2024-05-21T20:51:17.980;539518895040812036;468010;567799;397683;-1327;
2024-05-21T20:51:17.998;539518895058975501;467712;567472;397438;-1282;
2024-05-21T20:51:18.016;539518895077138966;467537;567259;397276;-1320;
2024-05-21T20:51:18.034;539518895095302431;467400;567187;397268;-1342;
2024-05-21T20:51:18.052;539518895113465896;467387;567161;397321;-1334;
2024-05-21T20:51:18.070;539518895131629361;467412;567152;397369;-1355;
2024-05-21T20:51:18.089;539518895149792826;467500;567315;397444;-1322;
2024-05-21T20:51:18.107;539518895167956291;467731;567507;397677;-1328;
2024-05-21T20:51:18.125;539518895186119756;467836;567721;397783;-1297;
2024-05-21T20:51:18.143;539518895204283221;468018;567895;397923;-1314;
2024-05-21T20:51:18.161;539518895222446686;468218;568054;398077;-1338;
2024-05-21T20:51:18.179;539518895240610151;468375;568174;398188;-1303;
2024-05-21T20:51:18.198;539518895258773616;468498;568324;398255;-1268;
2024-05-21T20:51:18.216;539518895276937081;468564;568485;398362;-1291;
2024-05-21T20:51:18.234;539518895295100546;468725;568627;398465;-1300;
2024-05-21T20:51:18.252;539518895313264011;468778;568747;398546;-1294;
2024-05-21T20:51:18.270;539518895331427476;468878;568825;398690;-1310;
2024-05-21T20:51:18.288;539518895349590941;468983;568905;398703;-1319;
2024-05-21T20:51:18.306;539518895367754406;469024;569126;398807;-1287;
2024-05-21T20:51:18.325;539518895385917871;469197;569178;398789;-1306;
2024-05-21T20:51:18.343;539518895404081336;469306;569330;398941;-1268;
2024-05-21T20:51:18.361;539518895422244801;469391;569332;399006;-1286;
2024-05-21T20:51:18.379;539518895440408266;469484;569474;399120;-1317;
2024-05-21T20:51:18.397;539518895458571731;469586;569624;399186;-1312;
2024-05-21T20:51:18.415;539518895476735196;469824;569820;399324;-1311;
2024-05-21T20:51:18.434;539518895494898661;469905;569939;399425;-1282;
2024-05-21T20:51:18.452;539518895513062126;470011;570079;399516;-1350;
2024-05-21T20:51:18.470;539518895531225591;470186;570211;399687;-1373;
2024-05-21T20:51:18.488;539518895549389056;470283;570374;399796;-1325;
2024-05-21T20:51:18.506;539518895567552521;470430;570490;399891;-1316;
2024-05-21T20:51:18.524;539518895585715986;470466;570502;399893;-1312;
2024-05-21T20:51:18.543;539518895603879451;470244;570339;399703;-1304;
2024-05-21T20:51:18.561;539518895622042916;470018;569995;399430;-1312;
2024-05-21T20:51:18.579;539518895640206495;469601;569615;399070;-1339;
2024-05-21T20:51:18.597;539518895658370064;469214;569078;398745;-1282;
2024-05-21T20:51:18.615;539518895676533633;468837;568687;398393;-1308;
2024-05-21T20:51:18.633;539518895694697202;468483;568305;398167;-1308;
2024-05-21T20:51:18.652;539518895712860771;468181;568036;397940;-1333;
2024-05-21T20:51:18.670;539518895731024340;467986;567828;397785;-1327;
2024-05-21T20:51:18.688;539518895749187909;467999;567748;397816;-1333;
2024-05-21T20:51:18.706;539518895767351478;467948;567757;397821;-1307;
2024-05-21T20:51:18.724;539518895785515047;467968;567776;397891;-1342;
2024-05-21T20:51:18.742;539518895803678616;468119;567947;398029;-1339;
2024-05-21T20:51:18.761;539518895821842185;468250;568161;398121;-1337;
2024-05-21T20:51:18.779;539518895840005754;468428;568399;398345;-1289;
2024-05-21T20:51:18.797;539518895858169323;468703;568586;398570;-1368;
2024-05-21T20:51:18.815;539518895876332892;468904;568759;398657;-1309;
2024-05-21T20:51:18.833;539518895894496461;468975;569014;398792;-1329;
2024-05-21T20:51:18.851;539518895912660030;469191;569206;398922;-1284;
2024-05-21T20:51:18.870;539518895930823599;469340;569395;399127;-1305;
2024-05-21T20:51:18.888;539518895948987168;469425;569530;399126;-1325;
2024-05-21T20:51:18.906;539518895967150737;469492;569640;399212;-1358;
2024-05-21T20:51:18.924;539518895985314306;469630;569660;399266;-1331;
2024-05-21T20:51:18.942;539518896003477875;469781;569828;399352;-1313;
2024-05-21T20:51:18.960;539518896021641444;469877;569930;399506;-1314;
2024-05-21T20:51:18.979;539518896039805013;469915;570118;399558;-1328;
2024-05-21T20:51:18.997;539518896057968582;470044;570196;399598;-1302;
2024-05-21T20:51:19.015;539518896076132151;470138;570342;399711;-1339;
2024-05-21T20:51:19.033;539518896094295720;470299;570419;399795;-1300;
2024-05-21T20:51:19.051;539518896112459289;470450;570571;399914;-1359;
2024-05-21T20:51:19.069;539518896130622858;470508;570711;400027;-1380;
2024-05-21T20:51:19.088;539518896148786427;470693;570895;400157;-1339;
2024-05-21T20:51:19.106;539518896166949996;470823;571015;400258;-1335;
2024-05-21T20:51:19.124;539518896185113565;470925;571226;400331;-1322;
2024-05-21T20:51:19.142;539518896203277134;471149;571449;400563;-1297;
2024-05-21T20:51:19.160;539518896221440703;471288;571504;400644;-1354;
2024-05-21T20:51:19.178;539518896239604272;471495;571667;400752;-1386;
2024-05-21T20:51:19.196;539518896257767841;471642;571825;400893;-1304;
2024-05-21T20:51:19.215;539518896275931410;471650;571826;400889;-1276;
2024-05-21T20:51:19.233;539518896294094979;471448;571671;400738;-1312;
2024-05-21T20:51:19.251;539518896312258548;471358;571445;400536;-1307;
2024-05-21T20:51:19.269;539518896330422117;470981;570996;400123;-1341;
2024-05-21T20:51:19.287;539518896348585686;470554;570578;399825;-1338;
2024-05-21T20:51:19.305;539518896366749255;470184;570185;399512;-1354;
2024-05-21T20:51:19.324;539518896384912177;469820;569827;399263;-1357;
2024-05-21T20:51:19.342;539518896403075073;469642;569560;399026;-1301;
2024-05-21T20:51:19.360;539518896421237969;469517;569347;398924;-1340;
2024-05-21T20:51:19.378;539518896439400865;469307;569218;398880;-1345;
2024-05-21T20:51:19.396;539518896457563761;469372;569286;398963;-1352;
2024-05-21T20:51:19.414;539518896475726657;469461;569398;399047;-1302;
2024-05-21T20:51:19.433;539518896493889553;469592;569438;399132;-1383;
2024-05-21T20:51:19.451;539518896512052449;469723;569648;399242;-1413;
2024-05-21T20:51:19.469;539518896530215345;469904;569813;399421;-1295;
2024-05-21T20:51:19.487;539518896548378241;470060;570008;399615;-1338;
2024-05-21T20:51:19.505;539518896566541137;470239;570171;399780;-1342;
2024-05-21T20:51:19.523;539518896584704033;470397;570336;399872;-1340;
2024-05-21T20:51:19.542;539518896602866929;470532;570511;400014;-1379;
2024-05-21T20:51:19.560;539518896621029825;470676;570717;400094;-1301;
2024-05-21T20:51:19.578;539518896639192721;470833;570853;400226;-1294;
2024-05-21T20:51:19.596;539518896657355617;470876;570903;400288;-1312;
2024-05-21T20:51:19.614;539518896675518513;470977;570992;400330;-1321;
2024-05-21T20:51:19.632;539518896693681409;471019;571108;400402;-1293;
2024-05-21T20:51:19.651;539518896711844305;471057;571230;400519;-1277;
2024-05-21T20:51:19.669;539518896730007201;471223;571283;400567;-1266;
2024-05-21T20:51:19.687;539518896748170097;471262;571416;400633;-1314;
2024-05-21T20:51:19.705;539518896766332993;471336;571506;400672;-1266;
2024-05-21T20:51:19.723;539518896784495889;471439;571567;400751;-1276;
2024-05-21T20:51:19.741;539518896802658785;471511;571680;400842;-1319;
2024-05-21T20:51:19.760;539518896820821681;471704;571908;400995;-1221;
2024-05-21T20:51:19.778;539518896838984577;471846;572041;401100;-1287;
2024-05-21T20:51:19.796;539518896857147473;471976;572162;401262;-1277;
2024-05-21T20:51:19.814;539518896875310369;472171;572322;401362;-1237;
2024-05-21T20:51:19.832;539518896893473265;472286;572410;401468;-1324;
2024-05-21T20:51:19.850;539518896911636161;472499;572671;401638;-1282;
2024-05-21T20:51:19.869;539518896929799057;472568;572759;401729;-1249;
2024-05-21T20:51:19.887;539518896947961953;472589;572717;401722;-1237;
2024-05-21T20:51:19.905;539518896966124849;472467;572600;401522;-1294;
2024-05-21T20:51:19.923;539518896984287745;472159;572395;401281;-1321;
2024-05-21T20:51:19.941;539518897002450641;471922;571953;401028;-1302;
2024-05-21T20:51:19.959;539518897020613537;471580;571579;400727;-1306;
2024-05-21T20:51:19.978;539518897038776433;471269;571309;400435;-1339;
2024-05-21T20:51:19.996;539518897056939329;471058;571027;400256;-1295;
2024-05-21T20:51:20.014;539518897075102225;470916;570843;400129;-1302;
2024-05-21T20:51:20.032;539518897093265121;470832;570804;400135;-1284;
2024-05-21T20:51:20.050;539518897111428017;470807;570779;400130;-1330;
2024-05-21T20:51:20.068;539518897129590913;470895;570849;400286;-1284;
2024-05-21T20:51:20.086;539518897147753040;471016;570981;400356;-1295;
2024-05-21T20:51:20.105;539518897165915137;471131;571167;400528;-1290;
2024-05-21T20:51:20.123;539518897184077234;471298;571366;400744;-1312;
2024-05-21T20:51:20.141;539518897202239331;471464;571612;400867;-1263;
2024-05-21T20:51:20.159;539518897220401428;471588;571756;400988;-1287;
2024-05-21T20:51:20.177;539518897238563525;471800;572054;401176;-1279;
2024-05-21T20:51:20.195;539518897256725622;471953;572133;401238;-1266;
2024-05-21T20:51:20.214;539518897274887719;472164;572298;401406;-1273;
2024-05-21T20:51:20.232;539518897293049816;472229;572421;401511;-1273;
2024-05-21T20:51:20.250;539518897311211913;472399;572597;401605;-1295;
2024-05-21T20:51:20.268;539518897329374010;472556;572728;401647;-1291;
2024-05-21T20:51:20.286;539518897347536107;472641;572823;401771;-1271;
2024-05-21T20:51:20.304;539518897365698204;472692;572903;401788;-1319;
2024-05-21T20:51:20.323;539518897383860301;472781;573040;401813;-1343;
2024-05-21T20:51:20.341;539518897402022398;472928;573055;401980;-1270;
2024-05-21T20:51:20.359;539518897420184495;473028;573222;402106;-1294;
2024-05-21T20:51:20.377;539518897438346592;473120;573360;402231;-1333;
2024-05-21T20:51:20.395;539518897456508689;473233;573519;402262;-1316;
2024-05-21T20:51:20.413;539518897474670786;473298;573633;402299;-1303;
2024-05-21T20:51:20.432;539518897492832883;473495;573745;402464;-1289;
2024-05-21T20:51:20.450;539518897510994980;473610;573878;402505;-1296;
2024-05-21T20:51:20.468;539518897529157077;473767;574030;402686;-1271;
2024-05-21T20:51:20.486;539518897547319174;473863;574213;402852;-1322;
2024-05-21T20:51:20.504;539518897565481271;473977;574225;402889;-1355;
2024-05-21T20:51:20.522;539518897583643368;474043;574366;403038;-1336;
2024-05-21T20:51:20.541;539518897601805465;474102;574413;402989;-1324;
2024-05-21T20:51:20.559;539518897619967562;473914;574214;402784;-1304;
2024-05-21T20:51:20.577;539518897638129659;473617;573866;402468;-1348;
2024-05-21T20:51:20.595;539518897656291756;473306;573499;402166;-1333;
2024-05-21T20:51:20.613;539518897674453853;472906;573087;401873;-1336;
2024-05-21T20:51:20.631;539518897692615950;472586;572634;401556;-1337;
2024-05-21T20:51:20.650;539518897710778047;472266;572240;401312;-1368;
2024-05-21T20:51:20.668;539518897728940144;472074;571999;401150;-1287;
2024-05-21T20:51:20.686;539518897747102241;471878;571798;400992;-1326;
2024-05-21T20:51:20.704;539518897765264338;471740;571702;400905;-1360;
2024-05-21T20:51:20.722;539518897783426435;471771;571750;400971;-1311;
2024-05-21T20:51:20.740;539518897801588532;471807;571743;400991;-1317;
2024-05-21T20:51:20.758;539518897819750629;471898;571853;401119;-1335;
2024-05-21T20:51:20.777;539518897837912726;472089;572123;401266;-1381;
2024-05-21T20:51:20.795;539518897856074823;472245;572233;401427;-1344;
2024-05-21T20:51:20.813;539518897874236920;472355;572442;401590;-1336;
2024-05-21T20:51:20.831;539518897892399017;472615;572641;401775;-1284;
2024-05-21T20:51:20.849;539518897910563245;472745;572794;401948;-1360;
2024-05-21T20:51:20.867;539518897928727449;472889;572994;402024;-1278;
2024-05-21T20:51:20.886;539518897946891653;472991;573124;402090;-1331;
2024-05-21T20:51:20.904;539518897965055857;473096;573203;402088;-1331;
2024-05-21T20:51:20.922;539518897983220061;473221;573318;402330;-1335;
2024-05-21T20:51:20.940;539518898001384265;473279;573442;402326;-1300;
2024-05-21T20:51:20.958;539518898019548469;473374;573601;402453;-1382;
2024-05-21T20:51:20.976;539518898037712673;473548;573736;402533;-1319;
2024-05-21T20:51:20.995;539518898055876877;473578;573789;402604;-1371;
2024-05-21T20:51:21.013;539518898074041081;473743;573942;402677;-1328;
2024-05-21T20:51:21.031;539518898092205285;473972;574036;402794;-1330;
2024-05-21T20:51:21.049;539518898110369489;474111;574229;402953;-1291;
2024-05-21T20:51:21.067;539518898128533693;474168;574312;403074;-1283;
2024-05-21T20:51:21.085;539518898146697897;474245;574406;403110;-1307;
2024-05-21T20:51:21.104;539518898164862101;474383;574605;403258;-1336;
2024-05-21T20:51:21.122;539518898183026305;474505;574780;403353;-1311;
2024-05-21T20:51:21.140;539518898201190509;474663;574923;403494;-1276;
2024-05-21T20:51:21.158;539518898219354713;474868;575065;403623;-1307;
2024-05-21T20:51:21.176;539518898237518917;474982;575214;403712;-1291;
2024-05-21T20:51:21.194;539518898255683121;475111;575339;403797;-1267;
2024-05-21T20:51:21.213;539518898273847325;475013;575246;403643;-1341;
2024-05-21T20:51:21.231;539518898292011529;474855;575037;403435;-1309;
2024-05-21T20:51:21.249;539518898310175733;474535;574712;403178;-1304;
2024-05-21T20:51:21.267;539518898328339937;474158;574267;402940;-1325;
2024-05-21T20:51:21.285;539518898346504141;473837;573897;402617;-1263;
2024-05-21T20:51:21.303;539518898364668345;473626;573501;402338;-1256;
2024-05-21T20:51:21.322;539518898382832549;473397;573279;402170;-1288;
2024-05-21T20:51:21.340;539518898400996753;473221;573082;402053;-1299;
2024-05-21T20:51:21.358;539518898419160957;473052;573019;402000;-1338;
2024-05-21T20:51:21.376;539518898437325161;473038;572929;402016;-1325;
2024-05-21T20:51:21.394;539518898455489365;473184;573010;402160;-1295;
2024-05-21T20:51:21.412;539518898473653569;473168;573183;402253;-1360;
2024-05-21T20:51:21.431;539518898491817773;473368;573295;402326;-1355;
2024-05-21T20:51:21.449;539518898509981977;473526;573513;402489;-1260;
2024-05-21T20:51:21.467;539518898528146181;473697;573724;402594;-1331;
2024-05-21T20:51:21.485;539518898546310385;473888;573887;402747;-1341;
2024-05-21T20:51:21.503;539518898564474589;474070;574036;402928;-1321;
2024-05-21T20:51:21.521;539518898582638793;474232;574306;403053;-1291;
2024-05-21T20:51:21.540;539518898600802997;474304;574430;403148;-1283;
2024-05-21T20:51:21.558;539518898618967201;474480;574576;403315;-1328;
2024-05-21T20:51:21.576;539518898637131405;474532;574637;403422;-1336;
2024-05-21T20:51:21.594;539518898655295609;474673;574763;403444;-1296;
2024-05-21T20:51:21.612;539518898673458424;474812;574917;403563;-1276;
2024-05-21T20:51:21.630;539518898691621211;474828;574996;403569;-1289;
2024-05-21T20:51:21.649;539518898709783998;474895;575101;403689;-1257;
2024-05-21T20:51:21.667;539518898727946785;475042;575165;403733;-1311;
2024-05-21T20:51:21.685;539518898746109572;475177;575354;403778;-1305;
2024-05-21T20:51:21.703;539518898764272359;475312;575537;403898;-1303;
2024-05-21T20:51:21.721;539518898782435146;475452;575614;404051;-1262;
2024-05-21T20:51:21.739;539518898800597933;475510;575731;404115;-1290;
2024-05-21T20:51:21.757;539518898818760720;475675;575780;404210;-1299;
2024-05-21T20:51:21.776;539518898836923507;475815;575959;404372;-1300;
2024-05-21T20:51:21.794;539518898855086294;475917;576139;404483;-1328;
2024-05-21T20:51:21.812;539518898873249081;476055;576322;404541;-1291;
2024-05-21T20:51:21.830;539518898891411868;476217;576344;404634;-1290;
2024-05-21T20:51:21.848;539518898909574655;476151;576354;404576;-1338;
2024-05-21T20:51:21.866;539518898927737442;475993;576139;404388;-1309;
2024-05-21T20:51:21.885;539518898945900229;475728;575811;404067;-1335;
2024-05-21T20:51:21.903;539518898964063016;475453;575499;403895;-1302;
2024-05-21T20:51:21.921;539518898982225803;475174;575131;403634;-1372;
2024-05-21T20:51:21.939;539518899000388590;474876;574755;403389;-1286;
2024-05-21T20:51:21.957;539518899018551377;474612;574516;403211;-1346;
2024-05-21T20:51:21.975;539518899036714164;474380;574231;403076;-1334;
2024-05-21T20:51:21.994;539518899054876951;474286;574211;403026;-1303;
2024-05-21T20:51:22.012;539518899073039738;474286;574160;402933;-1301;
2024-05-21T20:51:22.030;539518899091202525;474299;574180;402910;-1274;
2024-05-21T20:51:22.048;539518899109365312;474391;574205;403020;-1323;
2024-05-21T20:51:22.066;539518899127528099;474457;574375;403182;-1338;
2024-05-21T20:51:22.084;539518899145690886;474584;574529;403238;-1342;
2024-05-21T20:51:22.103;539518899163853673;474764;574671;403450;-1375;
2024-05-21T20:51:22.121;539518899182016460;474930;574887;403576;-1325;
2024-05-21T20:51:22.139;539518899200179247;475059;575034;403683;-1346;
2024-05-21T20:51:22.157;539518899218342034;475230;575174;403806;-1287;
2024-05-21T20:51:22.175;539518899236504821;475256;575324;403903;-1301;
2024-05-21T20:51:22.193;539518899254667608;475434;575493;404024;-1336;
2024-05-21T20:51:22.212;539518899272830395;475563;575623;404114;-1244;
2024-05-21T20:51:22.230;539518899290993182;475569;575667;404099;-1297;
2024-05-21T20:51:22.248;539518899309155969;475693;575785;404250;-1290;
2024-05-21T20:51:22.266;539518899327318756;475764;575796;404273;-1284;
2024-05-21T20:51:22.284;539518899345481543;475851;575940;404327;-1317;
2024-05-21T20:51:22.302;539518899363644330;475993;576078;404370;-1343;
2024-05-21T20:51:22.321;539518899381807117;476052;576124;404458;-1361;
2024-05-21T20:51:22.339;539518899399969904;476113;576253;404548;-1321;
2024-05-21T20:51:22.357;539518899418132691;476224;576378;404690;-1284;
2024-05-21T20:51:22.375;539518899436295506;476291;576378;404731;-1346;
2024-05-21T20:51:22.393;539518899454458293;476419;576629;404829;-1313;
2024-05-21T20:51:22.411;539518899472621080;476522;576706;404915;-1378;
2024-05-21T20:51:22.430;539518899490783867;476715;576842;405063;-1312;
2024-05-21T20:51:22.448;539518899508946654;476762;576863;405098;-1371;
2024-05-21T20:51:22.466;539518899527109441;476807;576959;405097;-1335;
2024-05-21T20:51:22.484;539518899545272228;476711;576768;404933;-1350;
2024-05-21T20:51:22.502;539518899563435015;476474;576525;404707;-1353;
2024-05-21T20:51:22.520;539518899581597802;476185;576277;404471;-1323;
2024-05-21T20:51:22.538;539518899599760589;475842;575783;404188;-1341;
2024-05-21T20:51:22.557;539518899617923376;475567;575552;404022;-1368;
2024-05-21T20:51:22.575;539518899636086163;475327;575189;403754;-1352;
2024-05-21T20:51:22.593;539518899654248950;475190;575068;403672;-1328;
2024-05-21T20:51:22.611;539518899672411737;475078;574853;403548;-1356;
2024-05-21T20:51:22.629;539518899690574524;475033;574898;403488;-1262;
2024-05-21T20:51:22.647;539518899708737311;475085;574903;403523;-1295;
2024-05-21T20:51:22.666;539518899726900098;475160;575053;403642;-1276;
2024-05-21T20:51:22.684;539518899745062885;475271;575154;403787;-1301;
2024-05-21T20:51:22.702;539518899763225672;475437;575314;403903;-1244;
2024-05-21T20:51:22.720;539518899781388459;475609;575526;404016;-1295;
2024-05-21T20:51:22.738;539518899799551246;475733;575715;404115;-1296;
2024-05-21T20:51:22.756;539518899817714033;475900;575880;404377;-1376;
2024-05-21T20:51:22.775;539518899835876820;476054;576023;404401;-1314;
2024-05-21T20:51:22.793;539518899854039607;476182;576228;404541;-1345;
2024-05-21T20:51:22.811;539518899872202394;476323;576423;404620;-1302;
2024-05-21T20:51:22.829;539518899890365181;476454;576514;404822;-1256;
2024-05-21T20:51:22.847;539518899908527968;476550;576627;404856;-1305;
2024-05-21T20:51:22.865;539518899926690755;476665;576690;404953;-1277;
2024-05-21T20:51:22.884;539518899944853542;476710;576801;405030;-1273;
2024-05-21T20:51:22.902;539518899963016329;476712;576869;405052;-1343;
2024-05-21T20:51:22.920;539518899981179116;476819;576996;405105;-1313;
2024-05-21T20:51:22.938;539518899999341903;476962;577076;405222;-1304;
2024-05-21T20:51:22.956;539518900017504690;477021;577162;405254;-1286;
2024-05-21T20:51:22.974;539518900035667477;477132;577283;405302;-1307;
2024-05-21T20:51:22.993;539518900053830264;477169;577370;405397;-1300;
2024-05-21T20:51:23.011;539518900071993051;477247;577472;405462;-1305;
2024-05-21T20:51:23.029;539518900090155838;477363;577584;405562;-1282;
2024-05-21T20:51:23.047;539518900108318625;477416;577651;405582;-1260;
2024-05-21T20:51:23.065;539518900126481412;477401;577552;405503;-1282;
2024-05-21T20:51:23.083;539518900144644199;477213;577367;405349;-1296;
2024-05-21T20:51:23.102;539518900162806986;476940;577022;405102;-1335;
2024-05-21T20:51:23.120;539518900180969773;476619;576646;404736;-1304;
2024-05-21T20:51:23.138;539518900199133299;476342;576331;404505;-1318;
2024-05-21T20:51:23.156;539518900217296813;476039;575932;404222;-1296;
2024-05-21T20:51:23.174;539518900235460327;475824;575752;404077;-1301;
2024-05-21T20:51:23.192;539518900253623841;475741;575552;404015;-1318;
2024-05-21T20:51:23.211;539518900271787355;475578;575419;403904;-1333;
2024-05-21T20:51:23.229;539518900289950869;475515;575387;403972;-1302;
2024-05-21T20:51:23.247;539518900308114383;475585;575464;404001;-1270;
2024-05-21T20:51:23.265;539518900326277897;475640;575565;404097;-1293;
2024-05-21T20:51:23.283;539518900344441411;475748;575708;404114;-1316;
2024-05-21T20:51:23.301;539518900362604925;475868;575873;404256;-1343;
2024-05-21T20:51:23.319;539518900380768439;476047;575975;404340;-1325;
2024-05-21T20:51:23.338;539518900398931953;476096;576176;404441;-1348;
2024-05-21T20:51:23.356;539518900417095467;476295;576293;404601;-1314;
2024-05-21T20:51:23.374;539518900435258981;476316;576420;404652;-1308;
2024-05-21T20:51:23.392;539518900453422495;476465;576503;404778;-1278;
2024-05-21T20:51:23.410;539518900471586009;476487;576535;404864;-1285;
2024-05-21T20:51:23.428;539518900489749523;476528;576687;404931;-1274;
2024-05-21T20:51:23.447;539518900507913037;476587;576693;404964;-1289;
2024-05-21T20:51:23.465;539518900526076551;476704;576714;405026;-1289;
2024-05-21T20:51:23.483;539518900544240065;476786;576862;405040;-1274;
2024-05-21T20:51:23.501;539518900562403579;476818;576876;405057;-1310;
2024-05-21T20:51:23.519;539518900580567093;476872;576898;405110;-1262;
2024-05-21T20:51:23.537;539518900598730607;476900;576937;405126;-1290;
2024-05-21T20:51:23.556;539518900616894121;476933;576975;405139;-1233;
2024-05-21T20:51:23.574;539518900635057635;477014;577038;405197;-1286;
2024-05-21T20:51:23.592;539518900653221149;477087;577202;405256;-1311;
2024-05-21T20:51:23.610;539518900671384663;477133;577167;405302;-1292;
2024-05-21T20:51:23.628;539518900689548177;477139;577143;405372;-1308;
2024-05-21T20:51:23.646;539518900707711691;477055;577101;405197;-1300;
2024-05-21T20:51:23.665;539518900725875205;476815;576844;404937;-1312;
2024-05-21T20:51:23.683;539518900744038719;476538;576537;404672;-1279;
2024-05-21T20:51:23.701;539518900762202233;476208;576079;404356;-1285;
2024-05-21T20:51:23.719;539518900780365747;475824;575627;404000;-1242;
2024-05-21T20:51:23.737;539518900798529261;475515;575234;403686;-1301;
2024-05-21T20:51:23.755;539518900816692775;475185;574880;403509;-1293;
2024-05-21T20:51:23.774;539518900834856289;475012;574748;403377;-1272;
2024-05-21T20:51:23.792;539518900853019803;474765;574597;403240;-1358;
2024-05-21T20:51:23.810;539518900871183317;474750;574543;403195;-1289;
2024-05-21T20:51:23.828;539518900889346831;474693;574504;403256;-1311;
2024-05-21T20:51:23.846;539518900907510345;474793;574587;403313;-1269;
2024-05-21T20:51:23.864;539518900925673859;474819;574684;403456;-1344;
2024-05-21T20:51:23.883;539518900943837373;474994;574809;403496;-1266;
2024-05-21T20:51:23.901;539518900962000188;475079;575018;403641;-1260;
2024-05-21T20:51:23.919;539518900980162975;475268;575144;403819;-1305;
2024-05-21T20:51:23.937;539518900998325762;475396;575304;403960;-1306;
2024-05-21T20:51:23.955;539518901016488549;475432;575377;403954;-1336;
2024-05-21T20:51:23.973;539518901034651336;475652;575575;404120;-1303;
2024-05-21T20:51:23.992;539518901052814123;475720;575710;404178;-1309;
2024-05-21T20:51:24.010;539518901070976910;475848;575845;404293;-1317;
2024-05-21T20:51:24.028;539518901089139697;475884;575940;404316;-1333;
2024-05-21T20:51:24.046;539518901107302484;475918;575991;404344;-1287;
2024-05-21T20:51:24.064;539518901125465271;476015;576085;404437;-1358;
2024-05-21T20:51:24.082;539518901143628058;476043;576213;404495;-1365;
2024-05-21T20:51:24.101;539518901161790845;476171;576278;404565;-1330;
2024-05-21T20:51:24.119;539518901179953632;476261;576372;404583;-1322;
2024-05-21T20:51:24.137;539518901198116419;476302;576456;404645;-1346;
2024-05-21T20:51:24.155;539518901216279206;476390;576515;404702;-1357;
2024-05-21T20:51:24.173;539518901234441993;476498;576675;404834;-1306;
2024-05-21T20:51:24.191;539518901252604780;476606;576675;404821;-1396;
2024-05-21T20:51:24.209;539518901270767567;476617;576672;404885;-1373;
2024-05-21T20:51:24.228;539518901288930354;476551;576623;404724;-1296;
2024-05-21T20:51:24.246;539518901307093141;476301;576368;404580;-1345;
2024-05-21T20:51:24.264;539518901325255928;476041;576034;404308;-1344;
2024-05-21T20:51:24.282;539518901343418715;475634;575625;403893;-1337;
2024-05-21T20:51:24.300;539518901361581502;475392;575336;403579;-1317;
2024-05-21T20:51:24.318;539518901379744289;475010;574911;403293;-1313;
2024-05-21T20:51:24.337;539518901397907076;474758;574667;403098;-1286;
2024-05-21T20:51:24.355;539518901416069863;474557;574455;402989;-1322;
2024-05-21T20:51:24.373;539518901434232650;474434;574297;402808;-1267;
2024-05-21T20:51:24.391;539518901452395437;474349;574304;402859;-1345;
2024-05-21T20:51:24.409;539518901470558224;474412;574275;402951;-1354;
2024-05-21T20:51:24.427;539518901488721011;474493;574400;402963;-1301;
2024-05-21T20:51:24.446;539518901506883798;474614;574546;403069;-1346;
2024-05-21T20:51:24.464;539518901525046585;474740;574735;403198;-1318;
2024-05-21T20:51:24.482;539518901543209372;474839;574886;403387;-1343;
2024-05-21T20:51:24.500;539518901561372159;475076;575072;403535;-1263;
2024-05-21T20:51:24.518;539518901579534946;475160;575247;403579;-1268;
2024-05-21T20:51:24.536;539518901597697733;475313;575440;403719;-1245;
2024-05-21T20:51:24.555;539518901615860520;475465;575611;403854;-1270;
2024-05-21T20:51:24.573;539518901634023307;475545;575668;403929;-1250;
2024-05-21T20:51:24.591;539518901652186094;475581;575815;404027;-1235;
2024-05-21T20:51:24.609;539518901670348881;475698;575916;404064;-1254;
2024-05-21T20:51:24.627;539518901688511668;475687;575936;404099;-1317;
2024-05-21T20:51:24.645;539518901706674455;475816;576033;404229;-1356;
2024-05-21T20:51:24.664;539518901724836073;475910;576125;404264;-1294;
2024-05-21T20:51:24.682;539518901742997661;475975;576292;404356;-1324;
2024-05-21T20:51:24.700;539518901761159249;476055;576248;404340;-1333;
2024-05-21T20:51:24.718;539518901779320837;476138;576457;404388;-1293;
2024-05-21T20:51:24.736;539518901797482425;476206;576503;404417;-1326;
2024-05-21T20:51:24.754;539518901815644013;476310;576621;404497;-1282;
2024-05-21T20:51:24.773;539518901833805601;476433;576761;404586;-1271;
2024-05-21T20:51:24.791;539518901851967189;476397;576716;404538;-1277;
2024-05-21T20:51:24.809;539518901870128777;476301;576564;404496;-1271;
2024-05-21T20:51:24.827;539518901888290365;476032;576259;404238;-1279;
2024-05-21T20:51:24.845;539518901906451953;475748;575921;403898;-1274;
2024-05-21T20:51:24.863;539518901924613541;475458;575561;403636;-1306;
2024-05-21T20:51:24.882;539518901942775129;474958;575063;403282;-1321;
2024-05-21T20:51:24.900;539518901960936717;474585;574704;402936;-1291;
