Phone timestamp;sensor timestamp [ns];channel 0;channel 1;channel 2;ambient
2024-05-22T19:30:24.447;539600441799751455;450379;447174;342805;-1396;
2024-05-22T19:30:24.465;539600441817919038;450557;447408;342998;-1483;
2024-05-22T19:30:24.483;539600441836086621;450851;447559;343171;-1407;
2024-05-22T19:30:24.501;539600441854254204;451060;447742;343233;-1404;
2024-05-22T19:30:24.519;539600441872421787;451204;447915;343438;-1447;
2024-05-22T19:30:24.537;539600441890589370;451434;448097;343497;-1393;
2024-05-22T19:30:24.556;539600441908756953;451538;448160;343618;-1419;
2024-05-22T19:30:24.574;539600441926924536;451654;448317;343816;-1365;
2024-05-22T19:30:24.592;539600441945092119;451758;448394;343815;-1464;
2024-05-22T19:30:24.610;539600441963259702;451883;448549;343915;-1460;
2024-05-22T19:30:24.628;539600441981427285;452013;448672;344038;-1445;
2024-05-22T19:30:24.646;539600441999594868;452185;448842;344092;-1413;
2024-05-22T19:30:24.665;539600442017762451;452085;448833;344131;-1440;
2024-05-22T19:30:24.683;539600442035930034;452023;448684;344021;-1422;
2024-05-22T19:30:24.701;539600442054097617;451668;448338;343837;-1453;
2024-05-22T19:30:24.719;539600442072265200;451269;448012;343478;-1447;
2024-05-22T19:30:24.737;539600442090432783;450839;447603;343141;-1433;
2024-05-22T19:30:24.755;539600442108600366;450374;447209;342900;-1393;
2024-05-22T19:30:24.774;539600442126767949;450060;446843;342548;-1404;
2024-05-22T19:30:24.792;539600442144935532;449859;446613;342382;-1462;
2024-05-22T19:30:24.810;539600442163103115;449711;446546;342198;-1479;
2024-05-22T19:30:24.828;539600442181270698;449690;446441;342284;-1412;
2024-05-22T19:30:24.846;539600442199438281;449813;446469;342295;-1400;
2024-05-22T19:30:24.864;539600442217605864;449946;446586;342424;-1378;
2024-05-22T19:30:24.883;539600442235773447;450139;446730;342585;-1425;
2024-05-22T19:30:24.901;539600442253941030;450371;446923;342742;-1399;
2024-05-22T19:30:24.919;539600442272108613;450571;447066;342882;-1442;
2024-05-22T19:30:24.937;539600442290276196;450788;447297;343058;-1431;
2024-05-22T19:30:24.955;539600442308443779;450949;447481;343252;-1413;
2024-05-22T19:30:24.973;539600442326611362;451166;447627;343371;-1424;
2024-05-22T19:30:24.992;539600442344778945;451352;447807;343496;-1416;
2024-05-22T19:30:25.010;539600442362946528;451543;447918;343592;-1405;
2024-05-22T19:30:25.028;539600442381114111;451691;448050;343806;-1379;
2024-05-22T19:30:25.046;539600442399281694;451837;448235;343888;-1434;
2024-05-22T19:30:25.064;539600442417449277;451979;448439;344015;-1398;
2024-05-22T19:30:25.082;539600442435616860;452105;448528;344086;-1407;
2024-05-22T19:30:25.101;539600442453784443;452222;448628;344197;-1449;
2024-05-22T19:30:25.119;539600442471952026;452369;448774;344369;-1403;
2024-05-22T19:30:25.137;539600442490119609;452450;448918;344401;-1399;
2024-05-22T19:30:25.155;539600442508287192;452469;448897;344409;-1490;
2024-05-22T19:30:25.173;539600442526454781;452299;448805;344244;-1394;
2024-05-22T19:30:25.191;539600442544622364;451904;448499;344025;-1394;
2024-05-22T19:30:25.210;539600442562789947;451376;448068;343618;-1375;
2024-05-22T19:30:25.228;539600442580957530;450890;447617;343271;-1415;
2024-05-22T19:30:25.246;539600442599125113;450367;447246;342959;-1376;
2024-05-22T19:30:25.264;539600442617292696;449998;446955;342693;-1433;
2024-05-22T19:30:25.282;539600442635460279;449758;446660;342485;-1396;
2024-05-22T19:30:25.300;539600442653627862;449708;446536;342422;-1403;
2024-05-22T19:30:25.319;539600442671795445;449694;446508;342382;-1337;
2024-05-22T19:30:25.337;539600442689963028;449709;446521;342385;-1420;
2024-05-22T19:30:25.355;539600442708130611;449840;446690;342527;-1354;
2024-05-22T19:30:25.373;539600442726298194;449989;446834;342715;-1375;
2024-05-22T19:30:25.391;539600442744465777;450160;446963;342786;-1413;
2024-05-22T19:30:25.409;539600442762633360;450393;447110;342916;-1412;
2024-05-22T19:30:25.428;539600442780800943;450600;447315;343103;-1391;
2024-05-22T19:30:25.446;539600442798968526;450763;447524;343334;-1395;
2024-05-22T19:30:25.464;539600442817136109;450916;447758;343393;-1423;
2024-05-22T19:30:25.482;539600442835303692;451028;447989;343537;-1408;
2024-05-22T19:30:25.500;539600442853471275;451251;448093;343678;-1394;
2024-05-22T19:30:25.518;539600442871638858;451424;448203;343817;-1423;
2024-05-22T19:30:25.537;539600442889806441;451469;448390;343866;-1338;
2024-05-22T19:30:25.555;539600442907974024;451572;448506;343930;-1421;
2024-05-22T19:30:25.573;539600442926141607;451708;448587;344063;-1373;
2024-05-22T19:30:25.591;539600442944309190;451844;448678;344161;-1394;
2024-05-22T19:30:25.609;539600442962476773;451924;448745;344214;-1399;
2024-05-22T19:30:25.627;539600442980644356;451964;448860;344264;-1390;
2024-05-22T19:30:25.646;539600442998811939;451926;448836;344233;-1354;
2024-05-22T19:30:25.664;539600443016979522;451687;448622;344054;-1422;
2024-05-22T19:30:25.682;539600443035147105;451227;448261;343765;-1416;
2024-05-22T19:30:25.700;539600443053314688;450668;447710;343281;-1464;
2024-05-22T19:30:25.718;539600443071482271;450004;447131;342779;-1484;
2024-05-22T19:30:25.736;539600443089649854;449413;446635;342386;-1437;
2024-05-22T19:30:25.755;539600443107817437;448936;446207;342024;-1388;
2024-05-22T19:30:25.773;539600443125985020;448641;445867;341751;-1391;
2024-05-22T19:30:25.791;539600443144152603;448399;445605;341603;-1428;
2024-05-22T19:30:25.809;539600443162321686;448303;445430;341586;-1377;
2024-05-22T19:30:25.827;539600443180490733;448242;445353;341481;-1438;
2024-05-22T19:30:25.845;539600443198659780;448277;445338;341549;-1440;
2024-05-22T19:30:25.864;539600443216828827;448422;445422;341683;-1414;
2024-05-22T19:30:25.882;539600443234997874;448480;445474;341698;-1481;
2024-05-22T19:30:25.900;539600443253166921;448705;445601;341892;-1440;
2024-05-22T19:30:25.918;539600443271335968;448875;445779;342015;-1437;
2024-05-22T19:30:25.936;539600443289505015;449142;445965;342157;-1360;
2024-05-22T19:30:25.954;539600443307674062;449284;446066;342234;-1413;
2024-05-22T19:30:25.973;539600443325843109;449409;446220;342374;-1391;
2024-05-22T19:30:25.991;539600443344012156;449551;446286;342476;-1377;
2024-05-22T19:30:26.009;539600443362181203;449625;446398;342598;-1395;
2024-05-22T19:30:26.027;539600443380350250;449738;446495;342658;-1383;
2024-05-22T19:30:26.045;539600443398519297;449746;446476;342642;-1421;
2024-05-22T19:30:26.063;539600443416688344;449887;446578;342754;-1429;
2024-05-22T19:30:26.082;539600443434857391;449916;446750;342811;-1407;
2024-05-22T19:30:26.100;539600443453026438;450092;446789;342902;-1373;
2024-05-22T19:30:26.118;539600443471195485;450204;446880;342997;-1387;
2024-05-22T19:30:26.136;539600443489364532;450144;446860;343031;-1409;
2024-05-22T19:30:26.154;539600443507533579;450173;446828;342961;-1390;
2024-05-22T19:30:26.172;539600443525702626;449828;446530;342772;-1413;
2024-05-22T19:30:26.191;539600443543871673;449350;446111;342387;-1413;
2024-05-22T19:30:26.209;539600443562040720;448803;445660;341968;-1398;
2024-05-22T19:30:26.227;539600443580209767;448199;445166;341561;-1398;
2024-05-22T19:30:26.245;539600443598378814;447725;444774;341189;-1421;
2024-05-22T19:30:26.263;539600443616547861;447295;444287;340893;-1433;
2024-05-22T19:30:26.281;539600443634716908;447085;444023;340728;-1419;
2024-05-22T19:30:26.300;539600443652885955;446978;443901;340598;-1385;
2024-05-22T19:30:26.318;539600443671055002;446910;443787;340574;-1396;
2024-05-22T19:30:26.336;539600443689224049;446884;443877;340618;-1430;
2024-05-22T19:30:26.354;539600443707393096;447075;443950;340772;-1417;
2024-05-22T19:30:26.372;539600443725562143;447265;444158;340901;-1439;
2024-05-22T19:30:26.390;539600443743731190;447476;444367;340988;-1434;
2024-05-22T19:30:26.409;539600443761900237;447585;444470;341164;-1392;
2024-05-22T19:30:26.427;539600443780069284;447870;444648;341370;-1375;
2024-05-22T19:30:26.445;539600443798238331;448050;444887;341515;-1407;
2024-05-22T19:30:26.463;539600443816407378;448236;445117;341713;-1358;
2024-05-22T19:30:26.481;539600443834576425;448366;445255;341802;-1431;
2024-05-22T19:30:26.499;539600443852745472;448603;445486;341975;-1341;
2024-05-22T19:30:26.518;539600443870914639;448671;445584;342061;-1406;
2024-05-22T19:30:26.536;539600443889083784;448788;445700;342172;-1390;
2024-05-22T19:30:26.554;539600443907252929;448950;445799;342251;-1388;
2024-05-22T19:30:26.572;539600443925422074;449038;445984;342339;-1386;
2024-05-22T19:30:26.590;539600443943591219;449147;446023;342383;-1420;
2024-05-22T19:30:26.609;539600443961760364;449280;446123;342531;-1407;
2024-05-22T19:30:26.627;539600443979929509;449434;446239;342572;-1420;
2024-05-22T19:30:26.645;539600443998098654;449521;446324;342620;-1448;
2024-05-22T19:30:26.663;539600444016267799;449516;446263;342671;-1409;
2024-05-22T19:30:26.681;539600444034436944;449349;446230;342633;-1377;
2024-05-22T19:30:26.699;539600444052606089;448992;445959;342387;-1399;
2024-05-22T19:30:26.718;539600444070775234;448533;445550;341989;-1389;
2024-05-22T19:30:26.736;539600444088944379;447978;445110;341571;-1415;
2024-05-22T19:30:26.754;539600444107113524;447473;444668;341203;-1414;
2024-05-22T19:30:26.772;539600444125282669;447094;444243;340929;-1405;
2024-05-22T19:30:26.790;539600444143451814;446767;443943;340676;-1460;
2024-05-22T19:30:26.808;539600444161620959;446598;443831;340571;-1398;
2024-05-22T19:30:26.827;539600444179790104;446602;443765;340527;-1393;
2024-05-22T19:30:26.845;539600444197959249;446617;443809;340610;-1426;
2024-05-22T19:30:26.863;539600444216128394;446732;443860;340693;-1404;
2024-05-22T19:30:26.881;539600444234297539;446837;443980;340796;-1432;
2024-05-22T19:30:26.899;539600444252466684;447078;444077;340866;-1475;
2024-05-22T19:30:26.917;539600444270635829;447287;444290;341094;-1465;
2024-05-22T19:30:26.936;539600444288804974;447447;444524;341291;-1442;
2024-05-22T19:30:26.954;539600444306974119;447668;444678;341381;-1388;
2024-05-22T19:30:26.972;539600444325143264;447857;444921;341498;-1473;
2024-05-22T19:30:26.990;539600444343312409;448016;445000;341612;-1471;
2024-05-22T19:30:27.008;539600444361481554;448125;445164;341817;-1472;
2024-05-22T19:30:27.026;539600444379650699;448306;445319;341921;-1373;
2024-05-22T19:30:27.045;539600444397819844;448404;445420;341963;-1430;
2024-05-22T19:30:27.063;539600444415988989;448502;445478;342021;-1427;
2024-05-22T19:30:27.081;539600444434158134;448581;445619;342177;-1414;
2024-05-22T19:30:27.099;539600444452327279;448783;445772;342239;-1412;
2024-05-22T19:30:27.117;539600444470496424;448850;445806;342316;-1405;
2024-05-22T19:30:27.135;539600444488665569;449045;445872;342434;-1431;
2024-05-22T19:30:27.154;539600444506834714;448970;445889;342407;-1430;
2024-05-22T19:30:27.172;539600444525003883;448842;445809;342380;-1437;
2024-05-22T19:30:27.190;539600444543173028;448577;445559;342142;-1442;
2024-05-22T19:30:27.208;539600444561342173;447984;445117;341698;-1420;
2024-05-22T19:30:27.226;539600444579511318;447447;444661;341338;-1441;
2024-05-22T19:30:27.244;539600444597680463;446980;444176;341022;-1409;
2024-05-22T19:30:27.263;539600444615849608;446551;443781;340738;-1430;
2024-05-22T19:30:27.281;539600444634018753;446157;443379;340424;-1436;
2024-05-22T19:30:27.299;539600444652187898;446022;443192;340235;-1462;
2024-05-22T19:30:27.317;539600444670357043;445916;443073;340181;-1419;
2024-05-22T19:30:27.335;539600444688526188;445919;443052;340127;-1439;
2024-05-22T19:30:27.353;539600444706695333;445987;443104;340232;-1439;
2024-05-22T19:30:27.372;539600444724864478;446170;443240;340326;-1356;
2024-05-22T19:30:27.390;539600444743033623;446340;443353;340480;-1405;
2024-05-22T19:30:27.408;539600444761202768;446521;443500;340588;-1449;
2024-05-22T19:30:27.426;539600444779371913;446728;443662;340762;-1409;
2024-05-22T19:30:27.444;539600444797541058;446890;443873;340953;-1364;
2024-05-22T19:30:27.462;539600444815710203;446991;443935;341006;-1439;
2024-05-22T19:30:27.481;539600444833879348;447188;444126;341170;-1407;
2024-05-22T19:30:27.499;539600444852048493;447302;444243;341318;-1470;
2024-05-22T19:30:27.517;539600444870217638;447492;444370;341348;-1464;
2024-05-22T19:30:27.535;539600444888386783;447637;444459;341475;-1411;
2024-05-22T19:30:27.553;539600444906555928;447709;444586;341532;-1428;
2024-05-22T19:30:27.571;539600444924725073;447739;444580;341620;-1438;
2024-05-22T19:30:27.590;539600444942894218;447904;444791;341683;-1413;
2024-05-22T19:30:27.608;539600444961063363;447967;444892;341745;-1444;
2024-05-22T19:30:27.626;539600444979232508;448099;444957;341862;-1423;
2024-05-22T19:30:27.644;539600444997401653;448087;445030;341840;-1449;
2024-05-22T19:30:27.662;539600445015570798;447847;444807;341717;-1500;
2024-05-22T19:30:27.680;539600445033739943;447510;444523;341441;-1430;
2024-05-22T19:30:27.699;539600445051909088;446994;444054;341045;-1409;
2024-05-22T19:30:27.717;539600445070078233;446411;443612;340649;-1487;
2024-05-22T19:30:27.735;539600445088247378;445777;443045;340181;-1482;
2024-05-22T19:30:27.753;539600445106416523;445256;442626;339811;-1466;
2024-05-22T19:30:27.771;539600445124585668;444830;442248;339499;-1415;
2024-05-22T19:30:27.790;539600445142754813;444601;442069;339322;-1440;
2024-05-22T19:30:27.808;539600445160923958;444508;441976;339270;-1434;
2024-05-22T19:30:27.826;539600445179092483;444527;441928;339239;-1447;
2024-05-22T19:30:27.844;539600445197261003;444588;442023;339272;-1425;
2024-05-22T19:30:27.862;539600445215429523;444705;442155;339357;-1476;
2024-05-22T19:30:27.880;539600445233598043;444924;442292;339544;-1429;
2024-05-22T19:30:27.899;539600445251766563;445113;442492;339746;-1417;
2024-05-22T19:30:27.917;539600445269935083;445353;442779;339921;-1433;
2024-05-22T19:30:27.935;539600445288103603;445532;442991;340087;-1356;
2024-05-22T19:30:27.953;539600445306272123;445678;443061;340175;-1456;
2024-05-22T19:30:27.971;539600445324440643;445840;443203;340405;-1378;
2024-05-22T19:30:27.989;539600445342609163;446052;443412;340519;-1390;
2024-05-22T19:30:28.008;539600445360777683;446160;443561;340593;-1394;
2024-05-22T19:30:28.026;539600445378946203;446232;443715;340622;-1463;
2024-05-22T19:30:28.044;539600445397114723;446329;443790;340710;-1430;
2024-05-22T19:30:28.062;539600445415283243;446356;443959;340765;-1441;
2024-05-22T19:30:28.080;539600445433451763;446467;444047;340806;-1421;
2024-05-22T19:30:28.098;539600445451620283;446503;444091;340892;-1430;
2024-05-22T19:30:28.117;539600445469788803;446635;444102;340929;-1462;
2024-05-22T19:30:28.135;539600445487957323;446551;444138;340903;-1419;
2024-05-22T19:30:28.153;539600445506125843;446362;444008;340753;-1459;
2024-05-22T19:30:28.171;539600445524294363;446026;443695;340520;-1437;
2024-05-22T19:30:28.189;539600445542462883;445417;443254;340073;-1432;
2024-05-22T19:30:28.207;539600445560631403;444740;442686;339561;-1425;
2024-05-22T19:30:28.226;539600445578799923;444133;442014;339098;-1380;
2024-05-22T19:30:28.244;539600445596968443;443522;441438;338658;-1442;
2024-05-22T19:30:28.262;539600445615136963;443035;441073;338333;-1360;
2024-05-22T19:30:28.280;539600445633305483;442653;440671;338010;-1377;
2024-05-22T19:30:28.298;539600445651474003;442511;440479;337863;-1434;
2024-05-22T19:30:28.316;539600445669642523;442423;440320;337740;-1442;
2024-05-22T19:30:28.335;539600445687811043;442420;440270;337752;-1426;
2024-05-22T19:30:28.353;539600445705979563;442504;440298;337864;-1382;
2024-05-22T19:30:28.371;539600445724148083;442568;440466;337838;-1382;
2024-05-22T19:30:28.389;539600445742316603;442748;440557;337980;-1404;
2024-05-22T19:30:28.407;539600445760485123;442933;440619;338116;-1419;
2024-05-22T19:30:28.425;539600445778653643;443056;440858;338227;-1465;
2024-05-22T19:30:28.444;539600445796822163;443190;440892;338318;-1468;
2024-05-22T19:30:28.462;539600445814990683;443349;441009;338422;-1406;
2024-05-22T19:30:28.480;539600445833159203;443463;441094;338495;-1455;
2024-05-22T19:30:28.498;539600445851327402;443635;441228;338601;-1371;
2024-05-22T19:30:28.516;539600445869495592;443687;441263;338566;-1423;
2024-05-22T19:30:28.534;539600445887663782;443744;441336;338686;-1438;
2024-05-22T19:30:28.553;539600445905831972;443774;441399;338737;-1487;
2024-05-22T19:30:28.571;539600445924000162;443847;441409;338742;-1450;
2024-05-22T19:30:28.589;539600445942168352;443971;441547;338821;-1411;
2024-05-22T19:30:28.607;539600445960336542;444015;441589;338863;-1419;
2024-05-22T19:30:28.625;539600445978504732;444089;441601;338869;-1411;
2024-05-22T19:30:28.643;539600445996672922;444030;441551;338898;-1424;
2024-05-22T19:30:28.662;539600446014841112;443755;441344;338678;-1380;
2024-05-22T19:30:28.680;539600446033009302;443249;440969;338295;-1412;
2024-05-22T19:30:28.698;539600446051177492;442693;440465;337804;-1442;
2024-05-22T19:30:28.716;539600446069345682;442085;439900;337356;-1448;
2024-05-22T19:30:28.734;539600446087513872;441437;439363;336854;-1459;
2024-05-22T19:30:28.752;539600446105682062;440926;438855;336496;-1456;
2024-05-22T19:30:28.771;539600446123850252;440640;438520;336248;-1460;
2024-05-22T19:30:28.789;539600446142018442;440374;438358;336055;-1461;
2024-05-22T19:30:28.807;539600446160186632;440375;438297;336038;-1362;
2024-05-22T19:30:28.825;539600446178354822;440376;438273;336092;-1399;
2024-05-22T19:30:28.843;539600446196523012;440504;438280;336115;-1410;
2024-05-22T19:30:28.861;539600446214691202;440624;438483;336263;-1421;
2024-05-22T19:30:28.880;539600446232859392;440915;438721;336489;-1396;
2024-05-22T19:30:28.898;539600446251027582;441057;438815;336640;-1404;
2024-05-22T19:30:28.916;539600446269195772;441331;439122;336749;-1439;
2024-05-22T19:30:28.934;539600446287363962;441522;439397;337005;-1454;
2024-05-22T19:30:28.952;539600446305532152;441818;439550;337182;-1378;
2024-05-22T19:30:28.970;539600446323700342;442021;439642;337242;-1441;
2024-05-22T19:30:28.989;539600446341868532;442146;439901;337390;-1398;
2024-05-22T19:30:29.007;539600446360036722;442303;440138;337540;-1379;
2024-05-22T19:30:29.025;539600446378204912;442488;440258;337637;-1342;
2024-05-22T19:30:29.043;539600446396373102;442639;440391;337727;-1398;
2024-05-22T19:30:29.061;539600446414541292;442792;440487;337848;-1390;
2024-05-22T19:30:29.079;539600446432709482;442914;440677;337950;-1405;
2024-05-22T19:30:29.098;539600446450877672;443086;440801;338036;-1348;
2024-05-22T19:30:29.116;539600446469045862;443188;440868;338136;-1388;
2024-05-22T19:30:29.134;539600446487214052;443222;441016;338219;-1386;
2024-05-22T19:30:29.152;539600446505382242;443275;441045;338273;-1369;
2024-05-22T19:30:29.170;539600446523549463;443069;440957;338103;-1416;
2024-05-22T19:30:29.188;539600446541716658;442738;440585;337858;-1376;
2024-05-22T19:30:29.207;539600446559883853;442148;440182;337496;-1379;
2024-05-22T19:30:29.225;539600446578051048;441657;439684;337022;-1370;
2024-05-22T19:30:29.243;539600446596218243;441035;439196;336615;-1410;
2024-05-22T19:30:29.261;539600446614385438;440653;438900;336314;-1352;
2024-05-22T19:30:29.279;539600446632552633;440384;438571;336077;-1403;
2024-05-22T19:30:29.297;539600446650719828;440257;438466;335943;-1400;
2024-05-22T19:30:29.316;539600446668887023;440252;438374;335911;-1380;
2024-05-22T19:30:29.334;539600446687054218;440303;438491;335991;-1321;
2024-05-22T19:30:29.352;539600446705221413;440387;438593;336094;-1386;
2024-05-22T19:30:29.370;539600446723388608;440632;438755;336230;-1404;
2024-05-22T19:30:29.388;539600446741555803;440852;438882;336338;-1388;
2024-05-22T19:30:29.406;539600446759722998;441037;439094;336540;-1398;
2024-05-22T19:30:29.425;539600446777890193;441291;439291;336635;-1410;
2024-05-22T19:30:29.443;539600446796057388;441531;439569;336847;-1375;
2024-05-22T19:30:29.461;539600446814224583;441635;439738;336956;-1385;
2024-05-22T19:30:29.479;539600446832391778;441838;439845;337036;-1392;
2024-05-22T19:30:29.497;539600446850558973;441893;439975;337197;-1416;
2024-05-22T19:30:29.515;539600446868726168;442099;440129;337331;-1342;
2024-05-22T19:30:29.534;539600446886893363;442236;440239;337419;-1375;
2024-05-22T19:30:29.552;539600446905060558;442325;440352;337492;-1360;
2024-05-22T19:30:29.570;539600446923227753;442448;440437;337559;-1357;
2024-05-22T19:30:29.588;539600446941394948;442542;440492;337620;-1388;
2024-05-22T19:30:29.606;539600446959562143;442649;440596;337645;-1358;
2024-05-22T19:30:29.624;539600446977729338;442803;440659;337724;-1360;
2024-05-22T19:30:29.643;539600446995896533;442763;440718;337739;-1427;
2024-05-22T19:30:29.661;539600447014063728;442592;440528;337634;-1376;
2024-05-22T19:30:29.679;539600447032230923;442225;440277;337342;-1417;
2024-05-22T19:30:29.697;539600447050398118;441799;439950;337036;-1340;
2024-05-22T19:30:29.715;539600447068565313;441239;439444;336604;-1400;
2024-05-22T19:30:29.733;539600447086732508;440710;438981;336179;-1413;
2024-05-22T19:30:29.752;539600447104899703;440336;438635;335865;-1354;
2024-05-22T19:30:29.770;539600447123066898;439948;438340;335564;-1405;
2024-05-22T19:30:29.788;539600447141234093;439772;438103;335439;-1413;
2024-05-22T19:30:29.806;539600447159401288;439714;438020;335354;-1406;
2024-05-22T19:30:29.824;539600447177570191;439799;438109;335418;-1393;
2024-05-22T19:30:29.842;539600447195739082;439934;438138;335557;-1397;
2024-05-22T19:30:29.861;539600447213907973;439998;438255;335660;-1403;
2024-05-22T19:30:29.879;539600447232076864;440204;438422;335790;-1387;
2024-05-22T19:30:29.897;539600447250245755;440410;438525;335910;-1383;
2024-05-22T19:30:29.915;539600447268414646;440555;438593;335953;-1316;
2024-05-22T19:30:29.933;539600447286583537;440864;438837;336141;-1352;
2024-05-22T19:30:29.952;539600447304752428;441038;438960;336275;-1381;
2024-05-22T19:30:29.970;539600447322921319;441176;439053;336415;-1368;
2024-05-22T19:30:29.988;539600447341090210;441246;439188;336473;-1376;
2024-05-22T19:30:30.006;539600447359259101;441381;439374;336638;-1421;
2024-05-22T19:30:30.024;539600447377427992;441547;439537;336663;-1402;
2024-05-22T19:30:30.042;539600447395596883;441646;439518;336808;-1428;
2024-05-22T19:30:30.061;539600447413765774;441733;439706;336821;-1432;
2024-05-22T19:30:30.079;539600447431934665;441861;439813;336916;-1397;
2024-05-22T19:30:30.097;539600447450103556;441945;439883;336939;-1380;
2024-05-22T19:30:30.115;539600447468272447;442111;440016;337114;-1353;
2024-05-22T19:30:30.133;539600447486441338;442060;440029;337011;-1363;
2024-05-22T19:30:30.151;539600447504610229;441792;439807;336855;-1407;
2024-05-22T19:30:30.170;539600447522779120;441316;439458;336510;-1394;
2024-05-22T19:30:30.188;539600447540948011;440793;439013;336107;-1396;
2024-05-22T19:30:30.206;539600447559116902;440240;438472;335651;-1389;
2024-05-22T19:30:30.224;539600447577285793;439626;437983;335214;-1394;
2024-05-22T19:30:30.242;539600447595454684;439197;437616;334859;-1369;
2024-05-22T19:30:30.260;539600447613623575;438861;437274;334608;-1396;
2024-05-22T19:30:30.279;539600447631792466;438684;437128;334511;-1346;
2024-05-22T19:30:30.297;539600447649961357;438570;436997;334359;-1407;
2024-05-22T19:30:30.315;539600447668130248;438598;437025;334345;-1391;
2024-05-22T19:30:30.333;539600447686299139;438754;437063;334473;-1348;
2024-05-22T19:30:30.351;539600447704468030;438793;437196;334615;-1403;
2024-05-22T19:30:30.369;539600447722636921;438987;437317;334671;-1419;
2024-05-22T19:30:30.388;539600447740805812;439147;437573;334890;-1412;
2024-05-22T19:30:30.406;539600447758974703;439339;437698;335028;-1436;
2024-05-22T19:30:30.424;539600447777143594;439591;437830;335095;-1431;
2024-05-22T19:30:30.442;539600447795312485;439746;438017;335190;-1391;
2024-05-22T19:30:30.460;539600447813481376;439839;438090;335324;-1393;
2024-05-22T19:30:30.478;539600447831650267;439975;438182;335434;-1440;
2024-05-22T19:30:30.497;539600447849819158;440064;438297;335512;-1331;
2024-05-22T19:30:30.515;539600447867988049;440159;438350;335579;-1389;
2024-05-22T19:30:30.533;539600447886156952;440232;438356;335644;-1370;
2024-05-22T19:30:30.551;539600447904325843;440297;438367;335632;-1403;
2024-05-22T19:30:30.569;539600447922494734;440395;438424;335744;-1434;
2024-05-22T19:30:30.587;539600447940663625;440479;438538;335795;-1392;
2024-05-22T19:30:30.606;539600447958832516;440502;438531;335757;-1416;
2024-05-22T19:30:30.624;539600447977001407;440441;438493;335706;-1430;
2024-05-22T19:30:30.642;539600447995170298;440205;438278;335522;-1394;
2024-05-22T19:30:30.660;539600448013339189;439709;437792;335125;-1380;
2024-05-22T19:30:30.678;539600448031508080;439106;437235;334554;-1427;
2024-05-22T19:30:30.696;539600448049676971;438449;436663;334093;-1365;
2024-05-22T19:30:30.715;539600448067845862;437807;436128;333626;-1392;
2024-05-22T19:30:30.733;539600448086014753;437218;435554;333176;-1436;
2024-05-22T19:30:30.751;539600448104183644;436853;435217;332844;-1411;
2024-05-22T19:30:30.769;539600448122352535;436639;435000;332657;-1369;
2024-05-22T19:30:30.787;539600448140521426;436455;434728;332472;-1363;
2024-05-22T19:30:30.805;539600448158690317;436485;434731;332447;-1390;
2024-05-22T19:30:30.824;539600448176859208;436485;434709;332472;-1352;
2024-05-22T19:30:30.842;539600448195028099;436653;434842;332584;-1316;
2024-05-22T19:30:30.860;539600448213196990;436794;434961;332620;-1326;
2024-05-22T19:30:30.878;539600448231365881;436967;435032;332748;-1309;
2024-05-22T19:30:30.896;539600448249534772;437190;435214;332867;-1368;
2024-05-22T19:30:30.914;539600448267703663;437350;435320;333079;-1371;
2024-05-22T19:30:30.933;539600448285872554;437480;435419;333111;-1371;
2024-05-22T19:30:30.951;539600448304041445;437656;435601;333206;-1339;
2024-05-22T19:30:30.969;539600448322210336;437741;435630;333285;-1388;
2024-05-22T19:30:30.987;539600448340379227;437930;435759;333365;-1320;
2024-05-22T19:30:31.005;539600448358548118;437978;435834;333404;-1354;
2024-05-22T19:30:31.023;539600448376717009;438097;435908;333432;-1344;
2024-05-22T19:30:31.042;539600448394885900;438139;435876;333563;-1392;
2024-05-22T19:30:31.060;539600448413054791;438246;435983;333617;-1359;
2024-05-22T19:30:31.078;539600448431223682;438341;436115;333641;-1359;
2024-05-22T19:30:31.096;539600448449392573;438430;436272;333738;-1322;
2024-05-22T19:30:31.114;539600448467561464;438458;436271;333757;-1330;
2024-05-22T19:30:31.132;539600448485730355;438441;436274;333749;-1362;
2024-05-22T19:30:31.151;539600448503899246;438173;436043;333548;-1342;
2024-05-22T19:30:31.169;539600448522067027;437745;435657;333187;-1396;
2024-05-22T19:30:31.187;539600448540234783;437190;435208;332771;-1327;
2024-05-22T19:30:31.205;539600448558402539;436658;434662;332296;-1383;
2024-05-22T19:30:31.223;539600448576570295;436144;434279;331889;-1365;
2024-05-22T19:30:31.241;539600448594738051;435750;433973;331606;-1381;
2024-05-22T19:30:31.260;539600448612905807;435403;433682;331361;-1423;
2024-05-22T19:30:31.278;539600448631073563;435350;433578;331245;-1416;
2024-05-22T19:30:31.296;539600448649241319;435340;433546;331188;-1445;
2024-05-22T19:30:31.314;539600448667409075;435407;433573;331225;-1425;
2024-05-22T19:30:31.332;539600448685576831;435461;433700;331293;-1386;
2024-05-22T19:30:31.350;539600448703744587;435729;433938;331510;-1404;
2024-05-22T19:30:31.369;539600448721912343;436002;434078;331668;-1406;
2024-05-22T19:30:31.387;539600448740080099;436241;434274;331812;-1417;
2024-05-22T19:30:31.405;539600448758247855;436489;434502;331994;-1380;
2024-05-22T19:30:31.423;539600448776415611;436744;434740;332173;-1429;
2024-05-22T19:30:31.441;539600448794583367;436937;434930;332367;-1411;
2024-05-22T19:30:31.459;539600448812751123;437152;435226;332571;-1394;
2024-05-22T19:30:31.478;539600448830918879;437352;435385;332693;-1355;
2024-05-22T19:30:31.496;539600448849086635;437482;435548;332807;-1358;
2024-05-22T19:30:31.514;539600448867254391;437626;435746;332932;-1331;
2024-05-22T19:30:31.532;539600448885422147;437766;435836;333038;-1354;
2024-05-22T19:30:31.550;539600448903589903;437982;435995;333124;-1381;
2024-05-22T19:30:31.569;539600448921757659;438122;436256;333309;-1357;
2024-05-22T19:30:31.587;539600448939925415;438214;436332;333343;-1333;
2024-05-22T19:30:31.605;539600448958093171;438347;436469;333449;-1383;
2024-05-22T19:30:31.623;539600448976260927;438552;436565;333566;-1428;
2024-05-22T19:30:31.641;539600448994428683;438535;436588;333560;-1376;
2024-05-22T19:30:31.659;539600449012596439;438371;436522;333456;-1371;
2024-05-22T19:30:31.678;539600449030764195;438004;436180;333214;-1391;
2024-05-22T19:30:31.696;539600449048931951;437563;435864;332902;-1451;
2024-05-22T19:30:31.714;539600449067099707;437205;435471;332511;-1397;
2024-05-22T19:30:31.732;539600449085267463;436707;435139;332132;-1373;
2024-05-22T19:30:31.750;539600449103435219;436358;434830;331922;-1370;
2024-05-22T19:30:31.768;539600449121602975;436186;434653;331753;-1359;
2024-05-22T19:30:31.787;539600449139770731;436028;434571;331643;-1414;
2024-05-22T19:30:31.805;539600449157938487;436032;434489;331680;-1444;
2024-05-22T19:30:31.823;539600449176106243;436148;434620;331738;-1440;
2024-05-22T19:30:31.841;539600449194273999;436325;434778;331833;-1438;
2024-05-22T19:30:31.859;539600449212441755;436478;434924;332029;-1391;
2024-05-22T19:30:31.877;539600449230607826;436763;435132;332226;-1408;
2024-05-22T19:30:31.896;539600449248773871;436981;435398;332360;-1371;
2024-05-22T19:30:31.914;539600449266939916;437177;435584;332556;-1439;
2024-05-22T19:30:31.932;539600449285105961;437399;435832;332718;-1411;
2024-05-22T19:30:31.950;539600449303272006;437588;435949;332868;-1414;
2024-05-22T19:30:31.968;539600449321438051;437725;436055;332925;-1409;
2024-05-22T19:30:31.986;539600449339604096;437811;436187;332975;-1449;
2024-05-22T19:30:32.005;539600449357770141;437931;436288;333029;-1426;
2024-05-22T19:30:32.023;539600449375936186;438017;436438;333165;-1396;
2024-05-22T19:30:32.041;539600449394102231;438050;436346;333120;-1433;
2024-05-22T19:30:32.059;539600449412268276;438160;436492;333189;-1415;
2024-05-22T19:30:32.077;539600449430434321;438261;436568;333216;-1447;
2024-05-22T19:30:32.095;539600449448600366;438365;436608;333324;-1410;
2024-05-22T19:30:32.114;539600449466766411;438472;436670;333317;-1396;
2024-05-22T19:30:32.132;539600449484932456;438457;436671;333330;-1344;
2024-05-22T19:30:32.150;539600449503098501;438165;436502;333164;-1388;
2024-05-22T19:30:32.168;539600449521264546;437815;436114;332848;-1391;
2024-05-22T19:30:32.186;539600449539430591;437289;435761;332384;-1369;
2024-05-22T19:30:32.204;539600449557596636;436718;435222;331962;-1348;
2024-05-22T19:30:32.223;539600449575762681;436229;434863;331658;-1378;
2024-05-22T19:30:32.241;539600449593928726;435849;434451;331313;-1383;
2024-05-22T19:30:32.259;539600449612094771;435545;434213;331064;-1438;
2024-05-22T19:30:32.277;539600449630260816;435334;434006;330873;-1473;
2024-05-22T19:30:32.295;539600449648426861;435259;433913;330793;-1380;
2024-05-22T19:30:32.313;539600449666592906;435217;433836;330771;-1438;
2024-05-22T19:30:32.332;539600449684758951;435353;433912;330822;-1375;
2024-05-22T19:30:32.350;539600449702924996;435535;434014;330916;-1351;
2024-05-22T19:30:32.368;539600449721091041;435667;434135;331065;-1407;
2024-05-22T19:30:32.386;539600449739257086;435828;434277;331160;-1425;
2024-05-22T19:30:32.404;539600449757423131;435977;434333;331281;-1409;
2024-05-22T19:30:32.422;539600449775589176;436147;434447;331384;-1408;
2024-05-22T19:30:32.441;539600449793755221;436238;434483;331430;-1429;
2024-05-22T19:30:32.459;539600449811921266;436324;434552;331476;-1416;
2024-05-22T19:30:32.477;539600449830087311;436367;434604;331479;-1432;
2024-05-22T19:30:32.495;539600449848253356;436425;434685;331464;-1395;
2024-05-22T19:30:32.513;539600449866419401;436461;434709;331575;-1408;
2024-05-22T19:30:32.531;539600449884585446;436536;434659;331532;-1400;
2024-05-22T19:30:32.550;539600449902752615;436676;434755;331619;-1377;
2024-05-22T19:30:32.568;539600449920919774;436587;434708;331634;-1411;
2024-05-22T19:30:32.586;539600449939086933;436700;434726;331687;-1428;
2024-05-22T19:30:32.604;539600449957254092;436783;434841;331773;-1382;
2024-05-22T19:30:32.622;539600449975421251;436794;434823;331735;-1426;
2024-05-22T19:30:32.640;539600449993588410;436632;434633;331605;-1362;
2024-05-22T19:30:32.659;539600450011755569;436335;434329;331347;-1364;
2024-05-22T19:30:32.677;539600450029922728;435848;433866;330963;-1417;
2024-05-22T19:30:32.695;539600450048089887;435219;433289;330458;-1364;
2024-05-22T19:30:32.713;539600450066257046;434605;432751;329983;-1395;
2024-05-22T19:30:32.731;539600450084424205;434083;432316;329585;-1396;
2024-05-22T19:30:32.749;539600450102591364;433679;431858;329203;-1402;
2024-05-22T19:30:32.768;539600450120758523;433364;431586;328992;-1414;
2024-05-22T19:30:32.786;539600450138925682;433173;431446;328840;-1380;
2024-05-22T19:30:32.804;539600450157092841;433108;431324;328705;-1399;
2024-05-22T19:30:32.822;539600450175260000;433088;431363;328755;-1493;
2024-05-22T19:30:32.840;539600450193427159;433229;431455;328867;-1436;
2024-05-22T19:30:32.858;539600450211594318;433406;431545;328933;-1449;
2024-05-22T19:30:32.877;539600450229761477;433598;431654;329058;-1382;
2024-05-22T19:30:32.895;539600450247928636;433773;431808;329152;-1434;
2024-05-22T19:30:32.913;539600450266095795;433909;431845;329289;-1446;
2024-05-22T19:30:32.931;539600450284262954;434130;432016;329397;-1429;
2024-05-22T19:30:32.949;539600450302430113;434325;432131;329533;-1375;
2024-05-22T19:30:32.967;539600450320597272;434321;432224;329569;-1398;
2024-05-22T19:30:32.986;539600450338764431;434455;432320;329689;-1357;
2024-05-22T19:30:33.004;539600450356931590;434518;432340;329719;-1370;
2024-05-22T19:30:33.022;539600450375098749;434630;432433;329725;-1355;
2024-05-22T19:30:33.040;539600450393265908;434689;432444;329836;-1405;
2024-05-22T19:30:33.058;539600450411433067;434798;432463;329880;-1395;
2024-05-22T19:30:33.076;539600450429600226;434866;432573;329938;-1364;
2024-05-22T19:30:33.095;539600450447767385;434953;432624;329989;-1408;
2024-05-22T19:30:33.113;539600450465934544;435028;432642;330014;-1404;
2024-05-22T19:30:33.131;539600450484101703;435110;432685;330088;-1436;
2024-05-22T19:30:33.149;539600450502268862;435037;432626;330076;-1396;
2024-05-22T19:30:33.167;539600450520436021;434720;432332;329808;-1443;
2024-05-22T19:30:33.185;539600450538603180;434282;431943;329465;-1350;
2024-05-22T19:30:33.204;539600450556770339;433764;431513;329159;-1411;
2024-05-22T19:30:33.222;539600450574938531;433217;431094;328747;-1338;
2024-05-22T19:30:33.240;539600450593106695;432785;430609;328355;-1434;
2024-05-22T19:30:33.258;539600450611274859;432405;430316;328120;-1399;
2024-05-22T19:30:33.276;539600450629443023;432174;430137;327926;-1445;
2024-05-22T19:30:33.294;539600450647611187;432132;430036;327943;-1350;
2024-05-22T19:30:33.313;539600450665779351;432181;430023;327911;-1376;
2024-05-22T19:30:33.331;539600450683947515;432315;430102;328020;-1403;
2024-05-22T19:30:33.349;539600450702115679;432537;430297;328147;-1338;
2024-05-22T19:30:33.367;539600450720283843;432702;430420;328337;-1386;
2024-05-22T19:30:33.385;539600450738452007;433033;430720;328570;-1406;
2024-05-22T19:30:33.403;539600450756620171;433252;430899;328681;-1422;
2024-05-22T19:30:33.422;539600450774788335;433542;431165;328917;-1373;
2024-05-22T19:30:33.440;539600450792956499;433784;431411;329102;-1373;
2024-05-22T19:30:33.458;539600450811124663;434070;431621;329343;-1360;
2024-05-22T19:30:33.476;539600450829292827;434218;431848;329454;-1361;
2024-05-22T19:30:33.494;539600450847460991;434406;431950;329608;-1410;
2024-05-22T19:30:33.512;539600450865629155;434553;432104;329708;-1383;
2024-05-22T19:30:33.531;539600450883797319;434681;432289;329807;-1406;
2024-05-22T19:30:33.549;539600450901965483;434791;432368;329900;-1395;
2024-05-22T19:30:33.567;539600450920133647;434944;432524;330019;-1424;
2024-05-22T19:30:33.585;539600450938301811;435097;432636;330098;-1449;
2024-05-22T19:30:33.603;539600450956469975;435241;432800;330279;-1387;
2024-05-22T19:30:33.621;539600450974638139;435414;432997;330359;-1408;
2024-05-22T19:30:33.640;539600450992806303;435560;433091;330520;-1424;
2024-05-22T19:30:33.658;539600451010974467;435589;433188;330551;-1412;
2024-05-22T19:30:33.676;539600451029142631;435514;433158;330558;-1405;
2024-05-22T19:30:33.694;539600451047310795;435393;432957;330361;-1400;
2024-05-22T19:30:33.712;539600451065478959;435023;432685;330117;-1390;
2024-05-22T19:30:33.730;539600451083647123;434553;432289;329813;-1375;
2024-05-22T19:30:33.749;539600451101815287;434174;431989;329580;-1400;
2024-05-22T19:30:33.767;539600451119983451;433836;431762;329307;-1386;
2024-05-22T19:30:33.785;539600451138151615;433586;431539;329094;-1376;
2024-05-22T19:30:33.803;539600451156319779;433436;431466;329011;-1354;
2024-05-22T19:30:33.821;539600451174487943;433480;431455;329057;-1426;
2024-05-22T19:30:33.839;539600451192656107;433550;431570;329137;-1405;
2024-05-22T19:30:33.858;539600451210824271;433736;431661;329229;-1410;
2024-05-22T19:30:33.876;539600451228992435;433986;431864;329423;-1342;
2024-05-22T19:30:33.894;539600451247160599;434242;432094;329653;-1360;
2024-05-22T19:30:33.912;539600451265328763;434466;432279;329802;-1444;
2024-05-22T19:30:33.930;539600451283496927;434765;432528;330008;-1408;
2024-05-22T19:30:33.948;539600451301665091;434946;432722;330199;-1404;
2024-05-22T19:30:33.967;539600451319833255;435205;432878;330324;-1410;
2024-05-22T19:30:33.985;539600451338002646;435487;433138;330526;-1432;
2024-05-22T19:30:34.003;539600451356172006;435674;433320;330762;-1343;
2024-05-22T19:30:34.021;539600451374341366;435767;433459;330779;-1400;
2024-05-22T19:30:34.039;539600451392510726;435924;433624;330911;-1393;
2024-05-22T19:30:34.057;539600451410680086;436018;433753;331019;-1355;
2024-05-22T19:30:34.076;539600451428849446;436172;433858;331119;-1440;
2024-05-22T19:30:34.094;539600451447018806;436295;433974;331213;-1390;
2024-05-22T19:30:34.112;539600451465188166;436436;434078;331334;-1399;
2024-05-22T19:30:34.130;539600451483357526;436580;434197;331399;-1420;
2024-05-22T19:30:34.148;539600451501526886;436681;434289;331514;-1374;
2024-05-22T19:30:34.166;539600451519696246;436614;434235;331452;-1404;
2024-05-22T19:30:34.185;539600451537865606;436455;434117;331350;-1427;
2024-05-22T19:30:34.203;539600451556034966;436080;433782;331086;-1415;
2024-05-22T19:30:34.221;539600451574204326;435640;433419;330814;-1371;
2024-05-22T19:30:34.239;539600451592373686;435045;432931;330304;-1387;
2024-05-22T19:30:34.257;539600451610543046;434625;432615;329977;-1347;
2024-05-22T19:30:34.275;539600451628712406;434277;432218;329686;-1409;
2024-05-22T19:30:34.294;539600451646881766;434072;431998;329474;-1426;
2024-05-22T19:30:34.312;539600451665051126;433975;431846;329406;-1369;
2024-05-22T19:30:34.330;539600451683220486;433947;431890;329375;-1379;
2024-05-22T19:30:34.348;539600451701389846;434029;431908;329358;-1396;
2024-05-22T19:30:34.366;539600451719559206;434220;432095;329512;-1370;
2024-05-22T19:30:34.384;539600451737728566;434456;432287;329667;-1363;
2024-05-22T19:30:34.403;539600451755897926;434676;432446;329830;-1348;
2024-05-22T19:30:34.421;539600451774067286;434907;432684;330025;-1357;
2024-05-22T19:30:34.439;539600451792236646;435098;432864;330153;-1385;
2024-05-22T19:30:34.457;539600451810406006;435316;433086;330379;-1400;
2024-05-22T19:30:34.475;539600451828575366;435521;433270;330517;-1428;
2024-05-22T19:30:34.493;539600451846744726;435677;433518;330676;-1378;
2024-05-22T19:30:34.512;539600451864914086;435899;433621;330779;-1375;
2024-05-22T19:30:34.530;539600451883083446;436049;433775;330908;-1329;
2024-05-22T19:30:34.548;539600451901252806;436194;433979;331002;-1372;
2024-05-22T19:30:34.566;539600451919422166;436342;434116;331160;-1352;
2024-05-22T19:30:34.584;539600451937591526;436415;434177;331294;-1403;
2024-05-22T19:30:34.603;539600451955760886;436651;434339;331361;-1360;
2024-05-22T19:30:34.621;539600451973930246;436751;434443;331434;-1386;
2024-05-22T19:30:34.639;539600451992099606;436864;434551;331495;-1436;
2024-05-22T19:30:34.657;539600452010268966;436914;434669;331623;-1426;
2024-05-22T19:30:34.675;539600452028438326;436742;434630;331493;-1399;
2024-05-22T19:30:34.693;539600452046605861;436408;434352;331273;-1372;
2024-05-22T19:30:34.712;539600452064773396;435948;433952;330912;-1403;
2024-05-22T19:30:34.730;539600452082940931;435385;433461;330504;-1362;
2024-05-22T19:30:34.748;539600452101108466;434830;433006;330026;-1395;
2024-05-22T19:30:34.766;539600452119276001;434371;432590;329726;-1352;
2024-05-22T19:30:34.784;539600452137443536;433994;432307;329406;-1421;
2024-05-22T19:30:34.802;539600452155611071;433779;432023;329245;-1354;
2024-05-22T19:30:34.821;539600452173778606;433631;431963;329210;-1374;
2024-05-22T19:30:34.839;539600452191946141;433579;431849;329094;-1403;
2024-05-22T19:30:34.857;539600452210113676;433632;431905;329122;-1400;
2024-05-22T19:30:34.875;539600452228281211;433770;432030;329231;-1408;
2024-05-22T19:30:34.893;539600452246448746;433951;432085;329347;-1407;
2024-05-22T19:30:34.911;539600452264616281;434186;432349;329518;-1395;
2024-05-22T19:30:34.930;539600452282783816;434312;432500;329641;-1386;
2024-05-22T19:30:34.948;539600452300951351;434481;432609;329709;-1434;
2024-05-22T19:30:34.966;539600452319118886;434682;432762;329828;-1439;
2024-05-22T19:30:34.984;539600452337286421;434862;432866;329969;-1426;
2024-05-22T19:30:35.002;539600452355453956;434988;433048;330082;-1378;
2024-05-22T19:30:35.020;539600452373621491;435097;433166;330136;-1376;
2024-05-22T19:30:35.039;539600452391789026;435200;433276;330214;-1409;
2024-05-22T19:30:35.057;539600452409956561;435254;433271;330307;-1362;
2024-05-22T19:30:35.075;539600452428124096;435350;433295;330271;-1359;
2024-05-22T19:30:35.093;539600452446291631;435364;433356;330272;-1380;
2024-05-22T19:30:35.111;539600452464459166;435475;433295;330241;-1373;
2024-05-22T19:30:35.129;539600452482626701;435478;433390;330267;-1357;
2024-05-22T19:30:35.148;539600452500794236;435574;433456;330358;-1316;
2024-05-22T19:30:35.166;539600452518961771;435505;433423;330216;-1330;
2024-05-22T19:30:35.184;539600452537129306;435286;433172;330089;-1380;
2024-05-22T19:30:35.202;539600452555296841;434832;432807;329757;-1382;
2024-05-22T19:30:35.220;539600452573464376;434277;432304;329345;-1383;
2024-05-22T19:30:35.238;539600452591631911;433775;431769;328882;-1412;
2024-05-22T19:30:35.257;539600452609799446;433223;431324;328449;-1395;
2024-05-22T19:30:35.275;539600452627966981;432802;430923;328119;-1405;
2024-05-22T19:30:35.293;539600452646134516;432488;430628;327857;-1351;
2024-05-22T19:30:35.311;539600452664302051;432303;430446;327734;-1385;
2024-05-22T19:30:35.329;539600452682469586;432219;430261;327624;-1487;
2024-05-22T19:30:35.347;539600452700637678;432263;430323;327726;-1425;
2024-05-22T19:30:35.366;539600452718805770;432414;430483;327843;-1409;
2024-05-22T19:30:35.384;539600452736973862;432603;430677;327994;-1398;
2024-05-22T19:30:35.402;539600452755141954;432855;430828;328193;-1421;
2024-05-22T19:30:35.420;539600452773310046;433180;431111;328409;-1412;
2024-05-22T19:30:35.438;539600452791478138;433402;431397;328648;-1422;
2024-05-22T19:30:35.456;539600452809646230;433812;431659;328992;-1324;
2024-05-22T19:30:35.475;539600452827814322;434106;432013;329227;-1324;
2024-05-22T19:30:35.493;539600452845982414;434434;432301;329454;-1325;
2024-05-22T19:30:35.511;539600452864150506;434600;432530;329734;-1378;
2024-05-22T19:30:35.529;539600452882318598;434839;432787;329950;-1373;
2024-05-22T19:30:35.547;539600452900486690;435110;433085;330216;-1416;
2024-05-22T19:30:35.565;539600452918654782;435325;433302;330439;-1345;
2024-05-22T19:30:35.584;539600452936822874;435599;433509;330577;-1363;
2024-05-22T19:30:35.602;539600452954990966;435844;433769;330782;-1350;
2024-05-22T19:30:35.620;539600452973159058;436039;433879;330951;-1350;
2024-05-22T19:30:35.638;539600452991327150;436159;434108;331115;-1351;
2024-05-22T19:30:35.656;539600453009495242;436447;434386;331332;-1357;
2024-05-22T19:30:35.674;539600453027663334;436621;434492;331478;-1397;
2024-05-22T19:30:35.693;539600453045831426;436568;434577;331485;-1407;
2024-05-22T19:30:35.711;539600453063999518;436424;434378;331337;-1386;
2024-05-22T19:30:35.729;539600453082167610;436057;434149;331167;-1369;
2024-05-22T19:30:35.747;539600453100335702;435701;433873;330825;-1397;
2024-05-22T19:30:35.765;539600453118503794;435305;433599;330654;-1377;
2024-05-22T19:30:35.783;539600453136671886;435038;433356;330407;-1437;
2024-05-22T19:30:35.802;539600453154839978;434901;433266;330332;-1408;
2024-05-22T19:30:35.820;539600453173008070;434803;433240;330292;-1436;
2024-05-22T19:30:35.838;539600453191176162;434859;433438;330475;-1398;
2024-05-22T19:30:35.856;539600453209344254;435037;433565;330623;-1413;
2024-05-22T19:30:35.874;539600453227512346;435236;433784;330860;-1446;
2024-05-22T19:30:35.892;539600453245680438;435557;434067;331108;-1355;
2024-05-22T19:30:35.911;539600453263848530;435927;434449;331388;-1368;
2024-05-22T19:30:35.929;539600453282016622;436295;434791;331679;-1342;
2024-05-22T19:30:35.947;539600453300184714;436637;435151;332049;-1354;
2024-05-22T19:30:35.965;539600453318352806;437001;435516;332328;-1386;
2024-05-22T19:30:35.983;539600453336520898;437322;435834;332646;-1333;
2024-05-22T19:30:36.001;539600453354688990;437593;436102;332824;-1393;
2024-05-22T19:30:36.020;539600453372857082;437836;436489;333097;-1355;
2024-05-22T19:30:36.038;539600453391025174;438152;436788;333346;-1320;
2024-05-22T19:30:36.056;539600453409193266;438343;436989;333522;-1335;
2024-05-22T19:30:36.074;539600453427361358;438592;437238;333675;-1354;
2024-05-22T19:30:36.092;539600453445529450;438745;437423;333902;-1398;
2024-05-22T19:30:36.110;539600453463696831;439019;437677;334115;-1425;
2024-05-22T19:30:36.129;539600453481864196;439234;437878;334282;-1429;
2024-05-22T19:30:36.147;539600453500031561;439505;438159;334447;-1388;
2024-05-22T19:30:36.165;539600453518198926;439793;438420;334655;-1339;
2024-05-22T19:30:36.183;539600453536366291;439844;438554;334828;-1393;
2024-05-22T19:30:36.201;539600453554533656;439762;438636;334890;-1383;
2024-05-22T19:30:36.219;539600453572701021;439550;438506;334750;-1431;
2024-05-22T19:30:36.238;539600453590868386;439252;438327;334592;-1412;
2024-05-22T19:30:36.256;539600453609035751;438910;438149;334327;-1407;
2024-05-22T19:30:36.274;539600453627203116;438596;437945;334130;-1445;
2024-05-22T19:30:36.292;539600453645370481;438440;437881;334112;-1424;
2024-05-22T19:30:36.310;539600453663537846;438320;437880;334072;-1406;
2024-05-22T19:30:36.328;539600453681705211;438434;438068;334259;-1434;
2024-05-22T19:30:36.347;539600453699872576;438572;438411;334494;-1417;
2024-05-22T19:30:36.365;539600453718039941;438785;438671;334691;-1414;
2024-05-22T19:30:36.383;539600453736207306;438883;438907;334844;-1400;
2024-05-22T19:30:36.401;539600453754374671;439112;439141;335111;-1426;
2024-05-22T19:30:36.419;539600453772542036;439329;439405;335463;-1421;
2024-05-22T19:30:36.437;539600453790709401;439681;439583;335664;-1427;
2024-05-22T19:30:36.456;539600453808876766;439965;439782;335883;-1406;
2024-05-22T19:30:36.474;539600453827044131;440193;439982;336075;-1402;
2024-05-22T19:30:36.492;539600453845211496;440378;440159;336174;-1407;
2024-05-22T19:30:36.510;539600453863378861;440591;440243;336265;-1423;
2024-05-22T19:30:36.528;539600453881546226;440826;440363;336388;-1385;
2024-05-22T19:30:36.546;539600453899713591;440915;440443;336474;-1379;
2024-05-22T19:30:36.565;539600453917880956;441052;440482;336511;-1382;
2024-05-22T19:30:36.583;539600453936048321;441230;440668;336641;-1417;
2024-05-22T19:30:36.601;539600453954215686;441421;440817;336722;-1373;
2024-05-22T19:30:36.619;539600453972383051;441572;440905;336801;-1383;
2024-05-22T19:30:36.637;539600453990550416;441761;440929;336771;-1411;
2024-05-22T19:30:36.655;539600454008717781;441887;441002;336747;-1393;
2024-05-22T19:30:36.674;539600454026885146;441897;441008;336752;-1388;
2024-05-22T19:30:36.692;539600454045052511;441728;440765;336552;-1350;
2024-05-22T19:30:36.710;539600454063219876;441389;440395;336187;-1411;
2024-05-22T19:30:36.728;539600454081387241;440986;439877;335731;-1385;
2024-05-22T19:30:36.746;539600454099554606;440454;439352;335266;-1434;
2024-05-22T19:30:36.764;539600454117721971;439911;438845;334767;-1425;
2024-05-22T19:30:36.783;539600454135889336;439577;438435;334377;-1423;
2024-05-22T19:30:36.801;539600454154055902;439318;438230;334161;-1364;
2024-05-22T19:30:36.819;539600454172222464;439120;437965;333921;-1426;
2024-05-22T19:30:36.837;539600454190389026;439077;437881;333874;-1422;
2024-05-22T19:30:36.855;539600454208555588;439090;437924;333906;-1398;
2024-05-22T19:30:36.873;539600454226722150;439225;438038;333982;-1411;
2024-05-22T19:30:36.892;539600454244888712;439405;438153;334170;-1429;
2024-05-22T19:30:36.910;539600454263055274;439651;438376;334352;-1411;
2024-05-22T19:30:36.928;539600454281221836;439985;438585;334633;-1443;
2024-05-22T19:30:36.946;539600454299388398;440226;438907;334912;-1382;
2024-05-22T19:30:36.964;539600454317554960;440519;439128;335049;-1417;
2024-05-22T19:30:36.982;539600454335721522;440802;439452;335302;-1379;
2024-05-22T19:30:37.001;539600454353888084;440978;439620;335443;-1348;
2024-05-22T19:30:37.019;539600454372054646;441075;439807;335587;-1423;
2024-05-22T19:30:37.037;539600454390221208;441339;439950;335717;-1409;
2024-05-22T19:30:37.055;539600454408387770;441527;440207;335919;-1373;
2024-05-22T19:30:37.073;539600454426554332;441726;440307;336053;-1389;
2024-05-22T19:30:37.091;539600454444720894;441906;440489;336216;-1388;
2024-05-22T19:30:37.110;539600454462887456;442109;440764;336313;-1409;
2024-05-22T19:30:37.128;539600454481054018;442255;440970;336508;-1462;
2024-05-22T19:30:37.146;539600454499220580;442410;441136;336610;-1411;
2024-05-22T19:30:37.164;539600454517387142;442496;441313;336733;-1428;
2024-05-22T19:30:37.182;539600454535553704;442513;441326;336688;-1414;
2024-05-22T19:30:37.200;539600454553720266;442189;441063;336475;-1431;
2024-05-22T19:30:37.219;539600454571886828;441685;440540;335982;-1430;
2024-05-22T19:30:37.237;539600454590053390;441061;439914;335385;-1428;
2024-05-22T19:30:37.255;539600454608219952;440397;439107;334698;-1415;
2024-05-22T19:30:37.273;539600454626386514;439587;438316;333852;-1474;
2024-05-22T19:30:37.291;539600454644553076;438954;437560;333054;-1423;
2024-05-22T19:30:37.309;539600454662719638;438297;436865;332251;-1387;
2024-05-22T19:30:37.328;539600454680886200;437810;436466;331682;-1448;
2024-05-22T19:30:37.346;539600454699052762;437376;436112;331110;-1454;
2024-05-22T19:30:37.364;539600454717219324;437149;435910;330743;-1403;
2024-05-22T19:30:37.382;539600454735385886;436956;435817;330485;-1406;
2024-05-22T19:30:37.400;539600454753552448;436856;435730;330167;-1422;
2024-05-22T19:30:37.418;539600454771719010;436944;435794;330109;-1393;
2024-05-22T19:30:37.437;539600454789885572;436917;435796;330042;-1415;
2024-05-22T19:30:37.455;539600454808052134;437138;436060;330174;-1397;
2024-05-22T19:30:37.473;539600454826218696;437307;436288;330255;-1405;
2024-05-22T19:30:37.491;539600454844386697;437647;436629;330570;-1423;
2024-05-22T19:30:37.509;539600454862554672;437952;437092;330927;-1390;
2024-05-22T19:30:37.527;539600454880722647;438344;437643;331417;-1394;
2024-05-22T19:30:37.546;539600454898890622;438861;438242;331828;-1385;
2024-05-22T19:30:37.564;539600454917058597;439318;438805;332303;-1438;
2024-05-22T19:30:37.582;539600454935226572;439764;439405;332808;-1409;
2024-05-22T19:30:37.600;539600454953394547;440193;439958;333260;-1399;
2024-05-22T19:30:37.618;539600454971562522;440678;440626;333779;-1378;
2024-05-22T19:30:37.636;539600454989730497;441067;441240;334149;-1395;
2024-05-22T19:30:37.655;539600455007898472;441481;441884;334702;-1403;
2024-05-22T19:30:37.673;539600455026066447;441753;442383;335048;-1396;
2024-05-22T19:30:37.691;539600455044234422;441886;442721;335321;-1420;
2024-05-22T19:30:37.709;539600455062402397;441935;442914;335437;-1411;
2024-05-22T19:30:37.727;539600455080570372;441708;442932;335410;-1453;
2024-05-22T19:30:37.745;539600455098738347;441378;442718;335267;-1408;
2024-05-22T19:30:37.764;539600455116906322;441021;442355;335044;-1378;
2024-05-22T19:30:37.782;539600455135074297;440642;441947;334741;-1337;
2024-05-22T19:30:37.800;539600455153242272;440224;441407;334403;-1406;
2024-05-22T19:30:37.818;539600455171410247;439857;440995;334103;-1393;
2024-05-22T19:30:37.836;539600455189578222;439660;440632;333976;-1350;
2024-05-22T19:30:37.854;539600455207746197;439503;440396;333781;-1399;
2024-05-22T19:30:37.873;539600455225914172;439570;440362;333802;-1404;
2024-05-22T19:30:37.891;539600455244082147;439773;440554;334032;-1375;
2024-05-22T19:30:37.909;539600455262250122;440171;440906;334490;-1402;
2024-05-22T19:30:37.927;539600455280418097;440517;441400;334982;-1393;
2024-05-22T19:30:37.945;539600455298586072;440949;442027;335501;-1404;
2024-05-22T19:30:37.964;539600455316754047;441482;442744;336103;-1387;
2024-05-22T19:30:37.982;539600455334922022;442049;443695;336737;-1402;
2024-05-22T19:30:38.000;539600455353089997;442816;444871;337503;-1390;
2024-05-22T19:30:38.018;539600455371257972;443455;445784;338151;-1454;
2024-05-22T19:30:38.036;539600455389425947;444217;446896;338838;-1426;
2024-05-22T19:30:38.054;539600455407593922;444855;447919;339516;-1405;
2024-05-22T19:30:38.073;539600455425761897;445344;448586;340038;-1374;
2024-05-22T19:30:38.091;539600455443929872;445754;448963;340386;-1440;
2024-05-22T19:30:38.109;539600455462097847;446010;449138;340639;-1400;
2024-05-22T19:30:38.127;539600455480263822;446150;448978;340762;-1434;
2024-05-22T19:30:38.145;539600455498429785;446186;448685;340802;-1487;
2024-05-22T19:30:38.163;539600455516595748;446219;448677;340885;-1400;
2024-05-22T19:30:38.182;539600455534761711;446384;448830;341015;-1386;
2024-05-22T19:30:38.200;539600455552927674;446243;448730;340897;-1377;
2024-05-22T19:30:38.218;539600455571093637;446010;448511;340660;-1396;
2024-05-22T19:30:38.236;539600455589259600;445587;448098;340396;-1378;
2024-05-22T19:30:38.254;539600455607425563;445096;447658;340078;-1420;
2024-05-22T19:30:38.272;539600455625591526;444626;447115;339683;-1383;
2024-05-22T19:30:38.291;539600455643757489;444223;446672;339309;-1403;
2024-05-22T19:30:38.309;539600455661923452;443758;446213;338973;-1392;
2024-05-22T19:30:38.327;539600455680089415;443526;445936;338746;-1369;
2024-05-22T19:30:38.345;539600455698255378;443373;445673;338591;-1440;
2024-05-22T19:30:38.363;539600455716421341;443364;445621;338603;-1355;
2024-05-22T19:30:38.381;539600455734587304;443480;445588;338623;-1391;
2024-05-22T19:30:38.400;539600455752753267;443582;445627;338748;-1421;
2024-05-22T19:30:38.418;539600455770919230;443741;445698;338965;-1399;
2024-05-22T19:30:38.436;539600455789085193;443927;445747;339089;-1419;
2024-05-22T19:30:38.454;539600455807251156;444172;445899;339225;-1390;
2024-05-22T19:30:38.472;539600455825417119;444423;446053;339393;-1381;
2024-05-22T19:30:38.490;539600455843583082;444663;446131;339539;-1347;
2024-05-22T19:30:38.508;539600455861749045;444719;446225;339585;-1414;
2024-05-22T19:30:38.527;539600455879915008;444841;446173;339746;-1363;
2024-05-22T19:30:38.545;539600455898080971;444973;446175;339775;-1427;
2024-05-22T19:30:38.563;539600455916246934;444960;445991;339704;-1423;
2024-05-22T19:30:38.581;539600455934412897;444923;445848;339690;-1402;
2024-05-22T19:30:38.599;539600455952578860;444900;445732;339619;-1466;
2024-05-22T19:30:38.617;539600455970744823;444870;445589;339577;-1383;
2024-05-22T19:30:38.636;539600455988910786;444829;445323;339442;-1391;
2024-05-22T19:30:38.654;539600456007076749;444766;445080;339304;-1411;
2024-05-22T19:30:38.672;539600456025242712;444687;444803;339192;-1396;
2024-05-22T19:30:38.690;539600456043408675;444526;444501;338995;-1427;
2024-05-22T19:30:38.708;539600456061574638;444349;444309;338869;-1428;
2024-05-22T19:30:38.726;539600456079740601;444026;443958;338472;-1377;
2024-05-22T19:30:38.745;539600456097906564;443556;443593;338165;-1399;
2024-05-22T19:30:38.763;539600456116072527;443085;443203;337862;-1373;
2024-05-22T19:30:38.781;539600456134238490;442784;443034;337612;-1382;
2024-05-22T19:30:38.799;539600456152405427;442495;442971;337569;-1372;
2024-05-22T19:30:38.817;539600456170572362;442417;443059;337591;-1365;
2024-05-22T19:30:38.835;539600456188739297;442396;443202;337731;-1408;
2024-05-22T19:30:38.854;539600456206906232;442473;443457;337844;-1387;
2024-05-22T19:30:38.872;539600456225073167;442533;443682;337975;-1386;
2024-05-22T19:30:38.890;539600456243240102;442709;443875;338186;-1359;
2024-05-22T19:30:38.908;539600456261407037;442904;444079;338322;-1382;
2024-05-22T19:30:38.926;539600456279573972;443087;444243;338529;-1395;
2024-05-22T19:30:38.944;539600456297740907;443287;444307;338707;-1372;
2024-05-22T19:30:38.963;539600456315907842;443439;444364;338842;-1348;
2024-05-22T19:30:38.981;539600456334074777;443600;444377;338906;-1403;
2024-05-22T19:30:38.999;539600456352241712;443834;444463;339066;-1351;
2024-05-22T19:30:39.017;539600456370408647;443993;444427;339090;-1359;
2024-05-22T19:30:39.035;539600456388575582;444056;444395;339032;-1419;
2024-05-22T19:30:39.053;539600456406742517;444154;444318;339041;-1379;
2024-05-22T19:30:39.072;539600456424909452;444115;444190;338940;-1399;
2024-05-22T19:30:39.090;539600456443076387;444127;444111;338777;-1346;
2024-05-22T19:30:39.108;539600456461243322;444232;444058;338754;-1412;
2024-05-22T19:30:39.126;539600456479410257;444314;443983;338685;-1421;
2024-05-22T19:30:39.144;539600456497577192;444299;443916;338664;-1427;
2024-05-22T19:30:39.162;539600456515744127;444331;443920;338653;-1446;
2024-05-22T19:30:39.181;539600456533911062;444292;443843;338590;-1458;
2024-05-22T19:30:39.199;539600456552077997;444249;443688;338497;-1361;
2024-05-22T19:30:39.217;539600456570244932;444075;443520;338391;-1379;
2024-05-22T19:30:39.235;539600456588411867;443714;443216;338142;-1438;
2024-05-22T19:30:39.253;539600456606578802;443246;442781;337788;-1392;
2024-05-22T19:30:39.271;539600456624745737;442813;442459;337530;-1362;
2024-05-22T19:30:39.290;539600456642912672;442352;442083;337391;-1391;
2024-05-22T19:30:39.308;539600456661079607;442021;441838;337252;-1391;
2024-05-22T19:30:39.326;539600456679246542;441743;441615;337155;-1402;
2024-05-22T19:30:39.344;539600456697413477;441558;441392;337124;-1372;
2024-05-22T19:30:39.362;539600456715580412;441533;441293;337189;-1360;
2024-05-22T19:30:39.380;539600456733747347;441600;441374;337278;-1431;
2024-05-22T19:30:39.399;539600456751914282;441974;441742;337636;-1382;
2024-05-22T19:30:39.417;539600456770081217;442474;442397;338210;-1413;
2024-05-22T19:30:39.435;539600456788248152;443015;443207;338724;-1348;
2024-05-22T19:30:39.453;539600456806415087;443552;443903;339163;-1425;
2024-05-22T19:30:39.471;539600456824582022;444038;444386;339513;-1419;
2024-05-22T19:30:39.489;539600456842748957;444168;444486;339565;-1433;
2024-05-22T19:30:39.508;539600456860915590;444097;444110;339488;-1404;
2024-05-22T19:30:39.526;539600456879082214;444185;444071;339412;-1381;
2024-05-22T19:30:39.544;539600456897248838;444418;444281;339592;-1412;
2024-05-22T19:30:39.562;539600456915415462;444864;444859;340072;-1365;
2024-05-22T19:30:39.580;539600456933582086;445474;445642;340646;-1381;
2024-05-22T19:30:39.598;539600456951748710;446297;446659;341363;-1385;
2024-05-22T19:30:39.617;539600456969915334;447063;447762;342017;-1382;
2024-05-22T19:30:39.635;539600456988081958;447584;448701;342519;-1446;
2024-05-22T19:30:39.653;539600457006248582;448105;449422;343147;-1378;
2024-05-22T19:30:39.671;539600457024415206;448614;450007;343678;-1362;
2024-05-22T19:30:39.689;539600457042581830;449021;450476;344121;-1417;
2024-05-22T19:30:39.707;539600457060748454;449521;451086;344573;-1360;
2024-05-22T19:30:39.726;539600457078915078;449714;451594;344673;-1439;
2024-05-22T19:30:39.744;539600457097081702;449879;451912;344666;-1393;
2024-05-22T19:30:39.762;539600457115248326;449942;452175;344567;-1390;
2024-05-22T19:30:39.780;539600457133414950;449900;452594;344432;-1450;
2024-05-22T19:30:39.798;539600457151581574;449739;452751;344180;-1456;
2024-05-22T19:30:39.816;539600457169748198;448980;452328;343525;-1397;
2024-05-22T19:30:39.835;539600457187914822;448218;451095;342634;-1314;
2024-05-22T19:30:39.853;539600457206081446;447704;449744;342090;-1392;
2024-05-22T19:30:39.871;539600457224248070;447337;449026;341915;-1359;
2024-05-22T19:30:39.889;539600457242414694;447157;448726;341865;-1383;
2024-05-22T19:30:39.907;539600457260581318;446990;448533;341666;-1412;
2024-05-22T19:30:39.925;539600457278747942;446689;448175;341374;-1406;
2024-05-22T19:30:39.944;539600457296914566;446314;447436;340871;-1369;
2024-05-22T19:30:39.962;539600457315081190;445907;446621;340238;-1391;
2024-05-22T19:30:39.980;539600457333247814;445623;445992;339615;-1386;
2024-05-22T19:30:39.998;539600457351414438;445434;445531;339135;-1393;
2024-05-22T19:30:40.016;539600457369581062;445253;445102;338690;-1377;
2024-05-22T19:30:40.034;539600457387747686;445140;444811;338425;-1417;
2024-05-22T19:30:40.053;539600457405914310;444998;444648;338192;-1390;
2024-05-22T19:30:40.071;539600457424080934;444880;444426;337847;-1389;
2024-05-22T19:30:40.089;539600457442247558;444648;444158;337556;-1389;
2024-05-22T19:30:40.107;539600457460414182;444452;443853;337165;-1359;
2024-05-22T19:30:40.125;539600457478580806;444290;443542;336818;-1426;
2024-05-22T19:30:40.143;539600457496744305;444061;443329;336566;-1343;
2024-05-22T19:30:40.162;539600457514907770;443797;443018;336273;-1456;
2024-05-22T19:30:40.180;539600457533071235;443597;442821;336023;-1446;
2024-05-22T19:30:40.198;539600457551234700;443431;442598;335882;-1372;
2024-05-22T19:30:40.216;539600457569398165;443256;442451;335596;-1375;
2024-05-22T19:30:40.234;539600457587561630;442905;442090;335318;-1321;
2024-05-22T19:30:40.252;539600457605725095;442368;441587;334880;-1339;
2024-05-22T19:30:40.271;539600457623888560;441680;440993;334271;-1334;
2024-05-22T19:30:40.289;539600457642052025;440887;440339;333705;-1353;
2024-05-22T19:30:40.307;539600457660215490;440203;439741;333095;-1433;
2024-05-22T19:30:40.325;539600457678378955;439618;439160;332571;-1341;
2024-05-22T19:30:40.343;539600457696542420;438920;438596;332054;-1345;
2024-05-22T19:30:40.361;539600457714705885;438412;438070;331605;-1365;
2024-05-22T19:30:40.380;539600457732869350;438056;437738;331299;-1404;
2024-05-22T19:30:40.398;539600457751032815;437740;437454;330981;-1411;
2024-05-22T19:30:40.416;539600457769196280;437440;437166;330785;-1374;
2024-05-22T19:30:40.434;539600457787359745;437296;436980;330614;-1397;
2024-05-22T19:30:40.452;539600457805523210;437150;436915;330466;-1333;
2024-05-22T19:30:40.470;539600457823686675;436940;436820;330281;-1382;
2024-05-22T19:30:40.489;539600457841850140;436885;436739;330211;-1403;
2024-05-22T19:30:40.507;539600457860013605;436796;436642;330096;-1437;
2024-05-22T19:30:40.525;539600457878177070;436745;436569;330041;-1415;
2024-05-22T19:30:40.543;539600457896340535;436630;436486;329863;-1399;
2024-05-22T19:30:40.561;539600457914504000;436480;436412;329739;-1461;
2024-05-22T19:30:40.579;539600457932667465;436418;436345;329660;-1434;
2024-05-22T19:30:40.598;539600457950830930;436346;436300;329540;-1449;
2024-05-22T19:30:40.616;539600457968994395;436154;436211;329386;-1387;
2024-05-22T19:30:40.634;539600457987157860;436064;436046;329273;-1407;
2024-05-22T19:30:40.652;539600458005321325;435949;435992;329186;-1442;
2024-05-22T19:30:40.670;539600458023484790;435864;435957;329091;-1397;
2024-05-22T19:30:40.688;539600458041648255;435731;435789;328959;-1436;
2024-05-22T19:30:40.707;539600458059811720;435602;435736;328826;-1426;
2024-05-22T19:30:40.725;539600458077975185;435394;435546;328723;-1392;
2024-05-22T19:30:40.743;539600458096138650;434977;435200;328432;-1402;
2024-05-22T19:30:40.761;539600458114302115;434426;434765;327996;-1371;
2024-05-22T19:30:40.779;539600458132465580;433756;434167;327429;-1372;
2024-05-22T19:30:40.797;539600458150631213;433089;433605;326924;-1394;
2024-05-22T19:30:40.816;539600458168796834;432544;433122;326505;-1382;
2024-05-22T19:30:40.834;539600458186962455;431860;432562;326053;-1370;
2024-05-22T19:30:40.852;539600458205128076;431276;432203;325656;-1361;
2024-05-22T19:30:40.870;539600458223293697;430893;431779;325402;-1420;
2024-05-22T19:30:40.888;539600458241459318;430659;431571;325205;-1427;
2024-05-22T19:30:40.906;539600458259624939;430477;431404;325048;-1416;
2024-05-22T19:30:40.925;539600458277790560;430402;431397;325025;-1409;
2024-05-22T19:30:40.943;539600458295956181;430396;431299;325040;-1422;
2024-05-22T19:30:40.961;539600458314121802;430439;431314;325009;-1411;
2024-05-22T19:30:40.979;539600458332287423;430503;431318;325078;-1369;
2024-05-22T19:30:40.997;539600458350453044;430481;431345;325063;-1344;
2024-05-22T19:30:41.015;539600458368618665;430523;431354;325100;-1419;
2024-05-22T19:30:41.034;539600458386784286;430593;431374;325212;-1420;
2024-05-22T19:30:41.052;539600458404949907;430706;431428;325266;-1453;
2024-05-22T19:30:41.070;539600458423115528;430756;431427;325291;-1458;
2024-05-22T19:30:41.088;539600458441281149;430826;431440;325418;-1447;
2024-05-22T19:30:41.106;539600458459446770;430974;431558;325480;-1364;
2024-05-22T19:30:41.124;539600458477612391;430964;431570;325508;-1378;
2024-05-22T19:30:41.143;539600458495778012;431063;431547;325590;-1380;
2024-05-22T19:30:41.161;539600458513943633;431181;431601;325597;-1398;
2024-05-22T19:30:41.179;539600458532109254;431301;431673;325704;-1422;
2024-05-22T19:30:41.197;539600458550274875;431481;431760;325924;-1329;
2024-05-22T19:30:41.215;539600458568440496;431472;431764;325980;-1311;
2024-05-22T19:30:41.233;539600458586606117;431336;431635;325955;-1347;
2024-05-22T19:30:41.252;539600458604771738;431038;431379;325825;-1333;
2024-05-22T19:30:41.270;539600458622937359;430709;430976;325504;-1331;
2024-05-22T19:30:41.288;539600458641102980;430117;430395;325076;-1352;
2024-05-22T19:30:41.306;539600458659268601;429675;429906;324751;-1403;
2024-05-22T19:30:41.324;539600458677434222;429153;429519;324457;-1391;
2024-05-22T19:30:41.342;539600458695599843;428800;429156;324161;-1354;
2024-05-22T19:30:41.361;539600458713765464;428486;428839;323884;-1410;
2024-05-22T19:30:41.379;539600458731931085;428222;428570;323696;-1410;
2024-05-22T19:30:41.397;539600458750096706;428100;428400;323524;-1394;
2024-05-22T19:30:41.415;539600458768262327;427988;428316;323398;-1376;
2024-05-22T19:30:41.433;539600458786428682;427927;428235;323320;-1344;
2024-05-22T19:30:41.451;539600458804595030;427855;428254;323251;-1387;
2024-05-22T19:30:41.470;539600458822761378;427798;428190;323136;-1415;
2024-05-22T19:30:41.488;539600458840927726;427733;428207;323031;-1462;
2024-05-22T19:30:41.506;539600458859094074;427657;428115;323015;-1429;
2024-05-22T19:30:41.524;539600458877260422;427654;428113;322959;-1374;
2024-05-22T19:30:41.542;539600458895426770;427689;428096;322920;-1391;
2024-05-22T19:30:41.560;539600458913593118;427582;428112;322832;-1463;
2024-05-22T19:30:41.579;539600458931759466;427524;427986;322675;-1458;
2024-05-22T19:30:41.597;539600458949925814;427441;427992;322620;-1439;
2024-05-22T19:30:41.615;539600458968092162;427409;427999;322562;-1415;
2024-05-22T19:30:41.633;539600458986258510;427372;427907;322496;-1481;
2024-05-22T19:30:41.651;539600459004424858;427368;427822;322440;-1379;
2024-05-22T19:30:41.669;539600459022591206;427272;427797;322421;-1398;
2024-05-22T19:30:41.688;539600459040757554;427253;427834;322369;-1428;
2024-05-22T19:30:41.706;539600459058923902;427217;427743;322337;-1432;
2024-05-22T19:30:41.724;539600459077090250;426994;427557;322174;-1397;
2024-05-22T19:30:41.742;539600459095256598;426562;427255;321912;-1397;
2024-05-22T19:30:41.760;539600459113422946;426047;426753;321568;-1368;
2024-05-22T19:30:41.778;539600459131589294;425354;426201;321090;-1375;
2024-05-22T19:30:41.797;539600459149755642;424674;425627;320575;-1429;
2024-05-22T19:30:41.815;539600459167921990;424091;425109;320177;-1468;
2024-05-22T19:30:41.833;539600459186088338;423595;424652;319796;-1442;
2024-05-22T19:30:41.851;539600459204254686;423250;424293;319539;-1385;
2024-05-22T19:30:41.869;539600459222421034;422976;424060;319396;-1362;
2024-05-22T19:30:41.887;539600459240587382;422772;423860;319214;-1371;
2024-05-22T19:30:41.906;539600459258753730;422695;423745;319161;-1395;
2024-05-22T19:30:41.924;539600459276920078;422687;423696;319185;-1475;
2024-05-22T19:30:41.942;539600459295086426;422776;423794;319155;-1471;
2024-05-22T19:30:41.960;539600459313252774;422865;423876;319172;-1441;
2024-05-22T19:30:41.978;539600459331419122;422939;423931;319262;-1427;
2024-05-22T19:30:41.996;539600459349585470;423014;423895;319359;-1440;
2024-05-22T19:30:42.015;539600459367751818;423105;424001;319380;-1413;
2024-05-22T19:30:42.033;539600459385918166;423185;424069;319425;-1347;
2024-05-22T19:30:42.051;539600459404084514;423147;424046;319410;-1467;
2024-05-22T19:30:42.069;539600459422250862;423310;424148;319454;-1377;
2024-05-22T19:30:42.087;539600459440417210;423299;424068;319434;-1451;
2024-05-22T19:30:42.105;539600459458583558;423401;424169;319482;-1373;
2024-05-22T19:30:42.123;539600459476749906;423448;424186;319488;-1436;
2024-05-22T19:30:42.142;539600459494915885;423518;424187;319581;-1465;
2024-05-22T19:30:42.160;539600459513081855;423564;424175;319551;-1458;
2024-05-22T19:30:42.178;539600459531247825;423590;424245;319671;-1450;
2024-05-22T19:30:42.196;539600459549413795;423587;424213;319672;-1430;
2024-05-22T19:30:42.214;539600459567579765;423605;424178;319684;-1396;
2024-05-22T19:30:42.232;539600459585745735;423461;423977;319534;-1456;
2024-05-22T19:30:42.251;539600459603911705;423085;423697;319318;-1379;
2024-05-22T19:30:42.269;539600459622077675;422571;423287;318969;-1353;
2024-05-22T19:30:42.287;539600459640243645;422028;422833;318599;-1429;
2024-05-22T19:30:42.305;539600459658409615;421552;422322;318210;-1432;
2024-05-22T19:30:42.323;539600459676575585;420983;421871;317760;-1457;
2024-05-22T19:30:42.341;539600459694741555;420592;421500;317584;-1371;
2024-05-22T19:30:42.360;539600459712907525;420281;421174;317333;-1325;
2024-05-22T19:30:42.378;539600459731073495;420126;421017;317160;-1357;
2024-05-22T19:30:42.396;539600459749239465;420063;420884;317096;-1354;
2024-05-22T19:30:42.414;539600459767405435;419949;420838;317026;-1431;
2024-05-22T19:30:42.432;539600459785571405;420000;420769;317021;-1361;
2024-05-22T19:30:42.450;539600459803737375;420003;420848;317004;-1425;
2024-05-22T19:30:42.469;539600459821903345;420074;420959;317081;-1420;
2024-05-22T19:30:42.487;539600459840069315;420159;420961;317098;-1438;
2024-05-22T19:30:42.505;539600459858235285;420210;421039;317176;-1411;
2024-05-22T19:30:42.523;539600459876401255;420272;421081;317169;-1431;
2024-05-22T19:30:42.541;539600459894567225;420291;421077;317110;-1352;
2024-05-22T19:30:42.559;539600459912733195;420285;421074;317103;-1369;
2024-05-22T19:30:42.578;539600459930899165;420258;421059;317061;-1421;
2024-05-22T19:30:42.596;539600459949065135;420220;421002;316997;-1425;
2024-05-22T19:30:42.614;539600459967231105;420176;420926;316998;-1393;
2024-05-22T19:30:42.632;539600459985397075;420135;420883;316915;-1427;
2024-05-22T19:30:42.650;539600460003563045;420016;420889;316940;-1431;
2024-05-22T19:30:42.668;539600460021729015;420068;420870;316938;-1410;
2024-05-22T19:30:42.687;539600460039894985;420057;420853;316893;-1382;
2024-05-22T19:30:42.705;539600460058060955;419991;420840;316861;-1445;
2024-05-22T19:30:42.723;539600460076226925;419814;420695;316709;-1454;
2024-05-22T19:30:42.741;539600460094392895;419493;420342;316430;-1413;
2024-05-22T19:30:42.759;539600460112558865;418931;419918;316103;-1398;
2024-05-22T19:30:42.777;539600460130724250;418430;419440;315730;-1329;
2024-05-22T19:30:42.796;539600460148889623;417864;418909;315306;-1328;
2024-05-22T19:30:42.814;539600460167054996;417213;418406;314843;-1396;
2024-05-22T19:30:42.832;539600460185220369;416752;418029;314534;-1379;
2024-05-22T19:30:42.850;539600460203385742;416377;417645;314308;-1413;
2024-05-22T19:30:42.868;539600460221551115;416127;417401;314100;-1425;
2024-05-22T19:30:42.886;539600460239716488;415987;417233;313971;-1406;
2024-05-22T19:30:42.905;539600460257881861;415947;417218;314007;-1399;
2024-05-22T19:30:42.923;539600460276047234;415956;417179;314024;-1391;
2024-05-22T19:30:42.941;539600460294212607;416010;417244;314054;-1442;
2024-05-22T19:30:42.959;539600460312377980;416195;417263;314109;-1409;
2024-05-22T19:30:42.977;539600460330543353;416273;417393;314230;-1449;
2024-05-22T19:30:42.995;539600460348708726;416302;417468;314268;-1420;
2024-05-22T19:30:43.014;539600460366874099;416419;417541;314287;-1402;
2024-05-22T19:30:43.032;539600460385039472;416398;417543;314318;-1428;
2024-05-22T19:30:43.050;539600460403204845;416445;417529;314257;-1451;
2024-05-22T19:30:43.068;539600460421370218;416429;417504;314320;-1371;
2024-05-22T19:30:43.086;539600460439535591;416339;417485;314259;-1423;
2024-05-22T19:30:43.104;539600460457700964;416347;417451;314159;-1408;
2024-05-22T19:30:43.123;539600460475866337;416309;417409;314181;-1407;
2024-05-22T19:30:43.141;539600460494031710;416263;417372;314064;-1442;
2024-05-22T19:30:43.159;539600460512197083;416261;417403;314003;-1419;
2024-05-22T19:30:43.177;539600460530362456;416317;417348;314058;-1423;
2024-05-22T19:30:43.195;539600460548527829;416186;417329;314033;-1437;
2024-05-22T19:30:43.213;539600460566693202;416173;417265;314015;-1381;
2024-05-22T19:30:43.232;539600460584858575;415940;417002;313839;-1398;
2024-05-22T19:30:43.250;539600460603023948;415531;416700;313551;-1393;
2024-05-22T19:30:43.268;539600460621189321;414913;416164;313221;-1375;
2024-05-22T19:30:43.286;539600460639354694;414278;415619;312743;-1448;
2024-05-22T19:30:43.304;539600460657520067;413783;415090;312343;-1421;
2024-05-22T19:30:43.322;539600460675685440;413299;414648;312017;-1421;
2024-05-22T19:30:43.341;539600460693850813;412866;414257;311683;-1395;
2024-05-22T19:30:43.359;539600460712016186;412626;414080;311530;-1424;
2024-05-22T19:30:43.377;539600460730181559;412429;413964;311401;-1388;
2024-05-22T19:30:43.395;539600460748346932;412302;413817;311336;-1440;
2024-05-22T19:30:43.413;539600460766512305;412328;413814;311330;-1415;
2024-05-22T19:30:43.431;539600460784677294;412370;413818;311282;-1387;
2024-05-22T19:30:43.450;539600460802842261;412439;413886;311349;-1412;
2024-05-22T19:30:43.468;539600460821007228;412527;413871;311334;-1389;
2024-05-22T19:30:43.486;539600460839172195;412544;413886;311407;-1379;
2024-05-22T19:30:43.504;539600460857337162;412651;413954;311506;-1394;
2024-05-22T19:30:43.522;539600460875502129;412728;414005;311574;-1391;
2024-05-22T19:30:43.540;539600460893667096;412842;414142;311673;-1378;
2024-05-22T19:30:43.559;539600460911832063;412893;414117;311680;-1372;
2024-05-22T19:30:43.577;539600460929997030;412925;414127;311675;-1420;
2024-05-22T19:30:43.595;539600460948161997;412924;414068;311642;-1404;
2024-05-22T19:30:43.613;539600460966326964;413000;414089;311694;-1443;
2024-05-22T19:30:43.631;539600460984491931;412989;414053;311703;-1436;
2024-05-22T19:30:43.649;539600461002656898;413049;414093;311710;-1408;
2024-05-22T19:30:43.668;539600461020821865;413043;414090;311739;-1414;
2024-05-22T19:30:43.686;539600461038986832;413076;414093;311692;-1370;
2024-05-22T19:30:43.704;539600461057151799;412968;413983;311665;-1402;
2024-05-22T19:30:43.722;539600461075316766;412627;413672;311416;-1353;
2024-05-22T19:30:43.740;539600461093481733;412155;413256;311086;-1375;
2024-05-22T19:30:43.758;539600461111646700;411581;412705;310555;-1422;
2024-05-22T19:30:43.777;539600461129811667;410952;412165;310136;-1424;
2024-05-22T19:30:43.795;539600461147976634;410362;411630;309730;-1425;
2024-05-22T19:30:43.813;539600461166141601;409854;411173;309344;-1387;
2024-05-22T19:30:43.831;539600461184306568;409381;410870;309033;-1392;
2024-05-22T19:30:43.849;539600461202471535;409065;410527;308772;-1397;
2024-05-22T19:30:43.867;539600461220636502;408845;410396;308675;-1342;
2024-05-22T19:30:43.886;539600461238801469;408693;410349;308622;-1337;
2024-05-22T19:30:43.904;539600461256966436;408572;410228;308522;-1360;
2024-05-22T19:30:43.922;539600461275131403;408446;410127;308440;-1398;
2024-05-22T19:30:43.940;539600461293296370;408457;410149;308467;-1381;
2024-05-22T19:30:43.958;539600461311461337;408467;410108;308480;-1391;
2024-05-22T19:30:43.976;539600461329626304;408549;410111;308455;-1311;
2024-05-22T19:30:43.995;539600461347791271;408498;410088;308494;-1434;
2024-05-22T19:30:44.013;539600461365956238;408581;410104;308493;-1365;
2024-05-22T19:30:44.031;539600461384121205;408620;410179;308599;-1363;
2024-05-22T19:30:44.049;539600461402286172;408712;410206;308657;-1330;
2024-05-22T19:30:44.067;539600461420452707;408770;410182;308716;-1364;
2024-05-22T19:30:44.085;539600461438619224;408783;410149;308833;-1388;
2024-05-22T19:30:44.104;539600461456785741;408959;410237;308907;-1392;
2024-05-22T19:30:44.122;539600461474952258;409130;410297;308989;-1355;
2024-05-22T19:30:44.140;539600461493118775;409198;410449;309196;-1338;
2024-05-22T19:30:44.158;539600461511285292;409289;410425;309167;-1385;
2024-05-22T19:30:44.176;539600461529451809;409189;410327;309199;-1429;
2024-05-22T19:30:44.194;539600461547618326;408988;410072;309011;-1414;
2024-05-22T19:30:44.213;539600461565784843;408566;409662;308711;-1428;
2024-05-22T19:30:44.231;539600461583951360;408118;409240;308445;-1385;
2024-05-22T19:30:44.249;539600461602117877;407591;408846;308037;-1409;
2024-05-22T19:30:44.267;539600461620284394;407180;408426;307787;-1343;
2024-05-22T19:30:44.285;539600461638450911;406825;408017;307493;-1369;
2024-05-22T19:30:44.303;539600461656617428;406578;407819;307325;-1419;
2024-05-22T19:30:44.322;539600461674783945;406470;407751;307323;-1412;
2024-05-22T19:30:44.340;539600461692950462;406534;407720;307289;-1368;
2024-05-22T19:30:44.358;539600461711116979;406533;407699;307382;-1381;
2024-05-22T19:30:44.376;539600461729283496;406746;407802;307544;-1345;
2024-05-22T19:30:44.394;539600461747450013;406885;407918;307648;-1338;
2024-05-22T19:30:44.412;539600461765616530;407124;408152;307803;-1368;
2024-05-22T19:30:44.431;539600461783783047;407378;408329;307918;-1398;
2024-05-22T19:30:44.449;539600461801949564;407618;408568;308217;-1390;
2024-05-22T19:30:44.467;539600461820116081;407830;408772;308382;-1357;
2024-05-22T19:30:44.485;539600461838282598;407978;408826;308483;-1412;
2024-05-22T19:30:44.503;539600461856449115;408276;408902;308622;-1387;
2024-05-22T19:30:44.521;539600461874615632;408432;409079;308711;-1434;
2024-05-22T19:30:44.540;539600461892782149;408603;409196;308838;-1396;
2024-05-22T19:30:44.558;539600461910948666;408677;409295;308877;-1415;
2024-05-22T19:30:44.576;539600461929115183;408756;409369;308869;-1429;
2024-05-22T19:30:44.594;539600461947281700;408776;409308;308900;-1372;
2024-05-22T19:30:44.612;539600461965448217;408905;409333;309002;-1393;
2024-05-22T19:30:44.630;539600461983614734;408900;409342;308964;-1443;
2024-05-22T19:30:44.649;539600462001781251;408735;409201;308918;-1402;
2024-05-22T19:30:44.667;539600462019947768;408349;408848;308622;-1391;
2024-05-22T19:30:44.685;539600462038114285;407869;408478;308308;-1425;
2024-05-22T19:30:44.703;539600462056280802;407208;407869;307855;-1428;
2024-05-22T19:30:44.721;539600462074448725;406625;407395;307454;-1387;
2024-05-22T19:30:44.739;539600462092616626;405920;406825;306996;-1377;
2024-05-22T19:30:44.758;539600462110784527;405516;406304;306693;-1361;
2024-05-22T19:30:44.776;539600462128952428;405129;405980;306430;-1394;
2024-05-22T19:30:44.794;539600462147120329;404937;405781;306282;-1325;
2024-05-22T19:30:44.812;539600462165288230;404884;405680;306227;-1348;
2024-05-22T19:30:44.830;539600462183456131;404942;405656;306343;-1376;
2024-05-22T19:30:44.848;539600462201624032;405138;405791;306421;-1417;
2024-05-22T19:30:44.867;539600462219791933;405412;405885;306602;-1391;
2024-05-22T19:30:44.885;539600462237959834;405888;406209;306904;-1337;
2024-05-22T19:30:44.903;539600462256127735;406262;406519;307126;-1380;
2024-05-22T19:30:44.921;539600462274295636;406718;406830;307474;-1352;
2024-05-22T19:30:44.939;539600462292463537;407140;407136;307794;-1330;
2024-05-22T19:30:44.957;539600462310631438;407543;407397;308038;-1394;
2024-05-22T19:30:44.976;539600462328799339;407920;407713;308347;-1370;
2024-05-22T19:30:44.994;539600462346967240;408278;408001;308594;-1359;
2024-05-22T19:30:45.012;539600462365135141;408596;408266;308759;-1388;
2024-05-22T19:30:45.030;539600462383303042;408908;408493;308942;-1380;
2024-05-22T19:30:45.048;539600462401470943;409194;408728;309075;-1360;
2024-05-22T19:30:45.066;539600462419638844;409343;408801;309280;-1449;
2024-05-22T19:30:45.085;539600462437806745;409714;409087;309455;-1396;
2024-05-22T19:30:45.103;539600462455974646;409924;409224;309618;-1345;
2024-05-22T19:30:45.121;539600462474142547;409962;409253;309630;-1331;
2024-05-22T19:30:45.139;539600462492310448;409839;409128;309536;-1412;
2024-05-22T19:30:45.157;539600462510478349;409477;408788;309313;-1415;
2024-05-22T19:30:45.175;539600462528646250;408999;408422;308961;-1344;
2024-05-22T19:30:45.194;539600462546814151;408421;407896;308478;-1372;
2024-05-22T19:30:45.212;539600462564982052;407891;407435;308127;-1394;
2024-05-22T19:30:45.230;539600462583149953;407391;407056;307782;-1346;
2024-05-22T19:30:45.248;539600462601317854;407048;406759;307546;-1376;
2024-05-22T19:30:45.266;539600462619485755;406755;406554;307417;-1363;
2024-05-22T19:30:45.284;539600462637653656;406596;406443;307254;-1360;
2024-05-22T19:30:45.303;539600462655821557;406537;406417;307139;-1388;
2024-05-22T19:30:45.321;539600462673989458;406526;406437;307163;-1426;
2024-05-22T19:30:45.339;539600462692157359;406640;406551;307256;-1413;
2024-05-22T19:30:45.357;539600462710325260;406766;406712;307341;-1400;
2024-05-22T19:30:45.375;539600462728493161;406937;406872;307467;-1393;
2024-05-22T19:30:45.393;539600462746659608;407011;406974;307573;-1443;
2024-05-22T19:30:45.412;539600462764826024;407232;407174;307718;-1354;
2024-05-22T19:30:45.430;539600462782992440;407373;407326;307817;-1415;
2024-05-22T19:30:45.448;539600462801158856;407501;407497;307972;-1397;
2024-05-22T19:30:45.466;539600462819325272;407710;407637;308154;-1421;
2024-05-22T19:30:45.484;539600462837491688;407836;407718;308167;-1394;
2024-05-22T19:30:45.502;539600462855658104;408046;407856;308342;-1368;
2024-05-22T19:30:45.521;539600462873824520;408146;407911;308441;-1370;
2024-05-22T19:30:45.539;539600462891990936;408323;408042;308547;-1340;
2024-05-22T19:30:45.557;539600462910157352;408456;408139;308582;-1419;
2024-05-22T19:30:45.575;539600462928323768;408689;408317;308788;-1390;
2024-05-22T19:30:45.593;539600462946490184;408777;408450;308866;-1432;
2024-05-22T19:30:45.611;539600462964656600;408800;408403;308908;-1393;
2024-05-22T19:30:45.630;539600462982823016;408752;408335;308815;-1362;
2024-05-22T19:30:45.648;539600463000989432;408513;408130;308707;-1327;
2024-05-22T19:30:45.666;539600463019155848;408034;407751;308333;-1371;
2024-05-22T19:30:45.684;539600463037322264;407582;407360;307979;-1393;
2024-05-22T19:30:45.702;539600463055488680;407013;406863;307658;-1470;
2024-05-22T19:30:45.720;539600463073655096;406605;406505;307392;-1424;
2024-05-22T19:30:45.739;539600463091821512;406166;406159;307181;-1334;
2024-05-22T19:30:45.757;539600463109987928;405777;405899;306908;-1412;
2024-05-22T19:30:45.775;539600463128154344;405562;405741;306809;-1398;
2024-05-22T19:30:45.793;539600463146320760;405445;405585;306679;-1404;
2024-05-22T19:30:45.811;539600463164487176;405370;405524;306615;-1370;
2024-05-22T19:30:45.829;539600463182653592;405263;405431;306540;-1377;
2024-05-22T19:30:45.848;539600463200820008;405125;405372;306497;-1400;
2024-05-22T19:30:45.866;539600463218986424;405124;405401;306473;-1377;
2024-05-22T19:30:45.884;539600463237152840;405040;405416;306402;-1421;
2024-05-22T19:30:45.902;539600463255319256;404949;405449;306345;-1426;
2024-05-22T19:30:45.920;539600463273485672;404779;405356;306260;-1409;
2024-05-22T19:30:45.938;539600463291652088;404656;405218;306243;-1421;
2024-05-22T19:30:45.957;539600463309818504;404545;405194;306163;-1454;
2024-05-22T19:30:45.975;539600463327984920;404446;405032;306094;-1396;
2024-05-22T19:30:45.993;539600463346151336;404251;404928;305960;-1439;
2024-05-22T19:30:46.011;539600463364317752;404051;404814;305845;-1373;
2024-05-22T19:30:46.029;539600463382484168;403939;404737;305777;-1374;
2024-05-22T19:30:46.047;539600463400650584;403719;404591;305683;-1428;
2024-05-22T19:30:46.066;539600463418815033;403653;404551;305628;-1397;
2024-05-22T19:30:46.084;539600463436979470;403517;404442;305513;-1368;
2024-05-22T19:30:46.102;539600463455143907;403255;404227;305386;-1336;
2024-05-22T19:30:46.120;539600463473308344;402875;403879;305104;-1334;
2024-05-22T19:30:46.138;539600463491472781;402291;403427;304748;-1415;
2024-05-22T19:30:46.156;539600463509637218;401576;402848;304327;-1421;
2024-05-22T19:30:46.175;539600463527801655;400875;402216;303894;-1419;
2024-05-22T19:30:46.193;539600463545966092;400179;401717;303382;-1406;
2024-05-22T19:30:46.211;539600463564130529;399616;401211;302959;-1344;
2024-05-22T19:30:46.229;539600463582294966;399151;400732;302672;-1371;
2024-05-22T19:30:46.247;539600463600459403;398782;400420;302479;-1321;
2024-05-22T19:30:46.265;539600463618623840;398440;400208;302237;-1425;
2024-05-22T19:30:46.284;539600463636788277;398312;400093;302126;-1421;
2024-05-22T19:30:46.302;539600463654952714;398197;400043;302176;-1374;
2024-05-22T19:30:46.320;539600463673117151;398230;399953;302176;-1393;
2024-05-22T19:30:46.338;539600463691281588;398206;399977;302162;-1346;
2024-05-22T19:30:46.356;539600463709446025;398236;400028;302109;-1390;
2024-05-22T19:30:46.374;539600463727610462;398115;399906;302112;-1400;
2024-05-22T19:30:46.393;539600463745774899;398051;399868;302027;-1403;
2024-05-22T19:30:46.411;539600463763939336;397991;399843;302031;-1402;
2024-05-22T19:30:46.429;539600463782103773;397889;399760;301924;-1414;
2024-05-22T19:30:46.447;539600463800268210;397670;399606;301771;-1426;
2024-05-22T19:30:46.465;539600463818432647;397489;399459;301668;-1425;
2024-05-22T19:30:46.483;539600463836597084;397285;399359;301549;-1464;
2024-05-22T19:30:46.502;539600463854761521;397105;399187;301325;-1419;
2024-05-22T19:30:46.520;539600463872925958;396959;399072;301222;-1408;
2024-05-22T19:30:46.538;539600463891090395;396783;398846;301146;-1417;
2024-05-22T19:30:46.556;539600463909254832;396579;398746;301065;-1429;
2024-05-22T19:30:46.574;539600463927419269;396354;398620;300883;-1362;
2024-05-22T19:30:46.592;539600463945583706;396152;398481;300745;-1464;
2024-05-22T19:30:46.610;539600463963748143;395841;398108;300506;-1444;
2024-05-22T19:30:46.629;539600463981912580;395436;397799;300214;-1395;
2024-05-22T19:30:46.647;539600464000077017;394847;397281;299850;-1446;
2024-05-22T19:30:46.665;539600464018241454;394128;396664;299407;-1470;
2024-05-22T19:30:46.683;539600464036405891;393381;395981;298906;-1442;
2024-05-22T19:30:46.701;539600464054570328;392627;395389;298448;-1428;
2024-05-22T19:30:46.719;539600464072734765;392092;394877;298124;-1382;
2024-05-22T19:30:46.738;539600464090897964;391578;394426;297784;-1424;
2024-05-22T19:30:46.756;539600464109061151;391234;394096;297512;-1420;
2024-05-22T19:30:46.774;539600464127224338;390936;393871;297368;-1399;
2024-05-22T19:30:46.792;539600464145387525;390808;393663;297288;-1393;
2024-05-22T19:30:46.810;539600464163550712;390681;393576;297215;-1342;
2024-05-22T19:30:46.828;539600464181713899;390643;393507;297121;-1390;
2024-05-22T19:30:46.847;539600464199877086;390579;393536;297202;-1370;
2024-05-22T19:30:46.865;539600464218040273;390598;393517;297280;-1407;
2024-05-22T19:30:46.883;539600464236203460;390625;393482;297189;-1365;
2024-05-22T19:30:46.901;539600464254366647;390605;393480;297174;-1410;
2024-05-22T19:30:46.919;539600464272529834;390642;393496;297232;-1284;
2024-05-22T19:30:46.937;539600464290693021;390677;393469;297234;-1383;
2024-05-22T19:30:46.956;539600464308856208;390668;393420;297196;-1406;
2024-05-22T19:30:46.974;539600464327019395;390599;393358;297180;-1410;
2024-05-22T19:30:46.992;539600464345182582;390596;393281;297114;-1436;
2024-05-22T19:30:47.010;539600464363345769;390569;393266;297079;-1427;
2024-05-22T19:30:47.028;539600464381508956;390562;393258;297082;-1398;
2024-05-22T19:30:47.046;539600464399672143;390591;393199;297033;-1415;
2024-05-22T19:30:47.065;539600464417835330;390677;393264;297086;-1406;
2024-05-22T19:30:47.083;539600464435998517;390709;393244;297167;-1378;
2024-05-22T19:30:47.101;539600464454161704;390845;393273;297180;-1423;
2024-05-22T19:30:47.119;539600464472324891;390855;393337;297258;-1388;
2024-05-22T19:30:47.137;539600464490488078;390829;393316;297274;-1340;
2024-05-22T19:30:47.155;539600464508651265;390669;393064;297084;-1385;
2024-05-22T19:30:47.174;539600464526814452;390382;392805;296921;-1359;
2024-05-22T19:30:47.192;539600464544977639;390001;392379;296603;-1427;
2024-05-22T19:30:47.210;539600464563140826;389611;392097;296418;-1398;
2024-05-22T19:30:47.228;539600464581304013;389401;391883;296199;-1399;
2024-05-22T19:30:47.246;539600464599467200;389093;391640;296040;-1419;
2024-05-22T19:30:47.264;539600464617630387;389076;391526;295977;-1468;
2024-05-22T19:30:47.283;539600464635793574;389120;391545;296037;-1415;
2024-05-22T19:30:47.301;539600464653956761;389203;391607;296116;-1388;
2024-05-22T19:30:47.319;539600464672119948;389350;391774;296193;-1421;
2024-05-22T19:30:47.337;539600464690283135;389608;391962;296341;-1496;
2024-05-22T19:30:47.355;539600464708446322;389955;392205;296625;-1426;
2024-05-22T19:30:47.373;539600464726609509;390255;392439;296779;-1436;
2024-05-22T19:30:47.392;539600464744772696;390512;392731;297017;-1459;
2024-05-22T19:30:47.410;539600464762935883;390830;392966;297164;-1408;
2024-05-22T19:30:47.428;539600464781099070;391150;393231;297408;-1380;
2024-05-22T19:30:47.446;539600464799262257;391475;393513;297614;-1414;
2024-05-22T19:30:47.464;539600464817425444;391780;393690;297783;-1433;
2024-05-22T19:30:47.482;539600464835588631;391984;393922;297960;-1436;
2024-05-22T19:30:47.500;539600464853751123;392246;394140;298181;-1457;
2024-05-22T19:30:47.519;539600464871913583;392524;394300;298337;-1478;
2024-05-22T19:30:47.537;539600464890076043;392821;394553;298504;-1470;
2024-05-22T19:30:47.555;539600464908238503;393001;394677;298651;-1507;
2024-05-22T19:30:47.573;539600464926400963;393241;394892;298869;-1479;
2024-05-22T19:30:47.591;539600464944563423;393507;395141;299048;-1424;
2024-05-22T19:30:47.609;539600464962725883;393734;395253;299134;-1436;
2024-05-22T19:30:47.628;539600464980888343;393918;395387;299270;-1447;
2024-05-22T19:30:47.646;539600464999050803;394124;395521;299392;-1495;
2024-05-22T19:30:47.664;539600465017213263;394165;395654;299379;-1426;
2024-05-22T19:30:47.682;539600465035375723;394068;395608;299357;-1413;
2024-05-22T19:30:47.700;539600465053538183;393791;395431;299152;-1405;
2024-05-22T19:30:47.718;539600465071700643;393498;395066;298909;-1430;
2024-05-22T19:30:47.737;539600465089863103;393142;394776;298657;-1460;
2024-05-22T19:30:47.755;539600465108025563;392665;394386;298402;-1445;
2024-05-22T19:30:47.773;539600465126188023;392411;394090;298178;-1413;
2024-05-22T19:30:47.791;539600465144350483;392149;393904;298033;-1468;
2024-05-22T19:30:47.809;539600465162512943;392040;393762;297980;-1443;
2024-05-22T19:30:47.827;539600465180675403;392013;393781;297993;-1437;
2024-05-22T19:30:47.846;539600465198837863;392118;393841;298039;-1430;
2024-05-22T19:30:47.864;539600465217000323;392296;393988;298208;-1450;
2024-05-22T19:30:47.882;539600465235162783;392505;394128;298351;-1430;
2024-05-22T19:30:47.900;539600465253325243;392740;394345;298537;-1467;
2024-05-22T19:30:47.918;539600465271487703;393022;394595;298686;-1445;
2024-05-22T19:30:47.936;539600465289650163;393305;394771;298887;-1487;
2024-05-22T19:30:47.955;539600465307812623;393604;395037;299041;-1507;
2024-05-22T19:30:47.973;539600465325975083;393833;395198;299209;-1487;
2024-05-22T19:30:47.991;539600465344137543;394049;395406;299355;-1446;
2024-05-22T19:30:48.009;539600465362300003;394264;395545;299518;-1464;
2024-05-22T19:30:48.027;539600465380462463;394352;395597;299557;-1508;
2024-05-22T19:30:48.045;539600465398624923;394549;395742;299720;-1467;
2024-05-22T19:30:48.064;539600465416787383;394604;395822;299793;-1489;
2024-05-22T19:30:48.082;539600465434949843;394661;395817;299812;-1476;
2024-05-22T19:30:48.100;539600465453112303;394730;395974;299843;-1432;
2024-05-22T19:30:48.118;539600465471274763;394832;396000;299967;-1425;
2024-05-22T19:30:48.136;539600465489437223;394879;396066;299962;-1466;
2024-05-22T19:30:48.154;539600465507599683;394889;396101;299953;-1457;
2024-05-22T19:30:48.173;539600465525762143;394903;396017;299961;-1468;
2024-05-22T19:30:48.191;539600465543924603;394778;395860;299841;-1465;
2024-05-22T19:30:48.209;539600465562087063;394478;395636;299703;-1464;
2024-05-22T19:30:48.227;539600465580249523;394058;395202;299388;-1454;
2024-05-22T19:30:48.245;539600465598411983;393592;394805;299137;-1485;
2024-05-22T19:30:48.263;539600465616577842;393261;394471;298792;-1432;
2024-05-22T19:30:48.281;539600465634743681;392812;394104;298536;-1449;
2024-05-22T19:30:48.300;539600465652909520;392523;393828;298393;-1413;
2024-05-22T19:30:48.318;539600465671075359;392359;393731;298252;-1415;
2024-05-22T19:30:48.336;539600465689241198;392329;393638;298203;-1411;
2024-05-22T19:30:48.354;539600465707407037;392274;393624;298265;-1421;
2024-05-22T19:30:48.372;539600465725572876;392329;393653;298259;-1454;
2024-05-22T19:30:48.390;539600465743738715;392418;393749;298310;-1472;
2024-05-22T19:30:48.409;539600465761904554;392602;393904;298436;-1430;
2024-05-22T19:30:48.427;539600465780070393;392849;394067;298594;-1386;
2024-05-22T19:30:48.445;539600465798236232;392984;394239;298744;-1361;
2024-05-22T19:30:48.463;539600465816402071;393214;394402;298900;-1385;
2024-05-22T19:30:48.481;539600465834567910;393354;394582;298983;-1388;
2024-05-22T19:30:48.499;539600465852733749;393497;394661;299078;-1425;
2024-05-22T19:30:48.518;539600465870899588;393693;394814;299227;-1436;
2024-05-22T19:30:48.536;539600465889065427;393863;394864;299289;-1413;
2024-05-22T19:30:48.554;539600465907231266;393962;394947;299385;-1425;
2024-05-22T19:30:48.572;539600465925397105;394155;395058;299489;-1414;
2024-05-22T19:30:48.590;539600465943562944;394265;395173;299570;-1410;
2024-05-22T19:30:48.608;539600465961728783;394396;395211;299659;-1408;
2024-05-22T19:30:48.627;539600465979894622;394491;395332;299720;-1471;
2024-05-22T19:30:48.645;539600465998060461;394587;395352;299795;-1409;
2024-05-22T19:30:48.663;539600466016226300;394736;395407;299854;-1437;
2024-05-22T19:30:48.681;539600466034392139;394726;395467;299930;-1442;
2024-05-22T19:30:48.699;539600466052557978;394696;395443;299894;-1428;
2024-05-22T19:30:48.717;539600466070723817;394506;395272;299705;-1444;
2024-05-22T19:30:48.736;539600466088889656;394197;395076;299524;-1311;
2024-05-22T19:30:48.754;539600466107055495;393729;394650;299174;-1382;
2024-05-22T19:30:48.772;539600466125221334;393133;394144;298758;-1474;
2024-05-22T19:30:48.790;539600466143387173;392705;393734;298508;-1393;
2024-05-22T19:30:48.808;539600466161553012;392306;393358;298231;-1413;
2024-05-22T19:30:48.826;539600466179718851;391954;393028;297948;-1404;
2024-05-22T19:30:48.845;539600466197884690;391695;392834;297829;-1421;
2024-05-22T19:30:48.863;539600466216050529;391525;392702;297785;-1468;
2024-05-22T19:30:48.881;539600466234216368;391528;392661;297772;-1409;
2024-05-22T19:30:48.899;539600466252382207;391488;392632;297760;-1430;
2024-05-22T19:30:48.917;539600466270548046;391452;392704;297800;-1447;
2024-05-22T19:30:48.935;539600466288713885;391560;392770;297861;-1364;
2024-05-22T19:30:48.954;539600466306879724;391693;392834;297907;-1397;
2024-05-22T19:30:48.972;539600466325045147;391776;392907;297939;-1394;
2024-05-22T19:30:48.990;539600466343210550;391687;392981;298007;-1415;
2024-05-22T19:30:49.008;539600466361375953;391725;392984;298001;-1438;
2024-05-22T19:30:49.026;539600466379541356;391806;392991;297999;-1363;
2024-05-22T19:30:49.044;539600466397706759;391834;392934;298023;-1427;
2024-05-22T19:30:49.063;539600466415872162;391792;392944;297996;-1389;
2024-05-22T19:30:49.081;539600466434037565;391796;392893;298026;-1482;
2024-05-22T19:30:49.099;539600466452202968;391799;392973;298034;-1447;
2024-05-22T19:30:49.117;539600466470368371;391861;392951;297993;-1448;
2024-05-22T19:30:49.135;539600466488533774;391968;393020;298139;-1360;
2024-05-22T19:30:49.153;539600466506699177;392077;393150;298130;-1383;
2024-05-22T19:30:49.172;539600466524864580;392184;393178;298257;-1374;
2024-05-22T19:30:49.190;539600466543029983;392330;393239;298347;-1391;
2024-05-22T19:30:49.208;539600466561195386;392434;393354;298409;-1328;
2024-05-22T19:30:49.226;539600466579360789;392441;393296;298369;-1359;
2024-05-22T19:30:49.244;539600466597526192;392339;393126;298264;-1415;
2024-05-22T19:30:49.262;539600466615691595;392010;392847;298099;-1397;
2024-05-22T19:30:49.281;539600466633856998;391721;392574;297926;-1336;
2024-05-22T19:30:49.299;539600466652022401;391414;392256;297665;-1391;
2024-05-22T19:30:49.317;539600466670187804;391083;391954;297470;-1375;
2024-05-22T19:30:49.335;539600466688353207;390834;391717;297299;-1456;
2024-05-22T19:30:49.353;539600466706518610;390756;391664;297274;-1426;
2024-05-22T19:30:49.371;539600466724684013;390703;391654;297226;-1451;
2024-05-22T19:30:49.390;539600466742849416;390805;391759;297262;-1437;
2024-05-22T19:30:49.408;539600466761014819;390992;391895;297404;-1473;
2024-05-22T19:30:49.426;539600466779180222;391199;392071;297552;-1407;
2024-05-22T19:30:49.444;539600466797345625;391512;392314;297743;-1409;
2024-05-22T19:30:49.462;539600466815511028;391831;392544;297945;-1426;
2024-05-22T19:30:49.480;539600466833676431;392102;392804;298131;-1406;
2024-05-22T19:30:49.499;539600466851841834;392469;393073;298393;-1421;
2024-05-22T19:30:49.517;539600466870007237;392853;393375;298642;-1385;
2024-05-22T19:30:49.535;539600466888172640;393154;393578;298870;-1436;
2024-05-22T19:30:49.553;539600466906338043;393419;393864;299117;-1416;
2024-05-22T19:30:49.571;539600466924503446;393717;394043;299195;-1472;
2024-05-22T19:30:49.589;539600466942668849;393924;394267;299348;-1443;
2024-05-22T19:30:49.608;539600466960834252;394175;394435;299487;-1427;
2024-05-22T19:30:49.626;539600466978999655;394420;394609;299608;-1468;
2024-05-22T19:30:49.644;539600466997165058;394604;394742;299764;-1535;
2024-05-22T19:30:49.662;539600467015330461;394843;394908;299982;-1428;
2024-05-22T19:30:49.680;539600467033495864;394993;395100;300076;-1410;
2024-05-22T19:30:49.698;539600467051661267;395138;395209;300171;-1431;
2024-05-22T19:30:49.717;539600467069826670;395390;395420;300288;-1468;
2024-05-22T19:30:49.735;539600467087991007;395543;395540;300416;-1380;
2024-05-22T19:30:49.753;539600467106155320;395595;395566;300475;-1425;
2024-05-22T19:30:49.771;539600467124319633;395555;395622;300388;-1429;
2024-05-22T19:30:49.789;539600467142483946;395330;395434;300262;-1412;
2024-05-22T19:30:49.807;539600467160648259;395045;395230;300044;-1402;
2024-05-22T19:30:49.826;539600467178812572;394879;395017;299981;-1369;
2024-05-22T19:30:49.844;539600467196976885;394572;394782;299793;-1412;
2024-05-22T19:30:49.862;539600467215141198;394329;394653;299624;-1419;
2024-05-22T19:30:49.880;539600467233305511;394152;394534;299566;-1409;
2024-05-22T19:30:49.898;539600467251469824;394085;394454;299498;-1392;
2024-05-22T19:30:49.916;539600467269634137;394055;394434;299433;-1408;
2024-05-22T19:30:49.935;539600467287798450;394042;394438;299415;-1439;
2024-05-22T19:30:49.953;539600467305962763;394103;394494;299506;-1412;
2024-05-22T19:30:49.971;539600467324127076;394189;394530;299569;-1393;
2024-05-22T19:30:49.989;539600467342291389;394213;394660;299507;-1389;
2024-05-22T19:30:50.007;539600467360455702;394275;394694;299555;-1437;
2024-05-22T19:30:50.025;539600467378620015;394336;394700;299632;-1448;
2024-05-22T19:30:50.044;539600467396784328;394406;394761;299754;-1417;
2024-05-22T19:30:50.062;539600467414948641;394463;394834;299809;-1407;
2024-05-22T19:30:50.080;539600467433112954;394509;394939;299858;-1354;
2024-05-22T19:30:50.098;539600467451277267;394579;394988;299970;-1389;
2024-05-22T19:30:50.116;539600467469441580;394680;395032;300041;-1419;
2024-05-22T19:30:50.134;539600467487605893;394828;395010;300017;-1417;
2024-05-22T19:30:50.153;539600467505770206;394928;395092;300053;-1404;
2024-05-22T19:30:50.171;539600467523934519;395052;395187;300154;-1409;
2024-05-22T19:30:50.189;539600467542098832;395050;395257;300214;-1438;
2024-05-22T19:30:50.207;539600467560263145;395067;395240;300197;-1437;
2024-05-22T19:30:50.225;539600467578427458;395084;395175;300157;-1506;
2024-05-22T19:30:50.243;539600467596591771;395016;395157;300115;-1381;
2024-05-22T19:30:50.262;539600467614756084;394798;394964;299937;-1408;
2024-05-22T19:30:50.280;539600467632920397;394448;394653;299721;-1405;
2024-05-22T19:30:50.298;539600467651084710;393873;394229;299328;-1466;
2024-05-22T19:30:50.316;539600467669249023;393406;393780;298973;-1381;
2024-05-22T19:30:50.334;539600467687413336;392801;393337;298572;-1392;
2024-05-22T19:30:50.352;539600467705577649;392295;392875;298266;-1370;
2024-05-22T19:30:50.370;539600467723741962;391853;392472;297925;-1430;
2024-05-22T19:30:50.389;539600467741906275;391555;392310;297771;-1381;
2024-05-22T19:30:50.407;539600467760070588;391328;392141;297587;-1419;
2024-05-22T19:30:50.425;539600467778234901;391184;392043;297594;-1423;
2024-05-22T19:30:50.443;539600467796399238;391195;392091;297606;-1360;
2024-05-22T19:30:50.461;539600467814563551;391272;392155;297665;-1347;
2024-05-22T19:30:50.479;539600467832727864;391458;392275;297701;-1432;
2024-05-22T19:30:50.498;539600467850892177;391644;392429;297871;-1408;
2024-05-22T19:30:50.516;539600467869056490;391813;392586;297979;-1446;
2024-05-22T19:30:50.534;539600467887220803;392093;392826;298180;-1428;
2024-05-22T19:30:50.552;539600467905385116;392296;392976;298390;-1353;
2024-05-22T19:30:50.570;539600467923549429;392502;393162;298510;-1413;
2024-05-22T19:30:50.588;539600467941713742;392744;393271;298637;-1461;
2024-05-22T19:30:50.607;539600467959878055;392949;393425;298798;-1388;
2024-05-22T19:30:50.625;539600467978042368;393124;393550;298856;-1386;
2024-05-22T19:30:50.643;539600467996206681;393287;393719;299032;-1402;
2024-05-22T19:30:50.661;539600468014370994;393441;393842;299124;-1421;
2024-05-22T19:30:50.679;539600468032535307;393602;393916;299238;-1362;
2024-05-22T19:30:50.697;539600468050699620;393842;393993;299371;-1413;
2024-05-22T19:30:50.716;539600468068863933;393986;394120;299507;-1419;
2024-05-22T19:30:50.734;539600468087028246;394028;394132;299529;-1428;
2024-05-22T19:30:50.752;539600468105192559;394145;394175;299569;-1426;
2024-05-22T19:30:50.770;539600468123356872;393974;394067;299481;-1347;
2024-05-22T19:30:50.788;539600468141521185;393708;393905;299299;-1375;
2024-05-22T19:30:50.806;539600468159685498;393213;393493;298986;-1402;
2024-05-22T19:30:50.825;539600468177849811;392721;393012;298566;-1358;
2024-05-22T19:30:50.843;539600468196014124;392207;392549;298316;-1350;
2024-05-22T19:30:50.861;539600468214178437;391642;392118;297881;-1406;
2024-05-22T19:30:50.879;539600468232342750;391123;391673;297546;-1451;
2024-05-22T19:30:50.897;539600468250507063;390845;391473;297349;-1392;
2024-05-22T19:30:50.915;539600468268671376;390507;391248;297162;-1412;
2024-05-22T19:30:50.934;539600468286835689;390387;391126;297069;-1379;
2024-05-22T19:30:50.952;539600468305000002;390242;391045;296970;-1412;
2024-05-22T19:30:50.970;539600468323164315;390156;391019;296958;-1385;
2024-05-22T19:30:50.988;539600468341328628;390217;391030;296943;-1400;
2024-05-22T19:30:51.006;539600468359492941;390224;391023;296976;-1386;
2024-05-22T19:30:51.024;539600468377657254;390240;391046;296957;-1448;
2024-05-22T19:30:51.043;539600468395821567;390256;391123;297044;-1455;
2024-05-22T19:30:51.061;539600468413985880;390346;391203;297020;-1394;
2024-05-22T19:30:51.079;539600468432150193;390386;391260;297101;-1417;
2024-05-22T19:30:51.097;539600468450314506;390378;391322;297119;-1447;
2024-05-22T19:30:51.115;539600468468478819;390466;391348;297180;-1445;
2024-05-22T19:30:51.133;539600468486643132;390512;391363;297223;-1414;
2024-05-22T19:30:51.152;539600468504808616;390615;391450;297342;-1386;
2024-05-22T19:30:51.170;539600468522974092;390720;391535;297401;-1362;
2024-05-22T19:30:51.188;539600468541139568;390735;391612;297366;-1399;
2024-05-22T19:30:51.206;539600468559305044;390947;391629;297465;-1405;
2024-05-22T19:30:51.224;539600468577470520;391039;391739;297618;-1378;
2024-05-22T19:30:51.242;539600468595635996;391079;391786;297632;-1339;
2024-05-22T19:30:51.261;539600468613801472;391103;391799;297607;-1353;
2024-05-22T19:30:51.279;539600468631966948;391042;391786;297609;-1383;
2024-05-22T19:30:51.297;539600468650132424;390800;391594;297473;-1392;
2024-05-22T19:30:51.315;539600468668297900;390418;391245;297121;-1410;
2024-05-22T19:30:51.333;539600468686463376;390002;390839;296861;-1455;
2024-05-22T19:30:51.351;539600468704628852;389541;390461;296542;-1397;
2024-05-22T19:30:51.370;539600468722794328;389155;390096;296321;-1424;
2024-05-22T19:30:51.388;539600468740959804;388800;389828;296100;-1433;
2024-05-22T19:30:51.406;539600468759125280;388623;389654;295969;-1407;
2024-05-22T19:30:51.424;539600468777290756;388494;389510;295825;-1382;
2024-05-22T19:30:51.442;539600468795456232;388401;389415;295772;-1394;
2024-05-22T19:30:51.460;539600468813621708;388445;389481;295810;-1431;
2024-05-22T19:30:51.479;539600468831787184;388480;389559;295848;-1449;
2024-05-22T19:30:51.497;539600468849952660;388545;389708;295846;-1427;
2024-05-22T19:30:51.515;539600468868118136;388709;389886;296026;-1417;
2024-05-22T19:30:51.533;539600468886283612;388830;389953;296116;-1405;
2024-05-22T19:30:51.551;539600468904449088;388851;390025;296175;-1483;
2024-05-22T19:30:51.569;539600468922614564;389032;390094;296247;-1409;
2024-05-22T19:30:51.588;539600468940780040;389030;390109;296231;-1405;
2024-05-22T19:30:51.606;539600468958945516;389072;390259;296338;-1389;
2024-05-22T19:30:51.624;539600468977110992;389095;390202;296285;-1385;
2024-05-22T19:30:51.642;539600468995276468;389097;390214;296295;-1359;
2024-05-22T19:30:51.660;539600469013441944;389046;390200;296338;-1377;
2024-05-22T19:30:51.678;539600469031607420;389088;390186;296286;-1371;
2024-05-22T19:30:51.697;539600469049772896;389079;390151;296301;-1442;
2024-05-22T19:30:51.715;539600469067938372;389070;390250;296362;-1476;
2024-05-22T19:30:51.733;539600469086103848;389173;390179;296329;-1410;
2024-05-22T19:30:51.751;539600469104269324;389243;390204;296347;-1414;
2024-05-22T19:30:51.769;539600469122434800;389161;390118;296287;-1419;
2024-05-22T19:30:51.787;539600469140600276;389002;390029;296226;-1389;
2024-05-22T19:30:51.806;539600469158765752;388683;389775;296015;-1392;
2024-05-22T19:30:51.824;539600469176931228;388318;389401;295756;-1402;
2024-05-22T19:30:51.842;539600469195096704;387904;389047;295469;-1407;
2024-05-22T19:30:51.860;539600469213262180;387451;388604;295226;-1398;
2024-05-22T19:30:51.878;539600469231427656;386947;388299;294936;-1444;
2024-05-22T19:30:51.896;539600469249593132;386735;388050;294768;-1369;
2024-05-22T19:30:51.915;539600469267758280;386530;387845;294648;-1408;
2024-05-22T19:30:51.933;539600469285923392;386410;387714;294592;-1465;
2024-05-22T19:30:51.951;539600469304088504;386406;387731;294590;-1379;
2024-05-22T19:30:51.969;539600469322253616;386534;387806;294680;-1374;
2024-05-22T19:30:51.987;539600469340418728;386685;387948;294794;-1427;
2024-05-22T19:30:52.005;539600469358583840;386953;388163;294939;-1375;
2024-05-22T19:30:52.023;539600469376748952;387148;388359;295143;-1409;
2024-05-22T19:30:52.042;539600469394914064;387446;388553;295269;-1392;
2024-05-22T19:30:52.060;539600469413079176;387733;388799;295523;-1397;
2024-05-22T19:30:52.078;539600469431244288;387964;388953;295664;-1467;
2024-05-22T19:30:52.096;539600469449409400;388265;389147;295797;-1386;
2024-05-22T19:30:52.114;539600469467574512;388378;389282;295936;-1431;
2024-05-22T19:30:52.132;539600469485739624;388651;389465;296109;-1371;
2024-05-22T19:30:52.151;539600469503904736;388873;389675;296286;-1386;
2024-05-22T19:30:52.169;539600469522069848;389099;389828;296470;-1417;
2024-05-22T19:30:52.187;539600469540234960;389407;390040;296597;-1346;
2024-05-22T19:30:52.205;539600469558400072;389461;390038;296571;-1373;
2024-05-22T19:30:52.223;539600469576565184;389657;390263;296774;-1392;
2024-05-22T19:30:52.241;539600469594730296;389819;390313;296909;-1373;
2024-05-22T19:30:52.260;539600469612895408;389919;390418;296995;-1456;
2024-05-22T19:30:52.278;539600469631060520;389991;390445;297009;-1382;
2024-05-22T19:30:52.296;539600469649225632;389892;390342;296994;-1413;
2024-05-22T19:30:52.314;539600469667390744;389636;390178;296859;-1385;
2024-05-22T19:30:52.332;539600469685555856;389324;389824;296589;-1381;
2024-05-22T19:30:52.350;539600469703720968;388961;389520;296378;-1427;
2024-05-22T19:30:52.369;539600469721886080;388708;389265;296228;-1409;
2024-05-22T19:30:52.387;539600469740051192;388461;389094;296065;-1419;
2024-05-22T19:30:52.405;539600469758216304;388455;389026;296037;-1392;
2024-05-22T19:30:52.423;539600469776381416;388449;388966;296038;-1405;
2024-05-22T19:30:52.441;539600469794546528;388447;389019;296114;-1439;
2024-05-22T19:30:52.459;539600469812711640;388592;389017;296150;-1412;
2024-05-22T19:30:52.478;539600469830876752;388711;389217;296266;-1394;
2024-05-22T19:30:52.496;539600469849041864;388903;389310;296389;-1370;
2024-05-22T19:30:52.514;539600469867206976;388934;389449;296478;-1395;
2024-05-22T19:30:52.532;539600469885372088;389113;389594;296537;-1454;
2024-05-22T19:30:52.550;539600469903537200;389235;389736;296628;-1414;
2024-05-22T19:30:52.568;539600469921702312;389320;389846;296644;-1394;
2024-05-22T19:30:52.587;539600469939867424;389361;389884;296699;-1355;
2024-05-22T19:30:52.605;539600469958032536;389330;389848;296641;-1454;
2024-05-22T19:30:52.623;539600469976197648;389325;389954;296683;-1406;
2024-05-22T19:30:52.641;539600469994362760;389324;390019;296657;-1441;
2024-05-22T19:30:52.659;539600470012527872;389290;390014;296614;-1434;
2024-05-22T19:30:52.677;539600470030692455;389252;389925;296593;-1361;
2024-05-22T19:30:52.696;539600470048857030;389209;389910;296556;-1391;
2024-05-22T19:30:52.714;539600470067021605;389044;389854;296491;-1443;
2024-05-22T19:30:52.732;539600470085186180;389001;389826;296394;-1423;
2024-05-22T19:30:52.750;539600470103350755;388918;389716;296338;-1363;
2024-05-22T19:30:52.768;539600470121515330;388696;389573;296194;-1382;
2024-05-22T19:30:52.786;539600470139679905;388422;389400;295971;-1331;
2024-05-22T19:30:52.805;539600470157844480;387840;388969;295576;-1403;
2024-05-22T19:30:52.823;539600470176009055;387250;388487;295234;-1417;
2024-05-22T19:30:52.841;539600470194173630;386420;387839;294695;-1438;
2024-05-22T19:30:52.859;539600470212338205;385658;387219;294151;-1386;
2024-05-22T19:30:52.877;539600470230502780;384971;386598;293759;-1427;
2024-05-22T19:30:52.895;539600470248667355;384267;386073;293263;-1421;
2024-05-22T19:30:52.914;539600470266831930;383739;385671;292923;-1399;
2024-05-22T19:30:52.932;539600470284996505;383268;385284;292615;-1433;
2024-05-22T19:30:52.950;539600470303161080;382924;385075;292515;-1409;
2024-05-22T19:30:52.968;539600470321325655;382678;384897;292342;-1409;
2024-05-22T19:30:52.986;539600470339490230;382477;384784;292242;-1374;
2024-05-22T19:30:53.004;539600470357654805;382444;384791;292252;-1373;
2024-05-22T19:30:53.023;539600470375819380;382427;384844;292210;-1390;
2024-05-22T19:30:53.041;539600470393983955;382427;384839;292203;-1440;
2024-05-22T19:30:53.059;539600470412148530;382560;384948;292255;-1382;
2024-05-22T19:30:53.077;539600470430313105;382650;384888;292326;-1442;
2024-05-22T19:30:53.095;539600470448477680;382794;385032;292353;-1421;
2024-05-22T19:30:53.113;539600470466642255;382853;385151;292457;-1389;
2024-05-22T19:30:53.132;539600470484806830;382961;385189;292509;-1356;
2024-05-22T19:30:53.150;539600470502971405;383210;385329;292675;-1327;
2024-05-22T19:30:53.168;539600470521135980;383307;385441;292824;-1425;
2024-05-22T19:30:53.186;539600470539300555;383664;385626;293147;-1377;
2024-05-22T19:30:53.204;539600470557465130;384218;386061;293557;-1431;
2024-05-22T19:30:53.222;539600470575629705;385182;386726;294295;-1385;
2024-05-22T19:30:53.241;539600470593794280;386437;387670;295240;-1350;
2024-05-22T19:30:53.259;539600470611958855;387803;388624;296352;-1382;
2024-05-22T19:30:53.277;539600470630123430;389360;389684;297516;-1415;
2024-05-22T19:30:53.295;539600470648288005;391044;390797;298836;-1391;
2024-05-22T19:30:53.313;539600470666453212;392649;391681;300093;-1417;
2024-05-22T19:30:53.331;539600470684618397;394192;392596;301264;-1377;
2024-05-22T19:30:53.350;539600470702783582;395676;393467;302439;-1434;
2024-05-22T19:30:53.368;539600470720948767;397164;394440;303465;-1448;
2024-05-22T19:30:53.386;539600470739113952;398609;395406;304639;-1434;
2024-05-22T19:30:53.404;539600470757279137;400143;396493;305800;-1361;
2024-05-22T19:30:53.422;539600470775444322;401638;397546;306952;-1442;
2024-05-22T19:30:53.440;539600470793609507;403123;398747;308074;-1429;
2024-05-22T19:30:53.459;539600470811774692;404536;399865;309244;-1385;
2024-05-22T19:30:53.477;539600470829939877;406016;401184;310428;-1409;
2024-05-22T19:30:53.495;539600470848105062;407578;402516;311666;-1421;
2024-05-22T19:30:53.513;539600470866270247;409103;403882;312882;-1416;
2024-05-22T19:30:53.531;539600470884435432;410586;405364;314113;-1393;
2024-05-22T19:30:53.549;539600470902600617;412030;406776;315319;-1388;
2024-05-22T19:30:53.568;539600470920765802;413478;408169;316551;-1344;
2024-05-22T19:30:53.586;539600470938930987;414793;409558;317593;-1360;
2024-05-22T19:30:53.604;539600470957096172;416035;410856;318628;-1361;
2024-05-22T19:30:53.622;539600470975261357;417073;412063;319592;-1397;
2024-05-22T19:30:53.640;539600470993426542;418253;413349;320481;-1328;
2024-05-22T19:30:53.658;539600471011591727;419144;414408;321233;-1439;
2024-05-22T19:30:53.677;539600471029756912;420070;415525;322005;-1356;
2024-05-22T19:30:53.695;539600471047922097;420910;416527;322609;-1392;
2024-05-22T19:30:53.713;539600471066087282;421657;417359;323181;-1371;
2024-05-22T19:30:53.731;539600471084252467;422198;417984;323573;-1448;
2024-05-22T19:30:53.749;539600471102417652;422684;418506;323915;-1375;
2024-05-22T19:30:53.767;539600471120582837;422900;418676;323908;-1388;
2024-05-22T19:30:53.785;539600471138748022;423096;418840;323938;-1420;
2024-05-22T19:30:53.804;539600471156913207;423129;418686;323773;-1371;
2024-05-22T19:30:53.822;539600471175078392;422968;418232;323289;-1334;
2024-05-22T19:30:53.840;539600471193243577;422463;417672;322679;-1322;
2024-05-22T19:30:53.858;539600471211408762;421779;416867;321879;-1403;
2024-05-22T19:30:53.876;539600471229573947;421032;416036;321076;-1424;
2024-05-22T19:30:53.894;539600471247739132;419993;415141;320153;-1426;
2024-05-22T19:30:53.913;539600471265904317;418959;414214;319263;-1416;
2024-05-22T19:30:53.931;539600471284069502;418052;413334;318447;-1379;
2024-05-22T19:30:53.949;539600471302234669;417055;412448;317645;-1427;
2024-05-22T19:30:53.967;539600471320399810;416252;411799;317051;-1409;
2024-05-22T19:30:53.985;539600471338564951;415681;411311;316528;-1419;
2024-05-22T19:30:54.003;539600471356730092;415080;410964;316110;-1398;
2024-05-22T19:30:54.022;539600471374895233;414546;410658;315811;-1300;
2024-05-22T19:30:54.040;539600471393060374;414102;410410;315566;-1379;
2024-05-22T19:30:54.058;539600471411225515;413796;410180;315364;-1346;
2024-05-22T19:30:54.076;539600471429390656;413495;410074;315074;-1377;
2024-05-22T19:30:54.094;539600471447555797;413173;409905;314917;-1402;
2024-05-22T19:30:54.112;539600471465720938;412854;409818;314748;-1426;
2024-05-22T19:30:54.131;539600471483886079;412564;409672;314500;-1398;
2024-05-22T19:30:54.149;539600471502051220;412329;409472;314289;-1409;
2024-05-22T19:30:54.167;539600471520216361;412009;409348;314126;-1379;
2024-05-22T19:30:54.185;539600471538381502;411770;409161;313938;-1444;
2024-05-22T19:30:54.203;539600471556546643;411533;409108;313852;-1416;
2024-05-22T19:30:54.221;539600471574711784;411253;408931;313648;-1382;
2024-05-22T19:30:54.240;539600471592876925;411010;408790;313524;-1419;
2024-05-22T19:30:54.258;539600471611042066;410849;408700;313345;-1390;
2024-05-22T19:30:54.276;539600471629207207;410646;408555;313201;-1399;
2024-05-22T19:30:54.294;539600471647372348;410485;408522;313018;-1362;
2024-05-22T19:30:54.312;539600471665537489;410158;408351;312804;-1414;
2024-05-22T19:30:54.330;539600471683702630;409810;408086;312567;-1471;
2024-05-22T19:30:54.349;539600471701867771;409344;407745;312195;-1446;
2024-05-22T19:30:54.367;539600471720032912;408705;407245;311825;-1426;
2024-05-22T19:30:54.385;539600471738198053;408026;406753;311317;-1387;
2024-05-22T19:30:54.403;539600471756363194;407331;406100;310824;-1386;
2024-05-22T19:30:54.421;539600471774528335;406695;405535;310449;-1412;
2024-05-22T19:30:54.439;539600471792693476;406091;405102;309992;-1454;
2024-05-22T19:30:54.458;539600471810858617;405617;404740;309710;-1416;
2024-05-22T19:30:54.476;539600471829023758;405248;404506;309472;-1416;
2024-05-22T19:30:54.494;539600471847188899;405013;404303;309323;-1383;
2024-05-22T19:30:54.512;539600471865354040;404938;404187;309199;-1412;
2024-05-22T19:30:54.530;539600471883519181;404744;404149;309090;-1432;
2024-05-22T19:30:54.548;539600471901684322;404647;404125;309021;-1406;
2024-05-22T19:30:54.567;539600471919849463;404610;404125;308944;-1405;
2024-05-22T19:30:54.585;539600471938015236;404577;404115;308906;-1373;
2024-05-22T19:30:54.603;539600471956180997;404468;404125;308797;-1377;
2024-05-22T19:30:54.621;539600471974346758;404391;404113;308765;-1359;
2024-05-22T19:30:54.639;539600471992512519;404258;403991;308633;-1376;
2024-05-22T19:30:54.657;539600472010678280;404133;403924;308548;-1351;
2024-05-22T19:30:54.676;539600472028844041;403937;403816;308362;-1363;
