Phone timestamp;sensor timestamp [ns];channel 0;channel 1;channel 2;ambient
2024-05-22T19:45:02.677;539601319637984355;367315;380836;292929;-1224;
2024-05-22T19:45:02.695;539601319656142710;367336;380860;292960;-1295;
2024-05-22T19:45:02.713;539601319674301065;367376;380874;292941;-1277;
2024-05-22T19:45:02.731;539601319692459420;367420;380950;293050;-1276;
2024-05-22T19:45:02.749;539601319710617775;367395;380931;293046;-1307;
2024-05-22T19:45:02.767;539601319728776130;367419;380968;293003;-1352;
2024-05-22T19:45:02.785;539601319746934485;367502;380960;292983;-1314;
2024-05-22T19:45:02.804;539601319765092840;367538;380999;293038;-1305;
2024-05-22T19:45:02.822;539601319783251195;367558;381083;293073;-1320;
2024-05-22T19:45:02.840;539601319801409550;367632;381116;293142;-1280;
2024-05-22T19:45:02.858;539601319819567905;367690;381163;293169;-1268;
2024-05-22T19:45:02.876;539601319837726260;367788;381204;293194;-1295;
2024-05-22T19:45:02.894;539601319855884615;367919;381259;293293;-1301;
2024-05-22T19:45:02.913;539601319874042970;367920;381356;293397;-1308;
2024-05-22T19:45:02.931;539601319892201325;368102;381446;293438;-1295;
2024-05-22T19:45:02.949;539601319910359680;368149;381562;293530;-1301;
2024-05-22T19:45:02.967;539601319928518035;368165;381519;293454;-1302;
2024-05-22T19:45:02.985;539601319946676390;368166;381528;293463;-1257;
2024-05-22T19:45:03.003;539601319964834745;368070;381484;293417;-1271;
2024-05-22T19:45:03.022;539601319982993100;367931;381340;293417;-1282;
2024-05-22T19:45:03.040;539601320001151455;367702;381181;293261;-1286;
2024-05-22T19:45:03.058;539601320019309810;367493;381064;293137;-1290;
2024-05-22T19:45:03.076;539601320037468165;367309;380870;293036;-1350;
2024-05-22T19:45:03.094;539601320055626520;367230;380805;292973;-1266;
2024-05-22T19:45:03.112;539601320073784875;367044;380643;292840;-1313;
2024-05-22T19:45:03.130;539601320091943230;366991;380542;292778;-1277;
2024-05-22T19:45:03.149;539601320110101585;367014;380581;292869;-1263;
2024-05-22T19:45:03.167;539601320128259940;367063;380563;292888;-1270;
2024-05-22T19:45:03.185;539601320146418295;367136;380622;292864;-1263;
2024-05-22T19:45:03.203;539601320164576650;367156;380668;292957;-1290;
2024-05-22T19:45:03.221;539601320182735005;367227;380724;293019;-1311;
2024-05-22T19:45:03.239;539601320200893360;367324;380845;293070;-1301;
2024-05-22T19:45:03.258;539601320219051715;367435;380881;293147;-1305;
2024-05-22T19:45:03.276;539601320237210070;367473;380916;293152;-1344;
2024-05-22T19:45:03.294;539601320255368425;367490;380957;293193;-1276;
2024-05-22T19:45:03.312;539601320273526780;367595;381098;293339;-1269;
2024-05-22T19:45:03.330;539601320291685135;367585;381204;293343;-1301;
2024-05-22T19:45:03.348;539601320309843490;367727;381177;293343;-1276;
2024-05-22T19:45:03.367;539601320328001845;367690;381233;293427;-1319;
2024-05-22T19:45:03.385;539601320346160200;367770;381218;293425;-1334;
2024-05-22T19:45:03.403;539601320364318555;367757;381229;293378;-1306;
2024-05-22T19:45:03.421;539601320382476910;367774;381305;293411;-1283;
2024-05-22T19:45:03.439;539601320400635265;367850;381333;293500;-1291;
2024-05-22T19:45:03.457;539601320418793620;367899;381377;293510;-1289;
2024-05-22T19:45:03.475;539601320436951989;367952;381367;293471;-1356;
2024-05-22T19:45:03.494;539601320455110344;367960;381344;293539;-1377;
2024-05-22T19:45:03.512;539601320473268699;368061;381413;293581;-1365;
2024-05-22T19:45:03.530;539601320491427054;368021;381467;293621;-1353;
2024-05-22T19:45:03.548;539601320509585409;368119;381553;293642;-1347;
2024-05-22T19:45:03.566;539601320527743764;368209;381551;293672;-1369;
2024-05-22T19:45:03.584;539601320545902119;368291;381693;293759;-1376;
2024-05-22T19:45:03.603;539601320564060474;368288;381691;293766;-1325;
2024-05-22T19:45:03.621;539601320582218829;368342;381718;293769;-1311;
2024-05-22T19:45:03.639;539601320600377184;368363;381748;293794;-1273;
2024-05-22T19:45:03.657;539601320618535539;368290;381703;293732;-1287;
2024-05-22T19:45:03.675;539601320636693894;368179;381604;293744;-1317;
2024-05-22T19:45:03.693;539601320654852249;367957;381388;293628;-1351;
2024-05-22T19:45:03.712;539601320673010604;367773;381206;293528;-1274;
2024-05-22T19:45:03.730;539601320691168959;367522;381064;293361;-1335;
2024-05-22T19:45:03.748;539601320709327314;367272;380801;293179;-1327;
2024-05-22T19:45:03.766;539601320727485669;367056;380603;293057;-1288;
2024-05-22T19:45:03.784;539601320745644024;366908;380502;292971;-1277;
2024-05-22T19:45:03.802;539601320763802379;366717;380332;292881;-1280;
2024-05-22T19:45:03.820;539601320781960734;366636;380280;292833;-1336;
2024-05-22T19:45:03.839;539601320800119089;366599;380260;292843;-1293;
2024-05-22T19:45:03.857;539601320818277444;366631;380258;292883;-1287;
2024-05-22T19:45:03.875;539601320836435799;366690;380242;292895;-1288;
2024-05-22T19:45:03.893;539601320854594154;366751;380277;292930;-1293;
2024-05-22T19:45:03.911;539601320872752509;366837;380319;292987;-1269;
2024-05-22T19:45:03.929;539601320890910864;366918;380439;293067;-1302;
2024-05-22T19:45:03.948;539601320909069219;366908;380484;293088;-1336;
2024-05-22T19:45:03.966;539601320927227574;366991;380580;293087;-1312;
2024-05-22T19:45:03.984;539601320945385929;366980;380551;293119;-1329;
2024-05-22T19:45:04.002;539601320963544284;367020;380611;293124;-1316;
2024-05-22T19:45:04.020;539601320981702639;367065;380626;293217;-1310;
2024-05-22T19:45:04.038;539601320999860994;367117;380662;293287;-1279;
2024-05-22T19:45:04.057;539601321018019349;367116;380649;293304;-1301;
2024-05-22T19:45:04.075;539601321036177704;367173;380626;293244;-1313;
2024-05-22T19:45:04.093;539601321054336059;367200;380771;293291;-1293;
2024-05-22T19:45:04.111;539601321072494414;367171;380726;293300;-1272;
2024-05-22T19:45:04.129;539601321090652769;367194;380715;293275;-1242;
2024-05-22T19:45:04.147;539601321108811124;367173;380711;293365;-1341;
2024-05-22T19:45:04.165;539601321126969479;367234;380789;293420;-1347;
2024-05-22T19:45:04.184;539601321145127834;367281;380805;293344;-1309;
2024-05-22T19:45:04.202;539601321163286189;367328;380780;293401;-1354;
2024-05-22T19:45:04.220;539601321181444544;367327;380818;293353;-1350;
2024-05-22T19:45:04.238;539601321199603229;367429;380860;293499;-1331;
2024-05-22T19:45:04.256;539601321217761874;367521;380994;293552;-1324;
2024-05-22T19:45:04.274;539601321235920519;367569;381013;293545;-1318;
2024-05-22T19:45:04.293;539601321254079164;367574;381075;293552;-1305;
2024-05-22T19:45:04.311;539601321272237809;367634;381096;293620;-1287;
2024-05-22T19:45:04.329;539601321290396454;367544;381034;293558;-1305;
2024-05-22T19:45:04.347;539601321308555099;367355;380787;293452;-1303;
2024-05-22T19:45:04.365;539601321326713744;367075;380684;293347;-1307;
2024-05-22T19:45:04.383;539601321344872389;366871;380451;293202;-1331;
2024-05-22T19:45:04.402;539601321363031034;366594;380265;293041;-1286;
2024-05-22T19:45:04.420;539601321381189679;366274;380050;292880;-1302;
2024-05-22T19:45:04.438;539601321399348324;366059;379834;292830;-1268;
2024-05-22T19:45:04.456;539601321417506969;365947;379774;292762;-1259;
2024-05-22T19:45:04.474;539601321435665614;365859;379708;292665;-1306;
2024-05-22T19:45:04.492;539601321453824259;365800;379619;292616;-1331;
2024-05-22T19:45:04.510;539601321471982904;365805;379550;292626;-1313;
2024-05-22T19:45:04.529;539601321490141549;365851;379555;292664;-1294;
2024-05-22T19:45:04.547;539601321508300194;365914;379663;292733;-1301;
2024-05-22T19:45:04.565;539601321526458839;366049;379729;292788;-1266;
2024-05-22T19:45:04.583;539601321544617484;366157;379805;292804;-1302;
2024-05-22T19:45:04.601;539601321562776129;366204;379891;292851;-1362;
2024-05-22T19:45:04.619;539601321580934774;366275;379975;292968;-1305;
2024-05-22T19:45:04.638;539601321599093419;366251;380034;293051;-1308;
2024-05-22T19:45:04.656;539601321617252064;366355;380040;293050;-1325;
2024-05-22T19:45:04.674;539601321635410709;366298;380071;293063;-1364;
2024-05-22T19:45:04.692;539601321653569354;366353;380115;293112;-1323;
2024-05-22T19:45:04.710;539601321671727999;366381;380099;293107;-1368;
2024-05-22T19:45:04.728;539601321689886644;366453;380188;293075;-1364;
2024-05-22T19:45:04.747;539601321708045289;366513;380216;293137;-1297;
2024-05-22T19:45:04.765;539601321726203934;366538;380258;293187;-1301;
2024-05-22T19:45:04.783;539601321744362579;366478;380177;293194;-1343;
2024-05-22T19:45:04.801;539601321762521224;366505;380250;293206;-1338;
2024-05-22T19:45:04.819;539601321780679869;366581;380283;293241;-1307;
2024-05-22T19:45:04.837;539601321798838514;366600;380272;293254;-1317;
2024-05-22T19:45:04.856;539601321816997159;366630;380295;293265;-1317;
2024-05-22T19:45:04.874;539601321835155804;366632;380314;293313;-1329;
2024-05-22T19:45:04.892;539601321853314449;366656;380344;293315;-1304;
2024-05-22T19:45:04.910;539601321871473094;366690;380377;293311;-1309;
2024-05-22T19:45:04.928;539601321889631739;366817;380507;293486;-1283;
2024-05-22T19:45:04.946;539601321907790384;366826;380527;293442;-1291;
2024-05-22T19:45:04.964;539601321925949029;366860;380513;293432;-1309;
2024-05-22T19:45:04.983;539601321944107674;366841;380499;293498;-1284;
2024-05-22T19:45:05.001;539601321962266913;366676;380435;293375;-1308;
2024-05-22T19:45:05.019;539601321980426140;366493;380256;293216;-1316;
2024-05-22T19:45:05.037;539601321998585367;366222;380067;293078;-1255;
2024-05-22T19:45:05.055;539601322016744594;365907;379779;292914;-1269;
2024-05-22T19:45:05.073;539601322034903821;365604;379543;292754;-1295;
2024-05-22T19:45:05.092;539601322053063048;365317;379289;292643;-1307;
2024-05-22T19:45:05.110;539601322071222275;365050;379073;292505;-1288;
2024-05-22T19:45:05.128;539601322089381502;364884;378926;292425;-1317;
2024-05-22T19:45:05.146;539601322107540729;364828;378834;292419;-1321;
2024-05-22T19:45:05.164;539601322125699956;364805;378789;292355;-1306;
2024-05-22T19:45:05.182;539601322143859183;364776;378789;292375;-1307;
2024-05-22T19:45:05.201;539601322162018410;364780;378771;292386;-1355;
2024-05-22T19:45:05.219;539601322180177637;364887;378821;292393;-1340;
2024-05-22T19:45:05.237;539601322198336864;364992;378899;292506;-1359;
2024-05-22T19:45:05.255;539601322216496091;365088;378995;292548;-1362;
2024-05-22T19:45:05.273;539601322234655318;365194;379080;292638;-1314;
2024-05-22T19:45:05.291;539601322252814545;365223;379126;292658;-1262;
2024-05-22T19:45:05.309;539601322270973772;365348;379133;292712;-1294;
2024-05-22T19:45:05.328;539601322289132999;365353;379266;292785;-1337;
2024-05-22T19:45:05.346;539601322307292226;365330;379208;292732;-1370;
2024-05-22T19:45:05.364;539601322325451453;365357;379249;292773;-1289;
2024-05-22T19:45:05.382;539601322343610680;365359;379229;292760;-1340;
2024-05-22T19:45:05.400;539601322361769907;365286;379262;292770;-1293;
2024-05-22T19:45:05.418;539601322379929134;365342;379229;292758;-1286;
2024-05-22T19:45:05.437;539601322398088361;365336;379269;292815;-1301;
2024-05-22T19:45:05.455;539601322416247588;365411;379317;292806;-1322;
2024-05-22T19:45:05.473;539601322434406815;365352;379294;292807;-1327;
2024-05-22T19:45:05.491;539601322452566042;365398;379390;292817;-1309;
2024-05-22T19:45:05.509;539601322470725269;365439;379372;292848;-1318;
2024-05-22T19:45:05.527;539601322488884496;365452;379389;292846;-1369;
2024-05-22T19:45:05.546;539601322507043723;365459;379402;292881;-1390;
2024-05-22T19:45:05.564;539601322525202950;365510;379446;292918;-1351;
2024-05-22T19:45:05.582;539601322543362177;365533;379561;292985;-1364;
2024-05-22T19:45:05.600;539601322561521404;365600;379593;293045;-1329;
2024-05-22T19:45:05.618;539601322579680631;365667;379574;293033;-1380;
2024-05-22T19:45:05.636;539601322597839858;365668;379548;293071;-1323;
2024-05-22T19:45:05.655;539601322615999085;365517;379462;292960;-1324;
2024-05-22T19:45:05.673;539601322634158312;365335;379342;292875;-1249;
2024-05-22T19:45:05.691;539601322652317539;365004;379085;292715;-1272;
2024-05-22T19:45:05.709;539601322670476766;364754;378856;292562;-1287;
2024-05-22T19:45:05.727;539601322688635993;364399;378571;292374;-1253;
2024-05-22T19:45:05.745;539601322706795220;364119;378296;292213;-1285;
2024-05-22T19:45:05.763;539601322724953953;363838;378070;292119;-1305;
2024-05-22T19:45:05.782;539601322743112671;363707;377979;291994;-1246;
2024-05-22T19:45:05.800;539601322761271389;363507;377770;291875;-1319;
2024-05-22T19:45:05.818;539601322779430107;363427;377691;291831;-1358;
2024-05-22T19:45:05.836;539601322797588825;363373;377704;291882;-1333;
2024-05-22T19:45:05.854;539601322815747543;363371;377698;291845;-1256;
2024-05-22T19:45:05.872;539601322833906261;363404;377681;291848;-1307;
2024-05-22T19:45:05.891;539601322852064979;363525;377737;291897;-1353;
2024-05-22T19:45:05.909;539601322870223697;363598;377814;291919;-1292;
2024-05-22T19:45:05.927;539601322888382415;363745;377876;292005;-1286;
2024-05-22T19:45:05.945;539601322906541133;363743;377921;291981;-1291;
2024-05-22T19:45:05.963;539601322924699851;363787;377977;292031;-1294;
2024-05-22T19:45:05.981;539601322942858569;363768;377976;292039;-1343;
2024-05-22T19:45:06.000;539601322961017287;363861;378023;292062;-1331;
2024-05-22T19:45:06.018;539601322979176005;363869;378079;292103;-1262;
2024-05-22T19:45:06.036;539601322997334723;363887;378033;292156;-1254;
2024-05-22T19:45:06.054;539601323015493441;363924;378047;292191;-1250;
2024-05-22T19:45:06.072;539601323033652159;363882;378096;292124;-1304;
2024-05-22T19:45:06.090;539601323051810877;363928;378100;292154;-1276;
2024-05-22T19:45:06.108;539601323069969595;363911;378056;292152;-1293;
2024-05-22T19:45:06.127;539601323088128313;363931;378049;292189;-1319;
2024-05-22T19:45:06.145;539601323106287031;363934;378143;292192;-1272;
2024-05-22T19:45:06.163;539601323124445749;363957;378144;292209;-1279;
2024-05-22T19:45:06.181;539601323142604467;363977;378088;292233;-1268;
2024-05-22T19:45:06.199;539601323160763185;363972;378108;292200;-1321;
2024-05-22T19:45:06.217;539601323178921903;364004;378193;292253;-1269;
2024-05-22T19:45:06.236;539601323197080621;364081;378213;292311;-1283;
2024-05-22T19:45:06.254;539601323215239339;364169;378303;292413;-1294;
2024-05-22T19:45:06.272;539601323233398057;364172;378337;292396;-1339;
2024-05-22T19:45:06.290;539601323251556775;364113;378294;292346;-1283;
2024-05-22T19:45:06.308;539601323269715493;364022;378251;292281;-1255;
2024-05-22T19:45:06.326;539601323287874211;363828;378017;292136;-1261;
2024-05-22T19:45:06.345;539601323306032929;363579;377722;291959;-1310;
2024-05-22T19:45:06.363;539601323324191647;363285;377507;291844;-1308;
2024-05-22T19:45:06.381;539601323342350365;362979;377317;291706;-1308;
2024-05-22T19:45:06.399;539601323360509083;362707;377030;291548;-1302;
2024-05-22T19:45:06.417;539601323378667801;362499;376874;291430;-1305;
2024-05-22T19:45:06.435;539601323396826519;362283;376697;291326;-1302;
2024-05-22T19:45:06.454;539601323414985237;362255;376643;291287;-1270;
2024-05-22T19:45:06.472;539601323433143955;362102;376586;291209;-1295;
2024-05-22T19:45:06.490;539601323451302673;362207;376558;291243;-1262;
2024-05-22T19:45:06.508;539601323469461391;362224;376674;291224;-1288;
2024-05-22T19:45:06.526;539601323487620109;362303;376700;291334;-1310;
2024-05-22T19:45:06.544;539601323505778827;362373;376717;291383;-1290;
2024-05-22T19:45:06.562;539601323523937545;362451;376812;291424;-1246;
2024-05-22T19:45:06.581;539601323542097316;362516;376878;291497;-1232;
2024-05-22T19:45:06.599;539601323560257051;362561;376900;291505;-1318;
2024-05-22T19:45:06.617;539601323578416786;362574;376975;291466;-1324;
2024-05-22T19:45:06.635;539601323596576521;362614;376919;291533;-1294;
2024-05-22T19:45:06.653;539601323614736256;362762;376941;291619;-1280;
2024-05-22T19:45:06.671;539601323632895991;362672;376866;291558;-1330;
2024-05-22T19:45:06.690;539601323651055726;362732;376894;291583;-1334;
2024-05-22T19:45:06.708;539601323669215461;362619;376884;291503;-1313;
2024-05-22T19:45:06.726;539601323687375196;362632;376890;291492;-1289;
2024-05-22T19:45:06.744;539601323705534931;362581;376902;291534;-1321;
2024-05-22T19:45:06.762;539601323723694666;362537;376818;291513;-1351;
2024-05-22T19:45:06.780;539601323741854401;362630;376905;291521;-1288;
2024-05-22T19:45:06.799;539601323760014136;362609;376819;291515;-1351;
2024-05-22T19:45:06.817;539601323778173871;362601;376850;291542;-1373;
2024-05-22T19:45:06.835;539601323796333606;362637;376814;291554;-1340;
2024-05-22T19:45:06.853;539601323814493341;362722;376864;291590;-1312;
2024-05-22T19:45:06.871;539601323832653076;362718;376964;291569;-1283;
2024-05-22T19:45:06.889;539601323850812811;362801;376998;291646;-1279;
2024-05-22T19:45:06.907;539601323868972546;362880;376966;291622;-1278;
2024-05-22T19:45:06.926;539601323887132281;362767;376903;291601;-1289;
2024-05-22T19:45:06.944;539601323905292016;362572;376806;291481;-1256;
2024-05-22T19:45:06.962;539601323923451751;362414;376622;291331;-1287;
2024-05-22T19:45:06.980;539601323941611486;362028;376352;291201;-1329;
2024-05-22T19:45:06.998;539601323959771221;361679;376036;291008;-1289;
2024-05-22T19:45:07.016;539601323977930956;361329;375725;290706;-1263;
2024-05-22T19:45:07.035;539601323996090691;361039;375473;290594;-1308;
2024-05-22T19:45:07.053;539601324014250426;360809;375209;290472;-1337;
2024-05-22T19:45:07.071;539601324032410161;360681;375063;290393;-1353;
2024-05-22T19:45:07.089;539601324050569896;360637;374980;290296;-1297;
2024-05-22T19:45:07.107;539601324068729631;360571;374871;290246;-1313;
2024-05-22T19:45:07.125;539601324086889366;360622;374889;290256;-1275;
2024-05-22T19:45:07.144;539601324105049101;360625;374999;290309;-1320;
2024-05-22T19:45:07.162;539601324123208836;360747;375068;290389;-1250;
2024-05-22T19:45:07.180;539601324141368571;360885;375103;290480;-1291;
2024-05-22T19:45:07.198;539601324159528306;360934;375133;290429;-1270;
2024-05-22T19:45:07.216;539601324177688041;361009;375233;290445;-1309;
2024-05-22T19:45:07.234;539601324195847776;361186;375323;290587;-1291;
2024-05-22T19:45:07.253;539601324214007511;361261;375400;290696;-1333;
2024-05-22T19:45:07.271;539601324232167246;361311;375514;290702;-1328;
2024-05-22T19:45:07.289;539601324250326981;361311;375505;290695;-1311;
2024-05-22T19:45:07.307;539601324268486716;361410;375542;290699;-1253;
2024-05-22T19:45:07.325;539601324286646451;361419;375598;290773;-1308;
2024-05-22T19:45:07.343;539601324304806186;361454;375513;290722;-1207;
2024-05-22T19:45:07.361;539601324322965933;361438;375590;290737;-1322;
2024-05-22T19:45:07.380;539601324341125669;361494;375610;290801;-1254;
2024-05-22T19:45:07.398;539601324359285405;361463;375672;290810;-1314;
2024-05-22T19:45:07.416;539601324377445141;361466;375655;290796;-1279;
2024-05-22T19:45:07.434;539601324395604877;361509;375693;290832;-1309;
2024-05-22T19:45:07.452;539601324413764613;361548;375659;290781;-1344;
2024-05-22T19:45:07.470;539601324431924349;361543;375706;290844;-1331;
2024-05-22T19:45:07.489;539601324450084085;361562;375724;290888;-1310;
2024-05-22T19:45:07.507;539601324468243821;361666;375726;290930;-1301;
2024-05-22T19:45:07.525;539601324486403557;361669;375812;290983;-1288;
2024-05-22T19:45:07.543;539601324504563293;361766;375856;290978;-1304;
2024-05-22T19:45:07.561;539601324522723029;361768;375907;291023;-1314;
2024-05-22T19:45:07.579;539601324540882765;361671;375778;290976;-1314;
2024-05-22T19:45:07.598;539601324559042501;361462;375591;290825;-1276;
2024-05-22T19:45:07.616;539601324577202237;361272;375386;290655;-1305;
2024-05-22T19:45:07.634;539601324595361973;360913;375056;290464;-1256;
2024-05-22T19:45:07.652;539601324613521709;360635;374741;290212;-1291;
2024-05-22T19:45:07.670;539601324631681445;360274;374484;290057;-1307;
2024-05-22T19:45:07.688;539601324649841181;360080;374229;289827;-1346;
2024-05-22T19:45:07.707;539601324668000917;359961;374013;289695;-1313;
2024-05-22T19:45:07.725;539601324686160653;359777;373863;289543;-1334;
2024-05-22T19:45:07.743;539601324704320389;359718;373885;289520;-1266;
2024-05-22T19:45:07.761;539601324722480125;359675;373799;289496;-1341;
2024-05-22T19:45:07.779;539601324740639861;359756;373826;289565;-1286;
2024-05-22T19:45:07.797;539601324758799597;359800;373856;289593;-1327;
2024-05-22T19:45:07.815;539601324776959333;359887;374021;289672;-1312;
2024-05-22T19:45:07.834;539601324795119069;359920;374031;289698;-1350;
2024-05-22T19:45:07.852;539601324813278805;360084;374092;289760;-1310;
2024-05-22T19:45:07.870;539601324831438541;360163;374155;289802;-1328;
2024-05-22T19:45:07.888;539601324849598277;360310;374237;289845;-1302;
2024-05-22T19:45:07.906;539601324867758013;360306;374439;289972;-1312;
2024-05-22T19:45:07.924;539601324885917749;360335;374413;289938;-1329;
2024-05-22T19:45:07.943;539601324904077485;360364;374379;289975;-1341;
2024-05-22T19:45:07.961;539601324922237221;360374;374388;289981;-1330;
2024-05-22T19:45:07.979;539601324940396957;360448;374480;289995;-1327;
2024-05-22T19:45:07.997;539601324958556693;360463;374526;290003;-1331;
2024-05-22T19:45:08.015;539601324976716429;360539;374544;290039;-1286;
2024-05-22T19:45:08.033;539601324994876165;360541;374543;290073;-1305;
2024-05-22T19:45:08.052;539601325013035901;360554;374498;290036;-1382;
2024-05-22T19:45:08.070;539601325031195637;360560;374536;290051;-1358;
2024-05-22T19:45:08.088;539601325049355373;360566;374509;290019;-1358;
2024-05-22T19:45:08.106;539601325067515109;360628;374534;290110;-1343;
2024-05-22T19:45:08.124;539601325085674845;360628;374611;290162;-1326;
2024-05-22T19:45:08.142;539601325103833740;360766;374679;290176;-1297;
2024-05-22T19:45:08.161;539601325121992624;360824;374757;290264;-1319;
2024-05-22T19:45:08.179;539601325140151508;360879;374787;290276;-1296;
2024-05-22T19:45:08.197;539601325158310392;360874;374849;290253;-1305;
2024-05-22T19:45:08.215;539601325176469276;360949;374834;290371;-1300;
2024-05-22T19:45:08.233;539601325194628160;360808;374780;290229;-1343;
2024-05-22T19:45:08.251;539601325212787044;360609;374517;290063;-1296;
2024-05-22T19:45:08.269;539601325230945928;360313;374216;289883;-1320;
2024-05-22T19:45:08.288;539601325249104812;360028;373954;289670;-1345;
2024-05-22T19:45:08.306;539601325267263696;359787;373767;289471;-1383;
2024-05-22T19:45:08.324;539601325285422580;359556;373492;289277;-1328;
2024-05-22T19:45:08.342;539601325303581464;359288;373250;289040;-1328;
2024-05-22T19:45:08.360;539601325321740348;359235;373131;288993;-1284;
2024-05-22T19:45:08.378;539601325339899232;359119;373108;288955;-1304;
2024-05-22T19:45:08.397;539601325358058116;359189;373098;288972;-1274;
2024-05-22T19:45:08.415;539601325376217000;359237;373137;288987;-1305;
2024-05-22T19:45:08.433;539601325394375884;359237;373259;289011;-1276;
2024-05-22T19:45:08.451;539601325412534768;359275;373228;289068;-1257;
2024-05-22T19:45:08.469;539601325430693652;359357;373313;289137;-1289;
2024-05-22T19:45:08.487;539601325448852536;359439;373383;289222;-1318;
2024-05-22T19:45:08.506;539601325467011420;359545;373491;289349;-1283;
2024-05-22T19:45:08.524;539601325485170304;359590;373560;289332;-1272;
2024-05-22T19:45:08.542;539601325503329188;359696;373613;289323;-1334;
2024-05-22T19:45:08.560;539601325521488072;359766;373639;289370;-1288;
2024-05-22T19:45:08.578;539601325539646956;359831;373704;289370;-1310;
2024-05-22T19:45:08.596;539601325557805840;359901;373822;289407;-1275;
2024-05-22T19:45:08.614;539601325575964724;359924;373775;289455;-1276;
2024-05-22T19:45:08.633;539601325594123608;359893;373849;289431;-1274;
2024-05-22T19:45:08.651;539601325612282492;359919;373812;289494;-1336;
2024-05-22T19:45:08.669;539601325630441376;360023;373950;289470;-1257;
2024-05-22T19:45:08.687;539601325648600260;360039;373943;289505;-1266;
2024-05-22T19:45:08.705;539601325666759144;360081;373952;289518;-1265;
2024-05-22T19:45:08.723;539601325684918028;360132;373955;289494;-1276;
2024-05-22T19:45:08.742;539601325703076912;360116;374040;289525;-1280;
2024-05-22T19:45:08.760;539601325721235796;360229;374124;289589;-1258;
2024-05-22T19:45:08.778;539601325739394680;360274;374201;289607;-1292;
2024-05-22T19:45:08.796;539601325757553564;360297;374255;289631;-1276;
2024-05-22T19:45:08.814;539601325775712448;360363;374353;289701;-1329;
2024-05-22T19:45:08.832;539601325793871332;360462;374417;289756;-1305;
2024-05-22T19:45:08.851;539601325812030216;360483;374393;289728;-1287;
2024-05-22T19:45:08.869;539601325830189100;360445;374252;289702;-1312;
2024-05-22T19:45:08.887;539601325848347984;360250;374097;289656;-1310;
2024-05-22T19:45:08.905;539601325866506868;360060;373958;289436;-1314;
2024-05-22T19:45:08.923;539601325884664380;359858;373712;289260;-1304;
2024-05-22T19:45:08.941;539601325902821880;359598;373483;289061;-1296;
2024-05-22T19:45:08.959;539601325920979380;359433;373314;288890;-1284;
2024-05-22T19:45:08.978;539601325939136880;359192;373079;288770;-1292;
2024-05-22T19:45:08.996;539601325957294380;359068;372939;288702;-1293;
2024-05-22T19:45:09.014;539601325975451880;358933;372907;288624;-1316;
2024-05-22T19:45:09.032;539601325993609380;358926;372856;288541;-1258;
2024-05-22T19:45:09.050;539601326011766880;358920;372889;288555;-1313;
2024-05-22T19:45:09.068;539601326029924380;359033;372912;288625;-1251;
2024-05-22T19:45:09.087;539601326048081880;359134;372992;288640;-1276;
2024-05-22T19:45:09.105;539601326066239380;359209;373120;288738;-1284;
2024-05-22T19:45:09.123;539601326084396880;359224;373264;288763;-1294;
2024-05-22T19:45:09.141;539601326102554380;359389;373328;288820;-1320;
2024-05-22T19:45:09.159;539601326120711880;359534;373405;288912;-1363;
2024-05-22T19:45:09.177;539601326138869380;359602;373474;288991;-1322;
2024-05-22T19:45:09.196;539601326157026880;359703;373549;289122;-1318;
2024-05-22T19:45:09.214;539601326175184380;359736;373602;289038;-1303;
2024-05-22T19:45:09.232;539601326193341880;359768;373700;289148;-1343;
2024-05-22T19:45:09.250;539601326211499380;359863;373769;289175;-1312;
2024-05-22T19:45:09.268;539601326229656880;359903;373868;289221;-1286;
2024-05-22T19:45:09.286;539601326247814380;359955;373896;289153;-1274;
2024-05-22T19:45:09.304;539601326265971880;359939;373895;289204;-1354;
2024-05-22T19:45:09.323;539601326284129380;360066;374005;289285;-1330;
2024-05-22T19:45:09.341;539601326302286880;360117;374034;289266;-1329;
2024-05-22T19:45:09.359;539601326320444380;360202;374158;289380;-1320;
2024-05-22T19:45:09.377;539601326338601880;360204;374178;289343;-1289;
2024-05-22T19:45:09.395;539601326356759380;360356;374219;289391;-1306;
2024-05-22T19:45:09.413;539601326374916880;360465;374364;289478;-1268;
2024-05-22T19:45:09.432;539601326393074380;360484;374467;289508;-1257;
2024-05-22T19:45:09.450;539601326411231880;360586;374524;289597;-1276;
2024-05-22T19:45:09.468;539601326429389380;360713;374629;289724;-1228;
2024-05-22T19:45:09.486;539601326447546880;360653;374571;289588;-1285;
2024-05-22T19:45:09.504;539601326465704380;360610;374543;289544;-1260;
2024-05-22T19:45:09.522;539601326483861880;360394;374397;289399;-1254;
2024-05-22T19:45:09.541;539601326502019380;360261;374224;289283;-1318;
2024-05-22T19:45:09.559;539601326520176880;359974;374011;289093;-1323;
2024-05-22T19:45:09.577;539601326538334380;359763;373801;288966;-1287;
2024-05-22T19:45:09.595;539601326556491880;359546;373570;288729;-1309;
2024-05-22T19:45:09.613;539601326574649380;359383;373424;288638;-1285;
2024-05-22T19:45:09.631;539601326592806880;359225;373346;288523;-1301;
2024-05-22T19:45:09.649;539601326610964380;359109;373245;288451;-1342;
2024-05-22T19:45:09.668;539601326629121880;359170;373245;288476;-1280;
2024-05-22T19:45:09.686;539601326647279380;359142;373267;288471;-1305;
2024-05-22T19:45:09.704;539601326665438660;359242;373366;288541;-1299;
2024-05-22T19:45:09.722;539601326683597923;359320;373535;288675;-1309;
2024-05-22T19:45:09.740;539601326701757186;359429;373535;288633;-1321;
2024-05-22T19:45:09.758;539601326719916449;359533;373624;288741;-1313;
2024-05-22T19:45:09.777;539601326738075712;359666;373747;288799;-1343;
2024-05-22T19:45:09.795;539601326756234975;359784;373891;288874;-1326;
2024-05-22T19:45:09.813;539601326774394238;359920;373969;288962;-1313;
2024-05-22T19:45:09.831;539601326792553501;359993;374074;289017;-1358;
2024-05-22T19:45:09.849;539601326810712764;360015;374132;289044;-1279;
2024-05-22T19:45:09.867;539601326828872027;360083;374238;289107;-1291;
2024-05-22T19:45:09.886;539601326847031290;360226;374348;289163;-1282;
2024-05-22T19:45:09.904;539601326865190553;360283;374363;289159;-1300;
2024-05-22T19:45:09.922;539601326883349816;360363;374423;289186;-1316;
2024-05-22T19:45:09.940;539601326901509079;360408;374526;289214;-1311;
2024-05-22T19:45:09.958;539601326919668342;360387;374559;289180;-1331;
2024-05-22T19:45:09.976;539601326937827605;360505;374624;289297;-1353;
2024-05-22T19:45:09.995;539601326955986868;360521;374710;289354;-1361;
2024-05-22T19:45:10.013;539601326974146131;360603;374819;289403;-1307;
2024-05-22T19:45:10.031;539601326992305394;360670;374839;289422;-1301;
2024-05-22T19:45:10.049;539601327010464657;360806;374946;289510;-1271;
2024-05-22T19:45:10.067;539601327028623920;360868;375079;289516;-1359;
2024-05-22T19:45:10.085;539601327046783183;360942;375164;289623;-1363;
2024-05-22T19:45:10.103;539601327064942446;361044;375210;289649;-1276;
2024-05-22T19:45:10.122;539601327083101709;360971;375195;289589;-1322;
2024-05-22T19:45:10.140;539601327101260972;360894;375149;289493;-1324;
2024-05-22T19:45:10.158;539601327119420235;360744;374992;289427;-1300;
2024-05-22T19:45:10.176;539601327137579498;360545;374821;289280;-1327;
2024-05-22T19:45:10.194;539601327155738761;360343;374654;289179;-1295;
2024-05-22T19:45:10.212;539601327173898024;360162;374488;288963;-1331;
2024-05-22T19:45:10.231;539601327192057287;359973;374381;288852;-1299;
2024-05-22T19:45:10.249;539601327210216550;359792;374265;288777;-1268;
2024-05-22T19:45:10.267;539601327228375813;359805;374219;288697;-1262;
2024-05-22T19:45:10.285;539601327246535076;359750;374216;288664;-1274;
2024-05-22T19:45:10.303;539601327264694339;359737;374227;288698;-1300;
2024-05-22T19:45:10.321;539601327282853602;359910;374261;288754;-1320;
2024-05-22T19:45:10.340;539601327301012865;359976;374403;288893;-1285;
2024-05-22T19:45:10.358;539601327319172128;360093;374536;288933;-1276;
2024-05-22T19:45:10.376;539601327337331391;360212;374647;289031;-1267;
2024-05-22T19:45:10.394;539601327355490654;360396;374799;289079;-1261;
2024-05-22T19:45:10.412;539601327373649917;360447;374865;289162;-1304;
2024-05-22T19:45:10.430;539601327391809180;360574;374986;289210;-1294;
2024-05-22T19:45:10.448;539601327409968443;360623;375042;289287;-1294;
2024-05-22T19:45:10.467;539601327428128214;360696;375167;289357;-1339;
2024-05-22T19:45:10.485;539601327446287949;360798;375257;289404;-1326;
2024-05-22T19:45:10.503;539601327464447684;360846;375292;289450;-1356;
2024-05-22T19:45:10.521;539601327482607419;360908;375407;289497;-1341;
2024-05-22T19:45:10.539;539601327500767154;360991;375428;289525;-1345;
2024-05-22T19:45:10.557;539601327518926889;361038;375482;289604;-1296;
2024-05-22T19:45:10.576;539601327537086624;361071;375575;289647;-1337;
2024-05-22T19:45:10.594;539601327555246359;361148;375611;289679;-1316;
2024-05-22T19:45:10.612;539601327573406094;361239;375677;289687;-1266;
2024-05-22T19:45:10.630;539601327591565829;361276;375752;289773;-1326;
2024-05-22T19:45:10.648;539601327609725564;361436;375836;289804;-1316;
2024-05-22T19:45:10.666;539601327627885299;361482;375911;289777;-1288;
2024-05-22T19:45:10.685;539601327646045034;361491;375991;289857;-1277;
2024-05-22T19:45:10.703;539601327664204769;361525;376031;289936;-1280;
2024-05-22T19:45:10.721;539601327682364504;361642;376088;289981;-1337;
2024-05-22T19:45:10.739;539601327700524239;361692;376157;290012;-1305;
2024-05-22T19:45:10.757;539601327718683974;361661;376171;290007;-1250;
2024-05-22T19:45:10.775;539601327736843709;361557;376113;289965;-1250;
2024-05-22T19:45:10.794;539601327755003444;361391;375994;289836;-1280;
2024-05-22T19:45:10.812;539601327773163179;361193;375798;289692;-1252;
2024-05-22T19:45:10.830;539601327791322914;361002;375651;289611;-1263;
2024-05-22T19:45:10.848;539601327809482649;360827;375521;289434;-1279;
2024-05-22T19:45:10.866;539601327827642384;360705;375360;289302;-1310;
2024-05-22T19:45:10.884;539601327845802119;360567;375258;289212;-1270;
2024-05-22T19:45:10.902;539601327863961854;360412;375158;289170;-1285;
2024-05-22T19:45:10.921;539601327882121589;360438;375154;289152;-1266;
2024-05-22T19:45:10.939;539601327900281324;360468;375194;289180;-1296;
2024-05-22T19:45:10.957;539601327918441059;360544;375287;289135;-1334;
2024-05-22T19:45:10.975;539601327936600794;360622;375309;289147;-1380;
2024-05-22T19:45:10.993;539601327954760529;360721;375437;289300;-1284;
2024-05-22T19:45:11.011;539601327972920264;360805;375488;289346;-1303;
2024-05-22T19:45:11.030;539601327991079999;360935;375626;289494;-1294;
2024-05-22T19:45:11.048;539601328009239734;361039;375780;289556;-1319;
2024-05-22T19:45:11.066;539601328027399469;361152;375912;289612;-1260;
2024-05-22T19:45:11.084;539601328045559204;361259;375944;289616;-1313;
2024-05-22T19:45:11.102;539601328063718939;361283;376034;289712;-1324;
2024-05-22T19:45:11.120;539601328081878674;361300;376127;289698;-1280;
2024-05-22T19:45:11.139;539601328100038409;361387;376149;289775;-1278;
2024-05-22T19:45:11.157;539601328118198144;361431;376221;289768;-1296;
2024-05-22T19:45:11.175;539601328136357879;361583;376287;289915;-1308;
2024-05-22T19:45:11.193;539601328154517614;361623;376290;289909;-1289;
2024-05-22T19:45:11.211;539601328172677349;361705;376378;289981;-1273;
2024-05-22T19:45:11.229;539601328190835450;361797;376383;290021;-1290;
2024-05-22T19:45:11.248;539601328208993514;361866;376462;290087;-1307;
2024-05-22T19:45:11.266;539601328227151578;361848;376497;290135;-1312;
2024-05-22T19:45:11.284;539601328245309642;361961;376595;290127;-1292;
2024-05-22T19:45:11.302;539601328263467706;361993;376693;290204;-1286;
2024-05-22T19:45:11.320;539601328281625770;362097;376748;290221;-1308;
2024-05-22T19:45:11.338;539601328299783834;362208;376868;290321;-1306;
2024-05-22T19:45:11.356;539601328317941898;362331;377006;290281;-1318;
2024-05-22T19:45:11.375;539601328336099962;362442;377018;290401;-1252;
2024-05-22T19:45:11.393;539601328354258026;362403;377096;290452;-1323;
2024-05-22T19:45:11.411;539601328372416090;362349;377003;290375;-1309;
2024-05-22T19:45:11.429;539601328390574154;362285;376931;290263;-1317;
2024-05-22T19:45:11.447;539601328408732218;362196;376808;290224;-1291;
2024-05-22T19:45:11.465;539601328426890282;361934;376632;290055;-1297;
2024-05-22T19:45:11.484;539601328445048346;361807;376498;289958;-1263;
2024-05-22T19:45:11.502;539601328463206410;361653;376349;289821;-1304;
2024-05-22T19:45:11.520;539601328481364474;361477;376246;289753;-1292;
2024-05-22T19:45:11.538;539601328499522538;361340;376162;289702;-1319;
2024-05-22T19:45:11.556;539601328517680602;361255;376128;289676;-1260;
2024-05-22T19:45:11.574;539601328535838666;361225;376135;289685;-1313;
2024-05-22T19:45:11.593;539601328553996730;361312;376184;289628;-1275;
2024-05-22T19:45:11.611;539601328572154794;361340;376179;289664;-1273;
2024-05-22T19:45:11.629;539601328590312858;361411;376308;289812;-1280;
2024-05-22T19:45:11.647;539601328608470922;361542;376422;289840;-1271;
2024-05-22T19:45:11.665;539601328626628986;361691;376498;289908;-1277;
2024-05-22T19:45:11.683;539601328644787050;361778;376572;289985;-1274;
2024-05-22T19:45:11.701;539601328662945114;361863;376661;290043;-1250;
2024-05-22T19:45:11.720;539601328681103178;361895;376748;290065;-1330;
2024-05-22T19:45:11.738;539601328699261242;362027;376825;290108;-1313;
2024-05-22T19:45:11.756;539601328717419306;362104;376879;290171;-1292;
2024-05-22T19:45:11.774;539601328735577370;362177;376904;290159;-1320;
2024-05-22T19:45:11.792;539601328753735434;362211;376948;290191;-1317;
2024-05-22T19:45:11.810;539601328771893498;362212;377040;290228;-1273;
2024-05-22T19:45:11.829;539601328790051562;362361;377073;290325;-1286;
2024-05-22T19:45:11.847;539601328808209626;362344;377104;290341;-1252;
2024-05-22T19:45:11.865;539601328826367690;362454;377144;290332;-1261;
2024-05-22T19:45:11.883;539601328844525754;362447;377186;290346;-1321;
2024-05-22T19:45:11.901;539601328862683818;362466;377247;290444;-1307;
2024-05-22T19:45:11.919;539601328880841882;362551;377343;290526;-1304;
2024-05-22T19:45:11.938;539601328898999946;362569;377282;290546;-1303;
2024-05-22T19:45:11.956;539601328917158010;362699;377418;290611;-1288;
2024-05-22T19:45:11.974;539601328935316074;362780;377531;290651;-1290;
2024-05-22T19:45:11.992;539601328953475134;362838;377554;290660;-1289;
2024-05-22T19:45:12.010;539601328971634179;362932;377564;290733;-1277;
2024-05-22T19:45:12.028;539601328989793224;363055;377718;290791;-1275;
2024-05-22T19:45:12.046;539601329007952269;363056;377822;290801;-1273;
2024-05-22T19:45:12.065;539601329026111314;363040;377734;290811;-1256;
2024-05-22T19:45:12.083;539601329044270359;362978;377695;290764;-1275;
2024-05-22T19:45:12.101;539601329062429404;362900;377528;290664;-1320;
2024-05-22T19:45:12.119;539601329080588449;362748;377439;290569;-1347;
2024-05-22T19:45:12.137;539601329098747494;362619;377301;290458;-1259;
2024-05-22T19:45:12.155;539601329116906539;362363;377160;290366;-1294;
2024-05-22T19:45:12.174;539601329135065584;362207;377073;290241;-1319;
2024-05-22T19:45:12.192;539601329153224629;362159;377038;290231;-1278;
2024-05-22T19:45:12.210;539601329171383674;362118;377058;290219;-1261;
2024-05-22T19:45:12.228;539601329189542719;362195;377092;290244;-1280;
2024-05-22T19:45:12.246;539601329207701764;362260;377098;290230;-1273;
2024-05-22T19:45:12.264;539601329225860809;362319;377178;290320;-1272;
2024-05-22T19:45:12.283;539601329244019854;362426;377289;290416;-1251;
2024-05-22T19:45:12.301;539601329262178899;362574;377367;290516;-1306;
2024-05-22T19:45:12.319;539601329280337944;362651;377468;290570;-1297;
2024-05-22T19:45:12.337;539601329298496989;362799;377591;290687;-1289;
2024-05-22T19:45:12.355;539601329316656034;362878;377732;290772;-1357;
2024-05-22T19:45:12.373;539601329334815079;363001;377769;290763;-1282;
2024-05-22T19:45:12.391;539601329352974124;363032;377900;290823;-1279;
2024-05-22T19:45:12.410;539601329371133169;363173;377987;290902;-1304;
2024-05-22T19:45:12.428;539601329389292214;363200;377976;290933;-1283;
2024-05-22T19:45:12.446;539601329407451259;363280;378053;290990;-1292;
2024-05-22T19:45:12.464;539601329425610304;363365;378074;291046;-1335;
2024-05-22T19:45:12.482;539601329443769349;363374;378182;291084;-1284;
2024-05-22T19:45:12.500;539601329461928394;363433;378163;291100;-1295;
2024-05-22T19:45:12.519;539601329480087439;363539;378203;291127;-1266;
2024-05-22T19:45:12.537;539601329498246484;363572;378297;291141;-1269;
2024-05-22T19:45:12.555;539601329516405529;363592;378287;291176;-1276;
2024-05-22T19:45:12.573;539601329534564574;363640;378350;291201;-1256;
2024-05-22T19:45:12.591;539601329552723619;363717;378374;291239;-1304;
2024-05-22T19:45:12.609;539601329570882664;363707;378418;291262;-1322;
2024-05-22T19:45:12.628;539601329589041709;363831;378485;291329;-1269;
2024-05-22T19:45:12.646;539601329607200754;363862;378626;291302;-1289;
2024-05-22T19:45:12.664;539601329625359799;363989;378630;291394;-1317;
2024-05-22T19:45:12.682;539601329643518844;364063;378711;291499;-1284;
2024-05-22T19:45:12.700;539601329661677889;364077;378734;291450;-1343;
2024-05-22T19:45:12.718;539601329679836934;364086;378773;291530;-1328;
2024-05-22T19:45:12.737;539601329697995979;364035;378658;291441;-1279;
2024-05-22T19:45:12.755;539601329716155288;363905;378554;291339;-1274;
2024-05-22T19:45:12.773;539601329734314588;363591;378355;291218;-1311;
2024-05-22T19:45:12.791;539601329752473888;363438;378202;291044;-1376;
2024-05-22T19:45:12.809;539601329770633188;363245;378023;290950;-1336;
2024-05-22T19:45:12.827;539601329788792488;363055;377889;290810;-1319;
2024-05-22T19:45:12.845;539601329806951788;362869;377725;290702;-1320;
2024-05-22T19:45:12.864;539601329825111088;362754;377674;290647;-1254;
2024-05-22T19:45:12.882;539601329843270388;362795;377720;290694;-1240;
2024-05-22T19:45:12.900;539601329861429688;362756;377638;290664;-1294;
2024-05-22T19:45:12.918;539601329879588988;362808;377652;290691;-1304;
2024-05-22T19:45:12.936;539601329897748288;362948;377809;290773;-1259;
2024-05-22T19:45:12.954;539601329915907588;363008;377892;290830;-1273;
2024-05-22T19:45:12.973;539601329934066888;363101;377979;290840;-1303;
2024-05-22T19:45:12.991;539601329952226188;363201;378070;290972;-1333;
2024-05-22T19:45:13.009;539601329970385488;363287;378196;291035;-1318;
2024-05-22T19:45:13.027;539601329988544788;363451;378214;291120;-1304;
2024-05-22T19:45:13.045;539601330006704088;363567;378386;291209;-1309;
2024-05-22T19:45:13.063;539601330024863388;363718;378413;291264;-1350;
2024-05-22T19:45:13.082;539601330043022688;363784;378507;291365;-1261;
2024-05-22T19:45:13.100;539601330061181988;363815;378571;291331;-1325;
2024-05-22T19:45:13.118;539601330079341288;363921;378676;291432;-1303;
2024-05-22T19:45:13.136;539601330097500588;363933;378711;291461;-1307;
2024-05-22T19:45:13.154;539601330115659888;364055;378789;291480;-1267;
2024-05-22T19:45:13.172;539601330133819188;364092;378856;291518;-1310;
2024-05-22T19:45:13.190;539601330151978488;364185;378953;291576;-1280;
2024-05-22T19:45:13.209;539601330170137788;364315;378954;291626;-1344;
2024-05-22T19:45:13.227;539601330188297088;364316;379010;291623;-1363;
2024-05-22T19:45:13.245;539601330206456388;364439;379099;291685;-1270;
2024-05-22T19:45:13.263;539601330224615688;364508;379125;291774;-1274;
2024-05-22T19:45:13.281;539601330242774988;364548;379209;291810;-1307;
2024-05-22T19:45:13.299;539601330260934288;364691;379330;291874;-1261;
2024-05-22T19:45:13.318;539601330279093588;364689;379435;291860;-1342;
2024-05-22T19:45:13.336;539601330297252888;364872;379549;291967;-1297;
2024-05-22T19:45:13.354;539601330315412188;364881;379597;292036;-1333;
2024-05-22T19:45:13.372;539601330333571488;365006;379660;292082;-1325;
2024-05-22T19:45:13.390;539601330351730788;365038;379669;292089;-1324;
2024-05-22T19:45:13.408;539601330369890088;365077;379708;292118;-1273;
2024-05-22T19:45:13.427;539601330388049388;364936;379642;292095;-1307;
2024-05-22T19:45:13.445;539601330406208688;364801;379568;291993;-1282;
2024-05-22T19:45:13.463;539601330424367988;364622;379409;291927;-1257;
2024-05-22T19:45:13.481;539601330442527288;364432;379222;291778;-1330;
2024-05-22T19:45:13.499;539601330460686588;364231;379106;291618;-1299;
2024-05-22T19:45:13.517;539601330478846170;364059;378984;291541;-1262;
2024-05-22T19:45:13.536;539601330497005736;363910;378749;291439;-1246;
2024-05-22T19:45:13.554;539601330515165302;363818;378637;291385;-1271;
2024-05-22T19:45:13.572;539601330533324868;363713;378571;291282;-1276;
2024-05-22T19:45:13.590;539601330551484434;363618;378494;291252;-1327;
2024-05-22T19:45:13.608;539601330569644000;363682;378549;291266;-1250;
2024-05-22T19:45:13.626;539601330587803566;363742;378593;291331;-1307;
2024-05-22T19:45:13.644;539601330605963132;363729;378592;291384;-1327;
2024-05-22T19:45:13.663;539601330624122698;363828;378652;291412;-1282;
2024-05-22T19:45:13.681;539601330642282264;363852;378651;291373;-1318;
2024-05-22T19:45:13.699;539601330660441830;363891;378689;291396;-1339;
2024-05-22T19:45:13.717;539601330678601396;363924;378814;291517;-1392;
2024-05-22T19:45:13.735;539601330696760962;363951;378814;291454;-1339;
2024-05-22T19:45:13.753;539601330714920528;364038;378832;291519;-1282;
2024-05-22T19:45:13.772;539601330733080094;364091;378886;291541;-1294;
2024-05-22T19:45:13.790;539601330751239660;364113;378908;291558;-1336;
2024-05-22T19:45:13.808;539601330769399226;364111;378952;291533;-1300;
2024-05-22T19:45:13.826;539601330787558792;364223;378989;291589;-1282;
2024-05-22T19:45:13.844;539601330805718358;364209;378997;291592;-1358;
2024-05-22T19:45:13.862;539601330823877924;364252;379083;291627;-1293;
2024-05-22T19:45:13.881;539601330842037490;364354;379085;291681;-1335;
2024-05-22T19:45:13.899;539601330860197056;364448;379118;291772;-1304;
2024-05-22T19:45:13.917;539601330878356622;364502;379172;291782;-1289;
2024-05-22T19:45:13.935;539601330896516188;364475;379164;291813;-1336;
2024-05-22T19:45:13.953;539601330914675754;364601;379267;291881;-1316;
2024-05-22T19:45:13.971;539601330932835320;364648;379350;291950;-1260;
2024-05-22T19:45:13.990;539601330950994886;364743;379464;291959;-1255;
2024-05-22T19:45:14.008;539601330969154452;364818;379509;292012;-1267;
2024-05-22T19:45:14.026;539601330987314018;364955;379631;292113;-1308;
2024-05-22T19:45:14.044;539601331005473584;364994;379668;292046;-1287;
2024-05-22T19:45:14.062;539601331023633150;365077;379739;292178;-1330;
2024-05-22T19:45:14.080;539601331041792716;365208;379868;292256;-1286;
2024-05-22T19:45:14.098;539601331059952282;365320;379900;292298;-1262;
2024-05-22T19:45:14.117;539601331078111848;365248;379969;292273;-1319;
2024-05-22T19:45:14.135;539601331096271414;365237;379870;292233;-1283;
2024-05-22T19:45:14.153;539601331114430980;365126;379734;292187;-1310;
2024-05-22T19:45:14.171;539601331132590546;365015;379618;292161;-1318;
2024-05-22T19:45:14.189;539601331150750112;364749;379474;291973;-1297;
2024-05-22T19:45:14.207;539601331168909678;364617;379354;291847;-1314;
2024-05-22T19:45:14.226;539601331187069244;364486;379262;291812;-1308;
2024-05-22T19:45:14.244;539601331205228810;364312;379167;291674;-1273;
2024-05-22T19:45:14.262;539601331223388376;364306;379067;291700;-1311;
2024-05-22T19:45:14.280;539601331241547942;364227;378993;291691;-1294;
2024-05-22T19:45:14.298;539601331259707508;364251;379031;291663;-1285;
2024-05-22T19:45:14.316;539601331277867074;364311;379115;291714;-1260;
2024-05-22T19:45:14.335;539601331296025284;364352;379095;291795;-1326;
2024-05-22T19:45:14.353;539601331314183494;364450;379194;291876;-1328;
2024-05-22T19:45:14.371;539601331332341704;364598;379269;291911;-1288;
2024-05-22T19:45:14.389;539601331350499914;364752;379406;291983;-1280;
2024-05-22T19:45:14.407;539601331368658124;364875;379513;292090;-1270;
2024-05-22T19:45:14.425;539601331386816334;364921;379568;292099;-1272;
2024-05-22T19:45:14.443;539601331404974544;365055;379701;292145;-1248;
2024-05-22T19:45:14.462;539601331423132754;365143;379797;292255;-1258;
2024-05-22T19:45:14.480;539601331441290964;365276;379806;292299;-1267;
2024-05-22T19:45:14.498;539601331459449174;365280;379843;292369;-1259;
2024-05-22T19:45:14.516;539601331477607384;365401;379979;292454;-1246;
2024-05-22T19:45:14.534;539601331495765594;365520;379975;292494;-1267;
2024-05-22T19:45:14.552;539601331513923804;365549;380089;292470;-1287;
2024-05-22T19:45:14.571;539601331532082014;365553;380088;292533;-1282;
2024-05-22T19:45:14.589;539601331550240224;365621;380103;292572;-1318;
2024-05-22T19:45:14.607;539601331568398434;365692;380237;292590;-1240;
2024-05-22T19:45:14.625;539601331586556644;365786;380242;292687;-1227;
2024-05-22T19:45:14.643;539601331604714854;365855;380329;292695;-1307;
2024-05-22T19:45:14.661;539601331622873064;365915;380396;292713;-1304;
2024-05-22T19:45:14.680;539601331641031274;366031;380512;292845;-1254;
2024-05-22T19:45:14.698;539601331659189484;366080;380586;292873;-1305;
2024-05-22T19:45:14.716;539601331677347694;366234;380792;293041;-1314;
2024-05-22T19:45:14.734;539601331695505904;366332;380849;293104;-1256;
2024-05-22T19:45:14.752;539601331713664114;366393;380915;293014;-1285;
2024-05-22T19:45:14.770;539601331731822324;366541;380966;293155;-1270;
2024-05-22T19:45:14.788;539601331749980534;366643;381024;293204;-1268;
2024-05-22T19:45:14.807;539601331768138744;366634;381057;293246;-1327;
2024-05-22T19:45:14.825;539601331786296954;366761;381131;293296;-1294;
2024-05-22T19:45:14.843;539601331804455164;366823;381173;293325;-1320;
2024-05-22T19:45:14.861;539601331822613374;366734;381140;293270;-1276;
2024-05-22T19:45:14.879;539601331840771584;366610;381028;293248;-1250;
2024-05-22T19:45:14.897;539601331858929794;366421;380881;293150;-1285;
2024-05-22T19:45:14.916;539601331877088004;366229;380603;292971;-1287;
2024-05-22T19:45:14.934;539601331895246214;366017;380452;292890;-1308;
2024-05-22T19:45:14.952;539601331913404424;365825;380279;292715;-1297;
2024-05-22T19:45:14.970;539601331931562634;365749;380197;292605;-1269;
2024-05-22T19:45:14.988;539601331949720844;365583;380040;292534;-1304;
2024-05-22T19:45:15.006;539601331967879054;365541;379923;292459;-1244;
2024-05-22T19:45:15.025;539601331986037264;365476;379930;292422;-1241;
2024-05-22T19:45:15.043;539601332004195474;365428;379866;292442;-1286;
2024-05-22T19:45:15.061;539601332022353684;365439;379842;292440;-1371;
2024-05-22T19:45:15.079;539601332040511894;365560;379930;292413;-1295;
2024-05-22T19:45:15.097;539601332058670104;365666;379940;292517;-1277;
2024-05-22T19:45:15.115;539601332076828314;365684;379990;292550;-1345;
2024-05-22T19:45:15.134;539601332094986524;365725;380076;292649;-1340;
2024-05-22T19:45:15.152;539601332113144734;365851;380118;292662;-1306;
2024-05-22T19:45:15.170;539601332131302944;365966;380069;292668;-1318;
2024-05-22T19:45:15.188;539601332149461154;365928;380206;292743;-1303;
2024-05-22T19:45:15.206;539601332167619364;365997;380239;292685;-1331;
2024-05-22T19:45:15.224;539601332185777574;366066;380316;292749;-1279;
2024-05-22T19:45:15.242;539601332203935784;366080;380331;292735;-1323;
2024-05-22T19:45:15.261;539601332222093994;366141;380320;292750;-1302;
2024-05-22T19:45:15.279;539601332240252204;366162;380325;292816;-1259;
2024-05-22T19:45:15.297;539601332258410414;366213;380337;292787;-1306;
2024-05-22T19:45:15.315;539601332276568624;366250;380383;292875;-1283;
2024-05-22T19:45:15.333;539601332294726834;366303;380359;292898;-1301;
2024-05-22T19:45:15.351;539601332312885044;366375;380455;292920;-1254;
2024-05-22T19:45:15.370;539601332331043254;366421;380438;292994;-1288;
2024-05-22T19:45:15.388;539601332349201464;366410;380518;293026;-1274;
2024-05-22T19:45:15.406;539601332367359674;366539;380517;293017;-1292;
2024-05-22T19:45:15.424;539601332385517884;366643;380580;293089;-1276;
2024-05-22T19:45:15.442;539601332403676094;366680;380669;293075;-1261;
2024-05-22T19:45:15.460;539601332421834304;366696;380655;293089;-1310;
2024-05-22T19:45:15.479;539601332439992514;366690;380698;293103;-1307;
2024-05-22T19:45:15.497;539601332458150724;366707;380744;293157;-1305;
2024-05-22T19:45:15.515;539601332476308934;366821;380774;293199;-1284;
2024-05-22T19:45:15.533;539601332494467144;366786;380817;293234;-1287;
2024-05-22T19:45:15.551;539601332512625354;366691;380661;293104;-1297;
2024-05-22T19:45:15.569;539601332530783564;366523;380507;293000;-1295;
2024-05-22T19:45:15.587;539601332548941774;366358;380402;292874;-1286;
2024-05-22T19:45:15.606;539601332567099984;366111;380176;292696;-1343;
2024-05-22T19:45:15.624;539601332585258194;365945;379903;292515;-1337;
2024-05-22T19:45:15.642;539601332603416404;365708;379655;292409;-1296;
2024-05-22T19:45:15.660;539601332621574614;365492;379419;292172;-1299;
2024-05-22T19:45:15.678;539601332639732824;365445;379323;292152;-1306;
2024-05-22T19:45:15.696;539601332657891034;365301;379163;292088;-1344;
2024-05-22T19:45:15.715;539601332676049244;365193;379135;292035;-1373;
2024-05-22T19:45:15.733;539601332694207454;365261;379143;292116;-1275;
2024-05-22T19:45:15.751;539601332712365664;365250;379095;292030;-1326;
2024-05-22T19:45:15.769;539601332730523874;365367;379203;292132;-1283;
2024-05-22T19:45:15.787;539601332748682084;365425;379260;292200;-1245;
2024-05-22T19:45:15.805;539601332766840294;365579;379342;292210;-1283;
2024-05-22T19:45:15.824;539601332784998504;365657;379361;292270;-1309;
2024-05-22T19:45:15.842;539601332803156714;365783;379509;292341;-1306;
2024-05-22T19:45:15.860;539601332821313184;365882;379558;292387;-1313;
2024-05-22T19:45:15.878;539601332839469650;365910;379599;292413;-1379;
2024-05-22T19:45:15.896;539601332857626116;366078;379718;292588;-1274;
2024-05-22T19:45:15.914;539601332875782582;366154;379823;292596;-1262;
2024-05-22T19:45:15.932;539601332893939048;366331;379924;292699;-1256;
2024-05-22T19:45:15.951;539601332912095514;366452;379953;292728;-1254;
2024-05-22T19:45:15.969;539601332930251980;366425;379970;292768;-1250;
2024-05-22T19:45:15.987;539601332948408446;366522;380125;292827;-1250;
2024-05-22T19:45:16.005;539601332966564912;366525;380093;292824;-1280;
2024-05-22T19:45:16.023;539601332984721378;366613;380156;292847;-1289;
2024-05-22T19:45:16.041;539601333002877844;366804;380247;292931;-1296;
2024-05-22T19:45:16.060;539601333021034310;366836;380297;292988;-1274;
2024-05-22T19:45:16.078;539601333039190776;366902;380351;292987;-1331;
2024-05-22T19:45:16.096;539601333057347242;366994;380462;293114;-1283;
2024-05-22T19:45:16.114;539601333075503708;367135;380516;293116;-1294;
2024-05-22T19:45:16.132;539601333093660174;367226;380679;293141;-1300;
2024-05-22T19:45:16.150;539601333111816640;367296;380672;293281;-1297;
2024-05-22T19:45:16.168;539601333129973106;367412;380795;293374;-1305;
2024-05-22T19:45:16.187;539601333148129572;367538;380884;293399;-1279;
2024-05-22T19:45:16.205;539601333166286038;367615;380922;293409;-1295;
2024-05-22T19:45:16.223;539601333184442504;367626;381007;293489;-1303;
2024-05-22T19:45:16.241;539601333202598970;367609;380941;293447;-1262;
2024-05-22T19:45:16.259;539601333220755436;367555;380878;293370;-1270;
2024-05-22T19:45:16.277;539601333238911902;367427;380742;293302;-1280;
2024-05-22T19:45:16.296;539601333257068368;367169;380540;293142;-1287;
2024-05-22T19:45:16.314;539601333275224834;367051;380335;293049;-1279;
2024-05-22T19:45:16.332;539601333293381300;366887;380184;292877;-1304;
2024-05-22T19:45:16.350;539601333311537766;366738;380000;292776;-1262;
2024-05-22T19:45:16.368;539601333329694232;366669;379885;292741;-1257;
2024-05-22T19:45:16.386;539601333347850698;366606;379859;292731;-1240;
2024-05-22T19:45:16.405;539601333366007164;366610;379806;292695;-1252;
2024-05-22T19:45:16.423;539601333384163630;366658;379756;292728;-1319;
2024-05-22T19:45:16.441;539601333402320096;366736;379802;292721;-1380;
2024-05-22T19:45:16.459;539601333420476562;366794;379948;292773;-1335;
2024-05-22T19:45:16.477;539601333438633028;366841;380044;292829;-1283;
2024-05-22T19:45:16.495;539601333456789494;366974;380124;292899;-1311;
2024-05-22T19:45:16.513;539601333474945960;367212;380221;293026;-1238;
2024-05-22T19:45:16.532;539601333493102426;367312;380371;293106;-1283;
2024-05-22T19:45:16.550;539601333511258892;367378;380398;293214;-1228;
2024-05-22T19:45:16.568;539601333529415358;367523;380513;293208;-1289;
2024-05-22T19:45:16.586;539601333547571824;367646;380563;293340;-1272;
2024-05-22T19:45:16.604;539601333565728290;367657;380667;293351;-1268;
2024-05-22T19:45:16.622;539601333583886082;367748;380729;293452;-1225;
2024-05-22T19:45:16.641;539601333602043866;367844;380784;293464;-1259;
2024-05-22T19:45:16.659;539601333620201650;367880;380826;293470;-1255;
2024-05-22T19:45:16.677;539601333638359434;367992;380873;293495;-1303;
2024-05-22T19:45:16.695;539601333656517218;368041;380955;293544;-1306;
2024-05-22T19:45:16.713;539601333674675002;368146;381014;293647;-1228;
2024-05-22T19:45:16.731;539601333692832786;368223;381109;293612;-1258;
2024-05-22T19:45:16.750;539601333710990570;368273;381162;293733;-1265;
2024-05-22T19:45:16.768;539601333729148354;368393;381196;293715;-1253;
2024-05-22T19:45:16.786;539601333747306138;368501;381282;293803;-1276;
2024-05-22T19:45:16.804;539601333765463922;368592;381309;293851;-1280;
2024-05-22T19:45:16.822;539601333783621706;368723;381453;293941;-1274;
2024-05-22T19:45:16.840;539601333801779490;368799;381475;293973;-1292;
2024-05-22T19:45:16.858;539601333819937274;368939;381547;294051;-1287;
2024-05-22T19:45:16.877;539601333838095058;368990;381735;294189;-1278;
2024-05-22T19:45:16.895;539601333856252842;369081;381776;294250;-1262;
2024-05-22T19:45:16.913;539601333874410626;369114;381782;294204;-1273;
2024-05-22T19:45:16.931;539601333892568410;369122;381787;294236;-1259;
2024-05-22T19:45:16.949;539601333910726194;369031;381664;294119;-1273;
2024-05-22T19:45:16.967;539601333928883978;368868;381576;294007;-1275;
2024-05-22T19:45:16.986;539601333947041762;368718;381425;293913;-1287;
2024-05-22T19:45:17.004;539601333965199546;368556;381290;293744;-1311;
2024-05-22T19:45:17.022;539601333983357330;368394;381109;293616;-1326;
2024-05-22T19:45:17.040;539601334001515114;368314;381001;293556;-1297;
2024-05-22T19:45:17.058;539601334019672898;368223;380906;293492;-1265;
2024-05-22T19:45:17.076;539601334037830682;368151;380719;293504;-1291;
2024-05-22T19:45:17.095;539601334055988466;368153;380733;293471;-1274;
2024-05-22T19:45:17.113;539601334074146250;368256;380775;293499;-1291;
2024-05-22T19:45:17.131;539601334092304034;368291;380814;293518;-1283;
2024-05-22T19:45:17.149;539601334110461818;368384;380879;293563;-1299;
2024-05-22T19:45:17.167;539601334128619602;368443;380944;293587;-1284;
2024-05-22T19:45:17.185;539601334146777386;368564;381034;293724;-1234;
2024-05-22T19:45:17.203;539601334164935170;368748;381173;293780;-1254;
2024-05-22T19:45:17.222;539601334183092954;368768;381190;293893;-1289;
2024-05-22T19:45:17.240;539601334201250738;368891;381281;293931;-1279;
2024-05-22T19:45:17.258;539601334219408522;368927;381447;293966;-1290;
2024-05-22T19:45:17.276;539601334237566306;369045;381488;294023;-1275;
2024-05-22T19:45:17.294;539601334255724090;369160;381570;294046;-1244;
2024-05-22T19:45:17.312;539601334273881874;369199;381671;294079;-1292;
2024-05-22T19:45:17.331;539601334292039658;369250;381698;294161;-1309;
2024-05-22T19:45:17.349;539601334310197442;369346;381797;294159;-1280;
2024-05-22T19:45:17.367;539601334328355226;369458;381858;294243;-1273;
2024-05-22T19:45:17.385;539601334346513010;369552;381870;294312;-1251;
2024-05-22T19:45:17.403;539601334364670203;369668;381906;294357;-1241;
2024-05-22T19:45:17.421;539601334382827372;369728;381987;294440;-1216;
2024-05-22T19:45:17.440;539601334400984541;369827;382044;294428;-1273;
2024-05-22T19:45:17.458;539601334419141710;369883;382122;294468;-1234;
2024-05-22T19:45:17.476;539601334437298879;369967;382185;294501;-1246;
2024-05-22T19:45:17.494;539601334455456048;369993;382268;294550;-1300;
2024-05-22T19:45:17.512;539601334473613217;370095;382338;294655;-1263;
2024-05-22T19:45:17.530;539601334491770386;370194;382433;294708;-1270;
2024-05-22T19:45:17.548;539601334509927555;370295;382495;294725;-1271;
2024-05-22T19:45:17.567;539601334528084724;370417;382592;294798;-1330;
2024-05-22T19:45:17.585;539601334546241893;370493;382645;294862;-1273;
2024-05-22T19:45:17.603;539601334564399062;370462;382638;294830;-1276;
2024-05-22T19:45:17.621;539601334582556231;370407;382632;294763;-1245;
2024-05-22T19:45:17.639;539601334600713400;370304;382514;294738;-1304;
2024-05-22T19:45:17.657;539601334618870569;370249;382347;294623;-1313;
2024-05-22T19:45:17.676;539601334637027738;370041;382252;294562;-1276;
2024-05-22T19:45:17.694;539601334655184907;369813;382055;294350;-1327;
2024-05-22T19:45:17.712;539601334673342076;369761;381901;294305;-1260;
2024-05-22T19:45:17.730;539601334691499245;369670;381764;294168;-1272;
2024-05-22T19:45:17.748;539601334709656414;369475;381661;294150;-1338;
2024-05-22T19:45:17.766;539601334727813583;369446;381621;294104;-1274;
2024-05-22T19:45:17.784;539601334745970752;369488;381616;294109;-1265;
2024-05-22T19:45:17.803;539601334764127921;369524;381581;294128;-1256;
2024-05-22T19:45:17.821;539601334782285090;369509;381643;294118;-1257;
2024-05-22T19:45:17.839;539601334800442259;369686;381671;294165;-1291;
2024-05-22T19:45:17.857;539601334818599428;369749;381749;294221;-1285;
2024-05-22T19:45:17.875;539601334836756597;369837;381863;294331;-1245;
2024-05-22T19:45:17.893;539601334854913766;369909;381889;294345;-1330;
2024-05-22T19:45:17.912;539601334873070935;370006;382016;294419;-1328;
2024-05-22T19:45:17.930;539601334891228104;370095;382132;294485;-1304;
2024-05-22T19:45:17.948;539601334909385273;370155;382165;294461;-1305;
2024-05-22T19:45:17.966;539601334927542442;370229;382180;294475;-1284;
2024-05-22T19:45:17.984;539601334945699611;370305;382207;294556;-1291;
2024-05-22T19:45:18.002;539601334963856780;370341;382286;294608;-1282;
2024-05-22T19:45:18.021;539601334982013949;370344;382351;294635;-1295;
2024-05-22T19:45:18.039;539601335000171118;370397;382302;294638;-1299;
2024-05-22T19:45:18.057;539601335018328287;370499;382380;294672;-1295;
2024-05-22T19:45:18.075;539601335036485456;370533;382507;294665;-1293;
2024-05-22T19:45:18.093;539601335054642625;370619;382526;294765;-1300;
2024-05-22T19:45:18.111;539601335072799794;370658;382551;294790;-1286;
2024-05-22T19:45:18.129;539601335090956963;370665;382566;294796;-1329;
2024-05-22T19:45:18.148;539601335109114132;370772;382605;294894;-1300;
2024-05-22T19:45:18.166;539601335127271301;370859;382764;294900;-1233;
2024-05-22T19:45:18.184;539601335145428470;370896;382810;294899;-1292;
2024-05-22T19:45:18.202;539601335163586935;370955;382858;294934;-1288;
2024-05-22T19:45:18.220;539601335181745399;371067;382911;294993;-1269;
2024-05-22T19:45:18.238;539601335199903863;371135;382936;294988;-1301;
2024-05-22T19:45:18.257;539601335218062327;371109;382901;294988;-1325;
2024-05-22T19:45:18.275;539601335236220791;371048;382880;294995;-1290;
2024-05-22T19:45:18.293;539601335254379255;370860;382718;294853;-1272;
2024-05-22T19:45:18.311;539601335272537719;370709;382528;294724;-1318;
2024-05-22T19:45:18.329;539601335290696183;370542;382359;294619;-1270;
2024-05-22T19:45:18.347;539601335308854647;370315;382071;294397;-1297;
2024-05-22T19:45:18.366;539601335327013111;370143;381897;294218;-1348;
2024-05-22T19:45:18.384;539601335345171575;370014;381799;294180;-1286;
2024-05-22T19:45:18.402;539601335363330039;369893;381609;294064;-1289;
2024-05-22T19:45:18.420;539601335381488503;369870;381605;294041;-1301;
2024-05-22T19:45:18.438;539601335399646967;369816;381561;294089;-1295;
2024-05-22T19:45:18.456;539601335417805431;369820;381570;294032;-1263;
2024-05-22T19:45:18.474;539601335435963895;369853;381627;294004;-1273;
2024-05-22T19:45:18.493;539601335454122359;369875;381643;294022;-1302;
2024-05-22T19:45:18.511;539601335472280823;369916;381733;294072;-1242;
2024-05-22T19:45:18.529;539601335490439287;370012;381783;294125;-1279;
2024-05-22T19:45:18.547;539601335508597751;370085;381843;294182;-1321;
2024-05-22T19:45:18.565;539601335526756215;370177;381858;294204;-1294;
2024-05-22T19:45:18.583;539601335544914679;370235;382038;294250;-1310;
2024-05-22T19:45:18.602;539601335563073143;370250;382056;294251;-1277;
2024-05-22T19:45:18.620;539601335581231607;370240;382046;294239;-1263;
2024-05-22T19:45:18.638;539601335599390071;370385;382126;294408;-1222;
2024-05-22T19:45:18.656;539601335617548535;370369;382074;294321;-1306;
2024-05-22T19:45:18.674;539601335635706999;370393;382136;294442;-1320;
2024-05-22T19:45:18.692;539601335653865463;370450;382187;294465;-1279;
2024-05-22T19:45:18.711;539601335672023927;370469;382191;294454;-1276;
2024-05-22T19:45:18.729;539601335690182391;370534;382321;294474;-1248;
2024-05-22T19:45:18.747;539601335708340855;370538;382307;294452;-1296;
2024-05-22T19:45:18.765;539601335726499319;370676;382359;294546;-1256;
2024-05-22T19:45:18.783;539601335744657783;370677;382423;294569;-1291;
2024-05-22T19:45:18.801;539601335762816247;370721;382474;294591;-1317;
2024-05-22T19:45:18.819;539601335780974711;370795;382519;294590;-1312;
2024-05-22T19:45:18.838;539601335799133175;370911;382648;294635;-1258;
2024-05-22T19:45:18.856;539601335817291639;370905;382708;294691;-1282;
2024-05-22T19:45:18.874;539601335835450103;370955;382736;294749;-1288;
2024-05-22T19:45:18.892;539601335853608567;371034;382747;294756;-1296;
2024-05-22T19:45:18.910;539601335871767031;371045;382756;294797;-1267;
2024-05-22T19:45:18.928;539601335889925495;370924;382658;294675;-1235;
2024-05-22T19:45:18.947;539601335908083959;370778;382547;294585;-1248;
2024-05-22T19:45:18.965;539601335926240872;370607;382389;294473;-1276;
2024-05-22T19:45:18.983;539601335944397769;370390;382177;294270;-1260;
2024-05-22T19:45:19.001;539601335962554666;370164;381964;294078;-1300;
2024-05-22T19:45:19.019;539601335980711563;369984;381793;293937;-1328;
2024-05-22T19:45:19.037;539601335998868460;369875;381623;293856;-1309;
2024-05-22T19:45:19.056;539601336017025357;369715;381477;293722;-1295;
2024-05-22T19:45:19.074;539601336035182254;369740;381529;293774;-1311;
2024-05-22T19:45:19.092;539601336053339151;369669;381571;293709;-1283;
2024-05-22T19:45:19.110;539601336071496048;369756;381583;293780;-1266;
2024-05-22T19:45:19.128;539601336089652945;369826;381620;293833;-1236;
2024-05-22T19:45:19.146;539601336107809842;369918;381697;293814;-1255;
2024-05-22T19:45:19.164;539601336125966739;369947;381699;293863;-1328;
2024-05-22T19:45:19.183;539601336144123636;369979;381831;293973;-1288;
2024-05-22T19:45:19.201;539601336162280533;370121;381903;294009;-1310;
2024-05-22T19:45:19.219;539601336180437430;370264;382021;294065;-1220;
2024-05-22T19:45:19.237;539601336198594327;370312;382039;294104;-1284;
2024-05-22T19:45:19.255;539601336216751224;370431;382142;294117;-1288;
2024-05-22T19:45:19.273;539601336234908121;370531;382207;294227;-1244;
2024-05-22T19:45:19.292;539601336253065018;370500;382277;294210;-1227;
2024-05-22T19:45:19.310;539601336271221915;370601;382321;294308;-1275;
2024-05-22T19:45:19.328;539601336289378812;370638;382389;294335;-1304;
2024-05-22T19:45:19.346;539601336307535709;370597;382398;294266;-1275;
2024-05-22T19:45:19.364;539601336325692606;370717;382379;294335;-1246;
2024-05-22T19:45:19.382;539601336343849503;370699;382484;294392;-1259;
2024-05-22T19:45:19.401;539601336362006400;370780;382495;294369;-1291;
2024-05-22T19:45:19.419;539601336380163297;370857;382535;294409;-1249;
2024-05-22T19:45:19.437;539601336398320194;370826;382651;294448;-1297;
2024-05-22T19:45:19.455;539601336416477091;370939;382731;294479;-1265;
2024-05-22T19:45:19.473;539601336434633988;371021;382749;294522;-1234;
2024-05-22T19:45:19.491;539601336452790885;371004;382802;294520;-1313;
2024-05-22T19:45:19.509;539601336470947782;371101;382912;294622;-1325;
2024-05-22T19:45:19.528;539601336489104679;371212;382953;294639;-1302;
2024-05-22T19:45:19.546;539601336507261576;371269;383067;294689;-1284;
2024-05-22T19:45:19.564;539601336525418473;371243;383066;294662;-1232;
2024-05-22T19:45:19.582;539601336543575370;371173;382972;294552;-1220;
2024-05-22T19:45:19.600;539601336561732267;371028;382812;294505;-1255;
2024-05-22T19:45:19.618;539601336579889164;370834;382700;294331;-1260;
2024-05-22T19:45:19.637;539601336598046061;370561;382491;294136;-1285;
2024-05-22T19:45:19.655;539601336616202958;370373;382332;294058;-1278;
2024-05-22T19:45:19.673;539601336634359855;370200;382169;293940;-1290;
2024-05-22T19:45:19.691;539601336652516752;370035;382061;293794;-1243;
2024-05-22T19:45:19.709;539601336670673649;369986;381909;293694;-1246;
2024-05-22T19:45:19.727;539601336688830546;369881;381896;293647;-1328;
2024-05-22T19:45:19.746;539601336706988697;369814;381903;293657;-1297;
2024-05-22T19:45:19.764;539601336725146834;369844;381955;293612;-1307;
2024-05-22T19:45:19.782;539601336743304971;369887;381992;293735;-1346;
2024-05-22T19:45:19.800;539601336761463108;370019;382013;293794;-1308;
2024-05-22T19:45:19.818;539601336779621245;370086;382154;293846;-1361;
2024-05-22T19:45:19.836;539601336797779382;370185;382298;293950;-1263;
2024-05-22T19:45:19.854;539601336815937519;370278;382373;294011;-1320;
2024-05-22T19:45:19.873;539601336834095656;370345;382461;294081;-1307;
2024-05-22T19:45:19.891;539601336852253793;370443;382507;294102;-1343;
2024-05-22T19:45:19.909;539601336870411930;370485;382582;294096;-1328;
2024-05-22T19:45:19.927;539601336888570067;370565;382715;294172;-1274;
2024-05-22T19:45:19.945;539601336906728204;370598;382770;294205;-1302;
2024-05-22T19:45:19.963;539601336924886341;370656;382785;294244;-1309;
2024-05-22T19:45:19.982;539601336943044478;370726;382863;294283;-1320;
2024-05-22T19:45:20.000;539601336961202615;370774;382952;294336;-1267;
2024-05-22T19:45:20.018;539601336979360752;370805;382988;294299;-1278;
2024-05-22T19:45:20.036;539601336997518889;370817;383002;294328;-1287;
2024-05-22T19:45:20.054;539601337015677026;370859;383089;294417;-1297;
2024-05-22T19:45:20.072;539601337033835163;370949;383098;294397;-1286;
2024-05-22T19:45:20.091;539601337051993300;370991;383225;294445;-1277;
2024-05-22T19:45:20.109;539601337070151437;370999;383215;294457;-1244;
2024-05-22T19:45:20.127;539601337088309574;371054;383349;294529;-1304;
2024-05-22T19:45:20.145;539601337106467711;371102;383380;294560;-1360;
2024-05-22T19:45:20.163;539601337124625848;371276;383429;294597;-1326;
2024-05-22T19:45:20.181;539601337142783985;371308;383503;294655;-1342;
2024-05-22T19:45:20.199;539601337160942122;371311;383619;294761;-1330;
2024-05-22T19:45:20.218;539601337179100259;371405;383580;294724;-1323;
2024-05-22T19:45:20.236;539601337197258396;371445;383616;294827;-1295;
2024-05-22T19:45:20.254;539601337215416533;371324;383609;294714;-1270;
2024-05-22T19:45:20.272;539601337233574670;371196;383436;294616;-1278;
2024-05-22T19:45:20.290;539601337251732807;370981;383251;294432;-1276;
2024-05-22T19:45:20.308;539601337269890944;370724;383141;294340;-1352;
2024-05-22T19:45:20.327;539601337288049081;370518;383037;294149;-1306;
2024-05-22T19:45:20.345;539601337306207218;370353;382831;294051;-1329;
2024-05-22T19:45:20.363;539601337324365355;370217;382775;293930;-1320;
2024-05-22T19:45:20.381;539601337342523492;370148;382719;293879;-1326;
2024-05-22T19:45:20.399;539601337360681629;370134;382675;293885;-1319;
2024-05-22T19:45:20.417;539601337378839766;370125;382767;293947;-1330;
2024-05-22T19:45:20.436;539601337396997903;370140;382780;293892;-1340;
2024-05-22T19:45:20.454;539601337415156040;370283;382884;293999;-1312;
2024-05-22T19:45:20.472;539601337433314177;370325;382946;294044;-1312;
2024-05-22T19:45:20.490;539601337451472314;370449;383055;294138;-1303;
2024-05-22T19:45:20.508;539601337469629316;370493;383125;294242;-1319;
2024-05-22T19:45:20.526;539601337487786290;370616;383201;294309;-1338;
2024-05-22T19:45:20.544;539601337505943264;370659;383258;294348;-1297;
2024-05-22T19:45:20.563;539601337524100238;370700;383386;294398;-1250;
2024-05-22T19:45:20.581;539601337542257212;370825;383445;294402;-1285;
2024-05-22T19:45:20.599;539601337560414186;370841;383554;294405;-1304;
2024-05-22T19:45:20.617;539601337578571160;370965;383576;294460;-1282;
2024-05-22T19:45:20.635;539601337596728134;371004;383645;294470;-1329;
2024-05-22T19:45:20.653;539601337614885108;370991;383646;294515;-1303;
2024-05-22T19:45:20.672;539601337633042082;371004;383664;294526;-1334;
2024-05-22T19:45:20.690;539601337651199056;371075;383721;294552;-1275;
2024-05-22T19:45:20.708;539601337669356030;371100;383826;294615;-1317;
2024-05-22T19:45:20.726;539601337687513004;371162;383879;294602;-1271;
2024-05-22T19:45:20.744;539601337705669978;371173;383912;294625;-1352;
2024-05-22T19:45:20.762;539601337723826952;371237;383949;294743;-1308;
2024-05-22T19:45:20.780;539601337741983926;371217;384034;294769;-1274;
2024-05-22T19:45:20.799;539601337760140900;371254;384087;294760;-1300;
2024-05-22T19:45:20.817;539601337778297874;371352;384125;294820;-1291;
2024-05-22T19:45:20.835;539601337796454848;371404;384231;294905;-1309;
2024-05-22T19:45:20.853;539601337814611822;371506;384298;294914;-1268;
2024-05-22T19:45:20.871;539601337832768796;371570;384317;294919;-1293;
2024-05-22T19:45:20.889;539601337850925770;371580;384421;294932;-1307;
2024-05-22T19:45:20.908;539601337869082744;371533;384347;294895;-1300;
2024-05-22T19:45:20.926;539601337887239718;371439;384332;294825;-1267;
2024-05-22T19:45:20.944;539601337905396692;371233;384183;294684;-1279;
2024-05-22T19:45:20.962;539601337923553666;371070;384039;294602;-1269;
2024-05-22T19:45:20.980;539601337941710640;370880;383893;294431;-1330;
2024-05-22T19:45:20.998;539601337959867614;370699;383771;294357;-1306;
2024-05-22T19:45:21.017;539601337978024588;370471;383669;294306;-1309;
2024-05-22T19:45:21.035;539601337996181562;370388;383631;294243;-1302;
2024-05-22T19:45:21.053;539601338014338536;370363;383627;294170;-1276;
2024-05-22T19:45:21.071;539601338032495510;370404;383662;294160;-1297;
2024-05-22T19:45:21.089;539601338050652484;370453;383669;294221;-1286;
2024-05-22T19:45:21.107;539601338068809458;370443;383782;294266;-1368;
2024-05-22T19:45:21.125;539601338086966432;370516;383870;294346;-1290;
2024-05-22T19:45:21.144;539601338105123406;370643;384026;294420;-1303;
2024-05-22T19:45:21.162;539601338123280380;370743;384023;294464;-1252;
2024-05-22T19:45:21.180;539601338141437354;370802;384125;294581;-1266;
2024-05-22T19:45:21.198;539601338159594328;370917;384255;294638;-1266;
2024-05-22T19:45:21.216;539601338177751302;370950;384328;294653;-1303;
2024-05-22T19:45:21.234;539601338195908276;371070;384415;294759;-1286;
2024-05-22T19:45:21.253;539601338214065250;371078;384483;294758;-1248;
2024-05-22T19:45:21.271;539601338232224658;371162;384520;294834;-1326;
2024-05-22T19:45:21.289;539601338250384062;371189;384646;294806;-1239;
2024-05-22T19:45:21.307;539601338268543466;371251;384687;294842;-1253;
2024-05-22T19:45:21.325;539601338286702870;371334;384713;294898;-1307;
2024-05-22T19:45:21.343;539601338304862274;371287;384687;294899;-1361;
2024-05-22T19:45:21.362;539601338323021678;371360;384731;294944;-1290;
2024-05-22T19:45:21.380;539601338341181082;371397;384831;295000;-1252;
2024-05-22T19:45:21.398;539601338359340486;371409;384906;295035;-1276;
2024-05-22T19:45:21.416;539601338377499890;371522;384939;295074;-1282;
2024-05-22T19:45:21.434;539601338395659294;371506;384979;295085;-1274;
2024-05-22T19:45:21.452;539601338413818698;371612;385021;295124;-1320;
2024-05-22T19:45:21.470;539601338431978102;371595;385071;295113;-1322;
2024-05-22T19:45:21.489;539601338450137506;371658;385149;295124;-1326;
2024-05-22T19:45:21.507;539601338468296910;371686;385196;295175;-1307;
2024-05-22T19:45:21.525;539601338486456314;371731;385298;295243;-1253;
2024-05-22T19:45:21.543;539601338504615718;371658;385249;295255;-1269;
2024-05-22T19:45:21.561;539601338522775122;371559;385195;295137;-1290;
2024-05-22T19:45:21.579;539601338540934526;371383;385063;295068;-1304;
2024-05-22T19:45:21.598;539601338559093930;371123;384784;294800;-1286;
2024-05-22T19:45:21.616;539601338577253334;370915;384644;294665;-1285;
2024-05-22T19:45:21.634;539601338595412738;370572;384544;294515;-1303;
2024-05-22T19:45:21.652;539601338613572142;370344;384350;294313;-1276;
2024-05-22T19:45:21.670;539601338631731546;370222;384106;294229;-1322;
2024-05-22T19:45:21.688;539601338649890950;370046;384078;294197;-1316;
2024-05-22T19:45:21.707;539601338668050354;369876;383961;294053;-1322;
2024-05-22T19:45:21.725;539601338686209758;369987;383968;294060;-1310;
2024-05-22T19:45:21.743;539601338704369162;369925;383917;294095;-1306;
2024-05-22T19:45:21.761;539601338722528566;369899;384015;294110;-1364;
2024-05-22T19:45:21.779;539601338740687970;369967;384061;294177;-1313;
2024-05-22T19:45:21.797;539601338758847374;370045;384131;294137;-1343;
2024-05-22T19:45:21.816;539601338777006778;370108;384142;294204;-1343;
2024-05-22T19:45:21.834;539601338795166182;370161;384240;294285;-1353;
2024-05-22T19:45:21.852;539601338813325586;370263;384345;294399;-1291;
2024-05-22T19:45:21.870;539601338831484990;370327;384413;294402;-1248;
2024-05-22T19:45:21.888;539601338849644394;370422;384496;294465;-1290;
2024-05-22T19:45:21.906;539601338867803798;370461;384534;294508;-1290;
2024-05-22T19:45:21.924;539601338885963202;370491;384524;294489;-1290;
2024-05-22T19:45:21.943;539601338904122606;370552;384589;294516;-1328;
2024-05-22T19:45:21.961;539601338922282010;370549;384582;294585;-1288;
2024-05-22T19:45:21.979;539601338940441414;370672;384694;294592;-1290;
2024-05-22T19:45:21.997;539601338958600818;370637;384784;294612;-1318;
2024-05-22T19:45:22.015;539601338976760222;370703;384800;294663;-1297;
2024-05-22T19:45:22.033;539601338994919626;370800;384844;294758;-1338;
2024-05-22T19:45:22.052;539601339013079030;370780;384940;294738;-1337;
2024-05-22T19:45:22.070;539601339031238434;370893;385017;294783;-1351;
2024-05-22T19:45:22.088;539601339049397838;370955;385070;294799;-1299;
2024-05-22T19:45:22.106;539601339067557668;371062;385173;294903;-1282;
2024-05-22T19:45:22.124;539601339085717476;371178;385257;294987;-1309;
2024-05-22T19:45:22.142;539601339103877284;371180;385324;295021;-1292;
2024-05-22T19:45:22.161;539601339122037092;371246;385394;295064;-1283;
2024-05-22T19:45:22.179;539601339140196900;371346;385486;295085;-1321;
2024-05-22T19:45:22.197;539601339158356708;371306;385414;295052;-1374;
2024-05-22T19:45:22.215;539601339176516516;371202;385410;295018;-1365;
2024-05-22T19:45:22.233;539601339194676324;371046;385316;294953;-1307;
2024-05-22T19:45:22.251;539601339212836132;370909;385174;294790;-1310;
2024-05-22T19:45:22.270;539601339230995940;370688;385051;294671;-1291;
2024-05-22T19:45:22.288;539601339249155748;370453;384842;294509;-1302;
2024-05-22T19:45:22.306;539601339267315556;370309;384745;294414;-1312;
2024-05-22T19:45:22.324;539601339285475364;370119;384581;294316;-1323;
2024-05-22T19:45:22.342;539601339303635172;369935;384551;294251;-1321;
2024-05-22T19:45:22.360;539601339321794980;369993;384517;294236;-1306;
2024-05-22T19:45:22.378;539601339339954788;369908;384458;294161;-1323;
2024-05-22T19:45:22.397;539601339358114596;369992;384514;294261;-1328;
2024-05-22T19:45:22.415;539601339376274404;370028;384557;294269;-1305;
2024-05-22T19:45:22.433;539601339394434212;370122;384653;294363;-1337;
2024-05-22T19:45:22.451;539601339412594020;370190;384804;294452;-1360;
2024-05-22T19:45:22.469;539601339430753828;370378;384899;294506;-1290;
2024-05-22T19:45:22.487;539601339448913636;370441;384986;294553;-1276;
2024-05-22T19:45:22.506;539601339467073444;370523;385036;294629;-1309;
2024-05-22T19:45:22.524;539601339485233252;370525;385132;294648;-1301;
2024-05-22T19:45:22.542;539601339503393060;370608;385218;294710;-1340;
2024-05-22T19:45:22.560;539601339521552868;370691;385257;294769;-1313;
2024-05-22T19:45:22.578;539601339539712676;370808;385282;294842;-1310;
2024-05-22T19:45:22.596;539601339557872484;370820;385315;294837;-1287;
2024-05-22T19:45:22.615;539601339576032292;370864;385363;294858;-1351;
2024-05-22T19:45:22.633;539601339594192100;370900;385431;294872;-1308;
2024-05-22T19:45:22.651;539601339612351908;370935;385502;294930;-1329;
2024-05-22T19:45:22.669;539601339630511716;371038;385553;294985;-1291;
2024-05-22T19:45:22.687;539601339648671524;371022;385550;295034;-1339;
2024-05-22T19:45:22.705;539601339666831332;371118;385616;295005;-1352;
2024-05-22T19:45:22.724;539601339684991140;371133;385661;295107;-1375;
2024-05-22T19:45:22.742;539601339703150948;371251;385763;295183;-1287;
2024-05-22T19:45:22.760;539601339721310756;371259;385798;295246;-1294;
2024-05-22T19:45:22.778;539601339739470564;371344;385864;295174;-1309;
2024-05-22T19:45:22.796;539601339757630372;371439;385960;295330;-1309;
2024-05-22T19:45:22.814;539601339775790180;371501;386041;295371;-1303;
2024-05-22T19:45:22.832;539601339793949988;371498;386063;295394;-1318;
2024-05-22T19:45:22.851;539601339812109796;371563;386127;295397;-1330;
2024-05-22T19:45:22.869;539601339830267362;371556;386079;295394;-1296;
2024-05-22T19:45:22.887;539601339848424918;371409;385953;295227;-1290;
2024-05-22T19:45:22.905;539601339866582474;371237;385801;295137;-1322;
2024-05-22T19:45:22.923;539601339884740030;371072;385551;294983;-1344;
2024-05-22T19:45:22.941;539601339902897586;370881;385518;294895;-1334;
2024-05-22T19:45:22.960;539601339921055142;370683;385361;294733;-1326;
2024-05-22T19:45:22.978;539601339939212698;370499;385230;294654;-1346;
2024-05-22T19:45:22.996;539601339957370254;370458;385208;294635;-1260;
2024-05-22T19:45:23.014;539601339975527810;370393;385091;294536;-1276;
2024-05-22T19:45:23.032;539601339993685366;370358;385111;294573;-1330;
2024-05-22T19:45:23.050;539601340011842922;370397;385161;294604;-1306;
2024-05-22T19:45:23.069;539601340030000478;370500;385260;294636;-1297;
2024-05-22T19:45:23.087;539601340048158034;370542;385315;294730;-1283;
2024-05-22T19:45:23.105;539601340066315590;370646;385410;294795;-1294;
2024-05-22T19:45:23.123;539601340084473146;370755;385506;294842;-1266;
2024-05-22T19:45:23.141;539601340102630702;370826;385520;294878;-1318;
2024-05-22T19:45:23.159;539601340120788258;370897;385544;294974;-1294;
2024-05-22T19:45:23.177;539601340138945814;371001;385678;294945;-1318;
2024-05-22T19:45:23.196;539601340157103370;370965;385674;295014;-1325;
2024-05-22T19:45:23.214;539601340175260926;371069;385762;295071;-1356;
2024-05-22T19:45:23.232;539601340193418482;371123;385794;295101;-1323;
2024-05-22T19:45:23.250;539601340211576038;371188;385860;295157;-1292;
2024-05-22T19:45:23.268;539601340229733594;371260;385920;295160;-1302;
2024-05-22T19:45:23.286;539601340247891150;371258;386014;295156;-1283;
2024-05-22T19:45:23.305;539601340266048706;371334;386016;295213;-1358;
2024-05-22T19:45:23.323;539601340284206262;371339;386017;295217;-1375;
2024-05-22T19:45:23.341;539601340302363818;371511;386101;295305;-1336;
2024-05-22T19:45:23.359;539601340320521374;371453;386112;295297;-1372;
2024-05-22T19:45:23.377;539601340338678930;371577;386183;295391;-1309;
2024-05-22T19:45:23.395;539601340356836486;371681;386264;295482;-1279;
2024-05-22T19:45:23.414;539601340374994042;371648;386313;295475;-1350;
2024-05-22T19:45:23.432;539601340393151598;371809;386441;295543;-1296;
2024-05-22T19:45:23.450;539601340411309154;371874;386463;295531;-1339;
2024-05-22T19:45:23.468;539601340429466710;371933;386534;295585;-1300;
2024-05-22T19:45:23.486;539601340447624266;371979;386583;295642;-1338;
2024-05-22T19:45:23.504;539601340465781822;372167;386717;295817;-1369;
2024-05-22T19:45:23.522;539601340483939378;372191;386658;295762;-1317;
2024-05-22T19:45:23.541;539601340502096934;372043;386646;295688;-1299;
2024-05-22T19:45:23.559;539601340520254490;371952;386548;295619;-1320;
2024-05-22T19:45:23.577;539601340538412046;371783;386333;295499;-1291;
2024-05-22T19:45:23.595;539601340556569602;371593;386262;295404;-1326;
2024-05-22T19:45:23.613;539601340574727158;371453;386070;295257;-1317;
2024-05-22T19:45:23.631;539601340592884598;371272;385991;295119;-1227;
2024-05-22T19:45:23.650;539601340611042008;371169;385872;295030;-1284;
2024-05-22T19:45:23.668;539601340629199418;371131;385800;294981;-1314;
2024-05-22T19:45:23.686;539601340647356828;371036;385803;294981;-1311;
2024-05-22T19:45:23.704;539601340665514238;371036;385769;295048;-1305;
2024-05-22T19:45:23.722;539601340683671648;371114;385766;295089;-1305;
2024-05-22T19:45:23.740;539601340701829058;371172;385829;295082;-1338;
2024-05-22T19:45:23.759;539601340719986468;371243;385905;295162;-1375;
2024-05-22T19:45:23.777;539601340738143878;371340;386029;295225;-1369;
2024-05-22T19:45:23.795;539601340756301288;371444;386102;295275;-1306;
2024-05-22T19:45:23.813;539601340774458698;371482;386100;295329;-1352;
2024-05-22T19:45:23.831;539601340792616108;371651;386247;295322;-1334;
2024-05-22T19:45:23.849;539601340810773518;371701;386221;295365;-1299;
2024-05-22T19:45:23.867;539601340828930928;371701;386316;295431;-1313;
2024-05-22T19:45:23.886;539601340847088338;371823;386427;295490;-1326;
2024-05-22T19:45:23.904;539601340865245748;371879;386380;295437;-1327;
2024-05-22T19:45:23.922;539601340883403158;371828;386445;295456;-1378;
2024-05-22T19:45:23.940;539601340901560568;371948;386471;295512;-1303;
2024-05-22T19:45:23.958;539601340919717978;371992;386456;295600;-1412;
2024-05-22T19:45:23.976;539601340937875388;372013;386600;295641;-1297;
2024-05-22T19:45:23.995;539601340956032798;372102;386573;295622;-1297;
2024-05-22T19:45:24.013;539601340974190208;372112;386580;295654;-1361;
2024-05-22T19:45:24.031;539601340992347618;372212;386684;295701;-1342;
2024-05-22T19:45:24.049;539601341010505028;372289;386722;295776;-1312;
2024-05-22T19:45:24.067;539601341028662438;372297;386852;295849;-1324;
2024-05-22T19:45:24.085;539601341046819848;372394;386867;295895;-1344;
2024-05-22T19:45:24.103;539601341064977258;372500;387000;295974;-1311;
2024-05-22T19:45:24.122;539601341083134668;372599;386979;295997;-1257;
2024-05-22T19:45:24.140;539601341101292078;372677;387152;296042;-1318;
2024-05-22T19:45:24.158;539601341119449488;372733;387139;296040;-1335;
2024-05-22T19:45:24.176;539601341137606898;372708;387104;295992;-1291;
2024-05-22T19:45:24.194;539601341155764308;372620;387030;295942;-1283;
2024-05-22T19:45:24.212;539601341173921718;372503;386984;295890;-1330;
2024-05-22T19:45:24.231;539601341192079128;372313;386865;295826;-1292;
2024-05-22T19:45:24.249;539601341210236538;372197;386630;295656;-1341;
2024-05-22T19:45:24.267;539601341228393948;372087;386486;295604;-1308;
2024-05-22T19:45:24.285;539601341246551358;371865;386310;295503;-1310;
2024-05-22T19:45:24.303;539601341264708768;371793;386316;295447;-1311;
2024-05-22T19:45:24.321;539601341282866178;371728;386212;295347;-1369;
2024-05-22T19:45:24.340;539601341301023588;371721;386132;295407;-1272;
2024-05-22T19:45:24.358;539601341319180998;371706;386158;295372;-1360;
2024-05-22T19:45:24.376;539601341337338408;371808;386243;295386;-1374;
2024-05-22T19:45:24.394;539601341355494422;371840;386271;295480;-1329;
2024-05-22T19:45:24.412;539601341373650412;371929;386387;295541;-1320;
2024-05-22T19:45:24.430;539601341391806402;372035;386454;295551;-1273;
2024-05-22T19:45:24.448;539601341409962392;372118;386495;295641;-1260;
2024-05-22T19:45:24.467;539601341428118382;372232;386599;295683;-1277;
2024-05-22T19:45:24.485;539601341446274372;372270;386560;295734;-1324;
2024-05-22T19:45:24.503;539601341464430362;372313;386640;295746;-1293;
2024-05-22T19:45:24.521;539601341482586352;372412;386662;295780;-1285;
2024-05-22T19:45:24.539;539601341500742342;372382;386713;295791;-1303;
2024-05-22T19:45:24.557;539601341518898332;372361;386679;295787;-1320;
2024-05-22T19:45:24.576;539601341537054322;372481;386750;295783;-1339;
2024-05-22T19:45:24.594;539601341555210312;372503;386717;295804;-1318;
2024-05-22T19:45:24.612;539601341573366302;372453;386675;295781;-1346;
2024-05-22T19:45:24.630;539601341591522292;372479;386779;295780;-1358;
2024-05-22T19:45:24.648;539601341609678282;372614;386777;295829;-1337;
2024-05-22T19:45:24.666;539601341627834272;372595;386755;295864;-1277;
2024-05-22T19:45:24.685;539601341645990262;372587;386747;295858;-1347;
2024-05-22T19:45:24.703;539601341664146252;372638;386806;295933;-1345;
2024-05-22T19:45:24.721;539601341682302242;372658;386834;295927;-1290;
2024-05-22T19:45:24.739;539601341700458232;372730;386814;295890;-1365;
2024-05-22T19:45:24.757;539601341718614222;372718;386867;295855;-1347;
2024-05-22T19:45:24.775;539601341736770212;372794;386853;295937;-1362;
2024-05-22T19:45:24.793;539601341754926202;372759;386866;295900;-1299;
2024-05-22T19:45:24.812;539601341773082192;372782;386887;295907;-1304;
2024-05-22T19:45:24.830;539601341791238182;372642;386778;295835;-1297;
2024-05-22T19:45:24.848;539601341809394172;372449;386559;295710;-1322;
2024-05-22T19:45:24.866;539601341827550162;372216;386364;295535;-1319;
2024-05-22T19:45:24.884;539601341845706152;372031;386124;295359;-1309;
2024-05-22T19:45:24.902;539601341863862142;371749;385831;295179;-1303;
2024-05-22T19:45:24.921;539601341882018132;371565;385623;295003;-1272;
2024-05-22T19:45:24.939;539601341900174122;371324;385407;294798;-1322;
2024-05-22T19:45:24.957;539601341918330112;371178;385188;294743;-1308;
2024-05-22T19:45:24.975;539601341936486102;371081;385113;294643;-1327;
2024-05-22T19:45:24.993;539601341954642092;371088;385075;294645;-1357;
2024-05-22T19:45:25.011;539601341972798082;371049;385060;294684;-1339;
2024-05-22T19:45:25.029;539601341990954072;371062;385011;294683;-1359;
2024-05-22T19:45:25.048;539601342009110062;371169;385115;294645;-1375;
2024-05-22T19:45:25.066;539601342027266052;371222;385140;294754;-1317;
2024-05-22T19:45:25.084;539601342045422042;371319;385249;294837;-1317;
2024-05-22T19:45:25.102;539601342063578032;371380;385277;294906;-1329;
2024-05-22T19:45:25.120;539601342081734022;371550;385290;294964;-1342;
2024-05-22T19:45:25.138;539601342099890012;371567;385370;294993;-1314;
2024-05-22T19:45:25.157;539601342118046002;371617;385404;294923;-1311;
2024-05-22T19:45:25.175;539601342136201992;371658;385460;294989;-1318;
2024-05-22T19:45:25.193;539601342154356355;371672;385471;295037;-1320;
2024-05-22T19:45:25.211;539601342172510680;371714;385542;295045;-1343;
2024-05-22T19:45:25.229;539601342190665005;371730;385537;295046;-1338;
2024-05-22T19:45:25.247;539601342208819330;371830;385573;295117;-1358;
2024-05-22T19:45:25.265;539601342226973655;371802;385615;295116;-1331;
2024-05-22T19:45:25.284;539601342245127980;371841;385541;295116;-1324;
2024-05-22T19:45:25.302;539601342263282305;371916;385563;295147;-1329;
2024-05-22T19:45:25.320;539601342281436630;371972;385576;295149;-1348;
2024-05-22T19:45:25.338;539601342299590955;372047;385609;295177;-1341;
2024-05-22T19:45:25.356;539601342317745280;372074;385727;295194;-1354;
2024-05-22T19:45:25.374;539601342335899605;372076;385743;295247;-1306;
2024-05-22T19:45:25.393;539601342354053930;372191;385741;295273;-1331;
2024-05-22T19:45:25.411;539601342372208255;372269;385771;295343;-1319;
2024-05-22T19:45:25.429;539601342390362580;372321;385812;295407;-1326;
2024-05-22T19:45:25.447;539601342408516905;372350;385853;295415;-1339;
2024-05-22T19:45:25.465;539601342426671230;372259;385806;295366;-1323;
2024-05-22T19:45:25.483;539601342444825555;372182;385668;295329;-1304;
2024-05-22T19:45:25.501;539601342462979880;372009;385449;295115;-1319;
2024-05-22T19:45:25.520;539601342481134205;371796;385271;294948;-1327;
2024-05-22T19:45:25.538;539601342499288530;371537;385051;294782;-1331;
2024-05-22T19:45:25.556;539601342517442855;371276;384727;294608;-1425;
2024-05-22T19:45:25.574;539601342535597180;371084;384466;294445;-1386;
2024-05-22T19:45:25.592;539601342553751505;371009;384276;294368;-1317;
2024-05-22T19:45:25.610;539601342571905830;370887;384197;294299;-1283;
2024-05-22T19:45:25.629;539601342590060155;370881;384138;294250;-1299;
2024-05-22T19:45:25.647;539601342608214480;370864;384100;294269;-1308;
2024-05-22T19:45:25.665;539601342626368805;370926;384083;294243;-1341;
2024-05-22T19:45:25.683;539601342644523130;370911;384100;294298;-1372;
2024-05-22T19:45:25.701;539601342662677455;371061;384176;294349;-1320;
2024-05-22T19:45:25.719;539601342680831780;371055;384196;294312;-1380;
2024-05-22T19:45:25.738;539601342698986105;371241;384281;294407;-1336;
2024-05-22T19:45:25.756;539601342717140430;371351;384321;294437;-1345;
2024-05-22T19:45:25.774;539601342735294755;371297;384356;294499;-1361;
2024-05-22T19:45:25.792;539601342753449080;371397;384371;294579;-1318;
2024-05-22T19:45:25.810;539601342771603405;371378;384428;294562;-1369;
2024-05-22T19:45:25.828;539601342789757730;371437;384379;294534;-1333;
2024-05-22T19:45:25.846;539601342807912055;371545;384463;294576;-1300;
2024-05-22T19:45:25.865;539601342826066380;371442;384462;294595;-1338;
2024-05-22T19:45:25.883;539601342844220705;371492;384441;294624;-1368;
2024-05-22T19:45:25.901;539601342862375030;371581;384459;294618;-1369;
2024-05-22T19:45:25.919;539601342880529355;371566;384452;294672;-1351;
2024-05-22T19:45:25.937;539601342898683680;371639;384532;294691;-1348;
2024-05-22T19:45:25.955;539601342916838005;371642;384583;294754;-1280;
2024-05-22T19:45:25.974;539601342934992330;371691;384541;294775;-1276;
2024-05-22T19:45:25.992;539601342953147873;371714;384625;294725;-1306;
2024-05-22T19:45:26.010;539601342971303394;371809;384607;294805;-1263;
2024-05-22T19:45:26.028;539601342989458915;371858;384637;294803;-1291;
2024-05-22T19:45:26.046;539601343007614436;371900;384669;294805;-1324;
2024-05-22T19:45:26.064;539601343025769957;371957;384726;294861;-1338;
2024-05-22T19:45:26.082;539601343043925478;372040;384755;294923;-1319;
2024-05-22T19:45:26.101;539601343062080999;371998;384684;294855;-1276;
2024-05-22T19:45:26.119;539601343080236520;371858;384541;294777;-1378;
2024-05-22T19:45:26.137;539601343098392041;371666;384343;294710;-1300;
2024-05-22T19:45:26.155;539601343116547562;371382;384069;294461;-1354;
2024-05-22T19:45:26.173;539601343134703083;371188;383798;294312;-1335;
2024-05-22T19:45:26.191;539601343152858604;370997;383493;294132;-1403;
2024-05-22T19:45:26.210;539601343171014125;370780;383345;293973;-1344;
2024-05-22T19:45:26.228;539601343189169646;370551;383119;293825;-1323;
2024-05-22T19:45:26.246;539601343207325167;370472;382919;293759;-1301;
2024-05-22T19:45:26.264;539601343225480688;370361;382842;293633;-1351;
2024-05-22T19:45:26.282;539601343243636209;370367;382811;293643;-1404;
2024-05-22T19:45:26.300;539601343261791730;370437;382759;293657;-1314;
2024-05-22T19:45:26.318;539601343279947251;370474;382913;293748;-1364;
2024-05-22T19:45:26.337;539601343298102772;370522;382910;293719;-1390;
2024-05-22T19:45:26.355;539601343316258293;370603;382970;293782;-1329;
2024-05-22T19:45:26.373;539601343334413814;370725;383015;293885;-1340;
2024-05-22T19:45:26.391;539601343352569335;370833;383158;293979;-1316;
2024-05-22T19:45:26.409;539601343370724856;370968;383140;294009;-1275;
2024-05-22T19:45:26.427;539601343388880377;370901;383196;294034;-1363;
2024-05-22T19:45:26.446;539601343407035898;370997;383189;294033;-1335;
2024-05-22T19:45:26.464;539601343425191419;371019;383212;294065;-1365;
2024-05-22T19:45:26.482;539601343443346940;371007;383289;294049;-1344;
2024-05-22T19:45:26.500;539601343461502461;371025;383295;294066;-1291;
2024-05-22T19:45:26.518;539601343479657982;371065;383270;294102;-1297;
2024-05-22T19:45:26.536;539601343497813503;371121;383279;294080;-1258;
2024-05-22T19:45:26.554;539601343515969024;371188;383274;294162;-1288;
2024-05-22T19:45:26.573;539601343534124545;371170;383324;294177;-1284;
2024-05-22T19:45:26.591;539601343552280066;371187;383302;294185;-1276;
2024-05-22T19:45:26.609;539601343570435587;371245;383295;294159;-1293;
2024-05-22T19:45:26.627;539601343588591108;371269;383337;294161;-1303;
2024-05-22T19:45:26.645;539601343606746629;371333;383360;294216;-1327;
2024-05-22T19:45:26.663;539601343624902150;371300;383336;294201;-1355;
2024-05-22T19:45:26.682;539601343643057671;371395;383369;294264;-1314;
2024-05-22T19:45:26.700;539601343661213192;371452;383463;294313;-1334;
2024-05-22T19:45:26.718;539601343679368713;371431;383384;294269;-1293;
2024-05-22T19:45:26.736;539601343697524234;371310;383254;294127;-1376;
2024-05-22T19:45:26.754;539601343715680211;371169;383074;294018;-1414;
2024-05-22T19:45:26.772;539601343733836168;370997;382897;293937;-1319;
2024-05-22T19:45:26.791;539601343751992125;370762;382657;293778;-1324;
2024-05-22T19:45:26.809;539601343770148082;370510;382468;293592;-1302;
2024-05-22T19:45:26.827;539601343788304039;370271;382139;293479;-1358;
2024-05-22T19:45:26.845;539601343806459996;370134;382018;293358;-1343;
2024-05-22T19:45:26.863;539601343824615953;369967;381849;293268;-1325;
2024-05-22T19:45:26.881;539601343842771910;369954;381780;293191;-1336;
2024-05-22T19:45:26.899;539601343860927867;369894;381727;293229;-1305;
2024-05-22T19:45:26.918;539601343879083824;370009;381740;293282;-1271;
2024-05-22T19:45:26.936;539601343897239781;370069;381794;293274;-1256;
2024-05-22T19:45:26.954;539601343915395738;370122;381831;293304;-1316;
2024-05-22T19:45:26.972;539601343933551695;370242;381934;293415;-1279;
2024-05-22T19:45:26.990;539601343951707652;370265;381947;293402;-1302;
2024-05-22T19:45:27.008;539601343969863609;370361;382102;293481;-1308;
2024-05-22T19:45:27.027;539601343988019566;370456;382138;293514;-1265;
2024-05-22T19:45:27.045;539601344006175523;370556;382252;293618;-1274;
2024-05-22T19:45:27.063;539601344024331480;370553;382195;293651;-1338;
2024-05-22T19:45:27.081;539601344042487437;370663;382357;293608;-1275;
2024-05-22T19:45:27.099;539601344060643394;370649;382358;293664;-1310;
2024-05-22T19:45:27.117;539601344078799351;370754;382349;293714;-1296;
2024-05-22T19:45:27.135;539601344096955308;370692;382365;293736;-1331;
2024-05-22T19:45:27.154;539601344115111265;370776;382410;293755;-1294;
2024-05-22T19:45:27.172;539601344133267222;370872;382457;293719;-1265;
2024-05-22T19:45:27.190;539601344151423179;370868;382409;293753;-1276;
2024-05-22T19:45:27.208;539601344169579136;370876;382491;293776;-1344;
2024-05-22T19:45:27.226;539601344187735093;370914;382538;293824;-1300;
2024-05-22T19:45:27.244;539601344205891050;370995;382581;293824;-1300;
2024-05-22T19:45:27.263;539601344224047007;371007;382605;293862;-1336;
2024-05-22T19:45:27.281;539601344242202964;371051;382653;293898;-1382;
2024-05-22T19:45:27.299;539601344260358921;371119;382670;293975;-1317;
2024-05-22T19:45:27.317;539601344278514878;371076;382671;293947;-1342;
2024-05-22T19:45:27.335;539601344296670835;371018;382596;293928;-1352;
2024-05-22T19:45:27.353;539601344314826792;370925;382538;293845;-1288;
2024-05-22T19:45:27.371;539601344332982749;370824;382336;293717;-1276;
2024-05-22T19:45:27.390;539601344351138706;370600;382084;293573;-1310;
2024-05-22T19:45:27.408;539601344369294663;370360;381854;293392;-1342;
2024-05-22T19:45:27.426;539601344387450620;370191;381669;293289;-1364;
2024-05-22T19:45:27.444;539601344405606577;370043;381477;293147;-1343;
2024-05-22T19:45:27.462;539601344423762534;369844;381278;293068;-1370;
2024-05-22T19:45:27.480;539601344441918491;369722;381212;292954;-1312;
2024-05-22T19:45:27.499;539601344460074448;369767;381200;292994;-1289;
2024-05-22T19:45:27.517;539601344478231470;369769;381182;292963;-1292;
2024-05-22T19:45:27.535;539601344496388473;369787;381214;292990;-1329;
2024-05-22T19:45:27.553;539601344514545476;369842;381223;293083;-1300;
2024-05-22T19:45:27.571;539601344532702479;369979;381326;293157;-1308;
2024-05-22T19:45:27.589;539601344550859482;370000;381363;293129;-1322;
2024-05-22T19:45:27.608;539601344569016485;370082;381423;293219;-1341;
2024-05-22T19:45:27.626;539601344587173488;370129;381538;293249;-1370;
2024-05-22T19:45:27.644;539601344605330491;370149;381547;293266;-1324;
2024-05-22T19:45:27.662;539601344623487494;370237;381633;293393;-1311;
2024-05-22T19:45:27.680;539601344641644497;370304;381693;293348;-1286;
2024-05-22T19:45:27.698;539601344659801500;370282;381733;293376;-1302;
2024-05-22T19:45:27.716;539601344677958503;370359;381689;293341;-1297;
2024-05-22T19:45:27.735;539601344696115506;370393;381659;293408;-1286;
2024-05-22T19:45:27.753;539601344714272509;370375;381656;293366;-1352;
2024-05-22T19:45:27.771;539601344732429512;370397;381773;293411;-1287;
2024-05-22T19:45:27.789;539601344750586515;370435;381770;293404;-1328;
2024-05-22T19:45:27.807;539601344768743518;370510;381819;293501;-1297;
2024-05-22T19:45:27.825;539601344786900521;370588;381836;293529;-1314;
2024-05-22T19:45:27.844;539601344805057524;370553;381853;293531;-1372;
2024-05-22T19:45:27.862;539601344823214527;370639;381928;293538;-1346;
2024-05-22T19:45:27.880;539601344841371530;370734;381995;293597;-1270;
2024-05-22T19:45:27.898;539601344859528533;370682;382065;293601;-1329;
2024-05-22T19:45:27.916;539601344877685536;370660;381997;293595;-1338;
2024-05-22T19:45:27.934;539601344895842539;370619;381913;293513;-1325;
2024-05-22T19:45:27.953;539601344913999542;370461;381746;293417;-1290;
2024-05-22T19:45:27.971;539601344932156545;370316;381577;293362;-1287;
2024-05-22T19:45:27.989;539601344950313548;370031;381296;293162;-1326;
2024-05-22T19:45:28.007;539601344968470551;369771;381090;292989;-1325;
2024-05-22T19:45:28.025;539601344986627554;369580;380876;292898;-1248;
2024-05-22T19:45:28.043;539601345004784557;369432;380683;292763;-1327;
2024-05-22T19:45:28.061;539601345022941560;369308;380562;292688;-1314;
2024-05-22T19:45:28.080;539601345041098563;369207;380577;292640;-1282;
2024-05-22T19:45:28.098;539601345059255566;369218;380518;292626;-1296;
2024-05-22T19:45:28.116;539601345077412569;369209;380469;292583;-1320;
2024-05-22T19:45:28.134;539601345095569572;369360;380552;292713;-1283;
2024-05-22T19:45:28.152;539601345113726575;369395;380620;292752;-1338;
2024-05-22T19:45:28.170;539601345131883578;369434;380749;292890;-1291;
2024-05-22T19:45:28.189;539601345150040581;369559;380838;292857;-1282;
2024-05-22T19:45:28.207;539601345168197584;369587;380893;292896;-1280;
2024-05-22T19:45:28.225;539601345186354587;369612;380935;292953;-1304;
2024-05-22T19:45:28.243;539601345204511590;369693;380981;293016;-1291;
2024-05-22T19:45:28.261;539601345222668593;369737;381028;293017;-1293;
2024-05-22T19:45:28.279;539601345240825596;369731;381017;293039;-1307;
2024-05-22T19:45:28.297;539601345258981252;369759;381087;293070;-1289;
2024-05-22T19:45:28.316;539601345277136907;369750;381057;293053;-1322;
2024-05-22T19:45:28.334;539601345295292562;369754;381082;293046;-1343;
2024-05-22T19:45:28.352;539601345313448217;369807;381086;293095;-1304;
2024-05-22T19:45:28.370;539601345331603872;369769;381042;293069;-1340;
2024-05-22T19:45:28.388;539601345349759527;369834;381100;293090;-1319;
2024-05-22T19:45:28.406;539601345367915182;369848;381142;293128;-1318;
2024-05-22T19:45:28.425;539601345386070837;369783;381083;293114;-1275;
2024-05-22T19:45:28.443;539601345404226492;369863;381190;293124;-1277;
2024-05-22T19:45:28.461;539601345422382147;369852;381236;293151;-1280;
2024-05-22T19:45:28.479;539601345440537802;369864;381242;293108;-1338;
2024-05-22T19:45:28.497;539601345458693457;369878;381197;293134;-1338;
2024-05-22T19:45:28.515;539601345476849112;369761;381090;293023;-1350;
2024-05-22T19:45:28.534;539601345495004767;369602;380884;292943;-1346;
2024-05-22T19:45:28.552;539601345513160422;369366;380630;292813;-1399;
2024-05-22T19:45:28.570;539601345531316077;369091;380358;292642;-1323;
2024-05-22T19:45:28.588;539601345549471732;368792;380135;292443;-1334;
2024-05-22T19:45:28.606;539601345567627387;368575;379936;292266;-1341;
2024-05-22T19:45:28.624;539601345585783042;368369;379731;292068;-1374;
2024-05-22T19:45:28.642;539601345603938697;368195;379606;292010;-1360;
2024-05-22T19:45:28.661;539601345622094352;368100;379509;291954;-1282;
2024-05-22T19:45:28.679;539601345640250007;368091;379518;291910;-1299;
2024-05-22T19:45:28.697;539601345658405662;368029;379436;291919;-1318;
2024-05-22T19:45:28.715;539601345676561317;368161;379553;292015;-1285;
2024-05-22T19:45:28.733;539601345694716972;368227;379621;292075;-1339;
2024-05-22T19:45:28.751;539601345712872627;368308;379748;292197;-1337;
2024-05-22T19:45:28.770;539601345731028282;368458;379840;292265;-1402;
2024-05-22T19:45:28.788;539601345749183937;368557;379915;292204;-1318;
2024-05-22T19:45:28.806;539601345767339592;368637;380031;292332;-1299;
2024-05-22T19:45:28.824;539601345785495247;368718;380073;292391;-1320;
2024-05-22T19:45:28.842;539601345803650902;368759;380165;292430;-1344;
2024-05-22T19:45:28.860;539601345821806557;368870;380351;292555;-1305;
2024-05-22T19:45:28.878;539601345839962212;368863;380299;292545;-1290;
2024-05-22T19:45:28.897;539601345858117867;368901;380415;292574;-1355;
2024-05-22T19:45:28.915;539601345876273522;368919;380486;292627;-1341;
2024-05-22T19:45:28.933;539601345894429177;369062;380484;292685;-1360;
2024-05-22T19:45:28.951;539601345912584832;369086;380464;292662;-1343;
2024-05-22T19:45:28.969;539601345930740487;369108;380563;292712;-1328;
2024-05-22T19:45:28.987;539601345948896142;369149;380626;292734;-1369;
2024-05-22T19:45:29.006;539601345967051797;369178;380707;292810;-1352;
2024-05-22T19:45:29.024;539601345985207452;369286;380753;292835;-1352;
2024-05-22T19:45:29.042;539601346003363107;369331;380781;292858;-1335;
2024-05-22T19:45:29.060;539601346021518762;369302;380817;292871;-1390;
2024-05-22T19:45:29.078;539601346039675450;369392;380838;292882;-1294;
2024-05-22T19:45:29.096;539601346057832134;369314;380813;292920;-1335;
2024-05-22T19:45:29.115;539601346075988818;369224;380821;292858;-1299;
2024-05-22T19:45:29.133;539601346094145502;369050;380639;292676;-1321;
2024-05-22T19:45:29.151;539601346112302186;368836;380473;292604;-1362;
2024-05-22T19:45:29.169;539601346130458870;368588;380198;292407;-1334;
2024-05-22T19:45:29.187;539601346148615554;368325;379944;292291;-1306;
2024-05-22T19:45:29.205;539601346166772238;368081;379845;292118;-1341;
2024-05-22T19:45:29.223;539601346184928922;367899;379617;291981;-1338;
2024-05-22T19:45:29.242;539601346203085606;367727;379536;291914;-1358;
2024-05-22T19:45:29.260;539601346221242290;367650;379457;291943;-1333;
2024-05-22T19:45:29.278;539601346239398974;367591;379361;291861;-1296;
2024-05-22T19:45:29.296;539601346257555658;367616;379487;291838;-1295;
2024-05-22T19:45:29.314;539601346275712342;367710;379517;291881;-1301;
2024-05-22T19:45:29.332;539601346293869026;367709;379564;291932;-1321;
2024-05-22T19:45:29.351;539601346312025710;367830;379688;292062;-1306;
2024-05-22T19:45:29.369;539601346330182394;367946;379779;292210;-1291;
2024-05-22T19:45:29.387;539601346348339078;368033;379881;292208;-1265;
2024-05-22T19:45:29.405;539601346366495762;368069;380010;292280;-1331;
2024-05-22T19:45:29.423;539601346384652446;368164;380070;292282;-1338;
2024-05-22T19:45:29.441;539601346402809130;368269;380200;292395;-1329;
2024-05-22T19:45:29.459;539601346420965814;368295;380164;292401;-1328;
2024-05-22T19:45:29.478;539601346439122498;368315;380218;292427;-1323;
2024-05-22T19:45:29.496;539601346457279182;368370;380294;292462;-1284;
2024-05-22T19:45:29.514;539601346475435866;368474;380304;292453;-1320;
2024-05-22T19:45:29.532;539601346493592550;368439;380341;292515;-1297;
2024-05-22T19:45:29.550;539601346511749234;368475;380411;292632;-1291;
2024-05-22T19:45:29.568;539601346529905918;368510;380425;292542;-1300;
2024-05-22T19:45:29.587;539601346548062602;368543;380480;292589;-1301;
2024-05-22T19:45:29.605;539601346566219286;368556;380503;292604;-1328;
2024-05-22T19:45:29.623;539601346584375970;368605;380532;292646;-1317;
2024-05-22T19:45:29.641;539601346602532654;368565;380549;292657;-1325;
2024-05-22T19:45:29.659;539601346620689338;368637;380636;292694;-1361;
2024-05-22T19:45:29.677;539601346638846022;368709;380696;292735;-1320;
2024-05-22T19:45:29.696;539601346657002706;368721;380692;292772;-1306;
2024-05-22T19:45:29.714;539601346675159390;368730;380693;292722;-1265;
2024-05-22T19:45:29.732;539601346693316074;368524;380531;292685;-1293;
2024-05-22T19:45:29.750;539601346711472758;368331;380445;292532;-1284;
2024-05-22T19:45:29.768;539601346729629442;368048;380198;292359;-1245;
2024-05-22T19:45:29.786;539601346747786126;367741;379992;292153;-1291;
2024-05-22T19:45:29.804;539601346765942810;367545;379789;292014;-1343;
2024-05-22T19:45:29.823;539601346784099494;367314;379629;291889;-1324;
2024-05-22T19:45:29.841;539601346802256178;367118;379472;291800;-1307;
2024-05-22T19:45:29.859;539601346820412866;366968;379380;291700;-1276;
2024-05-22T19:45:29.877;539601346838569550;366904;379327;291676;-1285;
2024-05-22T19:45:29.895;539601346856726234;366946;379444;291664;-1308;
2024-05-22T19:45:29.913;539601346874882918;366938;379363;291670;-1344;
2024-05-22T19:45:29.932;539601346893039602;366948;379446;291758;-1331;
2024-05-22T19:45:29.950;539601346911196286;367077;379634;291803;-1353;
2024-05-22T19:45:29.968;539601346929352970;367185;379655;291874;-1350;
2024-05-22T19:45:29.986;539601346947509654;367323;379771;291967;-1271;
2024-05-22T19:45:30.004;539601346965666338;367375;379798;291982;-1330;
2024-05-22T19:45:30.022;539601346983823022;367402;379870;292083;-1319;
2024-05-22T19:45:30.040;539601347001979706;367515;379931;292082;-1376;
2024-05-22T19:45:30.059;539601347020136390;367547;380005;292144;-1375;
2024-05-22T19:45:30.077;539601347038293074;367632;380037;292166;-1340;
2024-05-22T19:45:30.095;539601347056449758;367660;380067;292217;-1323;
2024-05-22T19:45:30.113;539601347074606442;367693;380109;292205;-1276;
2024-05-22T19:45:30.131;539601347092763126;367699;380154;292242;-1320;
2024-05-22T19:45:30.149;539601347110919810;367718;380248;292254;-1328;
2024-05-22T19:45:30.168;539601347129076494;367737;380274;292284;-1348;
2024-05-22T19:45:30.186;539601347147233178;367736;380243;292349;-1300;
2024-05-22T19:45:30.204;539601347165389862;367833;380290;292326;-1327;
2024-05-22T19:45:30.222;539601347183546546;367846;380314;292346;-1299;
2024-05-22T19:45:30.240;539601347201703230;367827;380397;292401;-1289;
2024-05-22T19:45:30.258;539601347219859914;367830;380428;292376;-1292;
2024-05-22T19:45:30.277;539601347238016598;367975;380523;292494;-1277;
2024-05-22T19:45:30.295;539601347256173282;367965;380634;292511;-1277;
2024-05-22T19:45:30.313;539601347274329966;368079;380593;292571;-1278;
2024-05-22T19:45:30.331;539601347292486650;367947;380545;292454;-1297;
2024-05-22T19:45:30.349;539601347310643334;367863;380541;292400;-1318;
2024-05-22T19:45:30.367;539601347328800018;367700;380403;292307;-1330;
2024-05-22T19:45:30.385;539601347346956702;367421;380222;292154;-1305;
2024-05-22T19:45:30.404;539601347365113386;367148;379947;291991;-1339;
2024-05-22T19:45:30.422;539601347383270070;366866;379774;291849;-1339;
2024-05-22T19:45:30.440;539601347401426754;366640;379586;291797;-1277;
2024-05-22T19:45:30.458;539601347419583438;366483;379496;291669;-1276;
2024-05-22T19:45:30.476;539601347437740122;366397;379373;291611;-1274;
2024-05-22T19:45:30.494;539601347455896806;366373;379363;291561;-1297;
2024-05-22T19:45:30.513;539601347474053490;366337;379356;291519;-1292;
2024-05-22T19:45:30.531;539601347492210174;366358;379415;291515;-1299;
2024-05-22T19:45:30.549;539601347510366858;366451;379561;291640;-1250;
2024-05-22T19:45:30.567;539601347528523542;366502;379582;291667;-1289;
2024-05-22T19:45:30.585;539601347546680226;366531;379706;291757;-1257;
2024-05-22T19:45:30.603;539601347564836910;366641;379772;291758;-1306;
2024-05-22T19:45:30.622;539601347582993600;366711;379835;291828;-1285;
2024-05-22T19:45:30.640;539601347601150284;366879;379926;291908;-1295;
2024-05-22T19:45:30.658;539601347619306968;366884;380031;291918;-1307;
2024-05-22T19:45:30.676;539601347637463652;366952;380029;291946;-1316;
2024-05-22T19:45:30.694;539601347655620336;367034;380094;292005;-1372;
2024-05-22T19:45:30.712;539601347673777020;367125;380142;292055;-1289;
2024-05-22T19:45:30.730;539601347691933704;367136;380194;292087;-1359;
2024-05-22T19:45:30.749;539601347710090388;367158;380260;292173;-1326;
2024-05-22T19:45:30.767;539601347728247072;367191;380311;292179;-1275;
2024-05-22T19:45:30.785;539601347746403756;367222;380312;292142;-1331;
2024-05-22T19:45:30.803;539601347764560440;367278;380393;292182;-1288;
2024-05-22T19:45:30.821;539601347782717124;367292;380361;292236;-1331;
2024-05-22T19:45:30.839;539601347800873808;367401;380427;292268;-1324;
2024-05-22T19:45:30.858;539601347819030492;367373;380535;292260;-1334;
2024-05-22T19:45:30.876;539601347837187176;367452;380481;292331;-1336;
2024-05-22T19:45:30.894;539601347855343860;367472;380571;292321;-1328;
2024-05-22T19:45:30.912;539601347873500544;367516;380653;292395;-1334;
2024-05-22T19:45:30.930;539601347891657228;367518;380706;292409;-1336;
2024-05-22T19:45:30.948;539601347909813912;367429;380649;292365;-1329;
2024-05-22T19:45:30.966;539601347927970596;367322;380532;292275;-1329;
2024-05-22T19:45:30.985;539601347946127280;367095;380354;292136;-1317;
2024-05-22T19:45:31.003;539601347964283964;366841;380166;291981;-1263;
2024-05-22T19:45:31.021;539601347982440648;366633;379975;291851;-1242;
2024-05-22T19:45:31.039;539601348000597332;366304;379763;291641;-1300;
2024-05-22T19:45:31.057;539601348018754016;366059;379566;291483;-1313;
2024-05-22T19:45:31.075;539601348036910700;365850;379391;291396;-1350;
2024-05-22T19:45:31.094;539601348055067384;365772;379277;291338;-1327;
2024-05-22T19:45:31.112;539601348073224068;365698;379294;291337;-1303;
2024-05-22T19:45:31.130;539601348091380752;365661;379265;291336;-1263;
2024-05-22T19:45:31.148;539601348109537436;365692;379290;291313;-1256;
2024-05-22T19:45:31.166;539601348127694120;365727;379335;291305;-1324;
2024-05-22T19:45:31.184;539601348145850804;365741;379372;291356;-1308;
2024-05-22T19:45:31.203;539601348164007488;365875;379459;291394;-1300;
2024-05-22T19:45:31.221;539601348182164172;365919;379594;291467;-1337;
2024-05-22T19:45:31.239;539601348200320856;366028;379599;291555;-1336;
2024-05-22T19:45:31.257;539601348218477540;366130;379686;291573;-1322;
2024-05-22T19:45:31.275;539601348236634224;366106;379677;291606;-1343;
2024-05-22T19:45:31.293;539601348254790908;366139;379676;291688;-1358;
2024-05-22T19:45:31.311;539601348272947592;366180;379732;291647;-1344;
2024-05-22T19:45:31.330;539601348291104276;366196;379767;291623;-1336;
2024-05-22T19:45:31.348;539601348309260960;366247;379830;291691;-1389;
2024-05-22T19:45:31.366;539601348327417774;366261;379868;291674;-1326;
2024-05-22T19:45:31.384;539601348345574564;366284;379902;291753;-1296;
2024-05-22T19:45:31.402;539601348363731354;366280;379881;291723;-1244;
2024-05-22T19:45:31.420;539601348381888144;366341;379944;291753;-1283;
2024-05-22T19:45:31.439;539601348400044934;366305;379913;291744;-1272;
2024-05-22T19:45:31.457;539601348418201724;366354;379947;291731;-1279;
2024-05-22T19:45:31.475;539601348436358514;366415;379987;291782;-1262;
2024-05-22T19:45:31.493;539601348454515304;366423;380031;291722;-1357;
2024-05-22T19:45:31.511;539601348472672094;366489;380126;291833;-1273;
2024-05-22T19:45:31.529;539601348490828884;366526;380065;291800;-1321;
2024-05-22T19:45:31.548;539601348508985674;366492;380170;291844;-1309;
2024-05-22T19:45:31.566;539601348527142464;366475;380098;291862;-1305;
2024-05-22T19:45:31.584;539601348545299254;366316;379988;291772;-1323;
2024-05-22T19:45:31.602;539601348563456044;366103;379788;291611;-1319;
2024-05-22T19:45:31.620;539601348581612834;365726;379594;291473;-1313;
2024-05-22T19:45:31.638;539601348599769624;365510;379364;291286;-1325;
2024-05-22T19:45:31.656;539601348617926414;365236;379096;291045;-1360;
2024-05-22T19:45:31.675;539601348636083204;365021;378859;290907;-1330;
2024-05-22T19:45:31.693;539601348654239994;364789;378676;290760;-1362;
2024-05-22T19:45:31.711;539601348672396784;364677;378652;290720;-1284;
2024-05-22T19:45:31.729;539601348690553574;364591;378549;290650;-1329;
2024-05-22T19:45:31.747;539601348708710364;364623;378533;290640;-1316;
2024-05-22T19:45:31.765;539601348726867154;364665;378536;290686;-1354;
2024-05-22T19:45:31.784;539601348745023944;364685;378591;290705;-1371;
2024-05-22T19:45:31.802;539601348763180734;364803;378675;290785;-1359;
2024-05-22T19:45:31.820;539601348781337524;364860;378750;290768;-1417;
2024-05-22T19:45:31.838;539601348799494314;364989;378899;290938;-1347;
2024-05-22T19:45:31.856;539601348817651104;365145;378970;291020;-1342;
2024-05-22T19:45:31.874;539601348835807894;365218;379077;291027;-1355;
2024-05-22T19:45:31.892;539601348853964684;365294;379184;291093;-1301;
2024-05-22T19:45:31.911;539601348872121474;365410;379218;291137;-1311;
2024-05-22T19:45:31.929;539601348890278264;365435;379271;291210;-1328;
2024-05-22T19:45:31.947;539601348908435054;365484;379262;291242;-1320;
2024-05-22T19:45:31.965;539601348926591844;365503;379289;291226;-1335;
2024-05-22T19:45:31.983;539601348944748634;365533;379328;291254;-1278;
2024-05-22T19:45:32.001;539601348962905424;365554;379348;291296;-1319;
2024-05-22T19:45:32.020;539601348981062214;365613;379372;291321;-1340;
2024-05-22T19:45:32.038;539601348999219004;365611;379461;291280;-1333;
2024-05-22T19:45:32.056;539601349017375794;365628;379446;291366;-1310;
2024-05-22T19:45:32.074;539601349035532584;365766;379482;291372;-1286;
2024-05-22T19:45:32.092;539601349053689374;365827;379562;291449;-1249;
2024-05-22T19:45:32.110;539601349071846164;365821;379653;291440;-1312;
2024-05-22T19:45:32.129;539601349090002954;365924;379705;291530;-1270;
2024-05-22T19:45:32.147;539601349108160285;365885;379735;291529;-1300;
2024-05-22T19:45:32.165;539601349126317586;366030;379763;291576;-1260;
2024-05-22T19:45:32.183;539601349144474887;366060;379841;291599;-1334;
2024-05-22T19:45:32.201;539601349162632188;366041;379762;291523;-1299;
2024-05-22T19:45:32.219;539601349180789489;365914;379678;291519;-1293;
2024-05-22T19:45:32.237;539601349198946790;365721;379473;291321;-1285;
2024-05-22T19:45:32.256;539601349217104091;365453;379258;291190;-1286;
2024-05-22T19:45:32.274;539601349235261392;365160;379018;291014;-1310;
2024-05-22T19:45:32.292;539601349253418693;364877;378765;290796;-1290;
2024-05-22T19:45:32.310;539601349271575994;364691;378561;290677;-1321;
2024-05-22T19:45:32.328;539601349289733295;364455;378381;290521;-1329;
2024-05-22T19:45:32.346;539601349307890596;364353;378301;290463;-1319;
2024-05-22T19:45:32.365;539601349326047897;364331;378296;290426;-1273;
2024-05-22T19:45:32.383;539601349344205198;364299;378237;290438;-1246;
2024-05-22T19:45:32.401;539601349362362499;364340;378310;290432;-1308;
2024-05-22T19:45:32.419;539601349380519800;364444;378414;290542;-1265;
2024-05-22T19:45:32.437;539601349398677101;364558;378422;290531;-1263;
2024-05-22T19:45:32.455;539601349416834402;364616;378517;290684;-1279;
2024-05-22T19:45:32.474;539601349434991703;364686;378533;290732;-1283;
2024-05-22T19:45:32.492;539601349453149004;364740;378661;290800;-1323;
2024-05-22T19:45:32.510;539601349471306305;364857;378741;290864;-1294;
2024-05-22T19:45:32.528;539601349489463606;364883;378808;290885;-1316;
2024-05-22T19:45:32.546;539601349507620907;365005;378810;290890;-1300;
2024-05-22T19:45:32.564;539601349525778208;365088;378869;290952;-1261;
2024-05-22T19:45:32.582;539601349543935509;365115;378903;291015;-1227;
2024-05-22T19:45:32.601;539601349562092810;365183;378892;291006;-1273;
2024-05-22T19:45:32.619;539601349580250111;365176;378845;290995;-1368;
2024-05-22T19:45:32.637;539601349598407412;365191;378968;291021;-1282;
2024-05-22T19:45:32.655;539601349616564713;365206;379000;291081;-1275;
2024-05-22T19:45:32.673;539601349634722014;365287;379047;291101;-1255;
2024-05-22T19:45:32.691;539601349652879315;365384;379024;291082;-1300;
2024-05-22T19:45:32.710;539601349671036616;365380;379088;291140;-1220;
2024-05-22T19:45:32.728;539601349689193917;365416;379079;291185;-1212;
2024-05-22T19:45:32.746;539601349707351218;365382;379121;291188;-1272;
2024-05-22T19:45:32.764;539601349725508519;365473;379215;291256;-1254;
2024-05-22T19:45:32.782;539601349743665820;365493;379182;291231;-1330;
2024-05-22T19:45:32.800;539601349761823121;365621;379259;291298;-1260;
2024-05-22T19:45:32.818;539601349779980422;365754;379378;291359;-1273;
2024-05-22T19:45:32.837;539601349798137723;365711;379379;291346;-1302;
2024-05-22T19:45:32.855;539601349816295024;365661;379285;291271;-1310;
2024-05-22T19:45:32.873;539601349834452325;365491;379131;291180;-1311;
2024-05-22T19:45:32.891;539601349852609626;365348;378942;291059;-1304;
