Phone timestamp;sensor timestamp [ns];channel 0;channel 1;channel 2;ambient
2024-05-22T19:41:24.007;539601101004505896;427325;433264;328077;-1300;
2024-05-22T19:41:24.025;539601101022665777;427412;433347;328131;-1263;
2024-05-22T19:41:24.043;539601101040825658;427437;433361;328136;-1279;
2024-05-22T19:41:24.061;539601101058985539;427507;433349;328187;-1267;
2024-05-22T19:41:24.079;539601101077145420;427537;433380;328239;-1312;
2024-05-22T19:41:24.097;539601101095305301;427631;433460;328308;-1275;
2024-05-22T19:41:24.115;539601101113465182;427644;433432;328302;-1288;
2024-05-22T19:41:24.134;539601101131625063;427626;433405;328301;-1283;
2024-05-22T19:41:24.152;539601101149784944;427543;433300;328276;-1256;
2024-05-22T19:41:24.170;539601101167944825;427202;433017;328065;-1252;
2024-05-22T19:41:24.188;539601101186104706;426829;432685;327789;-1288;
2024-05-22T19:41:24.206;539601101204264587;426350;432244;327460;-1310;
2024-05-22T19:41:24.224;539601101222424468;425821;431810;327057;-1295;
2024-05-22T19:41:24.243;539601101240584349;425302;431248;326758;-1324;
2024-05-22T19:41:24.261;539601101258744230;424886;430906;326480;-1328;
2024-05-22T19:41:24.279;539601101276904111;424607;430634;326270;-1296;
2024-05-22T19:41:24.297;539601101295063992;424364;430344;326098;-1284;
2024-05-22T19:41:24.315;539601101313223873;424175;430197;325975;-1253;
2024-05-22T19:41:24.333;539601101331383754;424103;430066;325939;-1280;
2024-05-22T19:41:24.352;539601101349543635;424005;429967;325874;-1335;
2024-05-22T19:41:24.370;539601101367703516;424007;430012;325838;-1341;
2024-05-22T19:41:24.388;539601101385863397;424084;430034;325894;-1258;
2024-05-22T19:41:24.406;539601101404023278;424079;430122;325907;-1276;
2024-05-22T19:41:24.424;539601101422183159;424064;430128;325971;-1319;
2024-05-22T19:41:24.442;539601101440343040;424186;430171;326036;-1354;
2024-05-22T19:41:24.460;539601101458502921;424284;430227;326093;-1310;
2024-05-22T19:41:24.479;539601101476662802;424363;430240;326166;-1299;
2024-05-22T19:41:24.497;539601101494822683;424450;430318;326256;-1271;
2024-05-22T19:41:24.515;539601101512982564;424576;430402;326334;-1286;
2024-05-22T19:41:24.533;539601101531142445;424543;430413;326298;-1249;
2024-05-22T19:41:24.551;539601101549302326;424423;430322;326252;-1322;
2024-05-22T19:41:24.569;539601101567462207;424242;430196;326064;-1371;
2024-05-22T19:41:24.588;539601101585622088;423854;429805;325833;-1283;
2024-05-22T19:41:24.606;539601101603781969;423348;429330;325486;-1312;
2024-05-22T19:41:24.624;539601101621941850;422921;428974;325189;-1312;
2024-05-22T19:41:24.642;539601101640101731;422513;428568;324880;-1321;
2024-05-22T19:41:24.660;539601101658261612;422137;428226;324619;-1291;
2024-05-22T19:41:24.678;539601101676421493;421821;427910;324416;-1283;
2024-05-22T19:41:24.697;539601101694581374;421627;427668;324310;-1305;
2024-05-22T19:41:24.715;539601101712741255;421572;427578;324279;-1280;
2024-05-22T19:41:24.733;539601101730901136;421530;427561;324193;-1348;
2024-05-22T19:41:24.751;539601101749061024;421478;427537;324239;-1330;
2024-05-22T19:41:24.769;539601101767220905;421478;427562;324170;-1312;
2024-05-22T19:41:24.787;539601101785380786;421540;427620;324291;-1372;
2024-05-22T19:41:24.806;539601101803540667;421626;427597;324378;-1365;
2024-05-22T19:41:24.824;539601101821700548;421750;427684;324392;-1356;
2024-05-22T19:41:24.842;539601101839860429;421826;427852;324543;-1304;
2024-05-22T19:41:24.860;539601101858020310;421967;427888;324583;-1323;
2024-05-22T19:41:24.878;539601101876180191;422019;427932;324667;-1319;
2024-05-22T19:41:24.896;539601101894340072;422121;427984;324668;-1333;
2024-05-22T19:41:24.914;539601101912499953;422225;428073;324765;-1377;
2024-05-22T19:41:24.933;539601101930659834;422360;428155;324864;-1325;
2024-05-22T19:41:24.951;539601101948819715;422339;428088;324798;-1345;
2024-05-22T19:41:24.969;539601101966979596;422150;427924;324730;-1311;
2024-05-22T19:41:24.987;539601101985139477;421873;427699;324446;-1303;
2024-05-22T19:41:25.005;539601102003299358;421449;427365;324185;-1306;
2024-05-22T19:41:25.023;539601102021459239;421115;427041;324022;-1364;
2024-05-22T19:41:25.042;539601102039619120;420789;426660;323749;-1311;
2024-05-22T19:41:25.060;539601102057779001;420574;426404;323597;-1296;
2024-05-22T19:41:25.078;539601102075938882;420217;426113;323362;-1360;
2024-05-22T19:41:25.096;539601102094098763;420040;425919;323259;-1329;
2024-05-22T19:41:25.114;539601102112258644;419910;425848;323182;-1318;
2024-05-22T19:41:25.132;539601102130418525;419948;425772;323224;-1325;
2024-05-22T19:41:25.151;539601102148578406;419990;425781;323262;-1335;
2024-05-22T19:41:25.169;539601102166738287;420010;425782;323255;-1338;
2024-05-22T19:41:25.187;539601102184898168;420190;425910;323308;-1303;
2024-05-22T19:41:25.205;539601102203058049;420335;425961;323379;-1317;
2024-05-22T19:41:25.223;539601102221217930;420468;426089;323512;-1283;
2024-05-22T19:41:25.241;539601102239377811;420452;426165;323551;-1290;
2024-05-22T19:41:25.260;539601102257537692;420642;426284;323670;-1292;
2024-05-22T19:41:25.278;539601102275697573;420829;426335;323790;-1322;
2024-05-22T19:41:25.296;539601102293857454;421005;426466;323910;-1348;
2024-05-22T19:41:25.314;539601102312017335;421106;426539;323976;-1331;
2024-05-22T19:41:25.332;539601102330177216;421269;426627;324122;-1321;
2024-05-22T19:41:25.350;539601102348337097;421225;426638;324155;-1314;
2024-05-22T19:41:25.368;539601102366496978;421146;426511;324043;-1296;
2024-05-22T19:41:25.387;539601102384656859;420949;426323;323931;-1309;
2024-05-22T19:41:25.405;539601102402816740;420681;425991;323763;-1314;
2024-05-22T19:41:25.423;539601102420976621;420428;425679;323551;-1292;
2024-05-22T19:41:25.441;539601102439136502;420138;425383;323360;-1303;
2024-05-22T19:41:25.459;539601102457296383;419834;425108;323117;-1293;
2024-05-22T19:41:25.477;539601102475456264;419583;424846;322930;-1316;
2024-05-22T19:41:25.496;539601102493616145;419487;424751;322829;-1310;
2024-05-22T19:41:25.514;539601102511777981;419428;424610;322789;-1347;
2024-05-22T19:41:25.532;539601102529939787;419450;424595;322827;-1328;
2024-05-22T19:41:25.550;539601102548101593;419453;424655;322911;-1290;
2024-05-22T19:41:25.568;539601102566263399;419552;424704;322928;-1347;
2024-05-22T19:41:25.586;539601102584425205;419718;424711;323028;-1325;
2024-05-22T19:41:25.605;539601102602587011;419806;424865;323055;-1303;
2024-05-22T19:41:25.623;539601102620748817;420047;424963;323204;-1307;
2024-05-22T19:41:25.641;539601102638910623;420190;425105;323272;-1353;
2024-05-22T19:41:25.659;539601102657072429;420303;425155;323373;-1333;
2024-05-22T19:41:25.677;539601102675234235;420460;425296;323528;-1284;
2024-05-22T19:41:25.695;539601102693396041;420612;425378;323622;-1270;
2024-05-22T19:41:25.714;539601102711557847;420752;425402;323652;-1356;
2024-05-22T19:41:25.732;539601102729719653;420975;425652;323816;-1326;
2024-05-22T19:41:25.750;539601102747881459;421048;425569;323865;-1354;
2024-05-22T19:41:25.768;539601102766043265;421065;425572;323933;-1293;
2024-05-22T19:41:25.786;539601102784205071;420952;425477;323900;-1323;
2024-05-22T19:41:25.804;539601102802366877;420727;425220;323651;-1357;
2024-05-22T19:41:25.823;539601102820528683;420454;424899;323451;-1375;
2024-05-22T19:41:25.841;539601102838690489;420244;424698;323233;-1305;
2024-05-22T19:41:25.859;539601102856852295;419982;424450;323090;-1288;
2024-05-22T19:41:25.877;539601102875014101;419712;424178;322924;-1312;
2024-05-22T19:41:25.895;539601102893175907;419577;423961;322844;-1356;
2024-05-22T19:41:25.913;539601102911337713;419545;423973;322846;-1275;
2024-05-22T19:41:25.931;539601102929499519;419504;423909;322807;-1317;
2024-05-22T19:41:25.950;539601102947661325;419572;423907;322836;-1265;
2024-05-22T19:41:25.968;539601102965823131;419716;423989;322844;-1333;
2024-05-22T19:41:25.986;539601102983984937;419792;424090;322994;-1293;
2024-05-22T19:41:26.004;539601103002146743;419928;424157;323030;-1354;
2024-05-22T19:41:26.022;539601103020308549;420132;424308;323202;-1282;
2024-05-22T19:41:26.040;539601103038470355;420280;424306;323242;-1272;
2024-05-22T19:41:26.059;539601103056632161;420393;424378;323301;-1294;
2024-05-22T19:41:26.077;539601103074793967;420590;424553;323477;-1300;
2024-05-22T19:41:26.095;539601103092955773;420679;424577;323540;-1308;
2024-05-22T19:41:26.113;539601103111117579;420861;424716;323601;-1336;
2024-05-22T19:41:26.131;539601103129279385;420954;424815;323743;-1346;
2024-05-22T19:41:26.149;539601103147441191;421119;424881;323839;-1293;
2024-05-22T19:41:26.168;539601103165602997;421221;424895;323916;-1276;
2024-05-22T19:41:26.186;539601103183764803;421057;424764;323799;-1319;
2024-05-22T19:41:26.204;539601103201926609;420892;424601;323697;-1327;
2024-05-22T19:41:26.222;539601103220088415;420684;424304;323496;-1265;
2024-05-22T19:41:26.240;539601103238250221;420383;423954;323243;-1288;
2024-05-22T19:41:26.258;539601103256412027;420045;423668;323006;-1318;
2024-05-22T19:41:26.277;539601103274573488;419809;423415;322856;-1282;
2024-05-22T19:41:26.295;539601103292734931;419605;423282;322698;-1326;
2024-05-22T19:41:26.313;539601103310896374;419510;423122;322657;-1369;
2024-05-22T19:41:26.331;539601103329057817;419511;423085;322679;-1276;
2024-05-22T19:41:26.349;539601103347219260;419512;422981;322631;-1333;
2024-05-22T19:41:26.367;539601103365380703;419564;423112;322714;-1346;
2024-05-22T19:41:26.386;539601103383542146;419682;423133;322742;-1346;
2024-05-22T19:41:26.404;539601103401703589;419863;423286;322868;-1295;
2024-05-22T19:41:26.422;539601103419865032;419997;423297;322918;-1330;
2024-05-22T19:41:26.440;539601103438026475;420170;423478;323092;-1303;
2024-05-22T19:41:26.458;539601103456187918;420372;423582;323165;-1318;
2024-05-22T19:41:26.476;539601103474349361;420501;423708;323240;-1338;
2024-05-22T19:41:26.495;539601103492510804;420721;423832;323411;-1318;
2024-05-22T19:41:26.513;539601103510672247;420953;424026;323482;-1300;
2024-05-22T19:41:26.531;539601103528833690;421068;424061;323577;-1310;
2024-05-22T19:41:26.549;539601103546995133;421215;424203;323724;-1302;
2024-05-22T19:41:26.567;539601103565156576;421299;424181;323724;-1336;
2024-05-22T19:41:26.585;539601103583318019;421216;424147;323690;-1335;
2024-05-22T19:41:26.603;539601103601479462;421078;423937;323607;-1342;
2024-05-22T19:41:26.622;539601103619640905;420870;423779;323423;-1260;
2024-05-22T19:41:26.640;539601103637802348;420527;423464;323121;-1257;
2024-05-22T19:41:26.658;539601103655963791;420210;423092;322963;-1318;
2024-05-22T19:41:26.676;539601103674125234;419918;422825;322759;-1284;
2024-05-22T19:41:26.694;539601103692286677;419713;422606;322660;-1253;
2024-05-22T19:41:26.712;539601103710448120;419587;422446;322533;-1310;
2024-05-22T19:41:26.731;539601103728609563;419477;422323;322470;-1287;
2024-05-22T19:41:26.749;539601103746771006;419492;422260;322477;-1321;
2024-05-22T19:41:26.767;539601103764932449;419560;422299;322499;-1267;
2024-05-22T19:41:26.785;539601103783093892;419640;422359;322597;-1263;
2024-05-22T19:41:26.803;539601103801255335;419783;422439;322646;-1234;
2024-05-22T19:41:26.821;539601103819416778;419833;422478;322673;-1258;
2024-05-22T19:41:26.840;539601103837578221;419983;422554;322715;-1239;
2024-05-22T19:41:26.858;539601103855739664;420117;422681;322820;-1307;
2024-05-22T19:41:26.876;539601103873901107;420305;422817;322990;-1271;
2024-05-22T19:41:26.894;539601103892062550;420360;422792;322974;-1275;
2024-05-22T19:41:26.912;539601103910223993;420509;422871;323052;-1263;
2024-05-22T19:41:26.930;539601103928385436;420653;422986;323183;-1287;
2024-05-22T19:41:26.949;539601103946546879;420789;423040;323252;-1270;
2024-05-22T19:41:26.967;539601103964708322;420817;423142;323297;-1290;
2024-05-22T19:41:26.985;539601103982869765;420790;423001;323219;-1261;
2024-05-22T19:41:27.003;539601104001031208;420559;422797;323073;-1296;
2024-05-22T19:41:27.021;539601104019192651;420288;422489;322854;-1338;
2024-05-22T19:41:27.039;539601104037352481;419963;422071;322618;-1293;
2024-05-22T19:41:27.058;539601104055512289;419570;421705;322319;-1339;
2024-05-22T19:41:27.076;539601104073672097;419246;421361;322098;-1301;
2024-05-22T19:41:27.094;539601104091831905;419039;421136;321976;-1286;
2024-05-22T19:41:27.112;539601104109991713;418825;420959;321857;-1312;
2024-05-22T19:41:27.130;539601104128151521;418785;420823;321722;-1327;
2024-05-22T19:41:27.148;539601104146311329;418800;420775;321707;-1317;
2024-05-22T19:41:27.166;539601104164471137;418782;420814;321757;-1341;
2024-05-22T19:41:27.185;539601104182630945;418896;420880;321823;-1304;
2024-05-22T19:41:27.203;539601104200790753;419010;420970;321841;-1304;
2024-05-22T19:41:27.221;539601104218950561;419132;421045;321912;-1331;
2024-05-22T19:41:27.239;539601104237110369;419301;421227;321993;-1327;
2024-05-22T19:41:27.257;539601104255270177;419452;421373;322122;-1297;
2024-05-22T19:41:27.275;539601104273429985;419593;421532;322264;-1302;
2024-05-22T19:41:27.294;539601104291589793;419793;421686;322404;-1321;
2024-05-22T19:41:27.312;539601104309749601;420031;421777;322476;-1319;
2024-05-22T19:41:27.330;539601104327909409;420190;421909;322652;-1304;
2024-05-22T19:41:27.348;539601104346069217;420304;422040;322715;-1316;
2024-05-22T19:41:27.366;539601104364229025;420477;422133;322842;-1284;
2024-05-22T19:41:27.384;539601104382388833;420558;422230;322891;-1285;
2024-05-22T19:41:27.403;539601104400548641;420531;422107;322834;-1319;
2024-05-22T19:41:27.421;539601104418708449;420264;421894;322653;-1291;
2024-05-22T19:41:27.439;539601104436868257;420090;421658;322484;-1305;
2024-05-22T19:41:27.457;539601104455028065;419765;421428;322248;-1319;
2024-05-22T19:41:27.475;539601104473187873;419478;421083;322093;-1341;
2024-05-22T19:41:27.493;539601104491347681;419293;420784;321927;-1328;
2024-05-22T19:41:27.512;539601104509507489;419146;420643;321829;-1323;
2024-05-22T19:41:27.530;539601104527667297;419103;420569;321710;-1289;
2024-05-22T19:41:27.548;539601104545827105;419086;420569;321737;-1229;
2024-05-22T19:41:27.566;539601104563986913;419060;420590;321744;-1278;
2024-05-22T19:41:27.584;539601104582146721;419153;420575;321782;-1297;
2024-05-22T19:41:27.602;539601104600306529;419330;420644;321836;-1292;
2024-05-22T19:41:27.620;539601104618466337;419404;420770;321901;-1314;
2024-05-22T19:41:27.639;539601104636626145;419587;420902;322017;-1287;
2024-05-22T19:41:27.657;539601104654785953;419747;421022;322137;-1360;
2024-05-22T19:41:27.675;539601104672945761;419920;421200;322260;-1331;
2024-05-22T19:41:27.693;539601104691105569;420059;421300;322327;-1325;
2024-05-22T19:41:27.711;539601104709265377;420308;421422;322505;-1325;
2024-05-22T19:41:27.729;539601104727425185;420448;421532;322564;-1326;
2024-05-22T19:41:27.748;539601104745584993;420658;421636;322668;-1301;
2024-05-22T19:41:27.766;539601104763744801;420797;421834;322797;-1294;
2024-05-22T19:41:27.784;539601104781904609;420988;421978;322887;-1309;
2024-05-22T19:41:27.802;539601104800065475;421007;421973;322918;-1329;
2024-05-22T19:41:27.820;539601104818226337;420990;421928;322860;-1267;
2024-05-22T19:41:27.838;539601104836387199;420834;421768;322743;-1309;
2024-05-22T19:41:27.857;539601104854548061;420696;421514;322556;-1335;
2024-05-22T19:41:27.875;539601104872708923;420408;421376;322476;-1312;
2024-05-22T19:41:27.893;539601104890869785;420185;421073;322228;-1309;
2024-05-22T19:41:27.911;539601104909030647;420130;420968;322189;-1307;
2024-05-22T19:41:27.929;539601104927191509;420013;420796;322116;-1260;
2024-05-22T19:41:27.947;539601104945352371;419950;420710;322110;-1283;
2024-05-22T19:41:27.966;539601104963513233;419998;420748;322097;-1222;
2024-05-22T19:41:27.984;539601104981674095;420135;420763;322113;-1321;
2024-05-22T19:41:28.002;539601104999834957;420206;420842;322198;-1295;
2024-05-22T19:41:28.020;539601105017995819;420351;420890;322267;-1226;
2024-05-22T19:41:28.038;539601105036156681;420439;421003;322327;-1314;
2024-05-22T19:41:28.056;539601105054317543;420658;421130;322487;-1291;
2024-05-22T19:41:28.074;539601105072478405;420816;421345;322654;-1317;
2024-05-22T19:41:28.093;539601105090639267;420986;421390;322651;-1327;
2024-05-22T19:41:28.111;539601105108800129;421181;421582;322837;-1335;
2024-05-22T19:41:28.129;539601105126960991;421360;421720;322935;-1339;
2024-05-22T19:41:28.147;539601105145121853;421549;421880;323116;-1289;
2024-05-22T19:41:28.165;539601105163282715;421728;421964;323155;-1304;
2024-05-22T19:41:28.183;539601105181443577;421902;422124;323238;-1280;
2024-05-22T19:41:28.202;539601105199604439;422050;422248;323370;-1292;
2024-05-22T19:41:28.220;539601105217765301;422112;422235;323361;-1323;
2024-05-22T19:41:28.238;539601105235926163;422078;422214;323369;-1289;
2024-05-22T19:41:28.256;539601105254087025;421928;422051;323204;-1342;
2024-05-22T19:41:28.274;539601105272247887;421803;421840;323098;-1232;
2024-05-22T19:41:28.292;539601105290408749;421524;421624;322886;-1224;
2024-05-22T19:41:28.311;539601105308569611;421331;421389;322725;-1278;
2024-05-22T19:41:28.329;539601105326730473;421239;421156;322632;-1312;
2024-05-22T19:41:28.347;539601105344891335;421223;421065;322656;-1216;
2024-05-22T19:41:28.365;539601105363052197;421209;421083;322627;-1245;
2024-05-22T19:41:28.383;539601105381213059;421263;421146;322615;-1239;
2024-05-22T19:41:28.401;539601105399373921;421252;421184;322603;-1292;
2024-05-22T19:41:28.420;539601105417534783;421444;421277;322755;-1330;
2024-05-22T19:41:28.438;539601105435695645;421584;421390;322845;-1292;
2024-05-22T19:41:28.456;539601105453856507;421810;421552;322955;-1223;
2024-05-22T19:41:28.474;539601105472017369;421930;421619;323003;-1310;
2024-05-22T19:41:28.492;539601105490178231;422140;421757;323153;-1287;
2024-05-22T19:41:28.510;539601105508339093;422231;421899;323165;-1300;
2024-05-22T19:41:28.528;539601105526499955;422454;422049;323345;-1282;
2024-05-22T19:41:28.547;539601105544660817;422612;422127;323466;-1278;
2024-05-22T19:41:28.565;539601105562820322;422774;422301;323534;-1280;
2024-05-22T19:41:28.583;539601105580979803;422903;422358;323635;-1321;
2024-05-22T19:41:28.601;539601105599139284;423107;422462;323692;-1299;
2024-05-22T19:41:28.619;539601105617298765;423141;422590;323831;-1286;
2024-05-22T19:41:28.637;539601105635458246;423159;422570;323799;-1254;
2024-05-22T19:41:28.656;539601105653617727;423120;422417;323696;-1276;
2024-05-22T19:41:28.674;539601105671777208;422951;422304;323593;-1255;
2024-05-22T19:41:28.692;539601105689936689;422715;422013;323373;-1273;
2024-05-22T19:41:28.710;539601105708096170;422473;421829;323255;-1280;
2024-05-22T19:41:28.728;539601105726255651;422302;421614;323099;-1292;
2024-05-22T19:41:28.746;539601105744415132;422205;421529;323063;-1316;
2024-05-22T19:41:28.765;539601105762574613;422155;421422;322998;-1254;
2024-05-22T19:41:28.783;539601105780734094;422128;421419;322962;-1249;
2024-05-22T19:41:28.801;539601105798893575;422177;421410;322965;-1307;
2024-05-22T19:41:28.819;539601105817053056;422225;421443;323035;-1306;
2024-05-22T19:41:28.837;539601105835212537;422377;421535;323122;-1227;
2024-05-22T19:41:28.855;539601105853372018;422562;421696;323266;-1327;
2024-05-22T19:41:28.874;539601105871531499;422651;421797;323323;-1253;
2024-05-22T19:41:28.892;539601105889690980;422784;421863;323404;-1320;
2024-05-22T19:41:28.910;539601105907850461;422906;422058;323513;-1302;
2024-05-22T19:41:28.928;539601105926009942;423040;422110;323593;-1326;
2024-05-22T19:41:28.946;539601105944169423;423288;422289;323739;-1283;
2024-05-22T19:41:28.964;539601105962328904;423459;422413;323750;-1317;
2024-05-22T19:41:28.982;539601105980488385;423525;422478;323883;-1262;
2024-05-22T19:41:29.001;539601105998647866;423649;422538;323989;-1256;
2024-05-22T19:41:29.019;539601106016807347;423889;422754;324108;-1206;
2024-05-22T19:41:29.037;539601106034966828;423845;422769;324109;-1321;
2024-05-22T19:41:29.055;539601106053126309;423740;422548;323952;-1286;
2024-05-22T19:41:29.073;539601106071285790;423523;422402;323823;-1300;
2024-05-22T19:41:29.091;539601106089445271;423262;422197;323628;-1280;
2024-05-22T19:41:29.110;539601106107604752;423014;421859;323347;-1303;
2024-05-22T19:41:29.128;539601106125764233;422742;421628;323215;-1266;
2024-05-22T19:41:29.146;539601106143923714;422505;421426;323086;-1255;
2024-05-22T19:41:29.164;539601106162083195;422427;421257;322925;-1261;
2024-05-22T19:41:29.182;539601106180242676;422322;421160;322890;-1283;
2024-05-22T19:41:29.200;539601106198402157;422276;421045;322869;-1291;
2024-05-22T19:41:29.219;539601106216561638;422408;421145;322873;-1267;
2024-05-22T19:41:29.237;539601106234721119;422350;421173;322866;-1246;
2024-05-22T19:41:29.255;539601106252880600;422362;421232;322914;-1304;
2024-05-22T19:41:29.273;539601106271040081;422485;421373;323023;-1250;
2024-05-22T19:41:29.291;539601106289199562;422611;421365;323093;-1253;
2024-05-22T19:41:29.309;539601106307359043;422657;421467;323207;-1316;
2024-05-22T19:41:29.328;539601106325519791;422792;421554;323258;-1319;
2024-05-22T19:41:29.346;539601106343680507;422828;421644;323292;-1307;
2024-05-22T19:41:29.364;539601106361841223;422911;421739;323417;-1267;
2024-05-22T19:41:29.382;539601106380001939;423085;421866;323506;-1263;
2024-05-22T19:41:29.400;539601106398162655;423174;421947;323549;-1262;
2024-05-22T19:41:29.418;539601106416323371;423246;421945;323530;-1263;
2024-05-22T19:41:29.436;539601106434484087;423229;421999;323566;-1260;
2024-05-22T19:41:29.455;539601106452644803;423103;421926;323475;-1236;
2024-05-22T19:41:29.473;539601106470805519;422867;421603;323279;-1265;
2024-05-22T19:41:29.491;539601106488966235;422563;421361;323061;-1211;
2024-05-22T19:41:29.509;539601106507126951;422198;421001;322851;-1257;
2024-05-22T19:41:29.527;539601106525287667;421827;420686;322578;-1289;
2024-05-22T19:41:29.545;539601106543448383;421533;420365;322278;-1283;
2024-05-22T19:41:29.564;539601106561609099;421249;420182;322165;-1300;
2024-05-22T19:41:29.582;539601106579769815;421056;419939;322058;-1309;
2024-05-22T19:41:29.600;539601106597930531;420911;419848;321970;-1251;
2024-05-22T19:41:29.618;539601106616091247;420926;419768;321981;-1283;
2024-05-22T19:41:29.636;539601106634251963;420942;419777;321935;-1277;
2024-05-22T19:41:29.654;539601106652412679;420996;419810;321965;-1249;
2024-05-22T19:41:29.673;539601106670573395;421043;419861;322021;-1279;
2024-05-22T19:41:29.691;539601106688734111;421145;419962;322124;-1222;
2024-05-22T19:41:29.709;539601106706894827;421221;420052;322111;-1257;
2024-05-22T19:41:29.727;539601106725055543;421341;420183;322145;-1289;
2024-05-22T19:41:29.745;539601106743216259;421471;420267;322248;-1335;
2024-05-22T19:41:29.763;539601106761376975;421561;420426;322414;-1299;
2024-05-22T19:41:29.782;539601106779537691;421716;420459;322473;-1272;
2024-05-22T19:41:29.800;539601106797698407;421795;420580;322499;-1322;
2024-05-22T19:41:29.818;539601106815859123;421938;420729;322556;-1272;
2024-05-22T19:41:29.836;539601106834019839;422012;420728;322615;-1294;
2024-05-22T19:41:29.854;539601106852180555;421986;420755;322654;-1296;
2024-05-22T19:41:29.872;539601106870341271;421815;420639;322521;-1300;
2024-05-22T19:41:29.890;539601106888501987;421615;420366;322370;-1260;
2024-05-22T19:41:29.909;539601106906662703;421279;420052;322113;-1317;
2024-05-22T19:41:29.927;539601106924823419;420914;419746;321830;-1306;
2024-05-22T19:41:29.945;539601106942984135;420535;419460;321566;-1291;
2024-05-22T19:41:29.963;539601106961144851;420234;419201;321379;-1369;
2024-05-22T19:41:29.981;539601106979305567;420097;418924;321257;-1290;
2024-05-22T19:41:29.999;539601106997466283;419972;418845;321158;-1355;
2024-05-22T19:41:30.018;539601107015626999;419972;418921;321128;-1293;
2024-05-22T19:41:30.036;539601107033787715;419913;418902;321142;-1246;
2024-05-22T19:41:30.054;539601107051948431;419953;418902;321186;-1273;
2024-05-22T19:41:30.072;539601107070109147;420034;418995;321180;-1344;
2024-05-22T19:41:30.090;539601107088270233;420125;419092;321276;-1329;
2024-05-22T19:41:30.108;539601107106431313;420321;419222;321480;-1258;
2024-05-22T19:41:30.127;539601107124592393;420433;419348;321497;-1267;
2024-05-22T19:41:30.145;539601107142753473;420548;419416;321584;-1303;
2024-05-22T19:41:30.163;539601107160914553;420649;419551;321604;-1316;
2024-05-22T19:41:30.181;539601107179075633;420798;419627;321733;-1262;
2024-05-22T19:41:30.199;539601107197236713;420882;419747;321776;-1277;
2024-05-22T19:41:30.217;539601107215397793;421002;419882;321851;-1285;
2024-05-22T19:41:30.236;539601107233558873;421054;419917;321931;-1263;
2024-05-22T19:41:30.254;539601107251719953;421049;419969;321933;-1277;
2024-05-22T19:41:30.272;539601107269881033;420977;419904;321913;-1272;
2024-05-22T19:41:30.290;539601107288042113;420875;419762;321769;-1269;
2024-05-22T19:41:30.308;539601107306203193;420523;419469;321591;-1301;
2024-05-22T19:41:30.326;539601107324364273;420252;419227;321402;-1276;
2024-05-22T19:41:30.345;539601107342525353;419861;418845;321099;-1314;
2024-05-22T19:41:30.363;539601107360686433;419556;418549;320912;-1282;
2024-05-22T19:41:30.381;539601107378847513;419232;418322;320781;-1331;
2024-05-22T19:41:30.399;539601107397008593;419116;418199;320641;-1322;
2024-05-22T19:41:30.417;539601107415169673;418943;418067;320472;-1294;
2024-05-22T19:41:30.435;539601107433330753;418827;418054;320439;-1364;
2024-05-22T19:41:30.453;539601107451491833;418847;418015;320442;-1248;
2024-05-22T19:41:30.472;539601107469652913;418860;418010;320509;-1311;
2024-05-22T19:41:30.490;539601107487813993;418937;418104;320549;-1263;
2024-05-22T19:41:30.508;539601107505975073;418959;418156;320532;-1299;
2024-05-22T19:41:30.526;539601107524136153;419021;418272;320571;-1326;
2024-05-22T19:41:30.544;539601107542297233;419164;418346;320661;-1288;
2024-05-22T19:41:30.562;539601107560458313;419276;418457;320755;-1259;
2024-05-22T19:41:30.581;539601107578619393;419385;418582;320807;-1304;
2024-05-22T19:41:30.599;539601107596780473;419372;418649;320862;-1314;
2024-05-22T19:41:30.617;539601107614941553;419507;418703;320985;-1314;
2024-05-22T19:41:30.635;539601107633102633;419642;418786;321035;-1329;
2024-05-22T19:41:30.653;539601107651263713;419698;418898;321072;-1276;
2024-05-22T19:41:30.671;539601107669424793;419758;418944;321155;-1328;
2024-05-22T19:41:30.690;539601107687585873;419805;418982;321168;-1323;
2024-05-22T19:41:30.708;539601107705746953;419615;418858;321061;-1354;
2024-05-22T19:41:30.726;539601107723908033;419375;418547;320853;-1284;
2024-05-22T19:41:30.744;539601107742069113;419032;418298;320594;-1311;
2024-05-22T19:41:30.762;539601107760230193;418744;418029;320405;-1304;
2024-05-22T19:41:30.780;539601107778391273;418399;417763;320224;-1325;
2024-05-22T19:41:30.799;539601107796552353;418072;417527;320000;-1306;
2024-05-22T19:41:30.817;539601107814713433;417990;417384;319963;-1262;
2024-05-22T19:41:30.835;539601107832874513;417812;417267;319828;-1297;
2024-05-22T19:41:30.853;539601107851035082;417751;417267;319782;-1304;
2024-05-22T19:41:30.871;539601107869195634;417755;417261;319793;-1299;
2024-05-22T19:41:30.889;539601107887356186;417834;417375;319926;-1282;
2024-05-22T19:41:30.908;539601107905516738;417955;417495;319948;-1245;
2024-05-22T19:41:30.926;539601107923677290;418036;417539;320033;-1294;
2024-05-22T19:41:30.944;539601107941837842;418117;417679;320136;-1293;
2024-05-22T19:41:30.962;539601107959998394;418199;417741;320211;-1336;
2024-05-22T19:41:30.980;539601107978158946;418364;417831;320259;-1309;
2024-05-22T19:41:30.998;539601107996319498;418457;417997;320303;-1348;
2024-05-22T19:41:31.016;539601108014480050;418529;418038;320409;-1328;
2024-05-22T19:41:31.035;539601108032640602;418677;418198;320485;-1309;
2024-05-22T19:41:31.053;539601108050801154;418774;418249;320523;-1288;
2024-05-22T19:41:31.071;539601108068961706;418867;418394;320646;-1265;
2024-05-22T19:41:31.089;539601108087122258;418890;418454;320693;-1259;
2024-05-22T19:41:31.107;539601108105282810;418819;418362;320648;-1289;
2024-05-22T19:41:31.125;539601108123443362;418725;418243;320544;-1323;
2024-05-22T19:41:31.144;539601108141603914;418377;418096;320353;-1312;
2024-05-22T19:41:31.162;539601108159764466;418099;417772;320126;-1282;
2024-05-22T19:41:31.180;539601108177925018;417770;417470;319918;-1268;
2024-05-22T19:41:31.198;539601108196085570;417489;417232;319769;-1266;
2024-05-22T19:41:31.216;539601108214246122;417197;416922;319514;-1271;
2024-05-22T19:41:31.234;539601108232406674;416987;416840;319435;-1295;
2024-05-22T19:41:31.253;539601108250567226;416876;416740;319326;-1326;
2024-05-22T19:41:31.271;539601108268727778;416858;416674;319269;-1291;
2024-05-22T19:41:31.289;539601108286888330;416851;416728;319362;-1220;
2024-05-22T19:41:31.307;539601108305048882;416919;416706;319392;-1272;
2024-05-22T19:41:31.325;539601108323209434;416968;416757;319401;-1271;
2024-05-22T19:41:31.343;539601108341369986;417047;416884;319527;-1246;
2024-05-22T19:41:31.362;539601108359530538;417136;416945;319538;-1286;
2024-05-22T19:41:31.380;539601108377691090;417124;417071;319661;-1225;
2024-05-22T19:41:31.398;539601108395851642;417250;417135;319724;-1269;
2024-05-22T19:41:31.416;539601108414012194;417318;417171;319758;-1295;
2024-05-22T19:41:31.434;539601108432172746;417342;417298;319810;-1197;
2024-05-22T19:41:31.452;539601108450333298;417481;417413;319925;-1260;
2024-05-22T19:41:31.470;539601108468493850;417571;417462;319928;-1278;
2024-05-22T19:41:31.489;539601108486654402;417612;417571;319961;-1310;
2024-05-22T19:41:31.507;539601108504814954;417704;417606;319962;-1301;
2024-05-22T19:41:31.525;539601108522975506;417566;417490;319901;-1322;
2024-05-22T19:41:31.543;539601108541136058;417275;417333;319781;-1327;
2024-05-22T19:41:31.561;539601108559296610;417019;416996;319523;-1278;
2024-05-22T19:41:31.579;539601108577457162;416639;416671;319362;-1254;
2024-05-22T19:41:31.598;539601108595617714;416199;416295;319086;-1268;
2024-05-22T19:41:31.616;539601108613778266;415919;415950;318807;-1288;
2024-05-22T19:41:31.634;539601108631938826;415619;415670;318621;-1313;
2024-05-22T19:41:31.652;539601108650099364;415332;415437;318452;-1268;
2024-05-22T19:41:31.670;539601108668259902;415205;415325;318374;-1290;
2024-05-22T19:41:31.688;539601108686420440;415098;415213;318294;-1329;
2024-05-22T19:41:31.707;539601108704580978;415083;415200;318254;-1324;
2024-05-22T19:41:31.725;539601108722741516;415135;415167;318296;-1253;
2024-05-22T19:41:31.743;539601108740902054;415109;415304;318345;-1289;
2024-05-22T19:41:31.761;539601108759062592;415101;415381;318395;-1287;
2024-05-22T19:41:31.779;539601108777223130;415160;415428;318484;-1290;
2024-05-22T19:41:31.797;539601108795383668;415269;415544;318494;-1294;
2024-05-22T19:41:31.816;539601108813544206;415286;415636;318621;-1275;
2024-05-22T19:41:31.834;539601108831704744;415331;415588;318518;-1313;
2024-05-22T19:41:31.852;539601108849865282;415444;415666;318614;-1283;
2024-05-22T19:41:31.870;539601108868025820;415375;415761;318634;-1328;
2024-05-22T19:41:31.888;539601108886186358;415481;415798;318695;-1295;
2024-05-22T19:41:31.906;539601108904346896;415508;415799;318702;-1272;
2024-05-22T19:41:31.925;539601108922507434;415384;415733;318578;-1272;
2024-05-22T19:41:31.943;539601108940667972;415171;415563;318540;-1259;
2024-05-22T19:41:31.961;539601108958828510;414778;415225;318252;-1325;
2024-05-22T19:41:31.979;539601108976989048;414322;414819;317974;-1322;
2024-05-22T19:41:31.997;539601108995149586;413811;414328;317619;-1355;
2024-05-22T19:41:32.015;539601109013310124;413287;413900;317281;-1329;
2024-05-22T19:41:32.033;539601109031470662;412889;413483;316974;-1318;
2024-05-22T19:41:32.052;539601109049631200;412497;413139;316742;-1296;
2024-05-22T19:41:32.070;539601109067791738;412201;412885;316577;-1255;
2024-05-22T19:41:32.088;539601109085952276;412036;412705;316400;-1292;
2024-05-22T19:41:32.106;539601109104112814;411884;412595;316372;-1282;
2024-05-22T19:41:32.124;539601109122273352;411797;412511;316288;-1309;
2024-05-22T19:41:32.142;539601109140433890;411754;412538;316262;-1227;
2024-05-22T19:41:32.161;539601109158594428;411795;412525;316340;-1240;
2024-05-22T19:41:32.179;539601109176754966;411774;412586;316322;-1295;
2024-05-22T19:41:32.197;539601109194915504;411875;412596;316426;-1238;
2024-05-22T19:41:32.215;539601109213076042;411851;412610;316401;-1251;
2024-05-22T19:41:32.233;539601109231236580;411892;412687;316436;-1212;
2024-05-22T19:41:32.251;539601109249397118;411948;412746;316468;-1273;
2024-05-22T19:41:32.270;539601109267557656;411969;412770;316513;-1229;
2024-05-22T19:41:32.288;539601109285718194;412043;412837;316581;-1271;
2024-05-22T19:41:32.306;539601109303878732;412022;412859;316606;-1293;
2024-05-22T19:41:32.324;539601109322039063;412012;412836;316597;-1292;
2024-05-22T19:41:32.342;539601109340199365;411927;412738;316490;-1305;
2024-05-22T19:41:32.360;539601109358359667;411596;412511;316327;-1317;
2024-05-22T19:41:32.379;539601109376519969;411306;412204;316073;-1311;
2024-05-22T19:41:32.397;539601109394680271;410770;411693;315741;-1307;
2024-05-22T19:41:32.415;539601109412840573;410246;411130;315333;-1318;
2024-05-22T19:41:32.433;539601109431000875;409719;410645;315003;-1271;
2024-05-22T19:41:32.451;539601109449161177;409342;410295;314725;-1291;
2024-05-22T19:41:32.469;539601109467321479;408911;409992;314470;-1295;
2024-05-22T19:41:32.487;539601109485481781;408641;409638;314317;-1252;
2024-05-22T19:41:32.506;539601109503642083;408467;409523;314143;-1263;
2024-05-22T19:41:32.524;539601109521802385;408292;409424;314120;-1284;
2024-05-22T19:41:32.542;539601109539962687;408306;409369;314123;-1268;
2024-05-22T19:41:32.560;539601109558122989;408353;409356;314154;-1275;
2024-05-22T19:41:32.578;539601109576283291;408347;409381;314194;-1248;
2024-05-22T19:41:32.596;539601109594443593;408380;409438;314208;-1268;
2024-05-22T19:41:32.615;539601109612603895;408362;409457;314264;-1311;
2024-05-22T19:41:32.633;539601109630764197;408440;409540;314288;-1209;
2024-05-22T19:41:32.651;539601109648924499;408505;409649;314308;-1283;
2024-05-22T19:41:32.669;539601109667084801;408555;409717;314326;-1257;
2024-05-22T19:41:32.687;539601109685245103;408575;409779;314400;-1243;
2024-05-22T19:41:32.705;539601109703405405;408598;409730;314336;-1274;
2024-05-22T19:41:32.724;539601109721565707;408704;409796;314437;-1280;
2024-05-22T19:41:32.742;539601109739726009;408759;409767;314448;-1272;
2024-05-22T19:41:32.760;539601109757886311;408695;409715;314402;-1261;
2024-05-22T19:41:32.778;539601109776046613;408434;409549;314277;-1277;
2024-05-22T19:41:32.796;539601109794206915;408080;409230;314047;-1262;
2024-05-22T19:41:32.814;539601109812367217;407626;408775;313719;-1302;
2024-05-22T19:41:32.833;539601109830527519;407077;408279;313364;-1293;
2024-05-22T19:41:32.851;539601109848687821;406637;407813;313092;-1273;
2024-05-22T19:41:32.869;539601109866848123;406214;407444;312762;-1280;
2024-05-22T19:41:32.887;539601109885008425;405892;407206;312551;-1236;
2024-05-22T19:41:32.905;539601109903168727;405542;406889;312348;-1268;
2024-05-22T19:41:32.923;539601109921329029;405406;406656;312240;-1274;
2024-05-22T19:41:32.941;539601109939489331;405295;406555;312189;-1278;
2024-05-22T19:41:32.960;539601109957648616;405230;406514;312168;-1258;
2024-05-22T19:41:32.978;539601109975807879;405248;406575;312173;-1267;
2024-05-22T19:41:32.996;539601109993967142;405290;406588;312205;-1278;
2024-05-22T19:41:33.014;539601110012126405;405316;406627;312179;-1292;
2024-05-22T19:41:33.032;539601110030285668;405370;406707;312221;-1271;
2024-05-22T19:41:33.050;539601110048444931;405410;406746;312282;-1265;
2024-05-22T19:41:33.069;539601110066604194;405499;406792;312363;-1313;
2024-05-22T19:41:33.087;539601110084763457;405592;406852;312409;-1292;
2024-05-22T19:41:33.105;539601110102922720;405710;406938;312457;-1257;
2024-05-22T19:41:33.123;539601110121081983;405751;406963;312512;-1296;
2024-05-22T19:41:33.141;539601110139241246;405757;406943;312486;-1278;
2024-05-22T19:41:33.159;539601110157400509;405763;406935;312520;-1290;
2024-05-22T19:41:33.178;539601110175559772;405693;406923;312521;-1293;
2024-05-22T19:41:33.196;539601110193719035;405610;406865;312428;-1319;
2024-05-22T19:41:33.214;539601110211878298;405372;406657;312280;-1245;
2024-05-22T19:41:33.232;539601110230037561;404997;406328;311994;-1276;
2024-05-22T19:41:33.250;539601110248196824;404621;405880;311743;-1302;
2024-05-22T19:41:33.268;539601110266356087;404156;405458;311439;-1313;
2024-05-22T19:41:33.287;539601110284515350;403713;405067;311157;-1279;
2024-05-22T19:41:33.305;539601110302674613;403273;404686;310922;-1311;
2024-05-22T19:41:33.323;539601110320833876;403103;404359;310699;-1271;
2024-05-22T19:41:33.341;539601110338993139;402907;404298;310643;-1287;
2024-05-22T19:41:33.359;539601110357152402;402800;404153;310559;-1236;
2024-05-22T19:41:33.377;539601110375311665;402777;404059;310584;-1302;
2024-05-22T19:41:33.395;539601110393470928;402728;404055;310522;-1326;
2024-05-22T19:41:33.414;539601110411630191;402821;404104;310551;-1269;
2024-05-22T19:41:33.432;539601110429789454;402919;404128;310640;-1319;
2024-05-22T19:41:33.450;539601110447948717;403004;404244;310680;-1297;
2024-05-22T19:41:33.468;539601110466107980;403043;404330;310753;-1275;
2024-05-22T19:41:33.486;539601110484267243;403138;404406;310779;-1272;
2024-05-22T19:41:33.504;539601110502426506;403154;404470;310767;-1268;
2024-05-22T19:41:33.523;539601110520585769;403270;404495;310900;-1266;
2024-05-22T19:41:33.541;539601110538745032;403307;404542;310947;-1259;
2024-05-22T19:41:33.559;539601110556904295;403404;404606;310932;-1259;
2024-05-22T19:41:33.577;539601110575063558;403456;404634;310935;-1279;
2024-05-22T19:41:33.595;539601110593222821;403515;404673;310944;-1257;
2024-05-22T19:41:33.613;539601110611382084;403526;404719;310920;-1295;
2024-05-22T19:41:33.632;539601110629541347;403350;404557;310885;-1273;
2024-05-22T19:41:33.650;539601110647700610;403127;404353;310742;-1261;
2024-05-22T19:41:33.668;539601110665859873;402775;403990;310545;-1245;
2024-05-22T19:41:33.686;539601110684019136;402355;403569;310245;-1291;
2024-05-22T19:41:33.704;539601110702178399;402012;403180;309980;-1236;
2024-05-22T19:41:33.722;539601110720338170;401700;402862;309715;-1250;
2024-05-22T19:41:33.740;539601110738497905;401391;402598;309565;-1272;
2024-05-22T19:41:33.759;539601110756657640;401139;402373;309453;-1239;
2024-05-22T19:41:33.777;539601110774817375;401052;402202;309405;-1234;
2024-05-22T19:41:33.795;539601110792977110;401024;402191;309335;-1255;
2024-05-22T19:41:33.813;539601110811136845;400951;402225;309361;-1308;
2024-05-22T19:41:33.831;539601110829296580;401020;402294;309373;-1266;
2024-05-22T19:41:33.849;539601110847456315;401081;402286;309350;-1280;
2024-05-22T19:41:33.868;539601110865616050;401176;402346;309370;-1296;
2024-05-22T19:41:33.886;539601110883775785;401283;402409;309502;-1294;
2024-05-22T19:41:33.904;539601110901935520;401418;402464;309594;-1245;
2024-05-22T19:41:33.922;539601110920095255;401493;402640;309658;-1283;
2024-05-22T19:41:33.940;539601110938254990;401586;402692;309685;-1226;
2024-05-22T19:41:33.958;539601110956414725;401706;402749;309794;-1254;
2024-05-22T19:41:33.977;539601110974574460;401761;402774;309808;-1237;
2024-05-22T19:41:33.995;539601110992734195;401758;402807;309799;-1225;
2024-05-22T19:41:34.013;539601111010893930;401862;402915;309865;-1287;
2024-05-22T19:41:34.031;539601111029053665;401901;402915;309866;-1278;
2024-05-22T19:41:34.049;539601111047213400;401910;402886;309826;-1270;
2024-05-22T19:41:34.067;539601111065373135;401777;402780;309812;-1285;
2024-05-22T19:41:34.086;539601111083532870;401451;402533;309555;-1259;
2024-05-22T19:41:34.104;539601111101692605;401118;402086;309314;-1311;
2024-05-22T19:41:34.122;539601111119852340;400747;401717;309104;-1257;
2024-05-22T19:41:34.140;539601111138012075;400376;401358;308848;-1223;
2024-05-22T19:41:34.158;539601111156171810;400060;400985;308583;-1253;
2024-05-22T19:41:34.176;539601111174331545;399836;400746;308363;-1313;
2024-05-22T19:41:34.194;539601111192491280;399697;400534;308285;-1285;
2024-05-22T19:41:34.213;539601111210651015;399625;400555;308295;-1290;
2024-05-22T19:41:34.231;539601111228810750;399583;400501;308290;-1229;
2024-05-22T19:41:34.249;539601111246970485;399649;400568;308341;-1245;
2024-05-22T19:41:34.267;539601111265130220;399730;400696;308372;-1241;
2024-05-22T19:41:34.285;539601111283289955;399825;400718;308363;-1278;
2024-05-22T19:41:34.303;539601111301449690;399917;400774;308425;-1234;
2024-05-22T19:41:34.322;539601111319609425;399935;400809;308468;-1290;
2024-05-22T19:41:34.340;539601111337769160;400057;400995;308531;-1227;
2024-05-22T19:41:34.358;539601111355928895;400111;401038;308587;-1252;
2024-05-22T19:41:34.376;539601111374088630;400184;401106;308604;-1262;
2024-05-22T19:41:34.394;539601111392248365;400284;401128;308652;-1300;
2024-05-22T19:41:34.412;539601111410408100;400295;401146;308724;-1295;
2024-05-22T19:41:34.431;539601111428567835;400368;401221;308802;-1284;
2024-05-22T19:41:34.449;539601111446727570;400412;401236;308831;-1297;
2024-05-22T19:41:34.467;539601111464887305;400473;401265;308866;-1237;
2024-05-22T19:41:34.485;539601111483046324;400270;401124;308655;-1277;
2024-05-22T19:41:34.503;539601111501205333;399969;400963;308501;-1309;
2024-05-22T19:41:34.521;539601111519364342;399609;400456;308235;-1252;
2024-05-22T19:41:34.540;539601111537523351;399170;400074;307887;-1210;
2024-05-22T19:41:34.558;539601111555682360;398660;399626;307609;-1223;
2024-05-22T19:41:34.576;539601111573841369;398258;399183;307293;-1263;
2024-05-22T19:41:34.594;539601111592000378;397926;398826;307057;-1273;
2024-05-22T19:41:34.612;539601111610159387;397656;398587;306881;-1331;
2024-05-22T19:41:34.630;539601111628318396;397501;398445;306772;-1279;
2024-05-22T19:41:34.648;539601111646477405;397422;398356;306727;-1266;
2024-05-22T19:41:34.667;539601111664636414;397361;398326;306721;-1319;
2024-05-22T19:41:34.685;539601111682795423;397343;398328;306776;-1319;
2024-05-22T19:41:34.703;539601111700954432;397461;398349;306834;-1295;
2024-05-22T19:41:34.721;539601111719113441;397475;398400;306834;-1295;
2024-05-22T19:41:34.739;539601111737272450;397474;398409;306852;-1312;
2024-05-22T19:41:34.757;539601111755431459;397562;398526;306906;-1261;
2024-05-22T19:41:34.776;539601111773590468;397626;398580;306903;-1267;
2024-05-22T19:41:34.794;539601111791749477;397776;398645;307018;-1283;
2024-05-22T19:41:34.812;539601111809908486;397841;398812;307001;-1300;
2024-05-22T19:41:34.830;539601111828067495;397912;398855;307061;-1291;
2024-05-22T19:41:34.848;539601111846226504;397969;398975;307146;-1319;
2024-05-22T19:41:34.866;539601111864385513;398016;398970;307220;-1302;
2024-05-22T19:41:34.885;539601111882544522;398055;398984;307271;-1289;
2024-05-22T19:41:34.903;539601111900703531;398038;398997;307199;-1273;
2024-05-22T19:41:34.921;539601111918862540;397875;398878;307111;-1293;
2024-05-22T19:41:34.939;539601111937021549;397585;398641;306958;-1276;
2024-05-22T19:41:34.957;539601111955180558;397236;398255;306674;-1274;
2024-05-22T19:41:34.975;539601111973339567;396796;397833;306383;-1323;
2024-05-22T19:41:34.993;539601111991498576;396439;397462;306098;-1270;
2024-05-22T19:41:35.012;539601112009657585;396085;397146;305880;-1271;
2024-05-22T19:41:35.030;539601112027816594;395845;396793;305652;-1284;
2024-05-22T19:41:35.048;539601112045975603;395694;396622;305561;-1294;
2024-05-22T19:41:35.066;539601112064134612;395494;396556;305429;-1290;
2024-05-22T19:41:35.084;539601112082293621;395528;396530;305513;-1271;
2024-05-22T19:41:35.102;539601112100452630;395562;396592;305458;-1275;
2024-05-22T19:41:35.121;539601112118611639;395567;396605;305467;-1270;
2024-05-22T19:41:35.139;539601112136770648;395662;396710;305541;-1257;
2024-05-22T19:41:35.157;539601112154929657;395809;396871;305602;-1210;
2024-05-22T19:41:35.175;539601112173088666;395855;396951;305659;-1284;
2024-05-22T19:41:35.193;539601112191247675;396000;397100;305851;-1274;
2024-05-22T19:41:35.211;539601112209406684;396203;397251;305926;-1294;
2024-05-22T19:41:35.230;539601112227565693;396279;397322;305969;-1299;
2024-05-22T19:41:35.248;539601112245722556;396404;397537;306081;-1263;
2024-05-22T19:41:35.266;539601112263879385;396539;397585;306067;-1243;
2024-05-22T19:41:35.284;539601112282036214;396656;397735;306243;-1221;
2024-05-22T19:41:35.302;539601112300193043;396786;397836;306335;-1266;
2024-05-22T19:41:35.320;539601112318349872;396829;397922;306379;-1291;
2024-05-22T19:41:35.339;539601112336506701;396895;398016;306405;-1249;
2024-05-22T19:41:35.357;539601112354663530;396813;397916;306333;-1306;
2024-05-22T19:41:35.375;539601112372820359;396697;397782;306228;-1249;
2024-05-22T19:41:35.393;539601112390977188;396435;397488;306020;-1309;
2024-05-22T19:41:35.411;539601112409134017;396117;397243;305833;-1255;
2024-05-22T19:41:35.429;539601112427290846;395762;396886;305526;-1325;
2024-05-22T19:41:35.447;539601112445447675;395577;396588;305346;-1306;
2024-05-22T19:41:35.466;539601112463604504;395330;396348;305142;-1266;
2024-05-22T19:41:35.484;539601112481761333;395195;396232;305077;-1255;
2024-05-22T19:41:35.502;539601112499918162;395122;396177;305031;-1268;
2024-05-22T19:41:35.520;539601112518074991;395094;396172;305061;-1286;
2024-05-22T19:41:35.538;539601112536231820;395130;396234;305089;-1240;
2024-05-22T19:41:35.556;539601112554388649;395219;396296;305173;-1240;
2024-05-22T19:41:35.575;539601112572545478;395408;396419;305286;-1236;
2024-05-22T19:41:35.593;539601112590702307;395462;396564;305329;-1302;
2024-05-22T19:41:35.611;539601112608859136;395640;396756;305431;-1305;
2024-05-22T19:41:35.629;539601112627015965;395809;396858;305513;-1280;
2024-05-22T19:41:35.647;539601112645172794;395966;396995;305645;-1238;
2024-05-22T19:41:35.665;539601112663329623;396131;397119;305722;-1306;
2024-05-22T19:41:35.683;539601112681486452;396266;397253;305714;-1270;
2024-05-22T19:41:35.702;539601112699643281;396375;397426;305891;-1261;
2024-05-22T19:41:35.720;539601112717800110;396505;397556;305953;-1270;
2024-05-22T19:41:35.738;539601112735956939;396621;397726;306037;-1273;
2024-05-22T19:41:35.756;539601112754113768;396654;397821;306152;-1311;
2024-05-22T19:41:35.774;539601112772270597;396779;397875;306149;-1317;
2024-05-22T19:41:35.792;539601112790427426;396779;397819;306178;-1291;
2024-05-22T19:41:35.811;539601112808584255;396711;397908;306118;-1244;
2024-05-22T19:41:35.829;539601112826741084;396606;397749;306033;-1291;
2024-05-22T19:41:35.847;539601112844897913;396347;397518;305847;-1306;
2024-05-22T19:41:35.865;539601112863054742;396084;397226;305653;-1303;
2024-05-22T19:41:35.883;539601112881211571;395792;396973;305498;-1325;
2024-05-22T19:41:35.901;539601112899368400;395597;396803;305345;-1293;
2024-05-22T19:41:35.920;539601112917525229;395427;396679;305215;-1303;
2024-05-22T19:41:35.938;539601112935682058;395402;396506;305166;-1289;
2024-05-22T19:41:35.956;539601112953838887;395395;396624;305167;-1292;
2024-05-22T19:41:35.974;539601112971995716;395480;396728;305220;-1297;
2024-05-22T19:41:35.992;539601112990152545;395570;396817;305286;-1276;
2024-05-22T19:41:36.010;539601113008311564;395641;396926;305363;-1243;
2024-05-22T19:41:36.028;539601113026470573;395843;397047;305507;-1250;
2024-05-22T19:41:36.047;539601113044629582;395965;397159;305568;-1310;
2024-05-22T19:41:36.065;539601113062788591;396178;397339;305670;-1263;
2024-05-22T19:41:36.083;539601113080947600;396325;397517;305799;-1318;
2024-05-22T19:41:36.101;539601113099106609;396555;397704;305945;-1242;
2024-05-22T19:41:36.119;539601113117265618;396703;397873;305974;-1224;
2024-05-22T19:41:36.137;539601113135424627;396865;397991;306123;-1311;
2024-05-22T19:41:36.156;539601113153583636;396967;398147;306141;-1269;
2024-05-22T19:41:36.174;539601113171742645;397129;398297;306258;-1339;
2024-05-22T19:41:36.192;539601113189901654;397252;398470;306329;-1300;
2024-05-22T19:41:36.210;539601113208060663;397395;398656;306419;-1334;
2024-05-22T19:41:36.228;539601113226219672;397570;398757;306530;-1305;
2024-05-22T19:41:36.246;539601113244378681;397701;398827;306661;-1255;
2024-05-22T19:41:36.265;539601113262537690;397566;398813;306579;-1307;
2024-05-22T19:41:36.283;539601113280696699;397476;398710;306500;-1321;
2024-05-22T19:41:36.301;539601113298855708;397377;398582;306363;-1270;
2024-05-22T19:41:36.319;539601113317014717;397175;398380;306203;-1262;
2024-05-22T19:41:36.337;539601113335173726;397020;398216;306113;-1249;
2024-05-22T19:41:36.355;539601113353332735;396891;398062;305999;-1302;
2024-05-22T19:41:36.373;539601113371491744;396735;397969;305882;-1296;
2024-05-22T19:41:36.392;539601113389650753;396777;397939;305837;-1331;
2024-05-22T19:41:36.410;539601113407809762;396728;397994;305819;-1274;
2024-05-22T19:41:36.428;539601113425968771;396828;397979;305871;-1270;
2024-05-22T19:41:36.446;539601113444127780;396937;398149;305991;-1282;
2024-05-22T19:41:36.464;539601113462286789;397067;398249;306081;-1313;
2024-05-22T19:41:36.482;539601113480445798;397190;398403;306173;-1304;
2024-05-22T19:41:36.501;539601113498604807;397388;398558;306325;-1303;
2024-05-22T19:41:36.519;539601113516763816;397507;398736;306431;-1277;
2024-05-22T19:41:36.537;539601113534922825;397665;398976;306480;-1326;
2024-05-22T19:41:36.555;539601113553081834;397885;399103;306590;-1301;
2024-05-22T19:41:36.573;539601113571240843;398001;399300;306688;-1293;
2024-05-22T19:41:36.591;539601113589399852;398142;399373;306797;-1291;
2024-05-22T19:41:36.610;539601113607558861;398286;399572;306877;-1355;
2024-05-22T19:41:36.628;539601113625717870;398434;399732;307011;-1372;
2024-05-22T19:41:36.646;539601113643876879;398633;399873;307131;-1333;
2024-05-22T19:41:36.664;539601113662035888;398836;399986;307216;-1296;
2024-05-22T19:41:36.682;539601113680194897;398919;400169;307333;-1313;
2024-05-22T19:41:36.700;539601113698353906;398986;400210;307303;-1311;
2024-05-22T19:41:36.719;539601113716512915;398996;400231;307323;-1265;
2024-05-22T19:41:36.737;539601113734671924;398815;400086;307165;-1303;
2024-05-22T19:41:36.755;539601113752830933;398639;399928;307060;-1333;
2024-05-22T19:41:36.773;539601113770991963;398468;399802;306903;-1271;
2024-05-22T19:41:36.791;539601113789152970;398270;399589;306752;-1373;
2024-05-22T19:41:36.809;539601113807313977;398217;399507;306682;-1333;
2024-05-22T19:41:36.827;539601113825474984;398116;399461;306610;-1312;
2024-05-22T19:41:36.846;539601113843635991;398151;399538;306658;-1325;
2024-05-22T19:41:36.864;539601113861796998;398170;399552;306678;-1307;
2024-05-22T19:41:36.882;539601113879958005;398266;399660;306726;-1299;
2024-05-22T19:41:36.900;539601113898119012;398419;399784;306842;-1346;
2024-05-22T19:41:36.918;539601113916280019;398530;399898;306906;-1357;
2024-05-22T19:41:36.936;539601113934441026;398642;400103;307109;-1289;
2024-05-22T19:41:36.955;539601113952602033;398864;400270;307166;-1265;
2024-05-22T19:41:36.973;539601113970763040;398985;400405;307251;-1291;
2024-05-22T19:41:36.991;539601113988924047;399083;400560;307336;-1246;
2024-05-22T19:41:37.009;539601114007085054;399202;400687;307471;-1290;
2024-05-22T19:41:37.027;539601114025246061;399347;400810;307513;-1330;
2024-05-22T19:41:37.045;539601114043407068;399482;400970;307608;-1330;
2024-05-22T19:41:37.064;539601114061568075;399672;401109;307761;-1300;
2024-05-22T19:41:37.082;539601114079729082;399781;401210;307809;-1316;
2024-05-22T19:41:37.100;539601114097890089;399931;401335;307893;-1286;
2024-05-22T19:41:37.118;539601114116051096;400027;401424;307921;-1314;
2024-05-22T19:41:37.136;539601114134212103;400014;401505;307917;-1359;
2024-05-22T19:41:37.154;539601114152373110;399914;401395;307783;-1306;
2024-05-22T19:41:37.173;539601114170534117;399754;401243;307695;-1323;
2024-05-22T19:41:37.191;539601114188695124;399505;401124;307606;-1253;
2024-05-22T19:41:37.209;539601114206856131;399254;400923;307419;-1313;
2024-05-22T19:41:37.227;539601114225017138;398961;400666;307180;-1325;
2024-05-22T19:41:37.245;539601114243178145;398792;400528;307085;-1293;
2024-05-22T19:41:37.263;539601114261339152;398651;400425;307010;-1310;
2024-05-22T19:41:37.281;539601114279500159;398511;400394;306930;-1309;
2024-05-22T19:41:37.300;539601114297661166;398515;400306;306875;-1242;
2024-05-22T19:41:37.318;539601114315822173;398495;400363;306937;-1285;
2024-05-22T19:41:37.336;539601114333983180;398519;400423;306942;-1360;
2024-05-22T19:41:37.354;539601114352144187;398608;400502;306964;-1303;
2024-05-22T19:41:37.372;539601114370305194;398689;400602;307058;-1292;
2024-05-22T19:41:37.390;539601114388466201;398716;400673;307061;-1305;
2024-05-22T19:41:37.409;539601114406627208;398763;400790;307126;-1303;
2024-05-22T19:41:37.427;539601114424788215;398867;400851;307233;-1338;
2024-05-22T19:41:37.445;539601114442949222;398913;400990;307306;-1262;
2024-05-22T19:41:37.463;539601114461110229;399028;401075;307370;-1323;
2024-05-22T19:41:37.481;539601114479271236;399083;401157;307394;-1356;
2024-05-22T19:41:37.499;539601114497432243;399202;401278;307500;-1289;
2024-05-22T19:41:37.518;539601114515593250;399306;401376;307518;-1270;
2024-05-22T19:41:37.536;539601114533752473;399337;401430;307552;-1318;
2024-05-22T19:41:37.554;539601114551911663;399371;401485;307615;-1304;
2024-05-22T19:41:37.572;539601114570070853;399315;401540;307592;-1335;
2024-05-22T19:41:37.590;539601114588230043;399293;401487;307543;-1287;
2024-05-22T19:41:37.608;539601114606389233;399049;401298;307387;-1307;
2024-05-22T19:41:37.627;539601114624548423;398780;401038;307234;-1339;
2024-05-22T19:41:37.645;539601114642707613;398441;400765;307001;-1358;
2024-05-22T19:41:37.663;539601114660866803;398184;400611;306768;-1342;
2024-05-22T19:41:37.681;539601114679025993;397915;400304;306591;-1348;
2024-05-22T19:41:37.699;539601114697185183;397660;400134;306451;-1335;
2024-05-22T19:41:37.717;539601114715344373;397441;399991;306268;-1319;
2024-05-22T19:41:37.735;539601114733503563;397431;399945;306224;-1297;
2024-05-22T19:41:37.754;539601114751662753;397385;399990;306244;-1345;
2024-05-22T19:41:37.772;539601114769821943;397358;400070;306252;-1337;
2024-05-22T19:41:37.790;539601114787981133;397423;400117;306278;-1317;
2024-05-22T19:41:37.808;539601114806140323;397508;400208;306392;-1267;
2024-05-22T19:41:37.826;539601114824299513;397537;400290;306439;-1341;
2024-05-22T19:41:37.844;539601114842458703;397671;400382;306521;-1382;
2024-05-22T19:41:37.863;539601114860617893;397786;400537;306619;-1376;
2024-05-22T19:41:37.881;539601114878777083;397900;400683;306664;-1297;
2024-05-22T19:41:37.899;539601114896936273;397992;400772;306708;-1338;
2024-05-22T19:41:37.917;539601114915095463;398125;400874;306788;-1386;
2024-05-22T19:41:37.935;539601114933254653;398156;400974;306909;-1393;
2024-05-22T19:41:37.953;539601114951413843;398291;401019;307013;-1333;
2024-05-22T19:41:37.972;539601114969573033;398380;401212;307070;-1286;
2024-05-22T19:41:37.990;539601114987732223;398478;401221;307073;-1308;
2024-05-22T19:41:38.008;539601115005891413;398609;401407;307120;-1257;
2024-05-22T19:41:38.026;539601115024050603;398584;401349;307132;-1308;
2024-05-22T19:41:38.044;539601115042209793;398426;401259;307109;-1395;
2024-05-22T19:41:38.062;539601115060368983;398291;401134;306998;-1319;
2024-05-22T19:41:38.081;539601115078528173;398058;400936;306747;-1362;
2024-05-22T19:41:38.099;539601115096687363;397804;400702;306568;-1380;
2024-05-22T19:41:38.117;539601115114846553;397541;400550;306417;-1294;
2024-05-22T19:41:38.135;539601115133005743;397267;400276;306239;-1331;
2024-05-22T19:41:38.153;539601115151164933;397141;400184;306114;-1325;
2024-05-22T19:41:38.171;539601115169324123;396937;400093;306017;-1357;
2024-05-22T19:41:38.189;539601115187483313;396963;400129;306033;-1267;
2024-05-22T19:41:38.208;539601115205642503;396837;400096;305990;-1336;
2024-05-22T19:41:38.226;539601115223801693;396920;400186;306013;-1292;
2024-05-22T19:41:38.244;539601115241960883;396973;400252;306093;-1355;
2024-05-22T19:41:38.262;539601115260120073;397049;400365;306128;-1318;
2024-05-22T19:41:38.280;539601115278279263;397146;400450;306257;-1358;
2024-05-22T19:41:38.298;539601115296439034;397268;400576;306317;-1319;
2024-05-22T19:41:38.317;539601115314598769;397332;400645;306323;-1348;
2024-05-22T19:41:38.335;539601115332758504;397441;400752;306400;-1318;
2024-05-22T19:41:38.353;539601115350918239;397595;400808;306547;-1293;
2024-05-22T19:41:38.371;539601115369077974;397628;400940;306580;-1238;
2024-05-22T19:41:38.389;539601115387237709;397707;401007;306624;-1328;
2024-05-22T19:41:38.407;539601115405397444;397799;401049;306706;-1342;
2024-05-22T19:41:38.426;539601115423557179;397970;401202;306710;-1312;
2024-05-22T19:41:38.444;539601115441716914;398021;401275;306774;-1326;
2024-05-22T19:41:38.462;539601115459876649;398114;401387;306821;-1306;
2024-05-22T19:41:38.480;539601115478036384;398200;401460;306905;-1299;
2024-05-22T19:41:38.498;539601115496196119;398162;401383;306837;-1326;
2024-05-22T19:41:38.516;539601115514355854;398016;401281;306678;-1345;
2024-05-22T19:41:38.535;539601115532515589;397767;401074;306522;-1406;
2024-05-22T19:41:38.553;539601115550675324;397471;400896;306347;-1319;
2024-05-22T19:41:38.571;539601115568835059;397255;400689;306214;-1328;
2024-05-22T19:41:38.589;539601115586994794;397021;400466;306038;-1304;
2024-05-22T19:41:38.607;539601115605154529;396814;400402;305908;-1338;
2024-05-22T19:41:38.625;539601115623314264;396741;400334;305909;-1271;
2024-05-22T19:41:38.643;539601115641473999;396586;400287;305886;-1343;
2024-05-22T19:41:38.662;539601115659633734;396578;400289;305892;-1351;
2024-05-22T19:41:38.680;539601115677793469;396527;400376;305894;-1303;
2024-05-22T19:41:38.698;539601115695953204;396558;400378;305891;-1312;
2024-05-22T19:41:38.716;539601115714112939;396640;400422;305928;-1324;
2024-05-22T19:41:38.734;539601115732272674;396712;400508;306035;-1356;
2024-05-22T19:41:38.752;539601115750432409;396761;400545;306078;-1351;
2024-05-22T19:41:38.771;539601115768592144;396890;400695;306149;-1328;
2024-05-22T19:41:38.789;539601115786751879;396970;400785;306233;-1299;
2024-05-22T19:41:38.807;539601115804911614;397019;400908;306227;-1306;
2024-05-22T19:41:38.825;539601115823071349;397106;400935;306274;-1342;
2024-05-22T19:41:38.843;539601115841231084;397220;400971;306310;-1304;
2024-05-22T19:41:38.861;539601115859390819;397314;401065;306411;-1319;
2024-05-22T19:41:38.880;539601115877550554;397346;401144;306457;-1295;
2024-05-22T19:41:38.898;539601115895710289;397455;401211;306518;-1301;
2024-05-22T19:41:38.916;539601115913870024;397517;401284;306607;-1282;
2024-05-22T19:41:38.934;539601115932029759;397470;401233;306572;-1285;
2024-05-22T19:41:38.952;539601115950189494;397491;401276;306541;-1310;
2024-05-22T19:41:38.970;539601115968349229;397261;401199;306397;-1301;
2024-05-22T19:41:38.989;539601115986508964;397052;400981;306269;-1312;
2024-05-22T19:41:39.007;539601116004668699;396808;400756;306093;-1324;
2024-05-22T19:41:39.025;539601116022828434;396492;400540;305829;-1326;
2024-05-22T19:41:39.043;539601116040988169;396268;400362;305687;-1285;
2024-05-22T19:41:39.061;539601116059149789;396124;400181;305619;-1330;
2024-05-22T19:41:39.079;539601116077311377;395977;400092;305490;-1377;
2024-05-22T19:41:39.097;539601116095472965;395834;400047;305437;-1354;
2024-05-22T19:41:39.116;539601116113634553;395850;400066;305477;-1338;
2024-05-22T19:41:39.134;539601116131796141;395861;400108;305445;-1320;
2024-05-22T19:41:39.152;539601116149957729;395965;400206;305497;-1317;
2024-05-22T19:41:39.170;539601116168119317;396007;400256;305599;-1297;
2024-05-22T19:41:39.188;539601116186280905;396020;400383;305623;-1249;
2024-05-22T19:41:39.206;539601116204442493;396076;400435;305696;-1314;
2024-05-22T19:41:39.225;539601116222604081;396117;400448;305693;-1263;
2024-05-22T19:41:39.243;539601116240765669;396260;400635;305779;-1258;
2024-05-22T19:41:39.261;539601116258927257;396300;400631;305817;-1330;
2024-05-22T19:41:39.279;539601116277088845;396455;400663;305826;-1372;
2024-05-22T19:41:39.297;539601116295250433;396523;400777;305965;-1303;
2024-05-22T19:41:39.315;539601116313412021;396553;400828;306001;-1352;
2024-05-22T19:41:39.334;539601116331573609;396564;400859;305966;-1336;
2024-05-22T19:41:39.352;539601116349735197;396670;400936;306035;-1319;
2024-05-22T19:41:39.370;539601116367896785;396768;400996;306153;-1307;
2024-05-22T19:41:39.388;539601116386058373;396746;400988;306163;-1340;
2024-05-22T19:41:39.406;539601116404219961;396727;400991;306142;-1276;
2024-05-22T19:41:39.424;539601116422381549;396610;400851;306006;-1294;
2024-05-22T19:41:39.443;539601116440543137;396352;400701;305856;-1322;
2024-05-22T19:41:39.461;539601116458704725;396063;400400;305589;-1350;
2024-05-22T19:41:39.479;539601116476866313;395744;400198;305419;-1306;
2024-05-22T19:41:39.497;539601116495027901;395491;400002;305303;-1310;
2024-05-22T19:41:39.515;539601116513189489;395292;399795;305157;-1268;
2024-05-22T19:41:39.533;539601116531351077;395168;399684;305122;-1284;
2024-05-22T19:41:39.552;539601116549512665;395120;399651;305089;-1271;
2024-05-22T19:41:39.570;539601116567674253;394977;399576;305077;-1353;
2024-05-22T19:41:39.588;539601116585835841;395076;399720;305080;-1296;
2024-05-22T19:41:39.606;539601116603997429;395131;399761;305133;-1311;
2024-05-22T19:41:39.624;539601116622159017;395160;399798;305143;-1241;
2024-05-22T19:41:39.642;539601116640320605;395170;399820;305148;-1276;
2024-05-22T19:41:39.660;539601116658482193;395231;399859;305218;-1290;
2024-05-22T19:41:39.679;539601116676643781;395363;399940;305277;-1231;
2024-05-22T19:41:39.697;539601116694805369;395377;400052;305356;-1296;
2024-05-22T19:41:39.715;539601116712966957;395400;400081;305388;-1323;
2024-05-22T19:41:39.733;539601116731128545;395447;400099;305375;-1285;
2024-05-22T19:41:39.751;539601116749290133;395455;400094;305339;-1276;
2024-05-22T19:41:39.769;539601116767451721;395462;400089;305354;-1304;
2024-05-22T19:41:39.788;539601116785613309;395484;400088;305373;-1337;
2024-05-22T19:41:39.806;539601116803774897;395459;400058;305437;-1321;
2024-05-22T19:41:39.824;539601116821936190;395451;400112;305439;-1357;
2024-05-22T19:41:39.842;539601116840097451;395296;399969;305294;-1391;
2024-05-22T19:41:39.860;539601116858258712;395028;399814;305140;-1335;
2024-05-22T19:41:39.878;539601116876419973;394742;399558;304915;-1291;
2024-05-22T19:41:39.897;539601116894581234;394264;399242;304692;-1359;
2024-05-22T19:41:39.915;539601116912742495;393901;398907;304410;-1302;
2024-05-22T19:41:39.933;539601116930903756;393485;398520;304143;-1294;
2024-05-22T19:41:39.951;539601116949065017;393078;398170;303855;-1344;
2024-05-22T19:41:39.969;539601116967226278;392770;397911;303690;-1317;
2024-05-22T19:41:39.987;539601116985387539;392575;397678;303605;-1280;
2024-05-22T19:41:40.006;539601117003548800;392389;397622;303505;-1364;
2024-05-22T19:41:40.024;539601117021710061;392257;397541;303439;-1341;
2024-05-22T19:41:40.042;539601117039871322;392220;397570;303417;-1319;
2024-05-22T19:41:40.060;539601117058032583;392152;397556;303411;-1316;
2024-05-22T19:41:40.078;539601117076193844;392107;397578;303437;-1318;
2024-05-22T19:41:40.096;539601117094355105;392137;397585;303471;-1320;
2024-05-22T19:41:40.115;539601117112516366;392137;397573;303465;-1286;
2024-05-22T19:41:40.133;539601117130677627;392182;397575;303559;-1269;
2024-05-22T19:41:40.151;539601117148838888;392155;397516;303520;-1313;
2024-05-22T19:41:40.169;539601117167000149;392116;397513;303498;-1328;
2024-05-22T19:41:40.187;539601117185161410;392128;397536;303464;-1340;
2024-05-22T19:41:40.205;539601117203322671;392122;397463;303451;-1370;
2024-05-22T19:41:40.223;539601117221483932;392159;397507;303488;-1314;
2024-05-22T19:41:40.242;539601117239645193;392168;397628;303499;-1307;
2024-05-22T19:41:40.260;539601117257806454;392196;397536;303500;-1269;
2024-05-22T19:41:40.278;539601117275967715;392072;397442;303415;-1304;
2024-05-22T19:41:40.296;539601117294128976;391815;397328;303264;-1325;
2024-05-22T19:41:40.314;539601117312290237;391445;397034;303074;-1280;
2024-05-22T19:41:40.332;539601117330451498;391052;396720;302847;-1295;
2024-05-22T19:41:40.351;539601117348612759;390601;396268;302550;-1272;
2024-05-22T19:41:40.369;539601117366774020;390165;395907;302166;-1245;
2024-05-22T19:41:40.387;539601117384935281;389700;395510;301974;-1244;
2024-05-22T19:41:40.405;539601117403096542;389309;395247;301764;-1314;
2024-05-22T19:41:40.423;539601117421257803;389014;394963;301565;-1293;
2024-05-22T19:41:40.441;539601117439419064;388758;394724;301422;-1271;
2024-05-22T19:41:40.460;539601117457580325;388608;394592;301312;-1309;
2024-05-22T19:41:40.478;539601117475741586;388506;394476;301235;-1328;
2024-05-22T19:41:40.496;539601117493902847;388411;394482;301251;-1346;
2024-05-22T19:41:40.514;539601117512064108;388434;394436;301290;-1339;
2024-05-22T19:41:40.532;539601117530225369;388425;394481;301314;-1330;
2024-05-22T19:41:40.550;539601117548386630;388538;394476;301343;-1317;
2024-05-22T19:41:40.569;539601117566547891;388527;394495;301311;-1370;
2024-05-22T19:41:40.587;539601117584709895;388517;394464;301314;-1352;
2024-05-22T19:41:40.605;539601117602871883;388567;394472;301376;-1322;
2024-05-22T19:41:40.623;539601117621033871;388560;394539;301429;-1317;
2024-05-22T19:41:40.641;539601117639195859;388591;394503;301423;-1297;
2024-05-22T19:41:40.659;539601117657357847;388536;394469;301382;-1350;
2024-05-22T19:41:40.678;539601117675519835;388555;394503;301397;-1357;
2024-05-22T19:41:40.696;539601117693681823;388537;394475;301438;-1346;
2024-05-22T19:41:40.714;539601117711843811;388646;394489;301446;-1335;
2024-05-22T19:41:40.732;539601117730005799;388490;394447;301338;-1390;
2024-05-22T19:41:40.750;539601117748167787;388304;394275;301209;-1380;
2024-05-22T19:41:40.768;539601117766329775;387942;394026;301024;-1365;
2024-05-22T19:41:40.786;539601117784491763;387524;393547;300790;-1310;
2024-05-22T19:41:40.805;539601117802653751;387033;393180;300500;-1286;
2024-05-22T19:41:40.823;539601117820815739;386630;392784;300174;-1335;
2024-05-22T19:41:40.841;539601117838977727;386132;392347;299834;-1352;
2024-05-22T19:41:40.859;539601117857139715;385738;392080;299654;-1302;
2024-05-22T19:41:40.877;539601117875301703;385508;391862;299510;-1310;
2024-05-22T19:41:40.895;539601117893463691;385378;391767;299400;-1297;
2024-05-22T19:41:40.914;539601117911625679;385160;391607;299288;-1346;
2024-05-22T19:41:40.932;539601117929787667;385087;391524;299251;-1328;
2024-05-22T19:41:40.950;539601117947949655;385104;391505;299293;-1323;
2024-05-22T19:41:40.968;539601117966111643;385106;391468;299283;-1270;
2024-05-22T19:41:40.986;539601117984273631;385177;391495;299310;-1262;
2024-05-22T19:41:41.004;539601118002435619;385090;391456;299298;-1288;
2024-05-22T19:41:41.023;539601118020597607;385239;391529;299344;-1286;
2024-05-22T19:41:41.041;539601118038759595;385234;391602;299337;-1335;
2024-05-22T19:41:41.059;539601118056921583;385258;391591;299417;-1330;
2024-05-22T19:41:41.077;539601118075083571;385289;391622;299431;-1330;
2024-05-22T19:41:41.095;539601118093245559;385438;391632;299472;-1280;
2024-05-22T19:41:41.113;539601118111407547;385443;391695;299465;-1326;
2024-05-22T19:41:41.132;539601118129569535;385485;391756;299509;-1350;
2024-05-22T19:41:41.150;539601118147731523;385516;391738;299538;-1294;
2024-05-22T19:41:41.168;539601118165893511;385570;391755;299556;-1335;
2024-05-22T19:41:41.186;539601118184055499;385583;391725;299551;-1348;
2024-05-22T19:41:41.204;539601118202217487;385458;391637;299494;-1271;
2024-05-22T19:41:41.222;539601118220379475;385245;391379;299323;-1271;
2024-05-22T19:41:41.241;539601118238541463;384883;391110;299112;-1257;
2024-05-22T19:41:41.259;539601118256703451;384482;390752;298862;-1285;
2024-05-22T19:41:41.277;539601118274865439;384002;390421;298602;-1295;
2024-05-22T19:41:41.295;539601118293027427;383650;390060;298358;-1274;
2024-05-22T19:41:41.313;539601118311189415;383285;389753;298167;-1274;
2024-05-22T19:41:41.331;539601118329351403;383056;389465;298004;-1299;
2024-05-22T19:41:41.350;539601118347512696;382893;389280;297904;-1285;
2024-05-22T19:41:41.368;539601118365673957;382866;389235;297861;-1324;
2024-05-22T19:41:41.386;539601118383835218;382789;389236;297806;-1307;
2024-05-22T19:41:41.404;539601118401996479;382807;389219;297820;-1308;
2024-05-22T19:41:41.422;539601118420157740;382862;389227;297912;-1309;
2024-05-22T19:41:41.440;539601118438319001;382972;389274;297967;-1313;
2024-05-22T19:41:41.458;539601118456480262;383063;389363;298010;-1291;
2024-05-22T19:41:41.477;539601118474641523;383181;389418;298096;-1305;
2024-05-22T19:41:41.495;539601118492802784;383277;389506;298146;-1326;
2024-05-22T19:41:41.513;539601118510964045;383318;389595;298118;-1325;
2024-05-22T19:41:41.531;539601118529125306;383400;389649;298261;-1350;
2024-05-22T19:41:41.549;539601118547286567;383459;389685;298325;-1325;
2024-05-22T19:41:41.567;539601118565447828;383521;389759;298334;-1322;
2024-05-22T19:41:41.586;539601118583609089;383642;389807;298418;-1307;
2024-05-22T19:41:41.604;539601118601770350;383694;389864;298430;-1307;
2024-05-22T19:41:41.622;539601118619931611;383792;389908;298515;-1261;
2024-05-22T19:41:41.640;539601118638092872;383834;389919;298570;-1209;
2024-05-22T19:41:41.658;539601118656254133;383788;389815;298453;-1259;
2024-05-22T19:41:41.676;539601118674415394;383534;389656;298316;-1305;
2024-05-22T19:41:41.695;539601118692576655;383250;389327;298182;-1269;
2024-05-22T19:41:41.713;539601118710737916;382916;389038;297894;-1271;
2024-05-22T19:41:41.731;539601118728899177;382461;388609;297529;-1310;
2024-05-22T19:41:41.749;539601118747060438;382090;388274;297319;-1320;
2024-05-22T19:41:41.767;539601118765221699;381847;388008;297224;-1283;
2024-05-22T19:41:41.785;539601118783382960;381527;387715;297049;-1303;
2024-05-22T19:41:41.804;539601118801544221;381444;387606;296964;-1303;
2024-05-22T19:41:41.822;539601118819705482;381306;387480;296897;-1330;
2024-05-22T19:41:41.840;539601118837866743;381308;387568;296882;-1334;
2024-05-22T19:41:41.858;539601118856028004;381346;387548;296956;-1297;
2024-05-22T19:41:41.876;539601118874189265;381430;387579;296970;-1309;
2024-05-22T19:41:41.894;539601118892350526;381549;387602;297021;-1339;
2024-05-22T19:41:41.913;539601118910511787;381615;387692;297109;-1311;
2024-05-22T19:41:41.931;539601118928673048;381775;387758;297165;-1296;
2024-05-22T19:41:41.949;539601118946834309;381881;387813;297264;-1287;
2024-05-22T19:41:41.967;539601118964995570;381980;387930;297300;-1333;
2024-05-22T19:41:41.985;539601118983156831;382036;388012;297401;-1337;
2024-05-22T19:41:42.003;539601119001318092;382160;388091;297477;-1344;
2024-05-22T19:41:42.021;539601119019479353;382194;388173;297462;-1327;
2024-05-22T19:41:42.040;539601119037640614;382364;388206;297542;-1358;
2024-05-22T19:41:42.058;539601119055801875;382418;388250;297585;-1337;
2024-05-22T19:41:42.076;539601119073963136;382398;388271;297612;-1392;
2024-05-22T19:41:42.094;539601119092124397;382545;388278;297641;-1359;
2024-05-22T19:41:42.112;539601119110286269;382466;388227;297566;-1311;
2024-05-22T19:41:42.130;539601119128448133;382221;387979;297441;-1355;
2024-05-22T19:41:42.149;539601119146609997;381867;387728;297248;-1318;
2024-05-22T19:41:42.167;539601119164771861;381468;387327;296968;-1361;
2024-05-22T19:41:42.185;539601119182933725;381060;386946;296687;-1365;
2024-05-22T19:41:42.203;539601119201095589;380729;386493;296436;-1312;
2024-05-22T19:41:42.221;539601119219257453;380329;386231;296232;-1333;
2024-05-22T19:41:42.239;539601119237419317;380082;385942;296103;-1296;
2024-05-22T19:41:42.258;539601119255581181;379903;385689;295925;-1316;
2024-05-22T19:41:42.276;539601119273743045;379828;385682;295941;-1282;
2024-05-22T19:41:42.294;539601119291904909;379795;385639;295864;-1318;
2024-05-22T19:41:42.312;539601119310066773;379873;385615;295947;-1329;
2024-05-22T19:41:42.330;539601119328228637;379930;385743;296037;-1334;
2024-05-22T19:41:42.348;539601119346390501;380007;385772;296032;-1369;
2024-05-22T19:41:42.367;539601119364552365;380088;385807;296111;-1348;
2024-05-22T19:41:42.385;539601119382714229;380193;385949;296150;-1371;
2024-05-22T19:41:42.403;539601119400876093;380301;385975;296290;-1354;
2024-05-22T19:41:42.421;539601119419037957;380397;386085;296260;-1376;
2024-05-22T19:41:42.439;539601119437199821;380437;386150;296292;-1343;
2024-05-22T19:41:42.457;539601119455361685;380535;386171;296416;-1294;
2024-05-22T19:41:42.476;539601119473523549;380613;386135;296452;-1285;
2024-05-22T19:41:42.494;539601119491685413;380661;386171;296455;-1337;
2024-05-22T19:41:42.512;539601119509847277;380679;386223;296539;-1322;
2024-05-22T19:41:42.530;539601119528009141;380668;386232;296436;-1395;
2024-05-22T19:41:42.548;539601119546171005;380669;386180;296463;-1344;
2024-05-22T19:41:42.566;539601119564332869;380393;385924;296281;-1340;
2024-05-22T19:41:42.584;539601119582494733;380086;385623;296085;-1326;
2024-05-22T19:41:42.603;539601119600656597;379617;385126;295739;-1330;
2024-05-22T19:41:42.621;539601119618818461;379100;384710;295503;-1291;
2024-05-22T19:41:42.639;539601119636980325;378533;384180;295082;-1348;
2024-05-22T19:41:42.657;539601119655142189;378055;383642;294785;-1358;
2024-05-22T19:41:42.675;539601119673304053;377630;383227;294458;-1374;
2024-05-22T19:41:42.693;539601119691465917;377318;382936;294229;-1345;
2024-05-22T19:41:42.712;539601119709627781;377125;382703;294158;-1291;
2024-05-22T19:41:42.730;539601119727789645;376963;382577;294008;-1313;
2024-05-22T19:41:42.748;539601119745951509;376791;382418;293998;-1334;
2024-05-22T19:41:42.766;539601119764113373;376861;382374;293986;-1282;
2024-05-22T19:41:42.784;539601119782275237;376784;382409;293964;-1365;
2024-05-22T19:41:42.802;539601119800437300;376938;382448;294084;-1324;
2024-05-22T19:41:42.821;539601119818599361;376916;382466;294072;-1287;
2024-05-22T19:41:42.839;539601119836761422;377017;382508;294110;-1319;
2024-05-22T19:41:42.857;539601119854923483;377048;382586;294113;-1355;
2024-05-22T19:41:42.875;539601119873085544;377166;382646;294183;-1346;
2024-05-22T19:41:42.893;539601119891247605;377189;382696;294193;-1346;
2024-05-22T19:41:42.911;539601119909409666;377253;382691;294223;-1325;
2024-05-22T19:41:42.930;539601119927571727;377333;382756;294312;-1285;
2024-05-22T19:41:42.948;539601119945733788;377407;382766;294294;-1373;
2024-05-22T19:41:42.966;539601119963895849;377402;382772;294324;-1271;
2024-05-22T19:41:42.984;539601119982057910;377447;382767;294389;-1340;
2024-05-22T19:41:43.002;539601120000219971;377450;382773;294355;-1360;
2024-05-22T19:41:43.020;539601120018382032;377345;382661;294221;-1344;
2024-05-22T19:41:43.039;539601120036544093;376995;382423;293987;-1344;
2024-05-22T19:41:43.057;539601120054706154;376663;382053;293755;-1397;
2024-05-22T19:41:43.075;539601120072868215;376216;381611;293416;-1390;
2024-05-22T19:41:43.093;539601120091030276;375731;381109;293177;-1370;
2024-05-22T19:41:43.111;539601120109192337;375317;380750;292924;-1346;
2024-05-22T19:41:43.129;539601120127354398;374986;380445;292708;-1302;
2024-05-22T19:41:43.148;539601120145516459;374760;380173;292572;-1317;
2024-05-22T19:41:43.166;539601120163678520;374582;379957;292494;-1364;
2024-05-22T19:41:43.184;539601120181840581;374474;379941;292412;-1330;
2024-05-22T19:41:43.202;539601120200002642;374498;379847;292335;-1308;
2024-05-22T19:41:43.220;539601120218164703;374570;379961;292370;-1293;
2024-05-22T19:41:43.238;539601120236326764;374659;380021;292487;-1258;
2024-05-22T19:41:43.256;539601120254488825;374730;380050;292570;-1278;
2024-05-22T19:41:43.275;539601120272650886;374892;380182;292669;-1304;
2024-05-22T19:41:43.293;539601120290812947;374924;380300;292792;-1328;
2024-05-22T19:41:43.311;539601120308975008;375036;380371;292840;-1368;
2024-05-22T19:41:43.329;539601120327137069;375159;380480;292863;-1378;
2024-05-22T19:41:43.347;539601120345299130;375348;380627;292920;-1308;
2024-05-22T19:41:43.365;539601120363461191;375497;380723;293045;-1328;
2024-05-22T19:41:43.384;539601120381623252;375666;380871;293105;-1322;
2024-05-22T19:41:43.402;539601120399785313;375787;381066;293202;-1277;
2024-05-22T19:41:43.420;539601120417947374;375900;381188;293270;-1316;
2024-05-22T19:41:43.438;539601120436109435;376075;381272;293363;-1296;
2024-05-22T19:41:43.456;539601120454271496;376186;381370;293398;-1341;
2024-05-22T19:41:43.474;539601120472433557;376206;381460;293524;-1310;
2024-05-22T19:41:43.493;539601120490595618;376246;381451;293511;-1271;
2024-05-22T19:41:43.511;539601120508757679;376133;381282;293406;-1282;
2024-05-22T19:41:43.529;539601120526919740;375826;381009;293185;-1304;
2024-05-22T19:41:43.547;539601120545081801;375556;380789;293022;-1289;
2024-05-22T19:41:43.565;539601120563243864;375287;380476;292821;-1302;
2024-05-22T19:41:43.583;539601120581405925;375023;380226;292676;-1351;
2024-05-22T19:41:43.602;539601120599567986;374844;380099;292551;-1288;
2024-05-22T19:41:43.620;539601120617730047;374733;379950;292459;-1336;
2024-05-22T19:41:43.638;539601120635892108;374688;379934;292405;-1265;
2024-05-22T19:41:43.656;539601120654054169;374699;379942;292377;-1323;
2024-05-22T19:41:43.674;539601120672216230;374843;379990;292492;-1308;
2024-05-22T19:41:43.692;539601120690378291;374938;380108;292606;-1353;
2024-05-22T19:41:43.711;539601120708540352;375081;380221;292681;-1289;
2024-05-22T19:41:43.729;539601120726702413;375264;380392;292823;-1317;
2024-05-22T19:41:43.747;539601120744864474;375428;380562;292906;-1335;
2024-05-22T19:41:43.765;539601120763026535;375623;380698;293040;-1309;
2024-05-22T19:41:43.783;539601120781188596;375772;380920;293179;-1291;
2024-05-22T19:41:43.801;539601120799350657;375933;381042;293258;-1292;
2024-05-22T19:41:43.820;539601120817512718;376119;381193;293398;-1309;
2024-05-22T19:41:43.838;539601120835674779;376268;381438;293445;-1307;
2024-05-22T19:41:43.856;539601120853836840;376365;381530;293632;-1275;
2024-05-22T19:41:43.874;539601120871998901;376618;381707;293728;-1310;
2024-05-22T19:41:43.892;539601120890160962;376748;381822;293867;-1338;
2024-05-22T19:41:43.910;539601120908323023;376794;381849;293858;-1342;
2024-05-22T19:41:43.928;539601120926485084;377022;382072;293966;-1288;
2024-05-22T19:41:43.947;539601120944647145;377082;382195;293998;-1299;
2024-05-22T19:41:43.965;539601120962809206;377119;382163;293967;-1295;
2024-05-22T19:41:43.983;539601120980971267;377100;382080;294022;-1328;
2024-05-22T19:41:44.001;539601120999133328;376869;381920;293903;-1379;
2024-05-22T19:41:44.019;539601121017295389;376635;381787;293757;-1323;
2024-05-22T19:41:44.037;539601121035457450;376370;381527;293533;-1333;
2024-05-22T19:41:44.056;539601121053619511;376254;381322;293441;-1268;
2024-05-22T19:41:44.074;539601121071781572;376016;381135;293331;-1303;
2024-05-22T19:41:44.092;539601121089943633;375905;380990;293216;-1304;
2024-05-22T19:41:44.110;539601121108105694;375881;380959;293196;-1319;
2024-05-22T19:41:44.128;539601121126267755;375891;380958;293221;-1285;
2024-05-22T19:41:44.146;539601121144429816;375965;381010;293264;-1280;
2024-05-22T19:41:44.165;539601121162591877;376023;381063;293325;-1286;
2024-05-22T19:41:44.183;539601121180753938;376195;381248;293402;-1321;
2024-05-22T19:41:44.201;539601121198915999;376303;381324;293410;-1325;
2024-05-22T19:41:44.219;539601121217078060;376476;381534;293560;-1335;
2024-05-22T19:41:44.237;539601121235240121;376621;381632;293625;-1314;
2024-05-22T19:41:44.255;539601121253402182;376813;381835;293851;-1274;
2024-05-22T19:41:44.274;539601121271564243;376953;381937;293932;-1303;
2024-05-22T19:41:44.292;539601121289726304;377039;382097;293972;-1348;
2024-05-22T19:41:44.310;539601121307888365;377184;382215;294052;-1323;
2024-05-22T19:41:44.328;539601121326049731;377288;382337;294084;-1326;
2024-05-22T19:41:44.346;539601121344211065;377435;382498;294223;-1318;
2024-05-22T19:41:44.364;539601121362372399;377560;382636;294271;-1293;
2024-05-22T19:41:44.383;539601121380533733;377635;382704;294291;-1339;
2024-05-22T19:41:44.401;539601121398695067;377799;382795;294387;-1351;
2024-05-22T19:41:44.419;539601121416856401;377903;382890;294439;-1352;
2024-05-22T19:41:44.437;539601121435017735;377930;382910;294458;-1320;
2024-05-22T19:41:44.455;539601121453179069;377793;382851;294389;-1270;
2024-05-22T19:41:44.473;539601121471340403;377631;382606;294261;-1343;
2024-05-22T19:41:44.491;539601121489501737;377396;382390;294044;-1372;
2024-05-22T19:41:44.510;539601121507663071;377155;382183;293922;-1362;
2024-05-22T19:41:44.528;539601121525824405;376980;382015;293713;-1324;
2024-05-22T19:41:44.546;539601121543985739;376828;381906;293670;-1342;
2024-05-22T19:41:44.564;539601121562147073;376700;381763;293573;-1383;
2024-05-22T19:41:44.582;539601121580308407;376674;381768;293570;-1360;
2024-05-22T19:41:44.600;539601121598469741;376750;381784;293684;-1293;
2024-05-22T19:41:44.619;539601121616631075;376873;381935;293783;-1323;
2024-05-22T19:41:44.637;539601121634792409;376988;382029;293807;-1371;
2024-05-22T19:41:44.655;539601121652953743;377136;382160;293863;-1365;
2024-05-22T19:41:44.673;539601121671115077;377357;382370;294047;-1285;
2024-05-22T19:41:44.691;539601121689276411;377526;382582;294098;-1307;
2024-05-22T19:41:44.709;539601121707437745;377665;382755;294244;-1283;
2024-05-22T19:41:44.728;539601121725599079;377911;382955;294415;-1249;
2024-05-22T19:41:44.746;539601121743760413;378061;383106;294544;-1328;
2024-05-22T19:41:44.764;539601121761921747;378318;383259;294660;-1292;
2024-05-22T19:41:44.782;539601121780083081;378489;383462;294750;-1271;
2024-05-22T19:41:44.800;539601121798244415;378645;383650;294882;-1304;
2024-05-22T19:41:44.818;539601121816405749;378872;383816;295027;-1274;
2024-05-22T19:41:44.837;539601121834567083;379047;384089;295149;-1233;
2024-05-22T19:41:44.855;539601121852728417;379226;384193;295170;-1267;
2024-05-22T19:41:44.873;539601121870889751;379411;384369;295344;-1327;
2024-05-22T19:41:44.891;539601121889051085;379482;384450;295365;-1302;
2024-05-22T19:41:44.909;539601121907212419;379403;384452;295313;-1348;
2024-05-22T19:41:44.927;539601121925373753;379377;384381;295304;-1282;
2024-05-22T19:41:44.946;539601121943535087;379232;384288;295185;-1261;
2024-05-22T19:41:44.964;539601121961696421;379020;384169;295089;-1280;
2024-05-22T19:41:44.982;539601121979857755;378942;384010;294928;-1265;
2024-05-22T19:41:45.000;539601121998019089;378762;383890;294851;-1354;
2024-05-22T19:41:45.018;539601122016180423;378745;383848;294825;-1265;
2024-05-22T19:41:45.036;539601122034341757;378754;383944;294861;-1266;
2024-05-22T19:41:45.054;539601122052503091;378812;383985;294855;-1292;
2024-05-22T19:41:45.073;539601122070664425;378941;384113;294928;-1333;
2024-05-22T19:41:45.091;539601122088826379;379066;384190;295023;-1334;
2024-05-22T19:41:45.109;539601122106988331;379203;384311;295159;-1350;
2024-05-22T19:41:45.127;539601122125150283;379291;384611;295263;-1280;
2024-05-22T19:41:45.145;539601122143312235;379535;384805;295428;-1309;
2024-05-22T19:41:45.163;539601122161474187;379720;384941;295501;-1299;
2024-05-22T19:41:45.182;539601122179636139;379961;385117;295682;-1289;
2024-05-22T19:41:45.200;539601122197798091;380113;385281;295748;-1279;
2024-05-22T19:41:45.218;539601122215960043;380271;385515;295893;-1251;
2024-05-22T19:41:45.236;539601122234121995;380431;385694;295990;-1336;
2024-05-22T19:41:45.254;539601122252283947;380642;385846;296139;-1323;
2024-05-22T19:41:45.272;539601122270445899;380831;385944;296239;-1317;
2024-05-22T19:41:45.291;539601122288607851;380973;386112;296315;-1313;
2024-05-22T19:41:45.309;539601122306769803;381134;386302;296428;-1272;
2024-05-22T19:41:45.327;539601122324931755;381287;386461;296539;-1242;
2024-05-22T19:41:45.345;539601122343093707;381291;386588;296581;-1319;
2024-05-22T19:41:45.363;539601122361255659;381354;386565;296607;-1270;
2024-05-22T19:41:45.381;539601122379417611;381149;386437;296424;-1274;
2024-05-22T19:41:45.400;539601122397579563;380921;386306;296303;-1269;
2024-05-22T19:41:45.418;539601122415741515;380753;386084;296151;-1244;
2024-05-22T19:41:45.436;539601122433903467;380532;385881;296013;-1255;
2024-05-22T19:41:45.454;539601122452065419;380274;385721;295830;-1344;
2024-05-22T19:41:45.472;539601122470227371;380092;385550;295697;-1251;
2024-05-22T19:41:45.490;539601122488389323;379992;385495;295627;-1318;
2024-05-22T19:41:45.509;539601122506551275;379934;385403;295567;-1314;
2024-05-22T19:41:45.527;539601122524713227;379847;385388;295523;-1337;
2024-05-22T19:41:45.545;539601122542875179;379927;385467;295615;-1311;
2024-05-22T19:41:45.563;539601122561037131;379954;385539;295557;-1319;
2024-05-22T19:41:45.581;539601122579199083;380051;385576;295639;-1258;
2024-05-22T19:41:45.599;539601122597361035;380099;385718;295691;-1309;
2024-05-22T19:41:45.618;539601122615522987;380268;385846;295838;-1314;
2024-05-22T19:41:45.636;539601122633684939;380348;385966;295835;-1280;
2024-05-22T19:41:45.654;539601122651846891;380497;386112;295922;-1276;
2024-05-22T19:41:45.672;539601122670008843;380574;386158;295993;-1283;
2024-05-22T19:41:45.690;539601122688170795;380645;386169;296019;-1287;
2024-05-22T19:41:45.708;539601122706332747;380778;386277;296090;-1256;
2024-05-22T19:41:45.726;539601122724494699;380926;386390;296194;-1314;
2024-05-22T19:41:45.745;539601122742656651;380982;386545;296250;-1254;
2024-05-22T19:41:45.763;539601122760818603;381048;386600;296239;-1303;
2024-05-22T19:41:45.781;539601122778980555;381138;386682;296319;-1353;
2024-05-22T19:41:45.799;539601122797142507;381219;386760;296361;-1337;
2024-05-22T19:41:45.817;539601122815304459;381267;386785;296409;-1311;
2024-05-22T19:41:45.835;539601122833466411;381305;386787;296384;-1268;
2024-05-22T19:41:45.854;539601122851626952;381183;386711;296288;-1333;
2024-05-22T19:41:45.872;539601122869787487;380982;386575;296136;-1304;
2024-05-22T19:41:45.890;539601122887948022;380689;386308;295905;-1364;
2024-05-22T19:41:45.908;539601122906108557;380524;386194;295823;-1303;
2024-05-22T19:41:45.926;539601122924269092;380289;386029;295642;-1351;
2024-05-22T19:41:45.944;539601122942429627;380192;385950;295566;-1342;
2024-05-22T19:41:45.963;539601122960590162;380171;385835;295498;-1308;
2024-05-22T19:41:45.981;539601122978750697;380144;385894;295462;-1267;
2024-05-22T19:41:45.999;539601122996911232;380111;385916;295516;-1294;
2024-05-22T19:41:46.017;539601123015071767;380148;385945;295533;-1344;
2024-05-22T19:41:46.035;539601123033232302;380226;386111;295585;-1326;
2024-05-22T19:41:46.053;539601123051392837;380388;386214;295654;-1280;
2024-05-22T19:41:46.072;539601123069553372;380529;386349;295757;-1322;
2024-05-22T19:41:46.090;539601123087713907;380689;386552;295877;-1327;
2024-05-22T19:41:46.108;539601123105874442;380884;386611;295897;-1325;
2024-05-22T19:41:46.126;539601123124034977;381024;386835;296057;-1318;
2024-05-22T19:41:46.144;539601123142195512;381162;386944;296156;-1326;
2024-05-22T19:41:46.162;539601123160356047;381331;387103;296270;-1291;
2024-05-22T19:41:46.181;539601123178516582;381474;387267;296383;-1314;
2024-05-22T19:41:46.199;539601123196677117;381595;387381;296540;-1323;
2024-05-22T19:41:46.217;539601123214837652;381768;387513;296655;-1275;
2024-05-22T19:41:46.235;539601123232998187;381984;387748;296707;-1248;
2024-05-22T19:41:46.253;539601123251158722;382092;387908;296799;-1276;
2024-05-22T19:41:46.271;539601123269319257;382238;387993;296830;-1328;
2024-05-22T19:41:46.289;539601123287479792;382321;388071;296942;-1354;
2024-05-22T19:41:46.308;539601123305640327;382446;388188;297032;-1326;
2024-05-22T19:41:46.326;539601123323800862;382424;388203;296996;-1387;
2024-05-22T19:41:46.344;539601123341961397;382409;388174;296966;-1330;
2024-05-22T19:41:46.362;539601123360121932;382229;387946;296820;-1336;
2024-05-22T19:41:46.380;539601123378282467;381998;387857;296720;-1322;
2024-05-22T19:41:46.398;539601123396443002;381882;387751;296635;-1339;
2024-05-22T19:41:46.417;539601123414603537;381768;387633;296519;-1321;
2024-05-22T19:41:46.435;539601123432764072;381672;387625;296439;-1296;
2024-05-22T19:41:46.453;539601123450924607;381627;387615;296363;-1365;
2024-05-22T19:41:46.471;539601123469085142;381602;387679;296375;-1346;
2024-05-22T19:41:46.489;539601123487245677;381739;387694;296394;-1305;
2024-05-22T19:41:46.507;539601123505406212;381821;387807;296498;-1345;
2024-05-22T19:41:46.526;539601123523566747;381881;387903;296531;-1303;
2024-05-22T19:41:46.544;539601123541727282;382030;387995;296598;-1357;
2024-05-22T19:41:46.562;539601123559887817;382131;388104;296668;-1305;
2024-05-22T19:41:46.580;539601123578048352;382226;388288;296743;-1314;
2024-05-22T19:41:46.598;539601123596208887;382368;388329;296857;-1274;
2024-05-22T19:41:46.616;539601123614371375;382446;388397;296868;-1344;
2024-05-22T19:41:46.635;539601123632533835;382590;388547;296994;-1348;
2024-05-22T19:41:46.653;539601123650696295;382734;388700;297100;-1275;
2024-05-22T19:41:46.671;539601123668858755;382781;388775;297098;-1249;
2024-05-22T19:41:46.689;539601123687021215;382851;388863;297238;-1307;
2024-05-22T19:41:46.707;539601123705183675;382938;388975;297297;-1307;
2024-05-22T19:41:46.725;539601123723346135;383063;389030;297324;-1309;
2024-05-22T19:41:46.744;539601123741508595;383116;389085;297321;-1308;
2024-05-22T19:41:46.762;539601123759671055;383246;389187;297423;-1290;
2024-05-22T19:41:46.780;539601123777833515;383382;389227;297493;-1294;
2024-05-22T19:41:46.798;539601123795995975;383366;389316;297538;-1286;
2024-05-22T19:41:46.816;539601123814158435;383318;389294;297445;-1277;
2024-05-22T19:41:46.834;539601123832320895;383159;389183;297317;-1328;
2024-05-22T19:41:46.852;539601123850483355;383042;389086;297310;-1302;
2024-05-22T19:41:46.871;539601123868645815;382849;388930;297106;-1333;
2024-05-22T19:41:46.889;539601123886808275;382709;388829;297001;-1283;
2024-05-22T19:41:46.907;539601123904970735;382544;388664;296908;-1306;
2024-05-22T19:41:46.925;539601123923133195;382449;388611;296816;-1308;
2024-05-22T19:41:46.943;539601123941295655;382461;388550;296790;-1302;
2024-05-22T19:41:46.961;539601123959458115;382468;388659;296792;-1313;
2024-05-22T19:41:46.980;539601123977620575;382536;388710;296841;-1334;
2024-05-22T19:41:46.998;539601123995783035;382587;388732;296873;-1297;
2024-05-22T19:41:47.016;539601124013945495;382658;388838;296930;-1307;
2024-05-22T19:41:47.034;539601124032107955;382798;388964;297054;-1282;
2024-05-22T19:41:47.052;539601124050270415;382874;389059;297098;-1309;
2024-05-22T19:41:47.070;539601124068432875;382953;389137;297105;-1292;
2024-05-22T19:41:47.089;539601124086595335;383081;389239;297171;-1347;
2024-05-22T19:41:47.107;539601124104757795;383217;389350;297208;-1302;
2024-05-22T19:41:47.125;539601124122920255;383292;389358;297318;-1362;
2024-05-22T19:41:47.143;539601124141082715;383406;389477;297389;-1407;
2024-05-22T19:41:47.161;539601124159245175;383426;389516;297516;-1297;
2024-05-22T19:41:47.179;539601124177407635;383553;389671;297530;-1291;
2024-05-22T19:41:47.198;539601124195570095;383689;389805;297630;-1269;
2024-05-22T19:41:47.216;539601124213732555;383833;389942;297644;-1320;
2024-05-22T19:41:47.234;539601124231895015;383954;390011;297724;-1308;
2024-05-22T19:41:47.252;539601124250057475;384012;390174;297810;-1293;
2024-05-22T19:41:47.270;539601124268219935;384053;390188;297843;-1295;
2024-05-22T19:41:47.288;539601124286382395;384025;390212;297896;-1259;
2024-05-22T19:41:47.307;539601124304544855;383934;390170;297780;-1350;
2024-05-22T19:41:47.325;539601124322707315;383868;390035;297633;-1341;
2024-05-22T19:41:47.343;539601124340869775;383652;389914;297558;-1375;
2024-05-22T19:41:47.361;539601124359032235;383524;389831;297541;-1273;
2024-05-22T19:41:47.379;539601124377193428;383455;389777;297405;-1295;
2024-05-22T19:41:47.397;539601124395354617;383431;389746;297392;-1311;
2024-05-22T19:41:47.416;539601124413515806;383391;389794;297394;-1314;
2024-05-22T19:41:47.434;539601124431676995;383470;389920;297455;-1291;
2024-05-22T19:41:47.452;539601124449838184;383489;390005;297482;-1326;
2024-05-22T19:41:47.470;539601124467999373;383733;390123;297618;-1318;
2024-05-22T19:41:47.488;539601124486160562;383824;390285;297758;-1288;
2024-05-22T19:41:47.506;539601124504321751;383988;390450;297834;-1274;
2024-05-22T19:41:47.524;539601124522482940;384175;390564;297953;-1330;
2024-05-22T19:41:47.543;539601124540644129;384330;390765;298045;-1311;
2024-05-22T19:41:47.561;539601124558805318;384507;391013;298219;-1323;
2024-05-22T19:41:47.579;539601124576966507;384747;391134;298309;-1292;
2024-05-22T19:41:47.597;539601124595127696;384851;391232;298359;-1386;
2024-05-22T19:41:47.615;539601124613288885;385070;391503;298584;-1290;
2024-05-22T19:41:47.633;539601124631450074;385203;391626;298685;-1290;
2024-05-22T19:41:47.652;539601124649611263;385346;391779;298812;-1289;
2024-05-22T19:41:47.670;539601124667772452;385559;391858;298894;-1340;
2024-05-22T19:41:47.688;539601124685933641;385680;392055;298919;-1303;
2024-05-22T19:41:47.706;539601124704094830;385796;392211;299097;-1345;
2024-05-22T19:41:47.724;539601124722256019;385870;392240;299193;-1331;
2024-05-22T19:41:47.742;539601124740417208;385887;392303;299183;-1287;
2024-05-22T19:41:47.761;539601124758578397;385823;392329;299220;-1292;
2024-05-22T19:41:47.779;539601124776739586;385726;392190;299095;-1333;
2024-05-22T19:41:47.797;539601124794900775;385510;392069;298970;-1337;
2024-05-22T19:41:47.815;539601124813061964;385273;391947;298756;-1274;
2024-05-22T19:41:47.833;539601124831223153;385019;391765;298688;-1277;
2024-05-22T19:41:47.851;539601124849384342;384817;391652;298577;-1293;
2024-05-22T19:41:47.870;539601124867545531;384682;391524;298425;-1352;
2024-05-22T19:41:47.888;539601124885706720;384565;391507;298330;-1301;
2024-05-22T19:41:47.906;539601124903867909;384521;391476;298303;-1297;
2024-05-22T19:41:47.924;539601124922029098;384523;391578;298318;-1320;
2024-05-22T19:41:47.942;539601124940190287;384677;391612;298371;-1285;
2024-05-22T19:41:47.960;539601124958351476;384664;391670;298424;-1252;
2024-05-22T19:41:47.979;539601124976512665;384737;391707;298517;-1270;
2024-05-22T19:41:47.997;539601124994673854;384749;391878;298531;-1263;
2024-05-22T19:41:48.015;539601125012835043;384900;391920;298618;-1285;
2024-05-22T19:41:48.033;539601125030996232;384976;392038;298657;-1299;
2024-05-22T19:41:48.051;539601125049157421;385034;392080;298703;-1268;
2024-05-22T19:41:48.069;539601125067318610;385164;392122;298794;-1262;
2024-05-22T19:41:48.087;539601125085479799;385131;392207;298803;-1258;
2024-05-22T19:41:48.106;539601125103640988;385247;392286;298881;-1285;
2024-05-22T19:41:48.124;539601125121802177;385289;392335;298896;-1335;
2024-05-22T19:41:48.142;539601125139962334;385334;392397;298957;-1328;
2024-05-22T19:41:48.160;539601125158122469;385375;392466;299033;-1287;
2024-05-22T19:41:48.178;539601125176282604;385464;392540;299059;-1263;
2024-05-22T19:41:48.196;539601125194442739;385506;392603;299058;-1316;
2024-05-22T19:41:48.215;539601125212602874;385501;392500;299059;-1309;
2024-05-22T19:41:48.233;539601125230763009;385314;392444;298994;-1328;
2024-05-22T19:41:48.251;539601125248923144;385110;392264;298834;-1325;
2024-05-22T19:41:48.269;539601125267083279;384780;392085;298637;-1294;
2024-05-22T19:41:48.287;539601125285243414;384401;391811;298408;-1271;
2024-05-22T19:41:48.305;539601125303403549;384150;391587;298228;-1239;
2024-05-22T19:41:48.324;539601125321563684;383861;391311;298003;-1373;
2024-05-22T19:41:48.342;539601125339723819;383655;391203;297914;-1291;
2024-05-22T19:41:48.360;539601125357883954;383516;391081;297829;-1311;
2024-05-22T19:41:48.378;539601125376044089;383401;391048;297794;-1316;
2024-05-22T19:41:48.396;539601125394204224;383332;391035;297717;-1312;
2024-05-22T19:41:48.414;539601125412364359;383350;391065;297769;-1325;
2024-05-22T19:41:48.433;539601125430524494;383418;391116;297791;-1305;
2024-05-22T19:41:48.451;539601125448684629;383448;391132;297840;-1304;
2024-05-22T19:41:48.469;539601125466844764;383474;391211;297905;-1330;
2024-05-22T19:41:48.487;539601125485004899;383539;391341;297979;-1319;
2024-05-22T19:41:48.505;539601125503165034;383639;391367;298000;-1383;
2024-05-22T19:41:48.523;539601125521325169;383753;391510;298023;-1386;
2024-05-22T19:41:48.541;539601125539485304;383874;391525;298116;-1362;
2024-05-22T19:41:48.560;539601125557645439;383882;391624;298247;-1287;
2024-05-22T19:41:48.578;539601125575805574;384055;391761;298330;-1261;
2024-05-22T19:41:48.596;539601125593965709;384145;391864;298292;-1312;
2024-05-22T19:41:48.614;539601125612125844;384275;391918;298403;-1347;
2024-05-22T19:41:48.632;539601125630285979;384299;392049;298478;-1322;
2024-05-22T19:41:48.650;539601125648446114;384406;392183;298570;-1346;
2024-05-22T19:41:48.669;539601125666606249;384514;392238;298604;-1291;
2024-05-22T19:41:48.687;539601125684766384;384548;392260;298646;-1358;
2024-05-22T19:41:48.705;539601125702926519;384581;392273;298648;-1302;
2024-05-22T19:41:48.723;539601125721086654;384426;392216;298561;-1385;
2024-05-22T19:41:48.741;539601125739246789;384265;392054;298445;-1322;
2024-05-22T19:41:48.759;539601125757406924;383982;391876;298279;-1343;
2024-05-22T19:41:48.778;539601125775567059;383619;391645;298068;-1379;
2024-05-22T19:41:48.796;539601125793727194;383415;391434;297963;-1331;
2024-05-22T19:41:48.814;539601125811887329;383196;391301;297800;-1342;
2024-05-22T19:41:48.832;539601125830047464;383070;391164;297742;-1350;
2024-05-22T19:41:48.850;539601125848207599;382997;391095;297708;-1333;
2024-05-22T19:41:48.868;539601125866367734;382900;391034;297540;-1289;
2024-05-22T19:41:48.887;539601125884527869;382896;391067;297626;-1341;
2024-05-22T19:41:48.905;539601125902689162;382948;391124;297646;-1326;
2024-05-22T19:41:48.923;539601125920850423;383009;391186;297730;-1325;
2024-05-22T19:41:48.941;539601125939011684;383024;391260;297810;-1351;
2024-05-22T19:41:48.959;539601125957172945;383181;391405;297888;-1372;
2024-05-22T19:41:48.977;539601125975334206;383294;391469;297988;-1362;
2024-05-22T19:41:48.995;539601125993495467;383373;391491;298033;-1322;
2024-05-22T19:41:49.014;539601126011656728;383470;391627;298135;-1344;
2024-05-22T19:41:49.032;539601126029817989;383641;391808;298206;-1294;
2024-05-22T19:41:49.050;539601126047979250;383718;391957;298295;-1267;
2024-05-22T19:41:49.068;539601126066140511;383825;391973;298316;-1274;
2024-05-22T19:41:49.086;539601126084301772;383896;392043;298415;-1313;
2024-05-22T19:41:49.104;539601126102463033;383951;392141;298500;-1266;
2024-05-22T19:41:49.123;539601126120624294;384027;392256;298562;-1306;
2024-05-22T19:41:49.141;539601126138785555;384118;392306;298532;-1322;
2024-05-22T19:41:49.159;539601126156946816;384177;392371;298564;-1301;
2024-05-22T19:41:49.177;539601126175108077;384189;392348;298644;-1269;
2024-05-22T19:41:49.195;539601126193269338;384117;392294;298602;-1258;
2024-05-22T19:41:49.213;539601126211430599;383914;392132;298472;-1341;
2024-05-22T19:41:49.232;539601126229591860;383707;391935;298282;-1286;
2024-05-22T19:41:49.250;539601126247753121;383339;391757;298093;-1321;
2024-05-22T19:41:49.268;539601126265914382;383023;391486;297930;-1302;
2024-05-22T19:41:49.286;539601126284075643;382741;391228;297775;-1324;
2024-05-22T19:41:49.304;539601126302236904;382551;391119;297601;-1324;
2024-05-22T19:41:49.322;539601126320398165;382401;391041;297520;-1307;
2024-05-22T19:41:49.341;539601126338559426;382340;390995;297455;-1273;
2024-05-22T19:41:49.359;539601126356720687;382300;391039;297508;-1291;
2024-05-22T19:41:49.377;539601126374881948;382262;391045;297485;-1324;
2024-05-22T19:41:49.395;539601126393043209;382372;391149;297592;-1303;
2024-05-22T19:41:49.413;539601126411204470;382351;391103;297554;-1340;
2024-05-22T19:41:49.431;539601126429365731;382444;391237;297655;-1280;
2024-05-22T19:41:49.450;539601126447526992;382600;391299;297760;-1273;
2024-05-22T19:41:49.468;539601126465688253;382647;391364;297866;-1262;
2024-05-22T19:41:49.486;539601126483849514;382704;391383;297880;-1333;
2024-05-22T19:41:49.504;539601126502010775;382819;391535;297996;-1245;
2024-05-22T19:41:49.522;539601126520172036;382858;391581;297955;-1253;
2024-05-22T19:41:49.540;539601126538333297;382917;391603;298004;-1299;
2024-05-22T19:41:49.558;539601126556494558;382939;391665;298027;-1348;
2024-05-22T19:41:49.577;539601126574655819;382997;391714;298139;-1269;
2024-05-22T19:41:49.595;539601126592817080;383044;391727;298186;-1284;
2024-05-22T19:41:49.613;539601126610978341;383117;391790;298219;-1302;
2024-05-22T19:41:49.631;539601126629139602;383159;391837;298218;-1335;
2024-05-22T19:41:49.649;539601126647300863;383101;391818;298225;-1341;
2024-05-22T19:41:49.667;539601126665462156;383032;391815;298184;-1333;
2024-05-22T19:41:49.686;539601126683623417;382893;391762;298068;-1305;
2024-05-22T19:41:49.704;539601126701784678;382597;391522;297863;-1295;
2024-05-22T19:41:49.722;539601126719945939;382309;391272;297737;-1314;
2024-05-22T19:41:49.740;539601126738107200;382035;391024;297492;-1290;
2024-05-22T19:41:49.758;539601126756268461;381695;390763;297293;-1306;
2024-05-22T19:41:49.776;539601126774429722;381549;390711;297241;-1345;
2024-05-22T19:41:49.795;539601126792590983;381416;390535;297101;-1370;
2024-05-22T19:41:49.813;539601126810752244;381347;390484;297098;-1311;
2024-05-22T19:41:49.831;539601126828913505;381418;390578;297150;-1310;
2024-05-22T19:41:49.849;539601126847074766;381395;390565;297134;-1333;
2024-05-22T19:41:49.867;539601126865236027;381531;390705;297199;-1312;
2024-05-22T19:41:49.885;539601126883397288;381583;390804;297260;-1289;
2024-05-22T19:41:49.904;539601126901558549;381749;390831;297386;-1322;
2024-05-22T19:41:49.922;539601126919719810;381847;390989;297506;-1258;
2024-05-22T19:41:49.940;539601126937881071;381871;391097;297576;-1324;
2024-05-22T19:41:49.958;539601126956042332;382054;391216;297656;-1303;
2024-05-22T19:41:49.976;539601126974203593;382166;391308;297776;-1330;
2024-05-22T19:41:49.994;539601126992364854;382306;391396;297848;-1358;
2024-05-22T19:41:50.013;539601127010526115;382383;391505;297936;-1305;
2024-05-22T19:41:50.031;539601127028687376;382532;391571;297952;-1358;
2024-05-22T19:41:50.049;539601127046848637;382589;391712;298099;-1311;
2024-05-22T19:41:50.067;539601127065009898;382688;391763;298190;-1310;
2024-05-22T19:41:50.085;539601127083171159;382795;391847;298216;-1323;
2024-05-22T19:41:50.103;539601127101332420;382948;391946;298265;-1255;
2024-05-22T19:41:50.121;539601127119493681;382825;391829;298264;-1344;
2024-05-22T19:41:50.140;539601127137654942;382614;391701;298165;-1331;
2024-05-22T19:41:50.158;539601127155816203;382260;391436;297986;-1329;
2024-05-22T19:41:50.176;539601127173977464;381863;391166;297751;-1271;
2024-05-22T19:41:50.194;539601127192138725;381504;390804;297443;-1333;
2024-05-22T19:41:50.212;539601127210299986;381031;390444;297089;-1327;
2024-05-22T19:41:50.230;539601127228461247;380675;390124;296913;-1288;
2024-05-22T19:41:50.249;539601127246622508;380295;389766;296637;-1360;
2024-05-22T19:41:50.267;539601127264783769;380041;389568;296536;-1259;
2024-05-22T19:41:50.285;539601127282945030;379881;389390;296419;-1326;
2024-05-22T19:41:50.303;539601127301106291;379762;389369;296426;-1306;
2024-05-22T19:41:50.321;539601127319267552;379757;389318;296352;-1297;
2024-05-22T19:41:50.339;539601127337428813;379785;389291;296363;-1241;
2024-05-22T19:41:50.358;539601127355590074;379812;389398;296428;-1327;
2024-05-22T19:41:50.376;539601127373751335;379828;389353;296435;-1282;
2024-05-22T19:41:50.394;539601127391912596;379854;389369;296409;-1340;
2024-05-22T19:41:50.412;539601127410073857;379921;389343;296473;-1314;
2024-05-22T19:41:50.430;539601127428233804;379957;389404;296546;-1286;
2024-05-22T19:41:50.448;539601127446393746;380123;389533;296615;-1285;
2024-05-22T19:41:50.467;539601127464553688;380139;389500;296614;-1306;
2024-05-22T19:41:50.485;539601127482713630;380150;389497;296657;-1291;
2024-05-22T19:41:50.503;539601127500873572;380200;389594;296667;-1320;
2024-05-22T19:41:50.521;539601127519033514;380238;389596;296685;-1291;
2024-05-22T19:41:50.539;539601127537193456;380269;389581;296777;-1320;
2024-05-22T19:41:50.557;539601127555353398;380276;389517;296719;-1307;
2024-05-22T19:41:50.576;539601127573513340;380327;389551;296782;-1325;
2024-05-22T19:41:50.594;539601127591673282;380242;389545;296737;-1317;
2024-05-22T19:41:50.612;539601127609833224;380055;389355;296591;-1323;
2024-05-22T19:41:50.630;539601127627993166;379763;389089;296430;-1317;
2024-05-22T19:41:50.648;539601127646153108;379290;388737;296106;-1337;
2024-05-22T19:41:50.666;539601127664313050;378927;388404;295875;-1258;
2024-05-22T19:41:50.684;539601127682472992;378410;387974;295558;-1319;
2024-05-22T19:41:50.703;539601127700632934;378047;387657;295297;-1354;
2024-05-22T19:41:50.721;539601127718792876;377704;387288;295092;-1333;
2024-05-22T19:41:50.739;539601127736952818;377457;387043;294962;-1362;
2024-05-22T19:41:50.757;539601127755112760;377411;387005;294850;-1277;
2024-05-22T19:41:50.775;539601127773272702;377359;386902;294817;-1285;
2024-05-22T19:41:50.793;539601127791432644;377271;386809;294767;-1368;
2024-05-22T19:41:50.812;539601127809592586;377321;386873;294837;-1397;
2024-05-22T19:41:50.830;539601127827752528;377351;386860;294853;-1407;
2024-05-22T19:41:50.848;539601127845912470;377470;386940;294974;-1333;
2024-05-22T19:41:50.866;539601127864072412;377519;387036;294976;-1362;
2024-05-22T19:41:50.884;539601127882232354;377619;387190;295066;-1323;
2024-05-22T19:41:50.902;539601127900392296;377795;387183;295137;-1330;
2024-05-22T19:41:50.921;539601127918552238;377906;387285;295256;-1330;
2024-05-22T19:41:50.939;539601127936712180;377999;387328;295325;-1309;
2024-05-22T19:41:50.957;539601127954872122;378026;387384;295355;-1330;
2024-05-22T19:41:50.975;539601127973032064;378036;387398;295362;-1376;
2024-05-22T19:41:50.993;539601127991192006;378160;387458;295404;-1307;
2024-05-22T19:41:51.011;539601128009351948;378272;387572;295501;-1323;
2024-05-22T19:41:51.030;539601128027511890;378332;387563;295579;-1295;
2024-05-22T19:41:51.048;539601128045671832;378422;387620;295646;-1328;
2024-05-22T19:41:51.066;539601128063831774;378444;387575;295639;-1258;
2024-05-22T19:41:51.084;539601128081991716;378267;387486;295478;-1322;
2024-05-22T19:41:51.102;539601128100152198;378043;387309;295363;-1336;
2024-05-22T19:41:51.120;539601128118312660;377634;386955;295065;-1319;
2024-05-22T19:41:51.138;539601128136473122;377350;386629;294846;-1371;
2024-05-22T19:41:51.157;539601128154633584;376972;386285;294633;-1317;
2024-05-22T19:41:51.175;539601128172794046;376663;385988;294441;-1294;
2024-05-22T19:41:51.193;539601128190954508;376322;385741;294195;-1362;
2024-05-22T19:41:51.211;539601128209114970;376127;385533;294069;-1357;
2024-05-22T19:41:51.229;539601128227275432;376026;385379;294036;-1381;
2024-05-22T19:41:51.247;539601128245435894;375943;385348;293945;-1364;
2024-05-22T19:41:51.266;539601128263596356;375940;385277;294011;-1360;
2024-05-22T19:41:51.284;539601128281756818;376074;385393;294072;-1313;
2024-05-22T19:41:51.302;539601128299917280;376211;385454;294157;-1347;
2024-05-22T19:41:51.320;539601128318077742;376368;385606;294246;-1325;
2024-05-22T19:41:51.338;539601128336238204;376485;385772;294360;-1335;
2024-05-22T19:41:51.356;539601128354398666;376611;385829;294506;-1316;
2024-05-22T19:41:51.375;539601128372559128;376723;385942;294604;-1325;
2024-05-22T19:41:51.393;539601128390719590;376891;386057;294691;-1289;
2024-05-22T19:41:51.411;539601128408880052;377092;386152;294817;-1276;
2024-05-22T19:41:51.429;539601128427040514;377239;386283;294902;-1289;
2024-05-22T19:41:51.447;539601128445200976;377321;386378;294972;-1339;
2024-05-22T19:41:51.465;539601128463361438;377454;386491;295018;-1334;
2024-05-22T19:41:51.484;539601128481521900;377664;386543;295161;-1323;
2024-05-22T19:41:51.502;539601128499682362;377752;386711;295249;-1296;
2024-05-22T19:41:51.520;539601128517842824;377843;386761;295295;-1356;
2024-05-22T19:41:51.538;539601128536003286;377850;386824;295366;-1289;
2024-05-22T19:41:51.556;539601128554163748;377902;386825;295357;-1334;
2024-05-22T19:41:51.574;539601128572324210;377734;386632;295261;-1353;
2024-05-22T19:41:51.592;539601128590484672;377520;386514;295131;-1373;
2024-05-22T19:41:51.611;539601128608645134;377205;386285;294940;-1318;
2024-05-22T19:41:51.629;539601128626805596;376951;385972;294776;-1307;
2024-05-22T19:41:51.647;539601128644966058;376573;385675;294518;-1318;
2024-05-22T19:41:51.665;539601128663126520;376386;385461;294391;-1302;
2024-05-22T19:41:51.683;539601128681286982;376271;385290;294318;-1291;
2024-05-22T19:41:51.701;539601128699447444;376131;385207;294198;-1320;
2024-05-22T19:41:51.720;539601128717607906;376155;385180;294267;-1309;
2024-05-22T19:41:51.738;539601128735768368;376179;385210;294317;-1330;
2024-05-22T19:41:51.756;539601128753928830;376342;385309;294360;-1296;
2024-05-22T19:41:51.774;539601128772089292;376476;385368;294505;-1328;
2024-05-22T19:41:51.792;539601128790249754;376632;385593;294609;-1325;
2024-05-22T19:41:51.810;539601128808410216;376736;385687;294742;-1309;
2024-05-22T19:41:51.829;539601128826570678;376896;385818;294844;-1343;
2024-05-22T19:41:51.847;539601128844731140;377007;385942;294925;-1377;
2024-05-22T19:41:51.865;539601128862890332;377230;386131;295052;-1327;
2024-05-22T19:41:51.883;539601128881049486;377360;386202;295141;-1337;
2024-05-22T19:41:51.901;539601128899208640;377447;386282;295238;-1408;
2024-05-22T19:41:51.919;539601128917367794;377641;386400;295378;-1313;
2024-05-22T19:41:51.938;539601128935526948;377737;386517;295427;-1339;
2024-05-22T19:41:51.956;539601128953686102;377999;386656;295512;-1237;
2024-05-22T19:41:51.974;539601128971845256;378008;386743;295603;-1300;
2024-05-22T19:41:51.992;539601128990004410;378098;386815;295643;-1385;
2024-05-22T19:41:52.010;539601129008163564;378220;386929;295712;-1310;
2024-05-22T19:41:52.028;539601129026322718;378153;386852;295649;-1311;
2024-05-22T19:41:52.046;539601129044481872;377923;386664;295575;-1345;
2024-05-22T19:41:52.065;539601129062641026;377708;386448;295400;-1323;
2024-05-22T19:41:52.083;539601129080800180;377418;386150;295252;-1321;
2024-05-22T19:41:52.101;539601129098959334;377154;385914;295025;-1259;
2024-05-22T19:41:52.119;539601129117118488;376786;385584;294815;-1314;
2024-05-22T19:41:52.137;539601129135277642;376545;385308;294648;-1312;
2024-05-22T19:41:52.155;539601129153436796;376433;385218;294541;-1362;
2024-05-22T19:41:52.174;539601129171595950;376359;385161;294524;-1351;
2024-05-22T19:41:52.192;539601129189755104;376310;385093;294554;-1348;
2024-05-22T19:41:52.210;539601129207914258;376299;385069;294527;-1362;
2024-05-22T19:41:52.228;539601129226073412;376365;385079;294637;-1322;
2024-05-22T19:41:52.246;539601129244232566;376513;385176;294745;-1305;
2024-05-22T19:41:52.264;539601129262391720;376628;385289;294754;-1334;
2024-05-22T19:41:52.283;539601129280550874;376733;385411;294829;-1339;
2024-05-22T19:41:52.301;539601129298710028;376848;385507;294927;-1361;
2024-05-22T19:41:52.319;539601129316869182;377001;385585;295013;-1288;
2024-05-22T19:41:52.337;539601129335028336;377119;385751;295085;-1338;
2024-05-22T19:41:52.355;539601129353187490;377300;385885;295198;-1300;
2024-05-22T19:41:52.373;539601129371346644;377382;385940;295277;-1326;
2024-05-22T19:41:52.391;539601129389505798;377447;385989;295317;-1309;
2024-05-22T19:41:52.410;539601129407664952;377566;386075;295427;-1338;
2024-05-22T19:41:52.428;539601129425824106;377631;386170;295460;-1294;
2024-05-22T19:41:52.446;539601129443983260;377740;386245;295522;-1323;
2024-05-22T19:41:52.464;539601129462142414;377836;386258;295580;-1301;
2024-05-22T19:41:52.482;539601129480301568;377938;386288;295618;-1303;
2024-05-22T19:41:52.500;539601129498460722;377771;386253;295611;-1348;
2024-05-22T19:41:52.519;539601129516619876;377580;386040;295430;-1389;
2024-05-22T19:41:52.537;539601129534779030;377339;385830;295280;-1304;
2024-05-22T19:41:52.555;539601129552938184;377079;385595;295120;-1282;
2024-05-22T19:41:52.573;539601129571097338;376783;385337;294928;-1305;
2024-05-22T19:41:52.591;539601129589256492;376621;385076;294789;-1317;
2024-05-22T19:41:52.609;539601129607415646;376411;384896;294666;-1287;
2024-05-22T19:41:52.628;539601129625575187;376330;384844;294650;-1338;
2024-05-22T19:41:52.646;539601129643734704;376339;384849;294666;-1285;
2024-05-22T19:41:52.664;539601129661894221;376343;384861;294678;-1321;
2024-05-22T19:41:52.682;539601129680053738;376443;384957;294743;-1322;
2024-05-22T19:41:52.700;539601129698213255;376556;385029;294853;-1284;
2024-05-22T19:41:52.718;539601129716372772;376706;385039;294936;-1288;
2024-05-22T19:41:52.737;539601129734532289;376821;385227;295050;-1287;
2024-05-22T19:41:52.755;539601129752691806;376988;385366;295139;-1275;
2024-05-22T19:41:52.773;539601129770851323;377096;385586;295276;-1282;
2024-05-22T19:41:52.791;539601129789010840;377288;385723;295356;-1322;
2024-05-22T19:41:52.809;539601129807170357;377426;385780;295429;-1336;
2024-05-22T19:41:52.827;539601129825329874;377570;385902;295554;-1261;
2024-05-22T19:41:52.845;539601129843489391;377707;385994;295608;-1246;
2024-05-22T19:41:52.864;539601129861648908;377851;386199;295716;-1261;
2024-05-22T19:41:52.882;539601129879808425;377989;386332;295851;-1261;
2024-05-22T19:41:52.900;539601129897967942;378116;386443;295889;-1237;
2024-05-22T19:41:52.918;539601129916127459;378226;386508;295958;-1287;
2024-05-22T19:41:52.936;539601129934286976;378221;386554;295995;-1290;
2024-05-22T19:41:52.954;539601129952446493;378167;386445;295927;-1279;
2024-05-22T19:41:52.973;539601129970606010;377946;386252;295738;-1304;
2024-05-22T19:41:52.991;539601129988765527;377767;386052;295644;-1323;
2024-05-22T19:41:53.009;539601130006925044;377467;385822;295493;-1327;
2024-05-22T19:41:53.027;539601130025084561;377288;385559;295314;-1279;
2024-05-22T19:41:53.045;539601130043244078;377052;385405;295177;-1341;
2024-05-22T19:41:53.063;539601130061403595;376884;385166;295103;-1345;
2024-05-22T19:41:53.082;539601130079563112;376834;385131;295058;-1348;
2024-05-22T19:41:53.100;539601130097722629;376797;385137;295047;-1283;
2024-05-22T19:41:53.118;539601130115882146;376883;385232;295176;-1256;
2024-05-22T19:41:53.136;539601130134041663;377041;385322;295226;-1266;
2024-05-22T19:41:53.154;539601130152201180;377116;385459;295275;-1330;
2024-05-22T19:41:53.172;539601130170360697;377280;385604;295423;-1310;
2024-05-22T19:41:53.191;539601130188520214;377449;385701;295543;-1329;
2024-05-22T19:41:53.209;539601130206679731;377460;385812;295560;-1325;
2024-05-22T19:41:53.227;539601130224839248;377541;385909;295654;-1348;
2024-05-22T19:41:53.245;539601130242998765;377736;386041;295753;-1296;
2024-05-22T19:41:53.263;539601130261158282;377826;386052;295793;-1341;
2024-05-22T19:41:53.281;539601130279317799;377895;386166;295904;-1364;
2024-05-22T19:41:53.299;539601130297477316;377971;386280;296039;-1305;
2024-05-22T19:41:53.318;539601130315636833;378038;386325;296087;-1299;
2024-05-22T19:41:53.336;539601130333796350;378062;386391;296052;-1328;
2024-05-22T19:41:53.354;539601130351955867;378099;386445;296072;-1326;
2024-05-22T19:41:53.372;539601130370115384;378159;386470;296134;-1318;
2024-05-22T19:41:53.390;539601130388274478;378061;386388;296066;-1283;
2024-05-22T19:41:53.408;539601130406433560;377763;386153;295887;-1250;
2024-05-22T19:41:53.427;539601130424592642;377398;385848;295665;-1266;
2024-05-22T19:41:53.445;539601130442751724;377057;385487;295416;-1292;
2024-05-22T19:41:53.463;539601130460910806;376633;385161;295113;-1309;
2024-05-22T19:41:53.481;539601130479069888;376296;384865;294909;-1284;
2024-05-22T19:41:53.499;539601130497228970;375968;384531;294669;-1341;
2024-05-22T19:41:53.517;539601130515388052;375740;384320;294525;-1309;
2024-05-22T19:41:53.536;539601130533547134;375562;384131;294347;-1334;
2024-05-22T19:41:53.554;539601130551706216;375555;384050;294335;-1296;
2024-05-22T19:41:53.572;539601130569865298;375478;384009;294360;-1311;
2024-05-22T19:41:53.590;539601130588024380;375534;384010;294450;-1258;
2024-05-22T19:41:53.608;539601130606183462;375532;384012;294366;-1288;
2024-05-22T19:41:53.626;539601130624342544;375607;384079;294449;-1355;
2024-05-22T19:41:53.644;539601130642501626;375724;384250;294536;-1282;
2024-05-22T19:41:53.663;539601130660660708;375841;384310;294593;-1331;
2024-05-22T19:41:53.681;539601130678819790;375884;384416;294684;-1304;
2024-05-22T19:41:53.699;539601130696978872;376064;384511;294763;-1287;
2024-05-22T19:41:53.717;539601130715137954;376166;384618;294824;-1342;
2024-05-22T19:41:53.735;539601130733297036;376288;384730;294880;-1316;
2024-05-22T19:41:53.753;539601130751456118;376377;384873;294981;-1306;
2024-05-22T19:41:53.772;539601130769615200;376488;384942;295005;-1282;
2024-05-22T19:41:53.790;539601130787774282;376607;385005;295092;-1282;
2024-05-22T19:41:53.808;539601130805933364;376624;385083;295151;-1319;
2024-05-22T19:41:53.826;539601130824092446;376708;385193;295198;-1291;
2024-05-22T19:41:53.844;539601130842251528;376755;385139;295119;-1280;
2024-05-22T19:41:53.862;539601130860410610;376634;385085;295081;-1285;
2024-05-22T19:41:53.881;539601130878569692;376395;384848;294979;-1283;
2024-05-22T19:41:53.899;539601130896728774;376126;384625;294727;-1252;
2024-05-22T19:41:53.917;539601130914887856;375736;384370;294537;-1279;
2024-05-22T19:41:53.935;539601130933046938;375485;384125;294336;-1273;
2024-05-22T19:41:53.953;539601130951206020;375253;383893;294154;-1337;
2024-05-22T19:41:53.971;539601130969365102;375140;383702;294069;-1292;
2024-05-22T19:41:53.990;539601130987524184;375008;383668;293961;-1323;
2024-05-22T19:41:54.008;539601131005683266;375004;383626;294052;-1282;
2024-05-22T19:41:54.026;539601131023842348;375091;383663;294045;-1313;
2024-05-22T19:41:54.044;539601131042001430;375190;383791;294130;-1285;
2024-05-22T19:41:54.062;539601131060160512;375256;383941;294226;-1265;
2024-05-22T19:41:54.080;539601131078319594;375386;384044;294333;-1327;
2024-05-22T19:41:54.098;539601131096478676;375605;384211;294420;-1276;
2024-05-22T19:41:54.117;539601131114637758;375738;384334;294510;-1293;
2024-05-22T19:41:54.135;539601131132796840;375965;384470;294656;-1357;
2024-05-22T19:41:54.153;539601131150957265;376161;384688;294824;-1305;
2024-05-22T19:41:54.171;539601131169117654;376289;384807;294879;-1292;
2024-05-22T19:41:54.189;539601131187278043;376473;385003;294966;-1294;
2024-05-22T19:41:54.207;539601131205438432;376605;385197;295115;-1335;
2024-05-22T19:41:54.226;539601131223598821;376844;385383;295241;-1266;
