Phone timestamp;sensor timestamp [ns];channel 0;channel 1;channel 2;ambient
2024-05-22T19:43:21.347;539601218314086246;372178;384311;295134;-1324;
2024-05-22T19:43:21.365;539601218332244456;371925;384160;294969;-1290;
2024-05-22T19:43:21.383;539601218350402666;371530;383820;294747;-1348;
2024-05-22T19:43:21.401;539601218368560876;371086;383488;294459;-1302;
2024-05-22T19:43:21.419;539601218386719086;370781;383238;294306;-1245;
2024-05-22T19:43:21.437;539601218404877296;370418;382867;294041;-1258;
2024-05-22T19:43:21.455;539601218423035506;370026;382563;293841;-1307;
2024-05-22T19:43:21.474;539601218441193716;369765;382355;293719;-1291;
2024-05-22T19:43:21.492;539601218459351926;369540;382302;293597;-1286;
2024-05-22T19:43:21.510;539601218477510136;369431;382175;293497;-1301;
2024-05-22T19:43:21.528;539601218495668346;369322;382167;293502;-1355;
2024-05-22T19:43:21.546;539601218513826556;369363;382160;293500;-1317;
2024-05-22T19:43:21.564;539601218531984766;369369;382171;293517;-1271;
2024-05-22T19:43:21.583;539601218550142976;369394;382152;293583;-1242;
2024-05-22T19:43:21.601;539601218568301186;369398;382223;293588;-1302;
2024-05-22T19:43:21.619;539601218586459396;369411;382279;293552;-1321;
2024-05-22T19:43:21.637;539601218604617606;369340;382253;293595;-1236;
2024-05-22T19:43:21.655;539601218622775816;369401;382276;293540;-1288;
2024-05-22T19:43:21.673;539601218640934026;369384;382292;293552;-1301;
2024-05-22T19:43:21.692;539601218659092236;369352;382270;293590;-1280;
2024-05-22T19:43:21.710;539601218677250446;369259;382195;293523;-1313;
2024-05-22T19:43:21.728;539601218695408656;369221;382241;293504;-1314;
2024-05-22T19:43:21.746;539601218713566866;369277;382234;293536;-1275;
2024-05-22T19:43:21.764;539601218731725076;369232;382249;293442;-1311;
2024-05-22T19:43:21.782;539601218749883286;369186;382159;293463;-1283;
2024-05-22T19:43:21.800;539601218768041496;369216;382171;293487;-1329;
2024-05-22T19:43:21.819;539601218786199706;369116;382116;293462;-1316;
2024-05-22T19:43:21.837;539601218804357916;369090;382129;293400;-1304;
2024-05-22T19:43:21.855;539601218822516126;369049;382110;293374;-1347;
2024-05-22T19:43:21.873;539601218840674336;369079;382174;293384;-1312;
2024-05-22T19:43:21.891;539601218858832546;369017;382196;293409;-1271;
2024-05-22T19:43:21.909;539601218876990756;368919;382145;293305;-1316;
2024-05-22T19:43:21.928;539601218895148966;368791;381999;293267;-1324;
2024-05-22T19:43:21.946;539601218913307176;368479;381844;293053;-1280;
2024-05-22T19:43:21.964;539601218931465386;368172;381555;292866;-1262;
2024-05-22T19:43:21.982;539601218949623596;367851;381222;292631;-1287;
2024-05-22T19:43:22.000;539601218967781806;367357;380886;292377;-1276;
2024-05-22T19:43:22.018;539601218985940016;366950;380606;292150;-1250;
2024-05-22T19:43:22.037;539601219004098226;366566;380246;291892;-1299;
2024-05-22T19:43:22.055;539601219022256436;366298;380084;291759;-1288;
2024-05-22T19:43:22.073;539601219040414646;366051;379893;291610;-1252;
2024-05-22T19:43:22.091;539601219058572856;365932;379767;291553;-1336;
2024-05-22T19:43:22.109;539601219076731066;365867;379732;291502;-1286;
2024-05-22T19:43:22.127;539601219094889276;365763;379691;291466;-1277;
2024-05-22T19:43:22.145;539601219113047486;365809;379667;291498;-1282;
2024-05-22T19:43:22.164;539601219131205696;365790;379749;291513;-1323;
2024-05-22T19:43:22.182;539601219149363906;365912;379725;291510;-1289;
2024-05-22T19:43:22.200;539601219167522116;365957;379809;291507;-1254;
2024-05-22T19:43:22.218;539601219185680326;365992;379848;291551;-1244;
2024-05-22T19:43:22.236;539601219203838536;366020;379916;291583;-1286;
2024-05-22T19:43:22.254;539601219221996746;366039;379918;291642;-1255;
2024-05-22T19:43:22.273;539601219240154956;366051;379900;291616;-1270;
2024-05-22T19:43:22.291;539601219258313166;366041;379924;291574;-1312;
2024-05-22T19:43:22.309;539601219276471376;365957;379865;291495;-1314;
2024-05-22T19:43:22.327;539601219294629586;365967;379889;291496;-1323;
2024-05-22T19:43:22.345;539601219312787796;365960;379875;291488;-1221;
2024-05-22T19:43:22.363;539601219330946006;365954;379891;291470;-1239;
2024-05-22T19:43:22.382;539601219349104216;365949;379875;291475;-1251;
2024-05-22T19:43:22.400;539601219367262426;365888;379885;291384;-1322;
2024-05-22T19:43:22.418;539601219385420636;365860;379906;291439;-1341;
2024-05-22T19:43:22.436;539601219403578846;365845;379826;291405;-1302;
2024-05-22T19:43:22.454;539601219421737056;365928;379819;291471;-1273;
2024-05-22T19:43:22.472;539601219439895266;365943;379881;291480;-1262;
2024-05-22T19:43:22.490;539601219458053476;365951;379894;291470;-1260;
2024-05-22T19:43:22.509;539601219476211686;365908;379884;291431;-1267;
2024-05-22T19:43:22.527;539601219494369896;365802;379751;291345;-1282;
2024-05-22T19:43:22.545;539601219512528106;365481;379539;291198;-1310;
2024-05-22T19:43:22.563;539601219530686316;365134;379278;290973;-1291;
2024-05-22T19:43:22.581;539601219548844526;364792;379045;290721;-1317;
2024-05-22T19:43:22.599;539601219567002736;364466;378797;290510;-1273;
2024-05-22T19:43:22.618;539601219585160946;364185;378577;290340;-1275;
2024-05-22T19:43:22.636;539601219603319156;363893;378382;290136;-1278;
2024-05-22T19:43:22.654;539601219621477366;363663;378119;289963;-1329;
2024-05-22T19:43:22.672;539601219639635576;363517;378024;289963;-1274;
2024-05-22T19:43:22.690;539601219657793786;363366;377959;289849;-1338;
2024-05-22T19:43:22.708;539601219675951996;363416;377982;289847;-1252;
2024-05-22T19:43:22.727;539601219694110206;363385;377985;289836;-1346;
2024-05-22T19:43:22.745;539601219712268416;363438;377934;289806;-1308;
2024-05-22T19:43:22.763;539601219730426626;363513;377987;289881;-1334;
2024-05-22T19:43:22.781;539601219748584836;363599;378047;289814;-1254;
2024-05-22T19:43:22.799;539601219766743046;363616;378200;289910;-1268;
2024-05-22T19:43:22.817;539601219784901256;363684;378213;289982;-1270;
2024-05-22T19:43:22.835;539601219803059466;363767;378296;290013;-1314;
2024-05-22T19:43:22.854;539601219821217676;363746;378343;290007;-1278;
2024-05-22T19:43:22.872;539601219839375886;363811;378326;290033;-1309;
2024-05-22T19:43:22.890;539601219857534096;363897;378371;290102;-1269;
2024-05-22T19:43:22.908;539601219875692306;363883;378382;290101;-1292;
2024-05-22T19:43:22.926;539601219893851202;363880;378410;290087;-1290;
2024-05-22T19:43:22.944;539601219912010065;363909;378385;290113;-1301;
2024-05-22T19:43:22.963;539601219930168928;363991;378426;290056;-1282;
2024-05-22T19:43:22.981;539601219948327791;364008;378436;290104;-1246;
2024-05-22T19:43:22.999;539601219966486654;363952;378461;290090;-1291;
2024-05-22T19:43:23.017;539601219984645517;364025;378480;290121;-1321;
2024-05-22T19:43:23.035;539601220002804380;364079;378517;290137;-1292;
2024-05-22T19:43:23.053;539601220020963243;364099;378548;290113;-1337;
2024-05-22T19:43:23.072;539601220039122106;364101;378591;290108;-1270;
2024-05-22T19:43:23.090;539601220057280969;364140;378599;290079;-1257;
2024-05-22T19:43:23.108;539601220075439832;363935;378430;289979;-1295;
2024-05-22T19:43:23.126;539601220093598695;363714;378262;289898;-1252;
2024-05-22T19:43:23.144;539601220111757558;363427;378030;289726;-1297;
2024-05-22T19:43:23.162;539601220129916421;363148;377802;289518;-1310;
2024-05-22T19:43:23.180;539601220148075284;362890;377658;289317;-1297;
2024-05-22T19:43:23.199;539601220166234147;362681;377496;289274;-1279;
2024-05-22T19:43:23.217;539601220184393010;362489;377355;289047;-1283;
2024-05-22T19:43:23.235;539601220202551873;362362;377239;288993;-1304;
2024-05-22T19:43:23.253;539601220220710736;362265;377251;288971;-1238;
2024-05-22T19:43:23.271;539601220238869599;362299;377255;288997;-1337;
2024-05-22T19:43:23.289;539601220257028462;362357;377281;289055;-1305;
2024-05-22T19:43:23.308;539601220275187325;362443;377397;289132;-1325;
2024-05-22T19:43:23.326;539601220293346188;362494;377502;289167;-1280;
2024-05-22T19:43:23.344;539601220311505051;362625;377599;289240;-1320;
2024-05-22T19:43:23.362;539601220329663914;362705;377714;289315;-1282;
2024-05-22T19:43:23.380;539601220347822777;362837;377744;289428;-1282;
2024-05-22T19:43:23.398;539601220365981640;362985;377884;289474;-1290;
2024-05-22T19:43:23.417;539601220384140503;363082;377983;289541;-1290;
2024-05-22T19:43:23.435;539601220402299366;363134;377937;289559;-1295;
2024-05-22T19:43:23.453;539601220420458229;363256;378028;289565;-1260;
2024-05-22T19:43:23.471;539601220438617092;363285;378074;289603;-1292;
2024-05-22T19:43:23.489;539601220456775955;363368;378137;289603;-1226;
2024-05-22T19:43:23.507;539601220474934818;363415;378205;289628;-1252;
2024-05-22T19:43:23.526;539601220493093681;363493;378262;289719;-1205;
2024-05-22T19:43:23.544;539601220511252544;363475;378250;289699;-1293;
2024-05-22T19:43:23.562;539601220529411407;363479;378300;289768;-1289;
2024-05-22T19:43:23.580;539601220547570270;363567;378341;289733;-1279;
2024-05-22T19:43:23.598;539601220565729133;363559;378385;289774;-1294;
2024-05-22T19:43:23.616;539601220583887996;363662;378453;289819;-1265;
2024-05-22T19:43:23.634;539601220602046859;363661;378401;289810;-1311;
2024-05-22T19:43:23.653;539601220620205722;363657;378440;289765;-1290;
2024-05-22T19:43:23.671;539601220638364585;363520;378357;289656;-1310;
2024-05-22T19:43:23.689;539601220656526589;363410;378202;289599;-1254;
2024-05-22T19:43:23.707;539601220674688577;363101;378002;289385;-1331;
2024-05-22T19:43:23.725;539601220692850565;362804;377757;289253;-1326;
2024-05-22T19:43:23.743;539601220711012553;362635;377535;289049;-1254;
2024-05-22T19:43:23.762;539601220729174541;362307;377331;288861;-1251;
2024-05-22T19:43:23.780;539601220747336529;362079;377192;288732;-1279;
2024-05-22T19:43:23.798;539601220765498517;361933;377037;288552;-1317;
2024-05-22T19:43:23.816;539601220783660505;361880;376971;288517;-1313;
2024-05-22T19:43:23.834;539601220801822493;361891;376965;288484;-1317;
2024-05-22T19:43:23.852;539601220819984481;361886;376983;288521;-1323;
2024-05-22T19:43:23.871;539601220838146469;361903;377042;288630;-1346;
2024-05-22T19:43:23.889;539601220856308457;362024;377064;288654;-1277;
2024-05-22T19:43:23.907;539601220874470445;362092;377150;288641;-1287;
2024-05-22T19:43:23.925;539601220892632433;362182;377261;288754;-1307;
2024-05-22T19:43:23.943;539601220910794421;362347;377276;288840;-1266;
2024-05-22T19:43:23.961;539601220928956409;362438;377352;288895;-1254;
2024-05-22T19:43:23.980;539601220947118397;362468;377418;288885;-1325;
2024-05-22T19:43:23.998;539601220965280385;362581;377559;288955;-1325;
2024-05-22T19:43:24.016;539601220983442373;362769;377634;289067;-1242;
2024-05-22T19:43:24.034;539601221001604361;362819;377671;289137;-1263;
2024-05-22T19:43:24.052;539601221019766349;362873;377703;289115;-1342;
2024-05-22T19:43:24.070;539601221037928337;362982;377744;289233;-1308;
2024-05-22T19:43:24.089;539601221056090325;363080;377864;289211;-1299;
2024-05-22T19:43:24.107;539601221074252313;363126;377994;289319;-1268;
2024-05-22T19:43:24.125;539601221092414301;363206;378083;289372;-1293;
2024-05-22T19:43:24.143;539601221110576289;363278;378166;289423;-1294;
2024-05-22T19:43:24.161;539601221128738277;363415;378198;289457;-1285;
2024-05-22T19:43:24.179;539601221146900265;363487;378347;289560;-1273;
2024-05-22T19:43:24.197;539601221165062253;363516;378329;289508;-1353;
2024-05-22T19:43:24.216;539601221183224241;363564;378382;289509;-1343;
2024-05-22T19:43:24.234;539601221201386229;363486;378343;289522;-1296;
2024-05-22T19:43:24.252;539601221219548217;363351;378246;289358;-1339;
2024-05-22T19:43:24.270;539601221237710205;363216;378157;289285;-1253;
2024-05-22T19:43:24.288;539601221255872193;362985;377904;289171;-1348;
2024-05-22T19:43:24.306;539601221274034181;362723;377703;289012;-1288;
2024-05-22T19:43:24.325;539601221292196169;362488;377516;288843;-1360;
2024-05-22T19:43:24.343;539601221310358157;362307;377407;288695;-1352;
2024-05-22T19:43:24.361;539601221328520145;362251;377323;288642;-1355;
2024-05-22T19:43:24.379;539601221346682133;362202;377299;288609;-1340;
2024-05-22T19:43:24.397;539601221364844121;362253;377315;288589;-1300;
2024-05-22T19:43:24.415;539601221383006109;362291;377354;288720;-1314;
2024-05-22T19:43:24.434;539601221401168097;362418;377426;288744;-1342;
2024-05-22T19:43:24.452;539601221419328193;362554;377542;288847;-1300;
2024-05-22T19:43:24.470;539601221437488255;362719;377621;288962;-1334;
2024-05-22T19:43:24.488;539601221455648317;362869;377807;289012;-1305;
2024-05-22T19:43:24.506;539601221473808379;362962;377893;289111;-1326;
2024-05-22T19:43:24.524;539601221491968441;363119;378008;289195;-1323;
2024-05-22T19:43:24.543;539601221510128503;363254;378109;289300;-1323;
2024-05-22T19:43:24.561;539601221528288565;363345;378260;289334;-1268;
2024-05-22T19:43:24.579;539601221546448627;363501;378313;289471;-1305;
2024-05-22T19:43:24.597;539601221564608689;363595;378427;289492;-1323;
2024-05-22T19:43:24.615;539601221582768751;363722;378503;289539;-1326;
2024-05-22T19:43:24.633;539601221600928813;363869;378589;289630;-1288;
2024-05-22T19:43:24.652;539601221619088875;363921;378603;289680;-1382;
2024-05-22T19:43:24.670;539601221637248937;364007;378715;289732;-1311;
2024-05-22T19:43:24.688;539601221655408999;364053;378713;289784;-1317;
2024-05-22T19:43:24.706;539601221673569061;364138;378804;289796;-1317;
2024-05-22T19:43:24.724;539601221691729123;364278;378950;289872;-1320;
2024-05-22T19:43:24.742;539601221709889185;364386;379033;289910;-1311;
2024-05-22T19:43:24.760;539601221728049247;364482;379100;289988;-1295;
2024-05-22T19:43:24.779;539601221746209309;364496;379165;290037;-1286;
2024-05-22T19:43:24.797;539601221764369371;364544;379155;290055;-1345;
2024-05-22T19:43:24.815;539601221782529433;364577;379173;290035;-1316;
2024-05-22T19:43:24.833;539601221800689495;364474;379103;289988;-1324;
2024-05-22T19:43:24.851;539601221818849557;364270;379009;289869;-1285;
2024-05-22T19:43:24.869;539601221837009619;364126;378812;289791;-1277;
2024-05-22T19:43:24.888;539601221855169681;364001;378699;289691;-1292;
2024-05-22T19:43:24.906;539601221873329743;363912;378607;289643;-1289;
2024-05-22T19:43:24.924;539601221891489805;363851;378541;289550;-1288;
2024-05-22T19:43:24.942;539601221909649867;363828;378517;289562;-1306;
2024-05-22T19:43:24.960;539601221927809929;363829;378505;289536;-1299;
2024-05-22T19:43:24.978;539601221945969991;363860;378504;289574;-1328;
2024-05-22T19:43:24.997;539601221964130053;363941;378595;289620;-1352;
2024-05-22T19:43:25.015;539601221982290115;364130;378756;289711;-1353;
2024-05-22T19:43:25.033;539601222000450177;364289;378810;289819;-1306;
2024-05-22T19:43:25.051;539601222018610239;364352;378913;289871;-1345;
2024-05-22T19:43:25.069;539601222036770301;364543;379038;289885;-1303;
2024-05-22T19:43:25.087;539601222054930363;364603;379125;290005;-1284;
2024-05-22T19:43:25.106;539601222073090425;364707;379263;290109;-1300;
2024-05-22T19:43:25.124;539601222091250487;364779;379355;290217;-1318;
2024-05-22T19:43:25.142;539601222109410549;364915;379413;290229;-1278;
2024-05-22T19:43:25.160;539601222127570611;364988;379426;290244;-1331;
2024-05-22T19:43:25.178;539601222145730673;365100;379513;290295;-1336;
2024-05-22T19:43:25.196;539601222163890735;365300;379589;290390;-1261;
2024-05-22T19:43:25.214;539601222182049224;365339;379686;290409;-1283;
2024-05-22T19:43:25.233;539601222200207688;365454;379784;290545;-1293;
2024-05-22T19:43:25.251;539601222218366152;365557;379824;290592;-1303;
2024-05-22T19:43:25.269;539601222236524616;365633;379965;290588;-1305;
2024-05-22T19:43:25.287;539601222254683080;365717;380017;290665;-1290;
2024-05-22T19:43:25.305;539601222272841544;365807;380072;290738;-1303;
2024-05-22T19:43:25.323;539601222291000008;365868;380155;290835;-1284;
2024-05-22T19:43:25.342;539601222309158472;365998;380160;290823;-1260;
2024-05-22T19:43:25.360;539601222327316936;366020;380211;290868;-1186;
2024-05-22T19:43:25.378;539601222345475400;365949;380157;290823;-1276;
2024-05-22T19:43:25.396;539601222363633864;365753;380054;290737;-1289;
2024-05-22T19:43:25.414;539601222381792328;365598;379897;290577;-1341;
2024-05-22T19:43:25.432;539601222399950792;365492;379767;290531;-1290;
2024-05-22T19:43:25.451;539601222418109256;365382;379691;290352;-1327;
2024-05-22T19:43:25.469;539601222436267720;365329;379559;290422;-1249;
2024-05-22T19:43:25.487;539601222454426184;365284;379534;290311;-1262;
2024-05-22T19:43:25.505;539601222472584648;365253;379496;290244;-1321;
2024-05-22T19:43:25.523;539601222490743112;365351;379485;290261;-1310;
2024-05-22T19:43:25.541;539601222508901576;365377;379551;290329;-1291;
2024-05-22T19:43:25.559;539601222527060040;365465;379619;290420;-1337;
2024-05-22T19:43:25.578;539601222545218504;365583;379677;290491;-1383;
2024-05-22T19:43:25.596;539601222563376968;365735;379764;290538;-1316;
2024-05-22T19:43:25.614;539601222581535432;365890;379833;290632;-1296;
2024-05-22T19:43:25.632;539601222599693896;365947;379967;290714;-1291;
2024-05-22T19:43:25.650;539601222617852360;366097;380038;290794;-1330;
2024-05-22T19:43:25.668;539601222636010824;366301;380149;290839;-1371;
2024-05-22T19:43:25.687;539601222654169288;366348;380293;290943;-1308;
2024-05-22T19:43:25.705;539601222672327752;366530;380466;291090;-1310;
2024-05-22T19:43:25.723;539601222690486216;366684;380517;291174;-1334;
2024-05-22T19:43:25.741;539601222708644680;366764;380605;291230;-1305;
2024-05-22T19:43:25.759;539601222726803144;366896;380687;291296;-1270;
2024-05-22T19:43:25.777;539601222744961608;367014;380760;291369;-1307;
2024-05-22T19:43:25.796;539601222763120072;367095;380887;291451;-1289;
2024-05-22T19:43:25.814;539601222781278536;367192;380946;291472;-1313;
2024-05-22T19:43:25.832;539601222799437000;367318;380981;291517;-1322;
2024-05-22T19:43:25.850;539601222817595464;367363;381115;291592;-1270;
2024-05-22T19:43:25.868;539601222835753928;367494;381174;291651;-1312;
2024-05-22T19:43:25.886;539601222853912392;367603;381305;291730;-1295;
2024-05-22T19:43:25.904;539601222872070856;367567;381330;291739;-1335;
2024-05-22T19:43:25.923;539601222890229320;367686;381391;291713;-1300;
2024-05-22T19:43:25.941;539601222908387784;367598;381259;291724;-1282;
2024-05-22T19:43:25.959;539601222926546248;367470;381131;291659;-1350;
2024-05-22T19:43:25.977;539601222944705210;367409;381047;291604;-1296;
2024-05-22T19:43:25.995;539601222962864146;367238;380853;291422;-1267;
2024-05-22T19:43:26.013;539601222981023082;367096;380707;291321;-1280;
2024-05-22T19:43:26.032;539601222999182018;367071;380729;291259;-1224;
2024-05-22T19:43:26.050;539601223017340954;367019;380627;291345;-1295;
2024-05-22T19:43:26.068;539601223035499890;367021;380550;291277;-1292;
2024-05-22T19:43:26.086;539601223053658826;367006;380535;291233;-1319;
2024-05-22T19:43:26.104;539601223071817762;367111;380628;291322;-1243;
2024-05-22T19:43:26.122;539601223089976698;367185;380639;291354;-1285;
2024-05-22T19:43:26.141;539601223108135634;367279;380713;291422;-1288;
2024-05-22T19:43:26.159;539601223126294570;367365;380807;291462;-1286;
2024-05-22T19:43:26.177;539601223144453506;367469;380887;291584;-1307;
2024-05-22T19:43:26.195;539601223162612442;367631;380940;291601;-1288;
2024-05-22T19:43:26.213;539601223180771378;367699;381029;291695;-1309;
2024-05-22T19:43:26.231;539601223198930314;367738;381045;291698;-1322;
2024-05-22T19:43:26.250;539601223217089250;367810;381143;291772;-1294;
2024-05-22T19:43:26.268;539601223235248186;367926;381205;291779;-1330;
2024-05-22T19:43:26.286;539601223253407122;368065;381253;291817;-1327;
2024-05-22T19:43:26.304;539601223271566058;368066;381298;291803;-1300;
2024-05-22T19:43:26.322;539601223289724994;368081;381310;291815;-1345;
2024-05-22T19:43:26.340;539601223307883930;368113;381336;291871;-1301;
2024-05-22T19:43:26.358;539601223326042866;368162;381304;291888;-1275;
2024-05-22T19:43:26.377;539601223344201802;368223;381363;291960;-1294;
2024-05-22T19:43:26.395;539601223362360738;368274;381432;292049;-1241;
2024-05-22T19:43:26.413;539601223380519674;368214;381327;291969;-1310;
2024-05-22T19:43:26.431;539601223398678610;368280;381412;291975;-1289;
2024-05-22T19:43:26.449;539601223416837546;368418;381421;292011;-1269;
2024-05-22T19:43:26.467;539601223434996482;368349;381360;291958;-1257;
2024-05-22T19:43:26.486;539601223453155418;368255;381247;291922;-1282;
2024-05-22T19:43:26.504;539601223471314354;368099;381113;291862;-1271;
2024-05-22T19:43:26.522;539601223489473290;367891;380850;291678;-1278;
2024-05-22T19:43:26.540;539601223507632226;367728;380704;291518;-1249;
2024-05-22T19:43:26.558;539601223525791162;367419;380468;291386;-1280;
2024-05-22T19:43:26.576;539601223543950098;367300;380279;291243;-1268;
2024-05-22T19:43:26.595;539601223562109034;367206;380085;291148;-1270;
2024-05-22T19:43:26.613;539601223580267970;367143;379977;291059;-1325;
2024-05-22T19:43:26.631;539601223598426906;367089;379914;291048;-1285;
2024-05-22T19:43:26.649;539601223616585842;367052;379918;290951;-1266;
2024-05-22T19:43:26.667;539601223634744778;367110;379913;291020;-1251;
2024-05-22T19:43:26.685;539601223652903714;367146;379982;291042;-1302;
2024-05-22T19:43:26.703;539601223671062650;367232;379992;291145;-1320;
2024-05-22T19:43:26.722;539601223689221586;367311;380033;291165;-1356;
2024-05-22T19:43:26.740;539601223707380548;367436;380053;291184;-1303;
2024-05-22T19:43:26.758;539601223725539484;367480;380080;291265;-1288;
2024-05-22T19:43:26.776;539601223743698420;367588;380058;291308;-1278;
2024-05-22T19:43:26.794;539601223761857356;367685;380218;291420;-1278;
2024-05-22T19:43:26.812;539601223780016292;367838;380326;291465;-1280;
2024-05-22T19:43:26.831;539601223798175228;367842;380365;291482;-1294;
2024-05-22T19:43:26.849;539601223816334164;367913;380338;291530;-1287;
2024-05-22T19:43:26.867;539601223834493100;367996;380438;291577;-1292;
2024-05-22T19:43:26.885;539601223852652036;367972;380471;291557;-1255;
2024-05-22T19:43:26.903;539601223870810972;368075;380482;291606;-1269;
2024-05-22T19:43:26.921;539601223888969908;368169;380598;291605;-1302;
2024-05-22T19:43:26.940;539601223907128844;368215;380550;291688;-1274;
2024-05-22T19:43:26.958;539601223925287780;368259;380602;291659;-1263;
2024-05-22T19:43:26.976;539601223943446716;368334;380618;291763;-1263;
2024-05-22T19:43:26.994;539601223961605652;368396;380666;291790;-1325;
2024-05-22T19:43:27.012;539601223979764588;368489;380708;291786;-1266;
2024-05-22T19:43:27.030;539601223997923524;368433;380695;291794;-1271;
2024-05-22T19:43:27.048;539601224016082460;368335;380572;291697;-1309;
2024-05-22T19:43:27.067;539601224034241396;368239;380410;291638;-1333;
2024-05-22T19:43:27.085;539601224052400332;368086;380274;291458;-1317;
2024-05-22T19:43:27.103;539601224070559268;367909;380024;291288;-1340;
2024-05-22T19:43:27.121;539601224088718204;367723;379862;291214;-1334;
2024-05-22T19:43:27.139;539601224106877140;367565;379683;291104;-1341;
2024-05-22T19:43:27.157;539601224125036076;367486;379553;291073;-1308;
2024-05-22T19:43:27.176;539601224143195012;367463;379460;291040;-1282;
2024-05-22T19:43:27.194;539601224161353948;367433;379403;290935;-1294;
2024-05-22T19:43:27.212;539601224179512884;367413;379344;291002;-1273;
2024-05-22T19:43:27.230;539601224197671820;367497;379397;291003;-1311;
2024-05-22T19:43:27.248;539601224215830756;367579;379535;291121;-1324;
2024-05-22T19:43:27.266;539601224233989692;367703;379596;291132;-1293;
2024-05-22T19:43:27.285;539601224252148628;367759;379638;291183;-1277;
2024-05-22T19:43:27.303;539601224270307564;367814;379646;291174;-1317;
2024-05-22T19:43:27.321;539601224288466500;367992;379769;291265;-1284;
2024-05-22T19:43:27.339;539601224306625436;368067;379889;291316;-1372;
2024-05-22T19:43:27.357;539601224324784372;368136;379914;291468;-1378;
2024-05-22T19:43:27.375;539601224342943308;368227;379944;291434;-1326;
2024-05-22T19:43:27.394;539601224361102244;368305;380016;291532;-1359;
2024-05-22T19:43:27.412;539601224379261180;368370;380114;291639;-1318;
2024-05-22T19:43:27.430;539601224397420116;368498;380201;291674;-1326;
2024-05-22T19:43:27.448;539601224415579052;368547;380268;291709;-1299;
2024-05-22T19:43:27.466;539601224433737988;368657;380271;291737;-1304;
2024-05-22T19:43:27.484;539601224451896924;368751;380416;291822;-1249;
2024-05-22T19:43:27.502;539601224470055836;368814;380446;291822;-1339;
2024-05-22T19:43:27.521;539601224488214736;368906;380425;291805;-1335;
2024-05-22T19:43:27.539;539601224506373636;368949;380500;291980;-1339;
2024-05-22T19:43:27.557;539601224524532536;369098;380644;292051;-1279;
2024-05-22T19:43:27.575;539601224542691436;369136;380634;292092;-1288;
2024-05-22T19:43:27.593;539601224560850336;369190;380621;292118;-1274;
2024-05-22T19:43:27.611;539601224579009236;369130;380587;292032;-1307;
2024-05-22T19:43:27.630;539601224597168136;369030;380508;291950;-1362;
2024-05-22T19:43:27.648;539601224615327036;368969;380369;291826;-1329;
2024-05-22T19:43:27.666;539601224633485936;368754;380152;291732;-1321;
2024-05-22T19:43:27.684;539601224651644836;368530;379941;291678;-1254;
2024-05-22T19:43:27.702;539601224669803736;368405;379751;291475;-1293;
2024-05-22T19:43:27.720;539601224687962636;368249;379616;291394;-1324;
2024-05-22T19:43:27.739;539601224706121536;368120;379464;291296;-1318;
2024-05-22T19:43:27.757;539601224724280436;368119;379442;291276;-1278;
2024-05-22T19:43:27.775;539601224742439336;368129;379410;291267;-1280;
2024-05-22T19:43:27.793;539601224760598236;368177;379386;291293;-1333;
2024-05-22T19:43:27.811;539601224778757136;368272;379446;291396;-1291;
2024-05-22T19:43:27.829;539601224796916036;368340;379539;291402;-1336;
2024-05-22T19:43:27.847;539601224815074936;368391;379629;291488;-1347;
2024-05-22T19:43:27.866;539601224833233836;368513;379662;291565;-1314;
2024-05-22T19:43:27.884;539601224851392736;368581;379767;291626;-1300;
2024-05-22T19:43:27.902;539601224869551636;368658;379869;291676;-1316;
2024-05-22T19:43:27.920;539601224887710536;368749;379890;291747;-1319;
2024-05-22T19:43:27.938;539601224905869436;368875;379962;291855;-1275;
2024-05-22T19:43:27.956;539601224924028336;368884;379993;291802;-1341;
2024-05-22T19:43:27.975;539601224942187236;368961;380041;291739;-1335;
2024-05-22T19:43:27.993;539601224960346136;369061;380081;291890;-1278;
2024-05-22T19:43:28.011;539601224978505036;369068;380136;291957;-1262;
2024-05-22T19:43:28.029;539601224996663936;369176;380170;291998;-1306;
2024-05-22T19:43:28.047;539601225014822836;369220;380241;291987;-1342;
2024-05-22T19:43:28.065;539601225032981736;369232;380277;292010;-1335;
2024-05-22T19:43:28.084;539601225051140636;369321;380296;292082;-1324;
2024-05-22T19:43:28.102;539601225069299536;369388;380334;292058;-1334;
2024-05-22T19:43:28.120;539601225087458436;369454;380468;292134;-1265;
2024-05-22T19:43:28.138;539601225105617336;369541;380463;292189;-1320;
2024-05-22T19:43:28.156;539601225123776236;369524;380469;292142;-1335;
2024-05-22T19:43:28.174;539601225141935136;369558;380457;292159;-1310;
2024-05-22T19:43:28.193;539601225160094036;369485;380416;292105;-1292;
2024-05-22T19:43:28.211;539601225178252936;369255;380280;292010;-1289;
2024-05-22T19:43:28.229;539601225196411836;369071;380040;291902;-1313;
2024-05-22T19:43:28.247;539601225214570736;368948;379775;291787;-1327;
2024-05-22T19:43:28.265;539601225232728500;368789;379667;291710;-1306;
2024-05-22T19:43:28.283;539601225250886237;368682;379557;291608;-1256;
2024-05-22T19:43:28.301;539601225269043974;368626;379463;291615;-1221;
2024-05-22T19:43:28.320;539601225287201711;368615;379376;291582;-1235;
2024-05-22T19:43:28.338;539601225305359448;368589;379438;291586;-1276;
2024-05-22T19:43:28.356;539601225323517185;368536;379423;291600;-1271;
2024-05-22T19:43:28.374;539601225341674922;368622;379510;291668;-1272;
2024-05-22T19:43:28.392;539601225359832659;368805;379599;291729;-1215;
2024-05-22T19:43:28.410;539601225377990396;368840;379709;291773;-1276;
2024-05-22T19:43:28.429;539601225396148133;368917;379729;291862;-1275;
2024-05-22T19:43:28.447;539601225414305870;369079;379858;291928;-1291;
2024-05-22T19:43:28.465;539601225432463607;369080;379966;291942;-1295;
2024-05-22T19:43:28.483;539601225450621344;369215;380067;292013;-1289;
2024-05-22T19:43:28.501;539601225468779081;369277;380043;292062;-1387;
2024-05-22T19:43:28.519;539601225486936818;369349;380125;292138;-1304;
2024-05-22T19:43:28.538;539601225505094555;369430;380199;292144;-1276;
2024-05-22T19:43:28.556;539601225523252292;369577;380308;292244;-1254;
2024-05-22T19:43:28.574;539601225541410029;369592;380375;292322;-1260;
2024-05-22T19:43:28.592;539601225559567766;369620;380436;292368;-1347;
2024-05-22T19:43:28.610;539601225577725503;369673;380481;292410;-1288;
2024-05-22T19:43:28.628;539601225595883240;369793;380532;292468;-1311;
2024-05-22T19:43:28.646;539601225614040977;369906;380553;292469;-1383;
2024-05-22T19:43:28.665;539601225632198714;369988;380692;292558;-1360;
2024-05-22T19:43:28.683;539601225650356451;370028;380839;292644;-1289;
2024-05-22T19:43:28.701;539601225668514188;370134;380804;292649;-1292;
2024-05-22T19:43:28.719;539601225686671925;370128;380826;292634;-1276;
2024-05-22T19:43:28.737;539601225704829662;370003;380732;292538;-1302;
2024-05-22T19:43:28.755;539601225722987399;369858;380580;292491;-1291;
2024-05-22T19:43:28.774;539601225741145136;369632;380395;292386;-1352;
2024-05-22T19:43:28.792;539601225759302873;369409;380182;292286;-1308;
2024-05-22T19:43:28.810;539601225777460610;369166;379944;292111;-1321;
2024-05-22T19:43:28.828;539601225795618347;369014;379794;291997;-1296;
2024-05-22T19:43:28.846;539601225813776084;368922;379604;291946;-1294;
2024-05-22T19:43:28.864;539601225831933821;368780;379546;291846;-1266;
2024-05-22T19:43:28.883;539601225850091558;368618;379422;291758;-1312;
2024-05-22T19:43:28.901;539601225868249295;368611;379413;291738;-1268;
2024-05-22T19:43:28.919;539601225886407032;368648;379411;291795;-1254;
2024-05-22T19:43:28.937;539601225904564769;368608;379387;291783;-1252;
2024-05-22T19:43:28.955;539601225922722506;368691;379510;291857;-1261;
2024-05-22T19:43:28.973;539601225940880243;368808;379577;291920;-1261;
2024-05-22T19:43:28.991;539601225959037980;368848;379653;291994;-1227;
2024-05-22T19:43:29.010;539601225977195717;368882;379727;292033;-1308;
2024-05-22T19:43:29.028;539601225995355856;368910;379772;291992;-1323;
2024-05-22T19:43:29.046;539601226013515982;368900;379785;292045;-1286;
2024-05-22T19:43:29.064;539601226031676108;368927;379794;292086;-1271;
2024-05-22T19:43:29.082;539601226049836234;369039;379843;292124;-1296;
2024-05-22T19:43:29.100;539601226067996360;369055;379848;292165;-1293;
2024-05-22T19:43:29.119;539601226086156486;369084;379850;292112;-1296;
2024-05-22T19:43:29.137;539601226104316612;368967;379860;292114;-1299;
2024-05-22T19:43:29.155;539601226122476738;369089;379955;292208;-1302;
2024-05-22T19:43:29.173;539601226140636864;369055;379952;292209;-1270;
2024-05-22T19:43:29.191;539601226158796990;369049;380013;292199;-1289;
2024-05-22T19:43:29.209;539601226176957116;369044;379945;292207;-1283;
2024-05-22T19:43:29.228;539601226195117242;369088;379949;292198;-1324;
2024-05-22T19:43:29.246;539601226213277368;369151;380036;292266;-1294;
2024-05-22T19:43:29.264;539601226231437494;369118;379879;292157;-1282;
2024-05-22T19:43:29.282;539601226249597620;368893;379864;292169;-1275;
2024-05-22T19:43:29.300;539601226267757746;368707;379688;291990;-1333;
2024-05-22T19:43:29.318;539601226285917872;368508;379455;291842;-1308;
2024-05-22T19:43:29.336;539601226304077998;368213;379273;291709;-1356;
2024-05-22T19:43:29.355;539601226322238124;367905;379039;291581;-1289;
2024-05-22T19:43:29.373;539601226340398250;367591;378751;291415;-1296;
2024-05-22T19:43:29.391;539601226358558376;367374;378535;291288;-1308;
2024-05-22T19:43:29.409;539601226376718502;367248;378422;291162;-1268;
2024-05-22T19:43:29.427;539601226394878628;367037;378338;291063;-1338;
2024-05-22T19:43:29.445;539601226413038754;367005;378266;291066;-1306;
2024-05-22T19:43:29.464;539601226431198880;366954;378289;291075;-1338;
2024-05-22T19:43:29.482;539601226449359006;367016;378361;291101;-1326;
2024-05-22T19:43:29.500;539601226467519132;367076;378364;291188;-1324;
2024-05-22T19:43:29.518;539601226485679258;367203;378537;291179;-1343;
2024-05-22T19:43:29.536;539601226503839384;367273;378565;291293;-1299;
2024-05-22T19:43:29.554;539601226521999510;367298;378715;291348;-1297;
2024-05-22T19:43:29.573;539601226540159636;367372;378739;291372;-1317;
2024-05-22T19:43:29.591;539601226558319762;367381;378799;291374;-1331;
2024-05-22T19:43:29.609;539601226576479888;367451;378889;291462;-1340;
2024-05-22T19:43:29.627;539601226594640014;367467;378844;291456;-1292;
2024-05-22T19:43:29.645;539601226612800140;367564;379030;291550;-1252;
2024-05-22T19:43:29.663;539601226630960266;367549;379007;291538;-1296;
2024-05-22T19:43:29.682;539601226649120392;367558;379088;291606;-1287;
2024-05-22T19:43:29.700;539601226667280518;367548;379133;291650;-1294;
2024-05-22T19:43:29.718;539601226685440644;367637;379158;291675;-1260;
2024-05-22T19:43:29.736;539601226703600770;367634;379173;291721;-1198;
2024-05-22T19:43:29.754;539601226721760896;367679;379299;291757;-1219;
2024-05-22T19:43:29.772;539601226739921022;367693;379369;291786;-1201;
2024-05-22T19:43:29.790;539601226758081148;367724;379393;291793;-1270;
2024-05-22T19:43:29.809;539601226776240697;367710;379403;291790;-1310;
2024-05-22T19:43:29.827;539601226794400214;367736;379387;291821;-1239;
2024-05-22T19:43:29.845;539601226812559731;367570;379340;291772;-1296;
2024-05-22T19:43:29.863;539601226830719248;367375;379222;291683;-1280;
2024-05-22T19:43:29.881;539601226848878765;367110;379027;291609;-1301;
2024-05-22T19:43:29.899;539601226867038282;366898;378842;291400;-1305;
2024-05-22T19:43:29.918;539601226885197799;366568;378548;291270;-1278;
2024-05-22T19:43:29.936;539601226903357316;366373;378383;291133;-1270;
2024-05-22T19:43:29.954;539601226921516833;366065;378209;290946;-1296;
2024-05-22T19:43:29.972;539601226939676350;365935;378041;290894;-1320;
2024-05-22T19:43:29.990;539601226957835867;365787;378013;290832;-1302;
2024-05-22T19:43:30.008;539601226975995384;365723;378005;290792;-1257;
2024-05-22T19:43:30.027;539601226994154901;365741;378111;290871;-1256;
2024-05-22T19:43:30.045;539601227012314418;365817;378208;290936;-1252;
2024-05-22T19:43:30.063;539601227030473935;365868;378213;290923;-1286;
2024-05-22T19:43:30.081;539601227048633452;365954;378314;291064;-1323;
2024-05-22T19:43:30.099;539601227066792969;366083;378520;291195;-1293;
2024-05-22T19:43:30.117;539601227084952486;366264;378551;291268;-1197;
2024-05-22T19:43:30.136;539601227103112003;366241;378619;291225;-1306;
2024-05-22T19:43:30.154;539601227121271520;366366;378770;291364;-1262;
2024-05-22T19:43:30.172;539601227139431037;366439;378880;291417;-1299;
2024-05-22T19:43:30.190;539601227157590554;366525;378986;291553;-1283;
2024-05-22T19:43:30.208;539601227175750071;366588;379106;291570;-1273;
2024-05-22T19:43:30.226;539601227193909588;366589;379142;291546;-1272;
2024-05-22T19:43:30.244;539601227212069105;366629;379274;291651;-1267;
2024-05-22T19:43:30.263;539601227230228622;366721;379286;291686;-1292;
2024-05-22T19:43:30.281;539601227248388139;366732;379325;291730;-1275;
2024-05-22T19:43:30.299;539601227266547656;366759;379371;291736;-1246;
2024-05-22T19:43:30.317;539601227284707173;366798;379391;291780;-1237;
2024-05-22T19:43:30.335;539601227302866690;366827;379453;291830;-1279;
2024-05-22T19:43:30.353;539601227321026207;366856;379551;291846;-1275;
2024-05-22T19:43:30.372;539601227339185724;366947;379586;291922;-1304;
2024-05-22T19:43:30.390;539601227357345241;366971;379730;291996;-1272;
2024-05-22T19:43:30.408;539601227375504758;366857;379630;291988;-1307;
2024-05-22T19:43:30.426;539601227393664275;366660;379543;291854;-1331;
2024-05-22T19:43:30.444;539601227411823792;366482;379397;291734;-1297;
2024-05-22T19:43:30.462;539601227429983309;366213;379188;291533;-1239;
2024-05-22T19:43:30.481;539601227448142826;365901;379044;291469;-1308;
2024-05-22T19:43:30.499;539601227466302343;365657;378863;291342;-1314;
2024-05-22T19:43:30.517;539601227484461860;365429;378737;291232;-1287;
2024-05-22T19:43:30.535;539601227502621377;365259;378651;291103;-1304;
2024-05-22T19:43:30.553;539601227520780894;365148;378576;291082;-1393;
2024-05-22T19:43:30.571;539601227538940385;365064;378591;291075;-1312;
2024-05-22T19:43:30.590;539601227557099836;365036;378604;291096;-1346;
2024-05-22T19:43:30.608;539601227575259287;364983;378602;291101;-1339;
2024-05-22T19:43:30.626;539601227593418738;365133;378676;291171;-1335;
2024-05-22T19:43:30.644;539601227611578189;365206;378804;291240;-1313;
2024-05-22T19:43:30.662;539601227629737640;365295;378899;291308;-1317;
2024-05-22T19:43:30.680;539601227647897091;365428;378994;291364;-1350;
2024-05-22T19:43:30.698;539601227666056542;365475;379045;291405;-1364;
2024-05-22T19:43:30.717;539601227684215993;365458;379129;291479;-1299;
2024-05-22T19:43:30.735;539601227702375444;365508;379168;291536;-1287;
2024-05-22T19:43:30.753;539601227720534895;365503;379271;291546;-1333;
2024-05-22T19:43:30.771;539601227738694346;365569;379348;291569;-1360;
2024-05-22T19:43:30.789;539601227756853797;365653;379345;291600;-1345;
2024-05-22T19:43:30.807;539601227775013248;365676;379464;291653;-1287;
2024-05-22T19:43:30.826;539601227793172699;365661;379430;291695;-1326;
2024-05-22T19:43:30.844;539601227811332150;365711;379498;291735;-1295;
2024-05-22T19:43:30.862;539601227829491601;365755;379589;291738;-1318;
2024-05-22T19:43:30.880;539601227847651052;365804;379611;291793;-1311;
2024-05-22T19:43:30.898;539601227865810503;365766;379632;291830;-1344;
2024-05-22T19:43:30.916;539601227883969954;365828;379717;291886;-1321;
2024-05-22T19:43:30.935;539601227902129405;365900;379761;291916;-1277;
2024-05-22T19:43:30.953;539601227920288856;365825;379783;291930;-1303;
2024-05-22T19:43:30.971;539601227938448307;365658;379763;291917;-1372;
2024-05-22T19:43:30.989;539601227956607758;365533;379669;291764;-1335;
2024-05-22T19:43:31.007;539601227974767209;365352;379581;291698;-1325;
2024-05-22T19:43:31.025;539601227992926660;365135;379477;291577;-1302;
2024-05-22T19:43:31.043;539601228011086111;364909;379277;291449;-1325;
2024-05-22T19:43:31.062;539601228029245562;364650;379173;291376;-1346;
2024-05-22T19:43:31.080;539601228047405013;364547;379084;291379;-1325;
2024-05-22T19:43:31.098;539601228065564464;364485;379077;291340;-1288;
2024-05-22T19:43:31.116;539601228083723915;364397;379082;291351;-1341;
2024-05-22T19:43:31.134;539601228101883366;364482;379133;291346;-1318;
2024-05-22T19:43:31.152;539601228120042817;364554;379174;291419;-1299;
2024-05-22T19:43:31.171;539601228138202268;364636;379335;291525;-1317;
2024-05-22T19:43:31.189;539601228156361719;364731;379496;291609;-1258;
2024-05-22T19:43:31.207;539601228174521170;364801;379569;291685;-1309;
2024-05-22T19:43:31.225;539601228192680621;365014;379662;291782;-1318;
2024-05-22T19:43:31.243;539601228210840072;365082;379736;291862;-1358;
2024-05-22T19:43:31.261;539601228228999523;365146;379868;291898;-1330;
2024-05-22T19:43:31.280;539601228247158974;365285;380031;292017;-1282;
2024-05-22T19:43:31.298;539601228265318425;365314;380145;292089;-1279;
2024-05-22T19:43:31.316;539601228283477876;365418;380191;292125;-1314;
2024-05-22T19:43:31.334;539601228301637327;365489;380254;292199;-1319;
2024-05-22T19:43:31.352;539601228319797543;365542;380372;292227;-1334;
2024-05-22T19:43:31.370;539601228337957751;365611;380444;292317;-1275;
2024-05-22T19:43:31.389;539601228356117959;365615;380506;292293;-1307;
2024-05-22T19:43:31.407;539601228374278167;365688;380555;292438;-1282;
2024-05-22T19:43:31.425;539601228392438375;365745;380665;292430;-1319;
2024-05-22T19:43:31.443;539601228410598583;365705;380687;292400;-1306;
2024-05-22T19:43:31.461;539601228428758791;365725;380787;292461;-1317;
2024-05-22T19:43:31.479;539601228446918999;365816;380839;292487;-1327;
2024-05-22T19:43:31.497;539601228465079207;365806;380819;292503;-1340;
2024-05-22T19:43:31.516;539601228483239415;365739;380762;292473;-1320;
2024-05-22T19:43:31.534;539601228501399623;365532;380592;292385;-1291;
2024-05-22T19:43:31.552;539601228519559831;365334;380514;292231;-1286;
2024-05-22T19:43:31.570;539601228537720039;365043;380297;292077;-1309;
2024-05-22T19:43:31.588;539601228555880247;364710;380130;291968;-1297;
2024-05-22T19:43:31.606;539601228574040455;364499;379932;291827;-1302;
2024-05-22T19:43:31.625;539601228592200663;364261;379823;291651;-1314;
2024-05-22T19:43:31.643;539601228610360871;364117;379695;291605;-1295;
2024-05-22T19:43:31.661;539601228628521079;363995;379658;291557;-1270;
2024-05-22T19:43:31.679;539601228646681287;363969;379620;291565;-1255;
2024-05-22T19:43:31.697;539601228664841495;363924;379694;291561;-1313;
2024-05-22T19:43:31.715;539601228683001703;363961;379721;291599;-1328;
2024-05-22T19:43:31.734;539601228701161911;364079;379722;291625;-1319;
2024-05-22T19:43:31.752;539601228719322119;364184;379848;291780;-1266;
2024-05-22T19:43:31.770;539601228737482327;364270;379942;291848;-1279;
2024-05-22T19:43:31.788;539601228755642535;364411;380046;291888;-1299;
2024-05-22T19:43:31.806;539601228773802743;364532;380115;291930;-1327;
2024-05-22T19:43:31.824;539601228791962951;364605;380209;292060;-1317;
2024-05-22T19:43:31.843;539601228810123159;364742;380314;292102;-1333;
2024-05-22T19:43:31.861;539601228828283367;364756;380442;292180;-1319;
2024-05-22T19:43:31.879;539601228846443575;364860;380497;292231;-1321;
2024-05-22T19:43:31.897;539601228864603783;364958;380605;292341;-1327;
2024-05-22T19:43:31.915;539601228882763991;365117;380751;292384;-1272;
2024-05-22T19:43:31.933;539601228900924199;365161;380783;292434;-1325;
2024-05-22T19:43:31.951;539601228919084407;365235;380854;292472;-1329;
2024-05-22T19:43:31.970;539601228937244615;365321;380954;292472;-1301;
2024-05-22T19:43:31.988;539601228955404823;365465;381075;292589;-1305;
2024-05-22T19:43:32.006;539601228973565031;365485;381171;292653;-1275;
2024-05-22T19:43:32.024;539601228991725239;365616;381254;292616;-1271;
2024-05-22T19:43:32.042;539601229009885447;365634;381351;292717;-1327;
2024-05-22T19:43:32.060;539601229028045655;365656;381364;292785;-1292;
2024-05-22T19:43:32.079;539601229046205863;365564;381369;292766;-1322;
2024-05-22T19:43:32.097;539601229064366071;365499;381347;292767;-1254;
2024-05-22T19:43:32.115;539601229082526819;365362;381238;292658;-1330;
2024-05-22T19:43:32.133;539601229100687535;365164;381149;292564;-1341;
2024-05-22T19:43:32.151;539601229118848251;364955;380961;292449;-1273;
2024-05-22T19:43:32.169;539601229137008967;364785;380876;292306;-1266;
2024-05-22T19:43:32.188;539601229155169683;364644;380836;292272;-1246;
2024-05-22T19:43:32.206;539601229173330399;364511;380844;292305;-1255;
2024-05-22T19:43:32.224;539601229191491115;364545;380867;292278;-1316;
2024-05-22T19:43:32.242;539601229209651831;364497;380792;292237;-1385;
2024-05-22T19:43:32.260;539601229227812547;364660;380892;292401;-1345;
2024-05-22T19:43:32.278;539601229245973263;364741;380971;292440;-1337;
2024-05-22T19:43:32.297;539601229264133979;364786;381043;292457;-1362;
2024-05-22T19:43:32.315;539601229282294695;364992;381253;292613;-1346;
2024-05-22T19:43:32.333;539601229300455411;365179;381333;292675;-1312;
2024-05-22T19:43:32.351;539601229318616127;365257;381478;292741;-1355;
2024-05-22T19:43:32.369;539601229336776843;365512;381592;292874;-1304;
2024-05-22T19:43:32.387;539601229354937559;365561;381744;292951;-1318;
2024-05-22T19:43:32.406;539601229373098275;365602;381812;293027;-1354;
2024-05-22T19:43:32.424;539601229391258991;365714;381952;293057;-1330;
2024-05-22T19:43:32.442;539601229409419707;365771;382025;293124;-1291;
2024-05-22T19:43:32.460;539601229427580423;365859;382142;293148;-1257;
2024-05-22T19:43:32.478;539601229445741139;366001;382166;293308;-1284;
2024-05-22T19:43:32.496;539601229463901855;366047;382224;293328;-1296;
2024-05-22T19:43:32.514;539601229482062571;366227;382351;293436;-1365;
2024-05-22T19:43:32.533;539601229500223287;366222;382498;293463;-1383;
2024-05-22T19:43:32.551;539601229518384003;366369;382575;293494;-1427;
2024-05-22T19:43:32.569;539601229536544719;366479;382616;293602;-1323;
2024-05-22T19:43:32.587;539601229554705435;366509;382692;293613;-1400;
2024-05-22T19:43:32.605;539601229572866151;366653;382843;293680;-1347;
2024-05-22T19:43:32.623;539601229591026867;366800;382941;293772;-1322;
2024-05-22T19:43:32.642;539601229609187583;366822;382980;293803;-1347;
2024-05-22T19:43:32.660;539601229627348299;366815;382968;293811;-1337;
2024-05-22T19:43:32.678;539601229645509015;366683;382897;293659;-1346;
2024-05-22T19:43:32.696;539601229663669731;366549;382803;293668;-1322;
2024-05-22T19:43:32.714;539601229681830447;366370;382735;293519;-1261;
2024-05-22T19:43:32.732;539601229699991163;366206;382575;293463;-1323;
2024-05-22T19:43:32.751;539601229718151879;366148;382456;293445;-1338;
2024-05-22T19:43:32.769;539601229736312595;366084;382487;293319;-1322;
2024-05-22T19:43:32.787;539601229754473311;365993;382456;293322;-1309;
2024-05-22T19:43:32.805;539601229772634027;365998;382534;293385;-1311;
2024-05-22T19:43:32.823;539601229790794743;366145;382653;293449;-1300;
2024-05-22T19:43:32.841;539601229808955459;366174;382663;293475;-1333;
2024-05-22T19:43:32.860;539601229827116175;366284;382783;293534;-1313;
2024-05-22T19:43:32.878;539601229845276550;366396;382860;293618;-1354;
2024-05-22T19:43:32.896;539601229863436903;366529;382948;293680;-1373;
2024-05-22T19:43:32.914;539601229881597256;366722;383091;293774;-1321;
2024-05-22T19:43:32.932;539601229899757609;366816;383140;293805;-1271;
2024-05-22T19:43:32.950;539601229917917962;366920;383240;293947;-1290;
2024-05-22T19:43:32.968;539601229936078315;367036;383352;294007;-1286;
2024-05-22T19:43:32.987;539601229954238668;367082;383526;294046;-1313;
2024-05-22T19:43:33.005;539601229972399021;367258;383623;294119;-1299;
2024-05-22T19:43:33.023;539601229990559374;367319;383728;294123;-1306;
2024-05-22T19:43:33.041;539601230008719727;367448;383773;294246;-1344;
2024-05-22T19:43:33.059;539601230026880080;367537;383875;294342;-1267;
2024-05-22T19:43:33.077;539601230045040433;367647;383955;294439;-1293;
2024-05-22T19:43:33.096;539601230063200786;367735;384023;294454;-1318;
2024-05-22T19:43:33.114;539601230081361139;367810;384101;294479;-1329;
2024-05-22T19:43:33.132;539601230099521492;367841;384191;294593;-1351;
2024-05-22T19:43:33.150;539601230117681845;367952;384257;294598;-1322;
2024-05-22T19:43:33.168;539601230135842198;368067;384456;294660;-1340;
2024-05-22T19:43:33.186;539601230154002551;368221;384490;294722;-1274;
2024-05-22T19:43:33.205;539601230172162904;368316;384542;294845;-1276;
2024-05-22T19:43:33.223;539601230190323257;368299;384508;294823;-1326;
2024-05-22T19:43:33.241;539601230208483610;368209;384456;294789;-1358;
2024-05-22T19:43:33.259;539601230226643963;368114;384422;294686;-1329;
2024-05-22T19:43:33.277;539601230244804316;368087;384418;294586;-1294;
2024-05-22T19:43:33.295;539601230262964669;367930;384307;294490;-1361;
2024-05-22T19:43:33.314;539601230281125022;367867;384170;294453;-1342;
2024-05-22T19:43:33.332;539601230299285375;367807;384176;294425;-1300;
2024-05-22T19:43:33.350;539601230317445728;367749;384192;294487;-1314;
2024-05-22T19:43:33.368;539601230335606081;367713;384174;294441;-1342;
2024-05-22T19:43:33.386;539601230353766434;367794;384279;294470;-1361;
2024-05-22T19:43:33.404;539601230371926787;367847;384410;294523;-1312;
2024-05-22T19:43:33.423;539601230390087140;367991;384493;294628;-1320;
2024-05-22T19:43:33.441;539601230408247493;368123;384569;294707;-1324;
2024-05-22T19:43:33.459;539601230426407846;368232;384629;294792;-1313;
2024-05-22T19:43:33.477;539601230444568199;368411;384782;294848;-1299;
2024-05-22T19:43:33.495;539601230462728552;368501;384920;294916;-1312;
2024-05-22T19:43:33.513;539601230480888905;368611;384975;295015;-1277;
2024-05-22T19:43:33.531;539601230499049258;368706;385069;295051;-1300;
2024-05-22T19:43:33.550;539601230517209611;368836;385161;295133;-1351;
2024-05-22T19:43:33.568;539601230535369964;368990;385282;295171;-1331;
2024-05-22T19:43:33.586;539601230553530317;369035;385297;295211;-1312;
2024-05-22T19:43:33.604;539601230571690670;369201;385419;295326;-1289;
2024-05-22T19:43:33.622;539601230589851023;369311;385547;295386;-1320;
2024-05-22T19:43:33.640;539601230608011564;369366;385695;295474;-1350;
2024-05-22T19:43:33.659;539601230626172099;369515;385742;295505;-1311;
2024-05-22T19:43:33.677;539601230644332634;369638;385843;295570;-1306;
2024-05-22T19:43:33.695;539601230662493169;369704;385872;295646;-1337;
2024-05-22T19:43:33.713;539601230680653704;369841;386042;295780;-1282;
2024-05-22T19:43:33.731;539601230698814239;370002;386107;295840;-1290;
2024-05-22T19:43:33.749;539601230716974774;370080;386263;295909;-1347;
2024-05-22T19:43:33.768;539601230735135309;370252;386375;295989;-1291;
2024-05-22T19:43:33.786;539601230753295844;370210;386346;295961;-1310;
2024-05-22T19:43:33.804;539601230771456379;370201;386342;295957;-1319;
2024-05-22T19:43:33.822;539601230789616914;370131;386325;295883;-1321;
2024-05-22T19:43:33.840;539601230807777449;370019;386258;295882;-1314;
2024-05-22T19:43:33.858;539601230825937984;370008;386292;295895;-1328;
2024-05-22T19:43:33.877;539601230844098519;369918;386176;295801;-1320;
2024-05-22T19:43:33.895;539601230862259054;369911;386165;295834;-1363;
2024-05-22T19:43:33.913;539601230880419589;369943;386204;295772;-1252;
2024-05-22T19:43:33.931;539601230898580124;369974;386269;295851;-1302;
2024-05-22T19:43:33.949;539601230916740659;370064;386320;295875;-1391;
2024-05-22T19:43:33.967;539601230934901194;370184;386462;295970;-1340;
2024-05-22T19:43:33.985;539601230953061729;370335;386504;296049;-1301;
2024-05-22T19:43:34.004;539601230971222264;370449;386577;296091;-1323;
2024-05-22T19:43:34.022;539601230989382799;370533;386701;296153;-1328;
2024-05-22T19:43:34.040;539601231007543334;370666;386786;296215;-1318;
2024-05-22T19:43:34.058;539601231025703869;370759;386895;296305;-1273;
2024-05-22T19:43:34.076;539601231043864404;370831;386966;296406;-1308;
2024-05-22T19:43:34.094;539601231062024939;370951;387048;296401;-1278;
2024-05-22T19:43:34.113;539601231080185474;371019;387233;296466;-1323;
2024-05-22T19:43:34.131;539601231098346009;371126;387174;296509;-1345;
2024-05-22T19:43:34.149;539601231116506544;371189;387250;296636;-1292;
2024-05-22T19:43:34.167;539601231134667079;371267;387280;296529;-1287;
2024-05-22T19:43:34.185;539601231152827614;371312;387439;296663;-1307;
2024-05-22T19:43:34.203;539601231170988149;371369;387425;296665;-1326;
2024-05-22T19:43:34.222;539601231189148684;371425;387517;296710;-1307;
2024-05-22T19:43:34.240;539601231207309219;371513;387584;296812;-1330;
2024-05-22T19:43:34.258;539601231225469754;371589;387555;296884;-1327;
2024-05-22T19:43:34.276;539601231243630289;371677;387597;296820;-1317;
2024-05-22T19:43:34.294;539601231261790824;371700;387721;296904;-1304;
2024-05-22T19:43:34.312;539601231279951359;371754;387786;296917;-1245;
2024-05-22T19:43:34.331;539601231298111894;371856;387818;297027;-1226;
2024-05-22T19:43:34.349;539601231316272429;371743;387791;296933;-1235;
2024-05-22T19:43:34.367;539601231334432964;371651;387712;296809;-1256;
2024-05-22T19:43:34.385;539601231352593499;371575;387592;296782;-1314;
2024-05-22T19:43:34.403;539601231370753345;371434;387489;296727;-1292;
2024-05-22T19:43:34.421;539601231388913153;371286;387363;296642;-1283;
2024-05-22T19:43:34.439;539601231407072961;371145;387229;296546;-1317;
2024-05-22T19:43:34.458;539601231425232769;371153;387082;296480;-1293;
2024-05-22T19:43:34.476;539601231443392577;371105;387047;296467;-1273;
2024-05-22T19:43:34.494;539601231461552385;371075;387097;296449;-1265;
2024-05-22T19:43:34.512;539601231479712193;371102;387047;296429;-1293;
2024-05-22T19:43:34.530;539601231497872001;371200;387107;296443;-1243;
2024-05-22T19:43:34.548;539601231516031809;371294;387160;296547;-1280;
2024-05-22T19:43:34.567;539601231534191617;371359;387312;296583;-1285;
2024-05-22T19:43:34.585;539601231552351425;371511;387465;296721;-1241;
2024-05-22T19:43:34.603;539601231570511233;371607;387518;296800;-1240;
2024-05-22T19:43:34.621;539601231588671041;371715;387628;296813;-1280;
2024-05-22T19:43:34.639;539601231606830849;371804;387707;296900;-1280;
2024-05-22T19:43:34.657;539601231624990657;371955;387811;296960;-1290;
2024-05-22T19:43:34.676;539601231643150465;371999;387801;296950;-1293;
2024-05-22T19:43:34.694;539601231661310273;372110;387883;297026;-1296;
2024-05-22T19:43:34.712;539601231679470081;372223;387923;297062;-1269;
2024-05-22T19:43:34.730;539601231697629889;372271;388069;297098;-1285;
2024-05-22T19:43:34.748;539601231715789697;372375;388121;297220;-1286;
2024-05-22T19:43:34.766;539601231733949505;372480;388123;297236;-1314;
2024-05-22T19:43:34.785;539601231752109313;372579;388261;297348;-1318;
2024-05-22T19:43:34.803;539601231770269121;372670;388320;297353;-1305;
2024-05-22T19:43:34.821;539601231788428929;372782;388425;297428;-1275;
2024-05-22T19:43:34.839;539601231806588737;372840;388526;297507;-1262;
2024-05-22T19:43:34.857;539601231824748545;372995;388598;297613;-1242;
2024-05-22T19:43:34.875;539601231842908353;373033;388612;297616;-1318;
2024-05-22T19:43:34.893;539601231861068161;373108;388747;297658;-1257;
2024-05-22T19:43:34.912;539601231879227969;373152;388732;297665;-1228;
2024-05-22T19:43:34.930;539601231897387777;373047;388639;297656;-1283;
2024-05-22T19:43:34.948;539601231915547585;372949;388567;297582;-1282;
2024-05-22T19:43:34.966;539601231933707393;372862;388422;297486;-1309;
2024-05-22T19:43:34.984;539601231951867201;372733;388348;297344;-1268;
2024-05-22T19:43:35.002;539601231970027009;372625;388233;297306;-1286;
2024-05-22T19:43:35.021;539601231988186817;372556;388177;297225;-1288;
2024-05-22T19:43:35.039;539601232006346625;372521;388131;297146;-1257;
2024-05-22T19:43:35.057;539601232024506433;372511;388108;297158;-1275;
2024-05-22T19:43:35.075;539601232042666241;372494;388120;297169;-1299;
2024-05-22T19:43:35.093;539601232060826049;372529;388096;297175;-1284;
2024-05-22T19:43:35.111;539601232078985857;372650;388177;297226;-1267;
2024-05-22T19:43:35.130;539601232097145665;372779;388275;297276;-1297;
2024-05-22T19:43:35.148;539601232115305473;372893;388317;297427;-1277;
2024-05-22T19:43:35.166;539601232133466766;372922;388369;297442;-1326;
2024-05-22T19:43:35.184;539601232151628027;373102;388413;297533;-1306;
2024-05-22T19:43:35.202;539601232169789288;373162;388544;297513;-1328;
2024-05-22T19:43:35.220;539601232187950549;373296;388687;297662;-1254;
2024-05-22T19:43:35.239;539601232206111810;373350;388776;297712;-1289;
2024-05-22T19:43:35.257;539601232224273071;373459;388847;297733;-1244;
2024-05-22T19:43:35.275;539601232242434332;373551;388886;297741;-1283;
2024-05-22T19:43:35.293;539601232260595593;373618;388965;297817;-1317;
2024-05-22T19:43:35.311;539601232278756854;373769;389064;297895;-1289;
2024-05-22T19:43:35.329;539601232296918115;373808;389091;297940;-1306;
2024-05-22T19:43:35.347;539601232315079376;373866;389193;297983;-1308;
2024-05-22T19:43:35.366;539601232333240637;373922;389208;298045;-1321;
2024-05-22T19:43:35.384;539601232351401898;373992;389276;298049;-1306;
2024-05-22T19:43:35.402;539601232369563159;374055;389319;298082;-1297;
2024-05-22T19:43:35.420;539601232387724420;374183;389412;298117;-1294;
2024-05-22T19:43:35.438;539601232405885681;374212;389429;298163;-1413;
2024-05-22T19:43:35.456;539601232424046942;374286;389453;298225;-1311;
2024-05-22T19:43:35.475;539601232442208203;374337;389507;298193;-1317;
2024-05-22T19:43:35.493;539601232460369464;374263;389431;298187;-1327;
2024-05-22T19:43:35.511;539601232478530725;374203;389401;298168;-1292;
2024-05-22T19:43:35.529;539601232496691986;374040;389257;298044;-1287;
2024-05-22T19:43:35.547;539601232514853247;373885;389084;297950;-1297;
2024-05-22T19:43:35.565;539601232533014508;373836;388980;297843;-1285;
2024-05-22T19:43:35.584;539601232551175769;373706;388859;297742;-1238;
2024-05-22T19:43:35.602;539601232569337030;373653;388775;297646;-1273;
2024-05-22T19:43:35.620;539601232587498291;373560;388706;297616;-1287;
2024-05-22T19:43:35.638;539601232605659552;373549;388640;297576;-1358;
2024-05-22T19:43:35.656;539601232623820813;373609;388663;297636;-1255;
2024-05-22T19:43:35.674;539601232641982074;373640;388677;297648;-1307;
2024-05-22T19:43:35.693;539601232660143335;373741;388710;297662;-1276;
2024-05-22T19:43:35.711;539601232678304596;373780;388820;297713;-1266;
2024-05-22T19:43:35.729;539601232696465857;373931;388914;297802;-1267;
2024-05-22T19:43:35.747;539601232714627118;373949;388975;297900;-1334;
2024-05-22T19:43:35.765;539601232732788379;374129;389027;297979;-1267;
2024-05-22T19:43:35.783;539601232750949640;374209;389071;297968;-1335;
2024-05-22T19:43:35.802;539601232769110901;374195;389215;298014;-1348;
2024-05-22T19:43:35.820;539601232787272162;374272;389203;298001;-1355;
2024-05-22T19:43:35.838;539601232805433423;374390;389277;298101;-1314;
2024-05-22T19:43:35.856;539601232823594684;374416;389320;298065;-1344;
2024-05-22T19:43:35.874;539601232841755945;374529;389388;298066;-1333;
2024-05-22T19:43:35.892;539601232859917206;374550;389454;298185;-1283;
2024-05-22T19:43:35.910;539601232878078467;374612;389451;298194;-1297;
2024-05-22T19:43:35.929;539601232896239551;374689;389478;298229;-1324;
2024-05-22T19:43:35.947;539601232914400631;374733;389541;298230;-1288;
2024-05-22T19:43:35.965;539601232932561711;374747;389545;298209;-1309;
2024-05-22T19:43:35.983;539601232950722791;374818;389631;298289;-1316;
2024-05-22T19:43:36.001;539601232968883871;374863;389632;298337;-1355;
2024-05-22T19:43:36.019;539601232987044951;374969;389662;298332;-1293;
2024-05-22T19:43:36.038;539601233005206031;374935;389656;298316;-1318;
2024-05-22T19:43:36.056;539601233023367111;374872;389617;298223;-1352;
2024-05-22T19:43:36.074;539601233041528191;374778;389542;298210;-1352;
2024-05-22T19:43:36.092;539601233059689271;374631;389390;298103;-1329;
2024-05-22T19:43:36.110;539601233077850351;374482;389261;298059;-1308;
2024-05-22T19:43:36.128;539601233096011431;374403;389060;297883;-1273;
2024-05-22T19:43:36.147;539601233114172511;374291;388922;297831;-1262;
2024-05-22T19:43:36.165;539601233132333591;374178;388845;297776;-1283;
2024-05-22T19:43:36.183;539601233150494671;374112;388732;297724;-1284;
2024-05-22T19:43:36.201;539601233168655751;374075;388734;297660;-1294;
2024-05-22T19:43:36.219;539601233186816831;374144;388736;297687;-1293;
2024-05-22T19:43:36.237;539601233204977911;374193;388804;297764;-1289;
2024-05-22T19:43:36.256;539601233223138991;374184;388765;297750;-1297;
2024-05-22T19:43:36.274;539601233241300071;374283;388817;297800;-1262;
2024-05-22T19:43:36.292;539601233259461151;374478;388969;297852;-1210;
2024-05-22T19:43:36.310;539601233277622231;374552;389000;297914;-1292;
2024-05-22T19:43:36.328;539601233295783311;374630;389102;298032;-1266;
2024-05-22T19:43:36.346;539601233313944391;374632;389163;298018;-1260;
2024-05-22T19:43:36.365;539601233332105471;374775;389188;298031;-1259;
2024-05-22T19:43:36.383;539601233350266551;374767;389272;298045;-1337;
2024-05-22T19:43:36.401;539601233368427631;374900;389295;298120;-1293;
2024-05-22T19:43:36.419;539601233386588711;374997;389452;298141;-1251;
2024-05-22T19:43:36.437;539601233404749791;375099;389512;298197;-1237;
2024-05-22T19:43:36.455;539601233422910871;375154;389510;298247;-1278;
2024-05-22T19:43:36.473;539601233441071951;375222;389582;298293;-1303;
2024-05-22T19:43:36.492;539601233459233031;375300;389657;298365;-1266;
2024-05-22T19:43:36.510;539601233477394111;375335;389694;298384;-1317;
2024-05-22T19:43:36.528;539601233495555191;375481;389775;298450;-1218;
2024-05-22T19:43:36.546;539601233513716271;375521;389829;298502;-1236;
2024-05-22T19:43:36.564;539601233531877351;375608;389850;298579;-1258;
2024-05-22T19:43:36.582;539601233550038431;375637;389908;298566;-1232;
2024-05-22T19:43:36.601;539601233568199511;375631;389854;298585;-1273;
2024-05-22T19:43:36.619;539601233586360591;375538;389763;298512;-1254;
2024-05-22T19:43:36.637;539601233604521671;375401;389674;298392;-1293;
2024-05-22T19:43:36.655;539601233622682751;375266;389474;298301;-1275;
2024-05-22T19:43:36.673;539601233640843831;375136;389326;298159;-1296;
2024-05-22T19:43:36.691;539601233659003602;374990;389193;298109;-1283;
2024-05-22T19:43:36.710;539601233677163337;374890;389098;298040;-1266;
2024-05-22T19:43:36.728;539601233695323072;374807;388956;297858;-1271;
2024-05-22T19:43:36.746;539601233713482807;374802;388895;297928;-1311;
2024-05-22T19:43:36.764;539601233731642542;374762;388929;297936;-1297;
2024-05-22T19:43:36.782;539601233749802277;374881;388937;297913;-1297;
2024-05-22T19:43:36.800;539601233767962012;374952;389034;297945;-1300;
2024-05-22T19:43:36.819;539601233786121747;375008;389114;298032;-1282;
2024-05-22T19:43:36.837;539601233804281482;375171;389140;298059;-1305;
2024-05-22T19:43:36.855;539601233822441217;375174;389244;298146;-1309;
2024-05-22T19:43:36.873;539601233840600952;375278;389278;298204;-1327;
2024-05-22T19:43:36.891;539601233858760687;375409;389351;298258;-1273;
2024-05-22T19:43:36.909;539601233876920422;375532;389486;298377;-1219;
2024-05-22T19:43:36.927;539601233895080157;375477;389452;298350;-1282;
2024-05-22T19:43:36.946;539601233913239892;375454;389444;298296;-1312;
2024-05-22T19:43:36.964;539601233931399627;375534;389536;298396;-1310;
2024-05-22T19:43:36.982;539601233949559362;375524;389559;298384;-1343;
2024-05-22T19:43:37.000;539601233967719097;375626;389527;298464;-1311;
2024-05-22T19:43:37.018;539601233985878832;375601;389536;298348;-1345;
2024-05-22T19:43:37.036;539601234004038567;375679;389646;298510;-1320;
2024-05-22T19:43:37.055;539601234022198302;375666;389559;298453;-1310;
2024-05-22T19:43:37.073;539601234040358037;375718;389620;298489;-1327;
2024-05-22T19:43:37.091;539601234058517772;375776;389642;298547;-1302;
2024-05-22T19:43:37.109;539601234076677507;375789;389666;298521;-1217;
2024-05-22T19:43:37.127;539601234094837242;375768;389676;298535;-1266;
2024-05-22T19:43:37.145;539601234112996977;375598;389534;298414;-1345;
2024-05-22T19:43:37.164;539601234131156712;375443;389360;298270;-1341;
2024-05-22T19:43:37.182;539601234149316447;375208;389119;298107;-1331;
2024-05-22T19:43:37.200;539601234167476182;375013;388830;297915;-1302;
2024-05-22T19:43:37.218;539601234185635917;374707;388559;297753;-1309;
2024-05-22T19:43:37.236;539601234203795652;374454;388299;297543;-1293;
2024-05-22T19:43:37.254;539601234221955387;374245;388005;297366;-1258;
2024-05-22T19:43:37.273;539601234240115122;374095;387808;297303;-1318;
2024-05-22T19:43:37.291;539601234258274857;373880;387628;297123;-1301;
2024-05-22T19:43:37.309;539601234276434592;373834;387592;297106;-1307;
2024-05-22T19:43:37.327;539601234294594327;373708;387484;297078;-1329;
2024-05-22T19:43:37.345;539601234312754062;373761;387484;297115;-1328;
2024-05-22T19:43:37.363;539601234330913797;373782;387526;297152;-1330;
2024-05-22T19:43:37.381;539601234349073532;373825;387555;297191;-1280;
2024-05-22T19:43:37.400;539601234367233267;373952;387623;297206;-1238;
2024-05-22T19:43:37.418;539601234385393002;373948;387671;297263;-1283;
2024-05-22T19:43:37.436;539601234403552737;374097;387680;297367;-1238;
2024-05-22T19:43:37.454;539601234421712116;374130;387763;297351;-1335;
2024-05-22T19:43:37.472;539601234439871470;374212;387866;297349;-1265;
2024-05-22T19:43:37.490;539601234458030824;374244;387850;297379;-1294;
2024-05-22T19:43:37.509;539601234476190178;374217;387922;297416;-1339;
2024-05-22T19:43:37.527;539601234494349532;374206;387936;297358;-1299;
2024-05-22T19:43:37.545;539601234512508886;374249;387960;297456;-1286;
2024-05-22T19:43:37.563;539601234530668240;374266;388035;297454;-1277;
2024-05-22T19:43:37.581;539601234548827594;374352;388015;297440;-1290;
2024-05-22T19:43:37.599;539601234566986948;374328;388007;297444;-1303;
2024-05-22T19:43:37.618;539601234585146302;374378;388002;297518;-1295;
2024-05-22T19:43:37.636;539601234603305656;374406;388061;297528;-1328;
2024-05-22T19:43:37.654;539601234621465010;374388;388090;297566;-1299;
2024-05-22T19:43:37.672;539601234639624364;374465;388122;297572;-1278;
2024-05-22T19:43:37.690;539601234657783718;374437;388060;297557;-1242;
2024-05-22T19:43:37.708;539601234675943072;374336;387984;297460;-1259;
2024-05-22T19:43:37.727;539601234694102426;374003;387785;297288;-1294;
2024-05-22T19:43:37.745;539601234712261780;373695;387447;297046;-1287;
2024-05-22T19:43:37.763;539601234730421134;373459;387144;296940;-1278;
2024-05-22T19:43:37.781;539601234748580488;373146;386814;296669;-1289;
2024-05-22T19:43:37.799;539601234766739842;372854;386544;296484;-1316;
2024-05-22T19:43:37.817;539601234784899196;372554;386381;296379;-1318;
2024-05-22T19:43:37.835;539601234803058550;372426;386268;296282;-1275;
2024-05-22T19:43:37.854;539601234821217904;372324;386119;296207;-1258;
2024-05-22T19:43:37.872;539601234839377258;372263;386068;296130;-1343;
2024-05-22T19:43:37.890;539601234857536612;372242;386069;296100;-1353;
2024-05-22T19:43:37.908;539601234875695966;372269;386054;296090;-1297;
2024-05-22T19:43:37.926;539601234893855320;372321;386161;296246;-1269;
2024-05-22T19:43:37.944;539601234912014674;372450;386235;296366;-1314;
2024-05-22T19:43:37.963;539601234930174028;372518;386315;296353;-1321;
2024-05-22T19:43:37.981;539601234948333382;372591;386337;296438;-1271;
2024-05-22T19:43:37.999;539601234966492736;372630;386417;296463;-1273;
2024-05-22T19:43:38.017;539601234984652090;372614;386452;296427;-1316;
2024-05-22T19:43:38.035;539601235002811444;372795;386626;296555;-1283;
2024-05-22T19:43:38.053;539601235020970798;372768;386544;296543;-1305;
2024-05-22T19:43:38.072;539601235039130152;372801;386589;296641;-1294;
2024-05-22T19:43:38.090;539601235057289506;372841;386621;296620;-1324;
2024-05-22T19:43:38.108;539601235075448860;372870;386685;296610;-1347;
2024-05-22T19:43:38.126;539601235093608214;372889;386659;296672;-1361;
2024-05-22T19:43:38.144;539601235111767568;372890;386673;296665;-1373;
2024-05-22T19:43:38.162;539601235129926922;372937;386802;296692;-1257;
2024-05-22T19:43:38.181;539601235148086276;372922;386695;296678;-1322;
2024-05-22T19:43:38.199;539601235166245630;372940;386794;296701;-1330;
2024-05-22T19:43:38.217;539601235184404984;372988;386784;296667;-1331;
2024-05-22T19:43:38.235;539601235202564338;372967;386858;296741;-1340;
2024-05-22T19:43:38.253;539601235220723786;373009;386773;296708;-1288;
2024-05-22T19:43:38.271;539601235238883216;372800;386690;296658;-1293;
2024-05-22T19:43:38.289;539601235257042646;372613;386507;296487;-1336;
2024-05-22T19:43:38.308;539601235275202076;372240;386137;296247;-1338;
2024-05-22T19:43:38.326;539601235293361506;371913;385940;296109;-1307;
2024-05-22T19:43:38.344;539601235311520936;371505;385520;295786;-1284;
2024-05-22T19:43:38.362;539601235329680366;371250;385247;295636;-1314;
2024-05-22T19:43:38.380;539601235347839796;370958;385057;295501;-1278;
2024-05-22T19:43:38.398;539601235365999226;370802;384908;295421;-1277;
2024-05-22T19:43:38.417;539601235384158656;370676;384837;295382;-1259;
2024-05-22T19:43:38.435;539601235402318086;370686;384804;295377;-1228;
2024-05-22T19:43:38.453;539601235420477516;370634;384748;295341;-1296;
2024-05-22T19:43:38.471;539601235438636946;370749;384855;295414;-1238;
2024-05-22T19:43:38.489;539601235456796376;370820;384832;295415;-1273;
2024-05-22T19:43:38.507;539601235474955806;370927;384956;295499;-1306;
2024-05-22T19:43:38.526;539601235493115236;370960;384992;295562;-1324;
2024-05-22T19:43:38.544;539601235511274666;370982;385078;295648;-1339;
2024-05-22T19:43:38.562;539601235529434096;371079;385178;295645;-1280;
2024-05-22T19:43:38.580;539601235547593526;371145;385157;295642;-1279;
2024-05-22T19:43:38.598;539601235565752956;371150;385245;295689;-1288;
2024-05-22T19:43:38.616;539601235583912386;371174;385222;295662;-1330;
2024-05-22T19:43:38.634;539601235602071816;371180;385258;295696;-1324;
2024-05-22T19:43:38.653;539601235620231246;371149;385299;295668;-1292;
2024-05-22T19:43:38.671;539601235638390676;371166;385387;295753;-1228;
2024-05-22T19:43:38.689;539601235656550106;371224;385306;295732;-1266;
2024-05-22T19:43:38.707;539601235674709536;371214;385373;295796;-1253;
2024-05-22T19:43:38.725;539601235692868966;371237;385427;295810;-1321;
2024-05-22T19:43:38.743;539601235711028396;371282;385385;295776;-1338;
2024-05-22T19:43:38.762;539601235729187826;371360;385468;295852;-1278;
2024-05-22T19:43:38.780;539601235747347256;371356;385493;295878;-1297;
2024-05-22T19:43:38.798;539601235765506686;371393;385508;295893;-1301;
2024-05-22T19:43:38.816;539601235783666116;371293;385537;295878;-1275;
2024-05-22T19:43:38.834;539601235801825546;371144;385373;295737;-1286;
2024-05-22T19:43:38.852;539601235819984976;370897;385211;295620;-1277;
2024-05-22T19:43:38.871;539601235838144406;370634;385005;295474;-1285;
2024-05-22T19:43:38.889;539601235856303836;370307;384728;295277;-1300;
2024-05-22T19:43:38.907;539601235874463266;369977;384471;295071;-1244;
2024-05-22T19:43:38.925;539601235892622696;369751;384217;294905;-1289;
2024-05-22T19:43:38.943;539601235910782126;369600;383994;294749;-1271;
2024-05-22T19:43:38.961;539601235928941556;369437;383913;294682;-1300;
2024-05-22T19:43:38.980;539601235947100986;369279;383775;294581;-1275;
2024-05-22T19:43:38.998;539601235965260416;369329;383757;294593;-1257;
2024-05-22T19:43:39.016;539601235983419846;369384;383832;294690;-1308;
2024-05-22T19:43:39.034;539601236001579276;369441;383901;294734;-1314;
2024-05-22T19:43:39.052;539601236019738706;369531;383940;294782;-1302;
2024-05-22T19:43:39.070;539601236037897800;369631;384096;294850;-1313;
2024-05-22T19:43:39.088;539601236056056882;369732;384190;294934;-1294;
2024-05-22T19:43:39.107;539601236074215964;369878;384259;295020;-1211;
2024-05-22T19:43:39.125;539601236092375046;369939;384354;295102;-1242;
2024-05-22T19:43:39.143;539601236110534128;369894;384457;295121;-1329;
2024-05-22T19:43:39.161;539601236128693210;370002;384586;295219;-1317;
2024-05-22T19:43:39.179;539601236146852292;370073;384559;295222;-1291;
2024-05-22T19:43:39.197;539601236165011374;370095;384606;295289;-1272;
2024-05-22T19:43:39.216;539601236183170456;370195;384755;295347;-1276;
2024-05-22T19:43:39.234;539601236201329538;370273;384780;295408;-1288;
2024-05-22T19:43:39.252;539601236219488620;370365;384853;295460;-1262;
2024-05-22T19:43:39.270;539601236237647702;370373;384883;295485;-1261;
2024-05-22T19:43:39.288;539601236255806784;370410;385020;295494;-1296;
2024-05-22T19:43:39.306;539601236273965866;370510;385086;295519;-1267;
2024-05-22T19:43:39.325;539601236292124948;370606;385154;295607;-1255;
2024-05-22T19:43:39.343;539601236310284030;370635;385237;295654;-1290;
2024-05-22T19:43:39.361;539601236328443112;370628;385300;295721;-1246;
2024-05-22T19:43:39.379;539601236346602194;370582;385224;295646;-1225;
2024-05-22T19:43:39.397;539601236364761276;370474;385118;295565;-1239;
2024-05-22T19:43:39.415;539601236382920358;370252;384962;295400;-1280;
2024-05-22T19:43:39.433;539601236401079440;369962;384711;295317;-1249;
2024-05-22T19:43:39.452;539601236419238522;369700;384530;295177;-1284;
2024-05-22T19:43:39.470;539601236437397604;369379;384265;294908;-1279;
2024-05-22T19:43:39.488;539601236455556686;369121;384048;294789;-1329;
2024-05-22T19:43:39.506;539601236473715768;368974;383925;294621;-1278;
2024-05-22T19:43:39.524;539601236491874850;368842;383885;294550;-1289;
2024-05-22T19:43:39.542;539601236510033932;368782;383829;294542;-1285;
2024-05-22T19:43:39.561;539601236528193014;368784;383882;294589;-1307;
2024-05-22T19:43:39.579;539601236546352096;368849;383982;294597;-1348;
2024-05-22T19:43:39.597;539601236564511178;368989;384101;294773;-1316;
2024-05-22T19:43:39.615;539601236582670260;369160;384139;294803;-1268;
2024-05-22T19:43:39.633;539601236600829342;369251;384242;294901;-1354;
2024-05-22T19:43:39.651;539601236618988424;369356;384370;294937;-1321;
2024-05-22T19:43:39.670;539601236637147506;369369;384443;295006;-1313;
2024-05-22T19:43:39.688;539601236655306588;369466;384532;295085;-1279;
2024-05-22T19:43:39.706;539601236673465670;369545;384578;295114;-1271;
2024-05-22T19:43:39.724;539601236691624752;369601;384714;295131;-1300;
2024-05-22T19:43:39.742;539601236709783834;369646;384786;295193;-1325;
2024-05-22T19:43:39.760;539601236727942916;369661;384802;295246;-1350;
2024-05-22T19:43:39.779;539601236746101998;369706;384778;295246;-1319;
2024-05-22T19:43:39.797;539601236764261080;369751;384914;295304;-1304;
2024-05-22T19:43:39.815;539601236782420162;369783;384901;295347;-1234;
2024-05-22T19:43:39.833;539601236800579825;369818;384956;295300;-1286;
2024-05-22T19:43:39.851;539601236818739486;369825;384989;295332;-1262;
2024-05-22T19:43:39.869;539601236836899147;369887;385074;295399;-1229;
2024-05-22T19:43:39.887;539601236855058808;369961;385076;295495;-1239;
2024-05-22T19:43:39.906;539601236873218469;369906;385122;295479;-1327;
2024-05-22T19:43:39.924;539601236891378130;369989;385127;295560;-1285;
2024-05-22T19:43:39.942;539601236909537791;369887;385098;295444;-1292;
2024-05-22T19:43:39.960;539601236927697452;369809;385022;295438;-1262;
2024-05-22T19:43:39.978;539601236945857113;369484;384834;295218;-1311;
2024-05-22T19:43:39.996;539601236964016774;369156;384584;295021;-1328;
2024-05-22T19:43:40.015;539601236982176435;368828;384298;294842;-1321;
2024-05-22T19:43:40.033;539601237000336096;368494;384074;294631;-1287;
2024-05-22T19:43:40.051;539601237018495757;368260;383855;294471;-1318;
2024-05-22T19:43:40.069;539601237036655418;368030;383708;294270;-1295;
2024-05-22T19:43:40.087;539601237054815079;367947;383665;294234;-1237;
2024-05-22T19:43:40.105;539601237072974740;367803;383540;294164;-1279;
2024-05-22T19:43:40.124;539601237091134401;367839;383545;294240;-1339;
2024-05-22T19:43:40.142;539601237109294062;367901;383629;294233;-1312;
2024-05-22T19:43:40.160;539601237127453723;368030;383713;294351;-1268;
2024-05-22T19:43:40.178;539601237145613384;368075;383828;294321;-1285;
2024-05-22T19:43:40.196;539601237163773045;368286;383993;294451;-1322;
2024-05-22T19:43:40.214;539601237181932706;368377;384096;294466;-1285;
2024-05-22T19:43:40.233;539601237200092367;368484;384190;294589;-1296;
2024-05-22T19:43:40.251;539601237218252028;368559;384234;294683;-1296;
2024-05-22T19:43:40.269;539601237236411689;368658;384322;294664;-1273;
2024-05-22T19:43:40.287;539601237254571350;368748;384486;294713;-1263;
2024-05-22T19:43:40.305;539601237272731011;368864;384557;294801;-1306;
2024-05-22T19:43:40.323;539601237290890672;368953;384666;294876;-1282;
2024-05-22T19:43:40.341;539601237309050333;368955;384693;294919;-1291;
2024-05-22T19:43:40.360;539601237327209994;369041;384744;294920;-1292;
2024-05-22T19:43:40.378;539601237345369655;369168;384910;294970;-1257;
2024-05-22T19:43:40.396;539601237363529316;369213;384994;295065;-1273;
2024-05-22T19:43:40.414;539601237381688977;369291;385098;295066;-1306;
2024-05-22T19:43:40.432;539601237399848638;369389;385141;295182;-1286;
2024-05-22T19:43:40.450;539601237418008299;369491;385272;295221;-1231;
2024-05-22T19:43:40.469;539601237436167960;369545;385264;295298;-1276;
2024-05-22T19:43:40.487;539601237454327621;369650;385378;295369;-1255;
2024-05-22T19:43:40.505;539601237472487282;369730;385479;295394;-1299;
2024-05-22T19:43:40.523;539601237490646943;369710;385493;295461;-1297;
2024-05-22T19:43:40.541;539601237508806604;369590;385420;295294;-1354;
2024-05-22T19:43:40.559;539601237526966265;369384;385303;295205;-1362;
2024-05-22T19:43:40.578;539601237545126012;369198;385165;295066;-1287;
2024-05-22T19:43:40.596;539601237563285748;368914;384918;294868;-1308;
2024-05-22T19:43:40.614;539601237581445484;368646;384739;294696;-1312;
2024-05-22T19:43:40.632;539601237599605220;368422;384581;294567;-1329;
2024-05-22T19:43:40.650;539601237617764956;368292;384457;294500;-1321;
2024-05-22T19:43:40.668;539601237635924692;368246;384487;294473;-1313;
2024-05-22T19:43:40.686;539601237654084428;368236;384459;294454;-1297;
2024-05-22T19:43:40.705;539601237672244164;368321;384518;294471;-1280;
2024-05-22T19:43:40.723;539601237690403900;368334;384546;294509;-1272;
2024-05-22T19:43:40.741;539601237708563636;368447;384652;294595;-1330;
2024-05-22T19:43:40.759;539601237726723372;368535;384771;294688;-1296;
2024-05-22T19:43:40.777;539601237744883108;368751;384827;294799;-1316;
2024-05-22T19:43:40.795;539601237763042844;368860;384960;294823;-1260;
2024-05-22T19:43:40.814;539601237781202580;368981;385092;294919;-1268;
2024-05-22T19:43:40.832;539601237799362316;369086;385168;294971;-1331;
2024-05-22T19:43:40.850;539601237817522052;369184;385283;295018;-1304;
2024-05-22T19:43:40.868;539601237835681788;369209;385292;294994;-1388;
2024-05-22T19:43:40.886;539601237853841524;369346;385396;295141;-1376;
2024-05-22T19:43:40.904;539601237872001260;369417;385511;295175;-1304;
2024-05-22T19:43:40.923;539601237890160996;369476;385556;295178;-1297;
2024-05-22T19:43:40.941;539601237908320732;369584;385583;295198;-1257;
2024-05-22T19:43:40.959;539601237926480468;369602;385685;295251;-1302;
2024-05-22T19:43:40.977;539601237944640204;369662;385762;295273;-1403;
2024-05-22T19:43:40.995;539601237962799940;369742;385811;295364;-1343;
2024-05-22T19:43:41.013;539601237980959676;369838;385828;295381;-1317;
2024-05-22T19:43:41.032;539601237999119412;369857;385905;295399;-1338;
2024-05-22T19:43:41.050;539601238017279148;369966;385962;295431;-1330;
2024-05-22T19:43:41.068;539601238035438884;369988;385977;295450;-1344;
2024-05-22T19:43:41.086;539601238053598620;370087;386090;295532;-1327;
2024-05-22T19:43:41.104;539601238071758356;370138;386117;295617;-1272;
2024-05-22T19:43:41.122;539601238089918092;370189;386177;295586;-1311;
2024-05-22T19:43:41.140;539601238108077828;370123;386076;295483;-1309;
2024-05-22T19:43:41.159;539601238126237564;369951;385977;295398;-1312;
2024-05-22T19:43:41.177;539601238144397300;369708;385819;295239;-1322;
2024-05-22T19:43:41.195;539601238162557036;369526;385623;295081;-1303;
2024-05-22T19:43:41.213;539601238180716772;369306;385428;294998;-1311;
2024-05-22T19:43:41.231;539601238198876508;369130;385260;294835;-1270;
2024-05-22T19:43:41.249;539601238217036244;368986;385147;294690;-1320;
2024-05-22T19:43:41.268;539601238235195980;368835;385021;294601;-1348;
2024-05-22T19:43:41.286;539601238253355716;368841;385092;294620;-1324;
2024-05-22T19:43:41.304;539601238271515452;368803;385108;294570;-1275;
2024-05-22T19:43:41.322;539601238289675188;368916;385141;294648;-1253;
2024-05-22T19:43:41.340;539601238307834924;368980;385208;294695;-1260;
2024-05-22T19:43:41.358;539601238325993391;369137;385281;294752;-1323;
2024-05-22T19:43:41.377;539601238344151818;369190;385364;294810;-1300;
2024-05-22T19:43:41.395;539601238362310245;369236;385433;294854;-1305;
2024-05-22T19:43:41.413;539601238380468672;369424;385534;294914;-1288;
2024-05-22T19:43:41.431;539601238398627099;369460;385581;295002;-1248;
2024-05-22T19:43:41.449;539601238416785526;369514;385591;294978;-1294;
2024-05-22T19:43:41.467;539601238434943953;369516;385702;295041;-1316;
2024-05-22T19:43:41.486;539601238453102380;369615;385777;295049;-1297;
2024-05-22T19:43:41.504;539601238471260807;369751;385878;295181;-1284;
2024-05-22T19:43:41.522;539601238489419234;369803;385899;295162;-1275;
2024-05-22T19:43:41.540;539601238507577661;369908;385948;295191;-1267;
2024-05-22T19:43:41.558;539601238525736088;369950;386043;295224;-1317;
2024-05-22T19:43:41.576;539601238543894515;369987;386105;295275;-1295;
2024-05-22T19:43:41.594;539601238562052942;370071;386141;295242;-1275;
2024-05-22T19:43:41.613;539601238580211369;370134;386194;295284;-1345;
2024-05-22T19:43:41.631;539601238598369796;370244;386298;295344;-1301;
2024-05-22T19:43:41.649;539601238616528223;370290;386284;295357;-1287;
2024-05-22T19:43:41.667;539601238634686650;370377;386344;295420;-1341;
2024-05-22T19:43:41.685;539601238652845077;370507;386493;295494;-1237;
2024-05-22T19:43:41.703;539601238671003504;370560;386527;295567;-1295;
2024-05-22T19:43:41.722;539601238689161931;370585;386535;295540;-1328;
2024-05-22T19:43:41.740;539601238707320358;370529;386455;295477;-1265;
2024-05-22T19:43:41.758;539601238725478785;370479;386432;295433;-1300;
2024-05-22T19:43:41.776;539601238743637212;370281;386253;295323;-1314;
2024-05-22T19:43:41.794;539601238761795639;370155;386227;295178;-1278;
2024-05-22T19:43:41.812;539601238779954066;370028;386059;295102;-1291;
2024-05-22T19:43:41.831;539601238798112493;370000;386075;295063;-1319;
2024-05-22T19:43:41.849;539601238816270920;369967;386044;295030;-1324;
2024-05-22T19:43:41.867;539601238834429347;369974;386048;295048;-1308;
2024-05-22T19:43:41.885;539601238852587774;370038;386141;295124;-1326;
2024-05-22T19:43:41.903;539601238870746201;370199;386227;295213;-1237;
2024-05-22T19:43:41.921;539601238888904628;370298;386263;295221;-1301;
2024-05-22T19:43:41.939;539601238907063055;370462;386489;295358;-1308;
2024-05-22T19:43:41.958;539601238925221482;370621;386583;295459;-1297;
2024-05-22T19:43:41.976;539601238943379909;370768;386780;295567;-1358;
2024-05-22T19:43:41.994;539601238961538336;370939;386867;295680;-1306;
2024-05-22T19:43:42.012;539601238979696763;371107;386997;295720;-1260;
2024-05-22T19:43:42.030;539601238997855190;371217;387108;295818;-1326;
2024-05-22T19:43:42.048;539601239016013617;371365;387329;295924;-1291;
2024-05-22T19:43:42.067;539601239034172044;371477;387393;295976;-1325;
2024-05-22T19:43:42.085;539601239052330471;371588;387464;296077;-1301;
2024-05-22T19:43:42.103;539601239070488898;371710;387563;296162;-1296;
2024-05-22T19:43:42.121;539601239088649009;371885;387681;296206;-1289;
2024-05-22T19:43:42.139;539601239106809108;371945;387802;296210;-1285;
2024-05-22T19:43:42.157;539601239124969207;371990;387888;296279;-1347;
2024-05-22T19:43:42.176;539601239143129306;372045;387941;296319;-1363;
2024-05-22T19:43:42.194;539601239161289405;372227;387986;296380;-1289;
2024-05-22T19:43:42.212;539601239179449504;372223;388093;296369;-1347;
2024-05-22T19:43:42.230;539601239197609603;372395;388126;296481;-1296;
2024-05-22T19:43:42.248;539601239215769702;372436;388318;296534;-1345;
2024-05-22T19:43:42.266;539601239233929801;372606;388414;296597;-1324;
2024-05-22T19:43:42.285;539601239252089900;372669;388422;296628;-1311;
2024-05-22T19:43:42.303;539601239270249999;372705;388465;296699;-1270;
2024-05-22T19:43:42.321;539601239288410098;372687;388438;296635;-1290;
2024-05-22T19:43:42.339;539601239306570197;372574;388326;296556;-1263;
2024-05-22T19:43:42.357;539601239324730296;372450;388185;296493;-1268;
2024-05-22T19:43:42.375;539601239342890395;372262;387986;296333;-1342;
2024-05-22T19:43:42.393;539601239361050494;372067;387879;296195;-1295;
2024-05-22T19:43:42.412;539601239379210593;371887;387765;296054;-1304;
2024-05-22T19:43:42.430;539601239397370692;371818;387706;296028;-1273;
2024-05-22T19:43:42.448;539601239415530791;371764;387663;295976;-1283;
2024-05-22T19:43:42.466;539601239433690890;371766;387600;295950;-1319;
2024-05-22T19:43:42.484;539601239451850989;371798;387675;295925;-1352;
2024-05-22T19:43:42.502;539601239470011088;371870;387703;296006;-1285;
2024-05-22T19:43:42.521;539601239488171187;372006;387771;296025;-1313;
2024-05-22T19:43:42.539;539601239506331286;372076;387900;296136;-1347;
2024-05-22T19:43:42.557;539601239524491385;372208;387988;296177;-1341;
2024-05-22T19:43:42.575;539601239542651484;372318;388090;296268;-1350;
2024-05-22T19:43:42.593;539601239560811583;372461;388212;296405;-1311;
2024-05-22T19:43:42.611;539601239578971682;372532;388296;296485;-1302;
2024-05-22T19:43:42.630;539601239597131781;372658;388360;296513;-1302;
2024-05-22T19:43:42.648;539601239615291880;372774;388485;296601;-1280;
2024-05-22T19:43:42.666;539601239633451979;372881;388589;296607;-1294;
2024-05-22T19:43:42.684;539601239651612078;373035;388639;296690;-1295;
2024-05-22T19:43:42.702;539601239669772177;373059;388717;296705;-1328;
2024-05-22T19:43:42.720;539601239687932276;373161;388855;296791;-1304;
2024-05-22T19:43:42.739;539601239706092375;373303;388932;296825;-1304;
2024-05-22T19:43:42.757;539601239724252474;373398;389012;296930;-1317;
2024-05-22T19:43:42.775;539601239742412573;373490;389102;296948;-1274;
2024-05-22T19:43:42.793;539601239760572672;373574;389149;297031;-1316;
2024-05-22T19:43:42.811;539601239778732771;373743;389192;297143;-1297;
2024-05-22T19:43:42.829;539601239796892870;373767;389310;297199;-1293;
2024-05-22T19:43:42.847;539601239815052969;373908;389422;297274;-1289;
2024-05-22T19:43:42.866;539601239833213068;373952;389498;297267;-1319;
2024-05-22T19:43:42.884;539601239851371588;374119;389533;297303;-1329;
2024-05-22T19:43:42.902;539601239869530088;374005;389554;297275;-1377;
2024-05-22T19:43:42.920;539601239887688588;373941;389488;297243;-1337;
2024-05-22T19:43:42.938;539601239905847088;373779;389300;297099;-1351;
2024-05-22T19:43:42.956;539601239924005588;373595;389199;296979;-1346;
2024-05-22T19:43:42.975;539601239942164088;373464;389093;296876;-1291;
2024-05-22T19:43:42.993;539601239960322588;373356;388822;296790;-1312;
2024-05-22T19:43:43.011;539601239978481088;373213;388830;296674;-1362;
2024-05-22T19:43:43.029;539601239996639588;373135;388806;296663;-1324;
2024-05-22T19:43:43.047;539601240014798088;373113;388755;296594;-1290;
2024-05-22T19:43:43.065;539601240032956588;373113;388787;296597;-1346;
2024-05-22T19:43:43.084;539601240051115088;373228;388817;296615;-1325;
2024-05-22T19:43:43.102;539601240069273588;373356;388927;296721;-1319;
2024-05-22T19:43:43.120;539601240087432088;373342;388980;296803;-1361;
2024-05-22T19:43:43.138;539601240105590588;373482;389053;296777;-1318;
2024-05-22T19:43:43.156;539601240123749088;373579;389100;296897;-1302;
2024-05-22T19:43:43.174;539601240141907588;373757;389169;296950;-1244;
2024-05-22T19:43:43.192;539601240160066088;373848;389290;297068;-1243;
2024-05-22T19:43:43.211;539601240178224588;373874;389340;297061;-1260;
2024-05-22T19:43:43.229;539601240196383088;373956;389427;297073;-1271;
2024-05-22T19:43:43.247;539601240214541588;374067;389538;297126;-1293;
2024-05-22T19:43:43.265;539601240232700088;374172;389511;297192;-1309;
2024-05-22T19:43:43.283;539601240250858588;374202;389624;297200;-1319;
2024-05-22T19:43:43.301;539601240269017088;374210;389683;297297;-1293;
2024-05-22T19:43:43.320;539601240287175588;374250;389718;297343;-1342;
2024-05-22T19:43:43.338;539601240305334088;374285;389719;297343;-1378;
2024-05-22T19:43:43.356;539601240323492588;374389;389780;297387;-1342;
2024-05-22T19:43:43.374;539601240341651088;374465;389822;297422;-1346;
2024-05-22T19:43:43.392;539601240359809588;374500;389903;297477;-1352;
2024-05-22T19:43:43.410;539601240377968088;374604;389944;297501;-1324;
2024-05-22T19:43:43.429;539601240396126588;374700;389940;297507;-1328;
2024-05-22T19:43:43.447;539601240414285088;374750;390052;297570;-1304;
2024-05-22T19:43:43.465;539601240432443588;374788;390050;297570;-1288;
2024-05-22T19:43:43.483;539601240450602088;374700;390000;297528;-1308;
2024-05-22T19:43:43.501;539601240468760588;374639;389972;297469;-1323;
2024-05-22T19:43:43.519;539601240486919088;374522;389836;297379;-1307;
2024-05-22T19:43:43.537;539601240505077588;374353;389584;297304;-1319;
2024-05-22T19:43:43.556;539601240523236088;374141;389460;297097;-1346;
2024-05-22T19:43:43.574;539601240541394588;373935;389258;296932;-1325;
2024-05-22T19:43:43.592;539601240559553088;373761;389054;296755;-1336;
2024-05-22T19:43:43.610;539601240577711588;373632;388958;296661;-1313;
2024-05-22T19:43:43.628;539601240595870088;373521;388856;296568;-1389;
2024-05-22T19:43:43.646;539601240614030203;373521;388786;296610;-1269;
2024-05-22T19:43:43.665;539601240632190302;373476;388805;296625;-1338;
2024-05-22T19:43:43.683;539601240650350401;373432;388738;296547;-1364;
2024-05-22T19:43:43.701;539601240668510500;373581;388798;296603;-1277;
2024-05-22T19:43:43.719;539601240686670599;373551;388786;296619;-1341;
2024-05-22T19:43:43.737;539601240704830698;373617;388830;296650;-1333;
2024-05-22T19:43:43.755;539601240722990797;373721;388898;296669;-1344;
2024-05-22T19:43:43.774;539601240741150896;373733;388929;296746;-1321;
2024-05-22T19:43:43.792;539601240759310995;373812;388996;296737;-1304;
2024-05-22T19:43:43.810;539601240777471094;373807;388984;296735;-1328;
2024-05-22T19:43:43.828;539601240795631193;373811;388967;296676;-1283;
2024-05-22T19:43:43.846;539601240813791292;373877;388948;296662;-1289;
2024-05-22T19:43:43.864;539601240831951391;373798;388923;296730;-1350;
2024-05-22T19:43:43.883;539601240850111490;373828;388919;296728;-1325;
2024-05-22T19:43:43.901;539601240868271589;373888;388983;296721;-1335;
2024-05-22T19:43:43.919;539601240886431688;373883;389022;296702;-1338;
2024-05-22T19:43:43.937;539601240904591787;373931;388978;296690;-1291;
2024-05-22T19:43:43.955;539601240922751886;373905;388971;296706;-1335;
2024-05-22T19:43:43.973;539601240940911985;374003;388997;296733;-1342;
2024-05-22T19:43:43.991;539601240959072084;373992;389030;296741;-1337;
2024-05-22T19:43:44.010;539601240977232183;373976;388988;296737;-1335;
2024-05-22T19:43:44.028;539601240995392282;374107;389114;296834;-1321;
2024-05-22T19:43:44.046;539601241013552381;374102;389098;296822;-1292;
2024-05-22T19:43:44.064;539601241031712480;374091;389084;296796;-1306;
2024-05-22T19:43:44.082;539601241049872579;374063;389001;296793;-1293;
2024-05-22T19:43:44.100;539601241068032678;373891;388868;296689;-1340;
2024-05-22T19:43:44.119;539601241086192777;373696;388667;296521;-1284;
2024-05-22T19:43:44.137;539601241104352876;373558;388464;296416;-1307;
2024-05-22T19:43:44.155;539601241122512975;373374;388295;296236;-1277;
2024-05-22T19:43:44.173;539601241140673074;373188;388125;296124;-1292;
2024-05-22T19:43:44.191;539601241158833173;373140;388058;296087;-1241;
2024-05-22T19:43:44.209;539601241176993272;373061;387926;295989;-1311;
2024-05-22T19:43:44.228;539601241195153371;373027;387967;296029;-1271;
2024-05-22T19:43:44.246;539601241213313470;373048;387982;295954;-1328;
2024-05-22T19:43:44.264;539601241231473569;373051;387962;295942;-1331;
2024-05-22T19:43:44.282;539601241249633668;373143;388071;296075;-1304;
2024-05-22T19:43:44.300;539601241267793767;373251;388116;296145;-1278;
2024-05-22T19:43:44.318;539601241285953866;373298;388163;296133;-1319;
2024-05-22T19:43:44.337;539601241304113965;373410;388250;296225;-1373;
2024-05-22T19:43:44.355;539601241322274064;373564;388360;296277;-1319;
2024-05-22T19:43:44.373;539601241340434163;373637;388501;296334;-1303;
2024-05-22T19:43:44.391;539601241358594262;373782;388538;296403;-1275;
2024-05-22T19:43:44.409;539601241376754849;373842;388634;296465;-1291;
2024-05-22T19:43:44.427;539601241394915400;373901;388639;296472;-1289;
2024-05-22T19:43:44.445;539601241413075951;374002;388742;296548;-1292;
2024-05-22T19:43:44.464;539601241431236502;374096;388872;296651;-1280;
2024-05-22T19:43:44.482;539601241449397053;374149;388856;296653;-1280;
2024-05-22T19:43:44.500;539601241467557604;374173;388963;296705;-1307;
2024-05-22T19:43:44.518;539601241485718155;374292;389080;296797;-1261;
2024-05-22T19:43:44.536;539601241503878706;374338;389082;296807;-1320;
2024-05-22T19:43:44.554;539601241522039257;374466;389208;296898;-1302;
2024-05-22T19:43:44.573;539601241540199808;374519;389256;296917;-1310;
2024-05-22T19:43:44.591;539601241558360359;374575;389271;296974;-1339;
2024-05-22T19:43:44.609;539601241576520910;374712;389330;297030;-1294;
2024-05-22T19:43:44.627;539601241594681461;374777;389421;297067;-1271;
2024-05-22T19:43:44.645;539601241612842012;374780;389402;297009;-1309;
2024-05-22T19:43:44.663;539601241631002563;374681;389369;296907;-1307;
2024-05-22T19:43:44.682;539601241649163114;374630;389252;296924;-1267;
2024-05-22T19:43:44.700;539601241667323665;374428;389034;296864;-1284;
2024-05-22T19:43:44.718;539601241685484216;374157;388900;296618;-1316;
2024-05-22T19:43:44.736;539601241703644767;373953;388672;296480;-1326;
2024-05-22T19:43:44.754;539601241721805318;373774;388484;296331;-1321;
2024-05-22T19:43:44.772;539601241739965869;373690;388338;296234;-1319;
2024-05-22T19:43:44.791;539601241758126420;373610;388150;296159;-1276;
2024-05-22T19:43:44.809;539601241776286971;373525;388129;296078;-1297;
2024-05-22T19:43:44.827;539601241794447522;373441;388097;296037;-1284;
2024-05-22T19:43:44.845;539601241812608073;373500;388137;296082;-1338;
2024-05-22T19:43:44.863;539601241830768624;373557;388105;296136;-1330;
2024-05-22T19:43:44.881;539601241848929175;373656;388209;296198;-1308;
2024-05-22T19:43:44.900;539601241867089726;373744;388281;296240;-1310;
2024-05-22T19:43:44.918;539601241885250277;373745;388293;296249;-1357;
2024-05-22T19:43:44.936;539601241903410828;373822;388377;296293;-1365;
2024-05-22T19:43:44.954;539601241921571379;373928;388470;296349;-1321;
2024-05-22T19:43:44.972;539601241939731930;373979;388462;296414;-1340;
2024-05-22T19:43:44.990;539601241957892481;374006;388526;296435;-1340;
2024-05-22T19:43:45.008;539601241976053032;374069;388578;296474;-1274;
2024-05-22T19:43:45.027;539601241994213583;374168;388636;296492;-1305;
2024-05-22T19:43:45.045;539601242012374134;374131;388637;296467;-1279;
2024-05-22T19:43:45.063;539601242030534685;374172;388635;296502;-1351;
2024-05-22T19:43:45.081;539601242048695236;374232;388712;296558;-1331;
2024-05-22T19:43:45.099;539601242066855787;374305;388739;296546;-1291;
2024-05-22T19:43:45.117;539601242085016338;374295;388720;296575;-1312;
2024-05-22T19:43:45.136;539601242103176889;374357;388779;296605;-1283;
2024-05-22T19:43:45.154;539601242121337440;374354;388737;296619;-1322;
2024-05-22T19:43:45.172;539601242139497991;374426;388811;296668;-1321;
2024-05-22T19:43:45.190;539601242157657987;374506;388823;296712;-1296;
2024-05-22T19:43:45.208;539601242175817977;374456;388832;296658;-1341;
2024-05-22T19:43:45.226;539601242193977967;374478;388847;296620;-1324;
2024-05-22T19:43:45.245;539601242212137957;374285;388749;296454;-1329;
2024-05-22T19:43:45.263;539601242230297947;374191;388528;296406;-1280;
2024-05-22T19:43:45.281;539601242248457937;373858;388280;296234;-1304;
2024-05-22T19:43:45.299;539601242266617927;373648;388002;296039;-1311;
2024-05-22T19:43:45.317;539601242284777917;373347;387752;295808;-1286;
2024-05-22T19:43:45.335;539601242302937907;373099;387509;295637;-1318;
2024-05-22T19:43:45.354;539601242321097897;372876;387335;295483;-1330;
2024-05-22T19:43:45.372;539601242339257887;372757;387204;295378;-1283;
2024-05-22T19:43:45.390;539601242357417877;372683;387134;295359;-1313;
2024-05-22T19:43:45.408;539601242375577867;372723;387143;295377;-1337;
2024-05-22T19:43:45.426;539601242393737857;372716;387062;295344;-1273;
2024-05-22T19:43:45.444;539601242411897847;372710;387161;295318;-1313;
2024-05-22T19:43:45.462;539601242430057837;372827;387200;295406;-1313;
2024-05-22T19:43:45.481;539601242448217827;372914;387195;295501;-1251;
2024-05-22T19:43:45.499;539601242466377817;372993;387298;295474;-1195;
2024-05-22T19:43:45.517;539601242484537807;373020;387418;295592;-1310;
2024-05-22T19:43:45.535;539601242502697797;373122;387459;295678;-1257;
2024-05-22T19:43:45.553;539601242520857787;373130;387470;295635;-1324;
2024-05-22T19:43:45.571;539601242539017777;373261;387575;295696;-1290;
2024-05-22T19:43:45.590;539601242557177767;373188;387517;295703;-1344;
2024-05-22T19:43:45.608;539601242575337757;373227;387565;295710;-1308;
2024-05-22T19:43:45.626;539601242593497747;373295;387585;295728;-1306;
2024-05-22T19:43:45.644;539601242611657737;373259;387574;295729;-1350;
2024-05-22T19:43:45.662;539601242629817727;373390;387636;295775;-1268;
2024-05-22T19:43:45.680;539601242647977717;373378;387592;295784;-1320;
2024-05-22T19:43:45.699;539601242666137707;373366;387551;295768;-1297;
2024-05-22T19:43:45.717;539601242684297697;373418;387562;295884;-1288;
2024-05-22T19:43:45.735;539601242702457687;373451;387578;295836;-1353;
2024-05-22T19:43:45.753;539601242720617677;373448;387682;295830;-1306;
2024-05-22T19:43:45.771;539601242738777667;373506;387711;295886;-1323;
2024-05-22T19:43:45.789;539601242756937657;373472;387721;295881;-1325;
2024-05-22T19:43:45.808;539601242775097647;373387;387592;295761;-1392;
2024-05-22T19:43:45.826;539601242793257637;373271;387482;295732;-1356;
2024-05-22T19:43:45.844;539601242811417627;372953;387234;295455;-1338;
2024-05-22T19:43:45.862;539601242829577617;372670;386973;295324;-1282;
2024-05-22T19:43:45.880;539601242847737607;372306;386648;295013;-1369;
2024-05-22T19:43:45.898;539601242865897597;372043;386387;294837;-1308;
2024-05-22T19:43:45.916;539601242884057587;371765;386105;294680;-1359;
2024-05-22T19:43:45.935;539601242902217577;371564;385861;294436;-1336;
2024-05-22T19:43:45.953;539601242920378005;371451;385680;294413;-1295;
2024-05-22T19:43:45.971;539601242938538399;371395;385584;294375;-1307;
2024-05-22T19:43:45.989;539601242956698793;371287;385539;294297;-1340;
2024-05-22T19:43:46.007;539601242974859187;371284;385523;294360;-1287;
2024-05-22T19:43:46.025;539601242993019581;371354;385569;294406;-1294;
2024-05-22T19:43:46.044;539601243011179975;371414;385609;294438;-1293;
2024-05-22T19:43:46.062;539601243029340369;371426;385638;294456;-1296;
2024-05-22T19:43:46.080;539601243047500763;371545;385762;294523;-1304;
2024-05-22T19:43:46.098;539601243065661157;371617;385780;294536;-1316;
2024-05-22T19:43:46.116;539601243083821551;371607;385875;294544;-1325;
2024-05-22T19:43:46.134;539601243101981945;371641;385827;294542;-1378;
2024-05-22T19:43:46.153;539601243120142339;371648;385922;294599;-1276;
2024-05-22T19:43:46.171;539601243138302733;371698;385915;294683;-1266;
2024-05-22T19:43:46.189;539601243156463127;371641;385832;294578;-1350;
2024-05-22T19:43:46.207;539601243174623521;371655;385832;294647;-1297;
2024-05-22T19:43:46.225;539601243192783915;371692;385877;294650;-1253;
2024-05-22T19:43:46.243;539601243210944309;371679;385893;294601;-1304;
2024-05-22T19:43:46.262;539601243229104703;371633;385817;294629;-1312;
2024-05-22T19:43:46.280;539601243247265097;371636;385787;294582;-1358;
2024-05-22T19:43:46.298;539601243265425491;371640;385754;294568;-1284;
2024-05-22T19:43:46.316;539601243283585885;371578;385711;294516;-1329;
2024-05-22T19:43:46.334;539601243301746279;371595;385803;294623;-1258;
2024-05-22T19:43:46.352;539601243319906673;371625;385743;294568;-1260;
2024-05-22T19:43:46.370;539601243338067067;371587;385673;294525;-1287;
2024-05-22T19:43:46.389;539601243356227461;371325;385541;294438;-1358;
2024-05-22T19:43:46.407;539601243374387855;371179;385333;294272;-1282;
2024-05-22T19:43:46.425;539601243392548249;370799;385052;294062;-1328;
2024-05-22T19:43:46.443;539601243410708643;370455;384722;293793;-1249;
2024-05-22T19:43:46.461;539601243428869037;370053;384270;293469;-1316;
2024-05-22T19:43:46.479;539601243447029431;369645;383933;293239;-1310;
2024-05-22T19:43:46.498;539601243465189825;369352;383600;292987;-1301;
2024-05-22T19:43:46.516;539601243483350219;369099;383361;292858;-1265;
2024-05-22T19:43:46.534;539601243501510613;368940;383164;292714;-1292;
2024-05-22T19:43:46.552;539601243519671007;368735;383003;292596;-1302;
2024-05-22T19:43:46.570;539601243537831401;368717;382955;292562;-1299;
2024-05-22T19:43:46.588;539601243555991795;368737;382912;292581;-1258;
2024-05-22T19:43:46.607;539601243574152189;368746;382919;292545;-1258;
2024-05-22T19:43:46.625;539601243592312583;368698;382887;292554;-1356;
2024-05-22T19:43:46.643;539601243610472977;368732;382903;292546;-1378;
2024-05-22T19:43:46.661;539601243628633371;368731;382912;292558;-1326;
2024-05-22T19:43:46.679;539601243646793765;368827;382927;292681;-1308;
2024-05-22T19:43:46.697;539601243664954159;368781;382873;292563;-1365;
2024-05-22T19:43:46.716;539601243683114553;368815;382863;292621;-1336;
2024-05-22T19:43:46.734;539601243701274947;368802;382859;292598;-1321;
2024-05-22T19:43:46.752;539601243719434888;368814;382870;292609;-1323;
2024-05-22T19:43:46.770;539601243737594801;368800;382823;292553;-1323;
2024-05-22T19:43:46.788;539601243755754714;368771;382776;292580;-1363;
2024-05-22T19:43:46.806;539601243773914627;368749;382758;292585;-1296;
2024-05-22T19:43:46.824;539601243792074540;368735;382750;292559;-1318;
2024-05-22T19:43:46.843;539601243810234453;368680;382790;292559;-1338;
2024-05-22T19:43:46.861;539601243828394366;368704;382761;292540;-1326;
2024-05-22T19:43:46.879;539601243846554279;368642;382740;292563;-1317;
2024-05-22T19:43:46.897;539601243864714192;368662;382700;292562;-1337;
2024-05-22T19:43:46.915;539601243882874105;368679;382699;292509;-1383;
2024-05-22T19:43:46.933;539601243901034018;368663;382673;292491;-1306;
2024-05-22T19:43:46.952;539601243919193931;368628;382570;292496;-1300;
2024-05-22T19:43:46.970;539601243937353844;368384;382393;292282;-1322;
2024-05-22T19:43:46.988;539601243955513757;368148;382138;292103;-1354;
2024-05-22T19:43:47.006;539601243973673670;367796;381795;291926;-1328;
2024-05-22T19:43:47.024;539601243991833583;367458;381560;291696;-1314;
2024-05-22T19:43:47.042;539601244009993496;367112;381213;291470;-1307;
2024-05-22T19:43:47.061;539601244028153409;366746;380914;291171;-1385;
2024-05-22T19:43:47.079;539601244046313322;366626;380740;291082;-1310;
2024-05-22T19:43:47.097;539601244064473235;366444;380525;290964;-1324;
2024-05-22T19:43:47.115;539601244082633148;366390;380495;291004;-1308;
2024-05-22T19:43:47.133;539601244100793061;366341;380350;290933;-1338;
2024-05-22T19:43:47.151;539601244118952974;366414;380481;290963;-1321;
2024-05-22T19:43:47.170;539601244137112887;366525;380531;291042;-1350;
2024-05-22T19:43:47.188;539601244155272800;366585;380619;291171;-1343;
2024-05-22T19:43:47.206;539601244173432713;366693;380712;291157;-1284;
2024-05-22T19:43:47.224;539601244191592626;366765;380777;291265;-1319;
2024-05-22T19:43:47.242;539601244209752539;366894;380836;291343;-1290;
2024-05-22T19:43:47.260;539601244227912452;366943;380934;291373;-1257;
2024-05-22T19:43:47.278;539601244246072365;366966;380932;291389;-1258;
2024-05-22T19:43:47.297;539601244264232278;367075;381022;291444;-1295;
2024-05-22T19:43:47.315;539601244282392191;367084;381023;291484;-1268;
2024-05-22T19:43:47.333;539601244300552104;367155;381075;291500;-1302;
2024-05-22T19:43:47.351;539601244318712017;367145;381086;291554;-1266;
2024-05-22T19:43:47.369;539601244336871930;367121;380992;291474;-1313;
2024-05-22T19:43:47.387;539601244355031843;367215;381129;291589;-1329;
2024-05-22T19:43:47.406;539601244373191756;367134;381142;291556;-1323;
2024-05-22T19:43:47.424;539601244391351669;367267;381182;291571;-1337;
2024-05-22T19:43:47.442;539601244409511582;367291;381164;291575;-1338;
2024-05-22T19:43:47.460;539601244427671495;367231;381250;291632;-1314;
2024-05-22T19:43:47.478;539601244445831408;367261;381278;291700;-1280;
2024-05-22T19:43:47.496;539601244463991321;367284;381212;291573;-1353;
2024-05-22T19:43:47.515;539601244482151234;367210;381140;291533;-1310;
2024-05-22T19:43:47.533;539601244500312261;367041;381006;291468;-1322;
2024-05-22T19:43:47.551;539601244518473274;366712;380690;291304;-1324;
2024-05-22T19:43:47.569;539601244536634287;366319;380331;291021;-1329;
2024-05-22T19:43:47.587;539601244554795300;365902;379961;290741;-1310;
2024-05-22T19:43:47.605;539601244572956313;365497;379577;290446;-1342;
2024-05-22T19:43:47.624;539601244591117326;365077;379224;290243;-1352;
2024-05-22T19:43:47.642;539601244609278339;364760;378906;290006;-1337;
2024-05-22T19:43:47.660;539601244627439352;364551;378672;289921;-1390;
2024-05-22T19:43:47.678;539601244645600365;364427;378573;289802;-1339;
2024-05-22T19:43:47.696;539601244663761378;364360;378510;289719;-1311;
2024-05-22T19:43:47.714;539601244681922391;364310;378454;289699;-1359;
2024-05-22T19:43:47.732;539601244700083404;364361;378433;289742;-1318;
2024-05-22T19:43:47.751;539601244718244417;364433;378536;289898;-1282;
2024-05-22T19:43:47.769;539601244736405430;364552;378591;289889;-1330;
2024-05-22T19:43:47.787;539601244754566443;364668;378706;289963;-1352;
2024-05-22T19:43:47.805;539601244772727456;364705;378707;289962;-1339;
2024-05-22T19:43:47.823;539601244790888469;364750;378743;289977;-1390;
2024-05-22T19:43:47.841;539601244809049482;364793;378784;290037;-1313;
2024-05-22T19:43:47.860;539601244827210495;364789;378770;290007;-1341;
2024-05-22T19:43:47.878;539601244845371508;364866;378822;290049;-1305;
2024-05-22T19:43:47.896;539601244863532521;364870;378841;290088;-1286;
2024-05-22T19:43:47.914;539601244881693534;364852;378845;290111;-1382;
2024-05-22T19:43:47.932;539601244899854547;364858;378843;290066;-1348;
2024-05-22T19:43:47.950;539601244918015560;364889;378870;290074;-1336;
2024-05-22T19:43:47.969;539601244936176573;364910;378841;290100;-1303;
2024-05-22T19:43:47.987;539601244954337586;364883;378859;290082;-1373;
2024-05-22T19:43:48.005;539601244972498599;364956;378925;290148;-1296;
2024-05-22T19:43:48.023;539601244990659612;364944;378954;290156;-1282;
2024-05-22T19:43:48.041;539601245008820625;365020;378937;290218;-1290;
2024-05-22T19:43:48.059;539601245026981638;364995;378895;290206;-1294;
2024-05-22T19:43:48.078;539601245045142651;364968;378900;290233;-1307;
2024-05-22T19:43:48.096;539601245063303664;364909;378810;290168;-1251;
2024-05-22T19:43:48.114;539601245081464677;364588;378543;289922;-1308;
2024-05-22T19:43:48.132;539601245099625690;364207;378265;289675;-1277;
2024-05-22T19:43:48.150;539601245117786703;363835;377827;289436;-1301;
2024-05-22T19:43:48.168;539601245135947716;363348;377413;289082;-1300;
2024-05-22T19:43:48.187;539601245154108729;362993;377070;288818;-1277;
2024-05-22T19:43:48.205;539601245172269742;362568;376729;288552;-1343;
2024-05-22T19:43:48.223;539601245190430755;362291;376464;288370;-1304;
2024-05-22T19:43:48.241;539601245208591768;362077;376240;288259;-1291;
2024-05-22T19:43:48.259;539601245226752781;361989;376099;288215;-1284;
2024-05-22T19:43:48.277;539601245244913794;361958;376087;288211;-1276;
2024-05-22T19:43:48.295;539601245263074807;362002;376130;288236;-1343;
2024-05-22T19:43:48.314;539601245281235557;362044;376145;288237;-1287;
2024-05-22T19:43:48.332;539601245299396273;362208;376200;288328;-1286;
2024-05-22T19:43:48.350;539601245317556989;362283;376304;288371;-1306;
2024-05-22T19:43:48.368;539601245335717705;362356;376386;288468;-1307;
2024-05-22T19:43:48.386;539601245353878421;362501;376492;288538;-1340;
2024-05-22T19:43:48.404;539601245372039137;362551;376566;288591;-1313;
2024-05-22T19:43:48.423;539601245390199853;362621;376591;288655;-1322;
2024-05-22T19:43:48.441;539601245408360569;362715;376609;288656;-1301;
2024-05-22T19:43:48.459;539601245426521285;362669;376650;288700;-1357;
2024-05-22T19:43:48.477;539601245444682001;362727;376702;288690;-1297;
2024-05-22T19:43:48.495;539601245462842717;362772;376664;288716;-1323;
2024-05-22T19:43:48.513;539601245481003433;362748;376694;288719;-1327;
2024-05-22T19:43:48.532;539601245499164149;362824;376658;288800;-1276;
2024-05-22T19:43:48.550;539601245517324865;362800;376778;288763;-1370;
2024-05-22T19:43:48.568;539601245535485581;362837;376776;288789;-1308;
2024-05-22T19:43:48.586;539601245553646297;362876;376812;288796;-1330;
2024-05-22T19:43:48.604;539601245571807013;362922;376805;288839;-1364;
2024-05-22T19:43:48.622;539601245589967729;363025;376878;288877;-1345;
2024-05-22T19:43:48.641;539601245608128445;363012;376950;288909;-1357;
2024-05-22T19:43:48.659;539601245626289161;363050;376985;288926;-1301;
2024-05-22T19:43:48.677;539601245644449877;362892;376826;288786;-1292;
2024-05-22T19:43:48.695;539601245662610593;362582;376581;288604;-1309;
2024-05-22T19:43:48.713;539601245680771309;362248;376294;288374;-1327;
2024-05-22T19:43:48.731;539601245698932025;361875;375864;288074;-1348;
2024-05-22T19:43:48.750;539601245717092741;361524;375565;287830;-1310;
2024-05-22T19:43:48.768;539601245735253457;361138;375154;287594;-1324;
2024-05-22T19:43:48.786;539601245753414173;360883;374867;287414;-1304;
2024-05-22T19:43:48.804;539601245771574889;360643;374670;287272;-1286;
2024-05-22T19:43:48.822;539601245789735605;360484;374596;287242;-1320;
2024-05-22T19:43:48.840;539601245807896321;360425;374528;287209;-1287;
2024-05-22T19:43:48.858;539601245826057037;360489;374468;287184;-1343;
2024-05-22T19:43:48.877;539601245844217753;360571;374516;287252;-1334;
2024-05-22T19:43:48.895;539601245862378469;360668;374651;287248;-1309;
2024-05-22T19:43:48.913;539601245880539185;360773;374775;287357;-1306;
2024-05-22T19:43:48.931;539601245898699901;360869;374839;287411;-1304;
2024-05-22T19:43:48.949;539601245916860617;361009;374923;287562;-1271;
2024-05-22T19:43:48.967;539601245935021333;361135;374980;287603;-1339;
2024-05-22T19:43:48.986;539601245953182049;361217;375055;287648;-1325;
2024-05-22T19:43:49.004;539601245971342765;361271;375141;287667;-1309;
2024-05-22T19:43:49.022;539601245989503481;361378;375187;287721;-1272;
2024-05-22T19:43:49.040;539601246007664197;361393;375208;287713;-1308;
2024-05-22T19:43:49.058;539601246025824913;361415;375188;287703;-1326;
2024-05-22T19:43:49.076;539601246043985116;361512;375333;287798;-1262;
2024-05-22T19:43:49.095;539601246062145313;361503;375304;287789;-1251;
2024-05-22T19:43:49.113;539601246080305510;361529;375328;287803;-1234;
2024-05-22T19:43:49.131;539601246098465707;361550;375359;287779;-1326;
2024-05-22T19:43:49.149;539601246116625904;361623;375384;287772;-1283;
2024-05-22T19:43:49.167;539601246134786101;361598;375379;287825;-1275;
2024-05-22T19:43:49.185;539601246152946298;361725;375415;287898;-1287;
2024-05-22T19:43:49.204;539601246171106495;361800;375525;287908;-1250;
2024-05-22T19:43:49.222;539601246189266692;361907;375538;287987;-1279;
2024-05-22T19:43:49.240;539601246207426889;361891;375536;287941;-1326;
2024-05-22T19:43:49.258;539601246225587086;361798;375480;287904;-1317;
2024-05-22T19:43:49.276;539601246243747283;361632;375323;287832;-1279;
2024-05-22T19:43:49.294;539601246261907480;361400;375112;287626;-1269;
2024-05-22T19:43:49.312;539601246280067677;361093;374786;287449;-1314;
2024-05-22T19:43:49.331;539601246298227874;360698;374483;287142;-1282;
2024-05-22T19:43:49.349;539601246316388071;360408;374201;286902;-1308;
2024-05-22T19:43:49.367;539601246334548268;360130;373877;286784;-1324;
2024-05-22T19:43:49.385;539601246352708465;359920;373688;286611;-1311;
2024-05-22T19:43:49.403;539601246370868662;359815;373572;286562;-1312;
2024-05-22T19:43:49.421;539601246389028859;359756;373447;286483;-1324;
2024-05-22T19:43:49.440;539601246407189056;359680;373453;286457;-1292;
2024-05-22T19:43:49.458;539601246425349253;359765;373477;286516;-1280;
2024-05-22T19:43:49.476;539601246443509450;359896;373598;286574;-1267;
2024-05-22T19:43:49.494;539601246461669647;359929;373660;286553;-1313;
2024-05-22T19:43:49.512;539601246479829844;360052;373669;286655;-1347;
2024-05-22T19:43:49.530;539601246497990041;360104;373781;286758;-1294;
2024-05-22T19:43:49.549;539601246516150238;360235;373902;286789;-1363;
2024-05-22T19:43:49.567;539601246534310435;360338;373939;286824;-1316;
2024-05-22T19:43:49.585;539601246552470632;360352;373926;286895;-1328;
2024-05-22T19:43:49.603;539601246570630829;360365;373980;286932;-1296;
2024-05-22T19:43:49.621;539601246588791026;360476;373999;286882;-1338;
2024-05-22T19:43:49.639;539601246606951223;360511;374045;286895;-1340;
2024-05-22T19:43:49.658;539601246625111420;360568;374107;286935;-1291;
2024-05-22T19:43:49.676;539601246643271617;360570;374063;286919;-1356;
2024-05-22T19:43:49.694;539601246661431814;360639;374122;286999;-1326;
2024-05-22T19:43:49.712;539601246679592011;360687;374110;286919;-1334;
2024-05-22T19:43:49.730;539601246697752208;360788;374239;287087;-1329;
2024-05-22T19:43:49.748;539601246715912405;360767;374302;287003;-1373;
2024-05-22T19:43:49.766;539601246734072602;360884;374298;287153;-1369;
2024-05-22T19:43:49.785;539601246752232799;361031;374453;287196;-1330;
2024-05-22T19:43:49.803;539601246770392996;361106;374477;287268;-1333;
2024-05-22T19:43:49.821;539601246788553193;361120;374516;287291;-1328;
2024-05-22T19:43:49.839;539601246806713390;361087;374550;287295;-1336;
2024-05-22T19:43:49.857;539601246824873161;361011;374398;287165;-1274;
2024-05-22T19:43:49.875;539601246843032896;360801;374257;286985;-1288;
2024-05-22T19:43:49.894;539601246861192631;360571;374095;286897;-1278;
2024-05-22T19:43:49.912;539601246879352366;360338;373760;286663;-1314;
2024-05-22T19:43:49.930;539601246897512101;360112;373563;286482;-1279;
2024-05-22T19:43:49.948;539601246915671836;359954;373323;286362;-1326;
2024-05-22T19:43:49.966;539601246933831571;359746;373198;286243;-1321;
2024-05-22T19:43:49.984;539601246951991306;359617;373124;286185;-1364;
2024-05-22T19:43:50.003;539601246970151041;359537;373025;286156;-1358;
2024-05-22T19:43:50.021;539601246988310776;359689;373080;286186;-1314;
2024-05-22T19:43:50.039;539601247006470511;359786;373109;286281;-1342;
2024-05-22T19:43:50.057;539601247024630246;359870;373247;286364;-1344;
2024-05-22T19:43:50.075;539601247042789981;359994;373378;286329;-1309;
2024-05-22T19:43:50.093;539601247060949716;360133;373423;286436;-1340;
2024-05-22T19:43:50.112;539601247079109451;360235;373602;286505;-1337;
2024-05-22T19:43:50.130;539601247097269186;360302;373603;286521;-1263;
2024-05-22T19:43:50.148;539601247115428921;360474;373713;286637;-1308;
2024-05-22T19:43:50.166;539601247133588656;360501;373775;286601;-1387;
2024-05-22T19:43:50.184;539601247151748391;360565;373882;286738;-1296;
2024-05-22T19:43:50.202;539601247169908126;360564;373864;286726;-1343;
2024-05-22T19:43:50.220;539601247188067861;360604;373947;286737;-1347;
2024-05-22T19:43:50.239;539601247206227596;360743;373949;286758;-1293;
2024-05-22T19:43:50.257;539601247224387331;360743;373967;286797;-1321;
2024-05-22T19:43:50.275;539601247242547066;360907;373994;286837;-1303;
2024-05-22T19:43:50.293;539601247260706801;360928;374108;286906;-1321;
2024-05-22T19:43:50.311;539601247278866536;361015;374183;286948;-1253;
2024-05-22T19:43:50.329;539601247297026271;361145;374306;287008;-1312;
2024-05-22T19:43:50.348;539601247315186006;361155;374341;287038;-1353;
2024-05-22T19:43:50.366;539601247333345741;361285;374413;287090;-1319;
2024-05-22T19:43:50.384;539601247351505476;361405;374496;287136;-1319;
2024-05-22T19:43:50.402;539601247369665211;361532;374592;287153;-1295;
2024-05-22T19:43:50.420;539601247387824946;361603;374679;287223;-1337;
2024-05-22T19:43:50.438;539601247405984681;361749;374772;287329;-1277;
2024-05-22T19:43:50.457;539601247424144416;361833;374918;287445;-1265;
2024-05-22T19:43:50.475;539601247442304151;361869;374970;287432;-1330;
2024-05-22T19:43:50.493;539601247460463886;361881;374965;287438;-1310;
2024-05-22T19:43:50.511;539601247478623621;361756;374801;287326;-1322;
2024-05-22T19:43:50.529;539601247496783356;361543;374614;287146;-1260;
2024-05-22T19:43:50.547;539601247514943091;361282;374394;286949;-1297;
2024-05-22T19:43:50.566;539601247533102826;360935;374083;286770;-1290;
2024-05-22T19:43:50.584;539601247551262561;360693;373763;286570;-1278;
2024-05-22T19:43:50.602;539601247569422296;360492;373556;286426;-1269;
2024-05-22T19:43:50.620;539601247587581545;360351;373383;286305;-1256;
2024-05-22T19:43:50.638;539601247605740772;360215;373300;286231;-1268;
2024-05-22T19:43:50.656;539601247623899999;360259;373319;286220;-1280;
2024-05-22T19:43:50.674;539601247642059226;360296;373336;286296;-1291;
2024-05-22T19:43:50.693;539601247660218453;360333;373345;286266;-1368;
2024-05-22T19:43:50.711;539601247678377680;360453;373453;286354;-1306;
2024-05-22T19:43:50.729;539601247696536907;360660;373653;286454;-1270;
2024-05-22T19:43:50.747;539601247714696134;360679;373729;286520;-1286;
2024-05-22T19:43:50.765;539601247732855361;360864;373881;286644;-1301;
2024-05-22T19:43:50.783;539601247751014588;361018;373979;286662;-1312;
2024-05-22T19:43:50.802;539601247769173815;361123;374099;286786;-1318;
2024-05-22T19:43:50.820;539601247787333042;361278;374197;286896;-1309;
2024-05-22T19:43:50.838;539601247805492269;361381;374317;286932;-1297;
2024-05-22T19:43:50.856;539601247823651496;361509;374327;287001;-1283;
2024-05-22T19:43:50.874;539601247841810723;361563;374449;287038;-1334;
2024-05-22T19:43:50.892;539601247859969950;361586;374501;287165;-1280;
2024-05-22T19:43:50.911;539601247878129177;361747;374586;287211;-1277;
2024-05-22T19:43:50.929;539601247896288404;361846;374710;287239;-1265;
2024-05-22T19:43:50.947;539601247914447631;361981;374807;287318;-1302;
2024-05-22T19:43:50.965;539601247932606858;362068;374864;287344;-1304;
2024-05-22T19:43:50.983;539601247950766085;362220;374959;287426;-1303;
2024-05-22T19:43:51.001;539601247968925312;362337;375065;287464;-1345;
2024-05-22T19:43:51.019;539601247987084539;362524;375210;287554;-1317;
2024-05-22T19:43:51.038;539601248005243766;362605;375265;287640;-1326;
2024-05-22T19:43:51.056;539601248023402993;362782;375379;287780;-1325;
2024-05-22T19:43:51.074;539601248041562220;362951;375589;287873;-1304;
2024-05-22T19:43:51.092;539601248059721447;363094;375688;287956;-1282;
2024-05-22T19:43:51.110;539601248077880674;363169;375835;288054;-1328;
2024-05-22T19:43:51.128;539601248096039901;363300;375965;288101;-1320;
2024-05-22T19:43:51.147;539601248114199128;363462;376062;288213;-1311;
2024-05-22T19:43:51.165;539601248132358355;363588;376170;288246;-1336;
2024-05-22T19:43:51.183;539601248150517582;363790;376304;288380;-1337;
2024-05-22T19:43:51.201;539601248168676809;363877;376456;288434;-1316;
2024-05-22T19:43:51.219;539601248186836036;364057;376626;288578;-1308;
2024-05-22T19:43:51.237;539601248204995263;364183;376712;288634;-1284;
2024-05-22T19:43:51.256;539601248223154490;364342;376847;288752;-1294;
2024-05-22T19:43:51.274;539601248241313717;364393;376893;288777;-1312;
2024-05-22T19:43:51.292;539601248259472944;364552;377021;288902;-1293;
2024-05-22T19:43:51.310;539601248277632171;364710;377142;288954;-1304;
2024-05-22T19:43:51.328;539601248295791398;364759;377127;289012;-1312;
2024-05-22T19:43:51.346;539601248313950625;364689;377166;288919;-1319;
2024-05-22T19:43:51.365;539601248332109852;364595;377142;288927;-1267;
2024-05-22T19:43:51.383;539601248350268814;364483;376950;288776;-1285;
2024-05-22T19:43:51.401;539601248368427750;364151;376686;288576;-1321;
2024-05-22T19:43:51.419;539601248386586686;363933;376451;288436;-1316;
2024-05-22T19:43:51.437;539601248404745622;363750;376203;288220;-1320;
2024-05-22T19:43:51.455;539601248422904558;363533;375957;288027;-1323;
2024-05-22T19:43:51.473;539601248441063494;363372;375757;287942;-1373;
2024-05-22T19:43:51.492;539601248459222430;363340;375663;287916;-1363;
2024-05-22T19:43:51.510;539601248477381366;363269;375636;287898;-1302;
2024-05-22T19:43:51.528;539601248495540302;363292;375670;287850;-1301;
2024-05-22T19:43:51.546;539601248513699238;363318;375650;287845;-1286;
2024-05-22T19:43:51.564;539601248531858174;363363;375682;287932;-1280;
