Phone timestamp;sensor timestamp [ns];channel 0;channel 1;channel 2;ambient
2024-05-23T22:36:18.704;539697996102276039;344927;380209;292290;-1276;
2024-05-23T22:36:18.722;539697996120429300;345061;380308;292446;-1226;
2024-05-23T22:36:18.740;539697996138582561;345186;380381;292527;-1193;
2024-05-23T22:36:18.758;539697996156735822;345267;380461;292653;-1200;
2024-05-23T22:36:18.776;539697996174889083;345283;380490;292694;-1202;
2024-05-23T22:36:18.794;539697996193042344;345307;380524;292700;-1206;
2024-05-23T22:36:18.812;539697996211195605;345426;380615;292755;-1214;
2024-05-23T22:36:18.831;539697996229348866;345503;380624;292801;-1254;
2024-05-23T22:36:18.849;539697996247502127;345506;380666;292872;-1270;
2024-05-23T22:36:18.867;539697996265655388;345603;380666;292941;-1255;
2024-05-23T22:36:18.885;539697996283808649;345670;380693;292959;-1260;
2024-05-23T22:36:18.903;539697996301961910;345768;380800;293024;-1306;
2024-05-23T22:36:18.921;539697996320115171;345937;380897;293134;-1219;
2024-05-23T22:36:18.939;539697996338268432;346002;381017;293248;-1211;
2024-05-23T22:36:18.958;539697996356421693;346123;381077;293306;-1188;
2024-05-23T22:36:18.976;539697996374574954;346053;380941;293227;-1203;
2024-05-23T22:36:18.994;539697996392728215;345635;380452;292839;-1226;
2024-05-23T22:36:19.012;539697996410881476;344967;379748;292316;-1276;
2024-05-23T22:36:19.030;539697996429034737;344182;378818;291673;-1268;
2024-05-23T22:36:19.048;539697996447187998;343404;377845;290942;-1253;
2024-05-23T22:36:19.067;539697996465341259;342536;376857;290210;-1218;
2024-05-23T22:36:19.085;539697996483494520;341907;375979;289626;-1221;
2024-05-23T22:36:19.103;539697996501647781;341472;375395;289219;-1184;
2024-05-23T22:36:19.121;539697996519801042;341107;374971;288905;-1246;
2024-05-23T22:36:19.139;539697996537954303;340925;374634;288767;-1256;
2024-05-23T22:36:19.157;539697996556107564;340953;374576;288775;-1226;
2024-05-23T22:36:19.175;539697996574260825;341029;374700;288831;-1217;
2024-05-23T22:36:19.194;539697996592414086;341348;375023;289042;-1243;
2024-05-23T22:36:19.212;539697996610567347;341700;375291;289345;-1188;
2024-05-23T22:36:19.230;539697996628720608;342075;375678;289632;-1207;
2024-05-23T22:36:19.248;539697996646873869;342469;376033;289930;-1201;
2024-05-23T22:36:19.266;539697996665027130;342804;376349;290216;-1194;
2024-05-23T22:36:19.284;539697996683180391;343065;376655;290400;-1220;
2024-05-23T22:36:19.303;539697996701333652;343300;376889;290614;-1171;
2024-05-23T22:36:19.321;539697996719486913;343510;377068;290762;-1207;
2024-05-23T22:36:19.339;539697996737640174;343657;377220;290882;-1158;
2024-05-23T22:36:19.357;539697996755793438;343785;377378;290970;-1209;
2024-05-23T22:36:19.375;539697996773946699;343881;377471;291084;-1224;
2024-05-23T22:36:19.393;539697996792099960;344029;377536;291213;-1229;
2024-05-23T22:36:19.411;539697996810253221;344093;377543;291212;-1285;
2024-05-23T22:36:19.430;539697996828406482;344281;377738;291338;-1221;
2024-05-23T22:36:19.448;539697996846559743;344430;377931;291481;-1239;
2024-05-23T22:36:19.466;539697996864713004;344659;378108;291660;-1221;
2024-05-23T22:36:19.484;539697996882866265;344823;378307;291842;-1262;
2024-05-23T22:36:19.502;539697996901019526;345089;378606;291974;-1265;
2024-05-23T22:36:19.520;539697996919172787;345306;378890;292191;-1237;
2024-05-23T22:36:19.539;539697996937326048;345650;379271;292429;-1206;
2024-05-23T22:36:19.557;539697996955479309;345870;379607;292661;-1216;
2024-05-23T22:36:19.575;539697996973632570;346270;379973;292947;-1135;
2024-05-23T22:36:19.593;539697996991785831;346469;380338;293158;-1209;
2024-05-23T22:36:19.611;539697997009939092;346510;380367;293137;-1228;
2024-05-23T22:36:19.629;539697997028092353;346335;380176;293019;-1258;
2024-05-23T22:36:19.647;539697997046245614;345943;379773;292666;-1258;
2024-05-23T22:36:19.666;539697997064398875;345425;379087;292162;-1183;
2024-05-23T22:36:19.684;539697997082552136;344789;378374;291571;-1278;
2024-05-23T22:36:19.702;539697997100705397;344218;377627;291098;-1258;
2024-05-23T22:36:19.720;539697997118858658;343811;377090;290649;-1282;
2024-05-23T22:36:19.738;539697997137011919;343452;376757;290407;-1257;
2024-05-23T22:36:19.756;539697997155165180;343387;376597;290263;-1243;
2024-05-23T22:36:19.775;539697997173318441;343400;376600;290301;-1222;
2024-05-23T22:36:19.793;539697997191471702;343639;376874;290359;-1209;
2024-05-23T22:36:19.811;539697997209624963;343983;377247;290660;-1236;
2024-05-23T22:36:19.829;539697997227778224;344465;377657;291015;-1226;
2024-05-23T22:36:19.847;539697997245931485;344953;378217;291466;-1217;
2024-05-23T22:36:19.865;539697997264084746;345457;378868;291819;-1232;
2024-05-23T22:36:19.883;539697997282238007;345927;379386;292174;-1285;
2024-05-23T22:36:19.902;539697997300391268;346293;379927;292601;-1240;
2024-05-23T22:36:19.920;539697997318544529;346695;380354;292846;-1270;
2024-05-23T22:36:19.938;539697997336697790;347010;380741;293147;-1297;
2024-05-23T22:36:19.956;539697997354851051;347302;381065;293372;-1280;
2024-05-23T22:36:19.974;539697997373004312;347610;381477;293583;-1284;
2024-05-23T22:36:19.992;539697997391157573;347883;381747;293827;-1270;
2024-05-23T22:36:20.011;539697997409310834;348116;381949;293972;-1292;
2024-05-23T22:36:20.029;539697997427463774;348333;382166;294171;-1283;
2024-05-23T22:36:20.047;539697997445616705;348573;382465;294343;-1207;
2024-05-23T22:36:20.065;539697997463769636;348764;382701;294468;-1268;
2024-05-23T22:36:20.083;539697997481922567;349015;382946;294633;-1229;
2024-05-23T22:36:20.101;539697997500075498;349211;383204;294817;-1231;
2024-05-23T22:36:20.119;539697997518228429;349361;383399;294999;-1225;
2024-05-23T22:36:20.138;539697997536381360;349658;383664;295205;-1223;
2024-05-23T22:36:20.156;539697997554534291;349836;383891;295335;-1270;
2024-05-23T22:36:20.174;539697997572687222;350081;384078;295518;-1236;
2024-05-23T22:36:20.192;539697997590840153;350338;384437;295712;-1228;
2024-05-23T22:36:20.210;539697997608993084;350594;384725;295907;-1186;
2024-05-23T22:36:20.228;539697997627146015;350727;384913;296004;-1255;
2024-05-23T22:36:20.247;539697997645298946;350627;384733;295907;-1240;
2024-05-23T22:36:20.265;539697997663451877;350199;384268;295552;-1267;
2024-05-23T22:36:20.283;539697997681604808;349587;383595;295119;-1238;
2024-05-23T22:36:20.301;539697997699757739;348879;382636;294483;-1225;
2024-05-23T22:36:20.319;539697997717910670;348090;381639;293761;-1242;
2024-05-23T22:36:20.337;539697997736063601;347363;380800;293177;-1283;
2024-05-23T22:36:20.355;539697997754216532;346781;380001;292639;-1272;
2024-05-23T22:36:20.374;539697997772369463;346449;379502;292269;-1279;
2024-05-23T22:36:20.392;539697997790522394;346244;379242;292086;-1283;
2024-05-23T22:36:20.410;539697997808675325;346315;379200;292092;-1227;
2024-05-23T22:36:20.428;539697997826828256;346452;379324;292213;-1292;
2024-05-23T22:36:20.446;539697997844981187;346797;379717;292509;-1275;
2024-05-23T22:36:20.464;539697997863134118;347239;380177;292792;-1235;
2024-05-23T22:36:20.483;539697997881287049;347605;380661;293125;-1259;
2024-05-23T22:36:20.501;539697997899439980;347996;381108;293476;-1278;
2024-05-23T22:36:20.519;539697997917592911;348474;381603;293884;-1203;
2024-05-23T22:36:20.537;539697997935745842;348736;381979;294177;-1308;
2024-05-23T22:36:20.555;539697997953898773;349040;382271;294417;-1293;
2024-05-23T22:36:20.573;539697997972051704;349272;382504;294678;-1198;
2024-05-23T22:36:20.591;539697997990204635;349449;382750;294824;-1182;
2024-05-23T22:36:20.610;539697998008357566;349623;382929;294902;-1204;
2024-05-23T22:36:20.628;539697998026510497;349772;383126;295078;-1199;
2024-05-23T22:36:20.646;539697998044663428;349922;383146;295104;-1194;
2024-05-23T22:36:20.664;539697998062816359;349915;383216;295199;-1242;
2024-05-23T22:36:20.682;539697998080969290;350095;383246;295294;-1209;
2024-05-23T22:36:20.700;539697998099122936;350174;383417;295438;-1256;
2024-05-23T22:36:20.719;539697998117276568;350269;383540;295514;-1243;
2024-05-23T22:36:20.737;539697998135430200;350419;383664;295625;-1241;
2024-05-23T22:36:20.755;539697998153583832;350550;383859;295761;-1167;
2024-05-23T22:36:20.773;539697998171737464;350739;383991;295863;-1222;
2024-05-23T22:36:20.791;539697998189891096;350931;384282;296008;-1214;
2024-05-23T22:36:20.809;539697998208044728;351148;384460;296180;-1236;
2024-05-23T22:36:20.827;539697998226198360;351187;384472;296206;-1192;
2024-05-23T22:36:20.846;539697998244351992;350846;384200;295993;-1202;
2024-05-23T22:36:20.864;539697998262505624;350376;383550;295510;-1177;
2024-05-23T22:36:20.882;539697998280659256;349509;382565;294888;-1214;
2024-05-23T22:36:20.900;539697998298812888;348646;381476;294136;-1226;
2024-05-23T22:36:20.918;539697998316966520;347741;380435;293419;-1209;
2024-05-23T22:36:20.936;539697998335120152;347022;379386;292778;-1187;
2024-05-23T22:36:20.954;539697998353273784;346424;378600;292273;-1203;
2024-05-23T22:36:20.973;539697998371427416;345972;378056;292028;-1229;
2024-05-23T22:36:20.991;539697998389581048;345767;377737;291788;-1220;
2024-05-23T22:36:21.009;539697998407734680;345778;377690;291806;-1206;
2024-05-23T22:36:21.027;539697998425888312;345871;377800;291817;-1245;
2024-05-23T22:36:21.045;539697998444041944;346160;378128;292151;-1248;
2024-05-23T22:36:21.063;539697998462195576;346571;378531;292471;-1194;
2024-05-23T22:36:21.082;539697998480349208;346967;378995;292767;-1276;
2024-05-23T22:36:21.100;539697998498502840;347430;379524;293175;-1220;
2024-05-23T22:36:21.118;539697998516656472;347769;379962;293512;-1236;
2024-05-23T22:36:21.136;539697998534810104;348096;380402;293789;-1190;
2024-05-23T22:36:21.154;539697998552963736;348341;380621;293963;-1228;
2024-05-23T22:36:21.172;539697998571117368;348519;380866;294154;-1167;
2024-05-23T22:36:21.190;539697998589271000;348571;380952;294222;-1244;
2024-05-23T22:36:21.209;539697998607424632;348700;381091;294288;-1240;
2024-05-23T22:36:21.227;539697998625578264;348830;381166;294417;-1259;
2024-05-23T22:36:21.245;539697998643731896;348843;381281;294477;-1237;
2024-05-23T22:36:21.263;539697998661885528;348908;381405;294560;-1216;
2024-05-23T22:36:21.281;539697998680039160;348997;381473;294684;-1220;
2024-05-23T22:36:21.299;539697998698192792;349129;381554;294824;-1191;
2024-05-23T22:36:21.318;539697998716346424;349184;381593;294808;-1228;
2024-05-23T22:36:21.336;539697998734501372;349242;381666;294933;-1245;
2024-05-23T22:36:21.354;539697998752656312;349412;381827;295104;-1257;
2024-05-23T22:36:21.372;539697998770811252;349584;382090;295244;-1282;
2024-05-23T22:36:21.390;539697998788966192;349662;382159;295345;-1224;
2024-05-23T22:36:21.408;539697998807121132;349521;381966;295169;-1249;
2024-05-23T22:36:21.427;539697998825276072;349089;381540;294936;-1260;
2024-05-23T22:36:21.445;539697998843431012;348374;380640;294346;-1255;
2024-05-23T22:36:21.463;539697998861585952;347426;379560;293549;-1294;
2024-05-23T22:36:21.481;539697998879740892;346477;378324;292835;-1250;
2024-05-23T22:36:21.499;539697998897895832;345576;377243;292071;-1254;
2024-05-23T22:36:21.517;539697998916050772;344811;376294;291432;-1229;
2024-05-23T22:36:21.535;539697998934205712;344206;375511;290958;-1292;
2024-05-23T22:36:21.554;539697998952360652;343735;375060;290705;-1218;
2024-05-23T22:36:21.572;539697998970515592;343611;374852;290500;-1221;
2024-05-23T22:36:21.590;539697998988670532;343634;374780;290586;-1270;
2024-05-23T22:36:21.608;539697999006825472;343845;375069;290720;-1258;
2024-05-23T22:36:21.626;539697999024980412;344107;375400;290997;-1220;
2024-05-23T22:36:21.644;539697999043135352;344504;375748;291339;-1225;
2024-05-23T22:36:21.663;539697999061290292;344850;376196;291674;-1241;
2024-05-23T22:36:21.681;539697999079445232;345285;376623;291976;-1231;
2024-05-23T22:36:21.699;539697999097600172;345517;376938;292202;-1270;
2024-05-23T22:36:21.717;539697999115755112;345708;377149;292375;-1294;
2024-05-23T22:36:21.735;539697999133910052;345836;377323;292543;-1227;
2024-05-23T22:36:21.753;539697999152064992;345911;377430;292584;-1280;
2024-05-23T22:36:21.771;539697999170219932;345871;377407;292625;-1239;
2024-05-23T22:36:21.790;539697999188374872;345915;377446;292608;-1249;
2024-05-23T22:36:21.808;539697999206529812;345874;377414;292687;-1234;
2024-05-23T22:36:21.826;539697999224684752;345868;377379;292635;-1245;
2024-05-23T22:36:21.844;539697999242839692;345830;377390;292683;-1227;
2024-05-23T22:36:21.862;539697999260994632;345802;377290;292661;-1226;
2024-05-23T22:36:21.880;539697999279149572;345823;377378;292726;-1220;
2024-05-23T22:36:21.899;539697999297304512;345831;377396;292745;-1240;
2024-05-23T22:36:21.917;539697999315459452;345894;377451;292806;-1313;
2024-05-23T22:36:21.935;539697999333614392;345965;377581;292909;-1262;
2024-05-23T22:36:21.953;539697999351769332;345857;377499;292870;-1263;
2024-05-23T22:36:21.971;539697999369920608;345510;377060;292565;-1232;
2024-05-23T22:36:21.989;539697999388071866;344781;376364;292046;-1305;
2024-05-23T22:36:22.007;539697999406223124;343873;375267;291318;-1267;
2024-05-23T22:36:22.026;539697999424374382;342855;374171;290576;-1211;
2024-05-23T22:36:22.044;539697999442525640;341809;373020;289739;-1221;
2024-05-23T22:36:22.062;539697999460676898;340969;371913;289070;-1240;
2024-05-23T22:36:22.080;539697999478828156;340264;371098;288468;-1235;
2024-05-23T22:36:22.098;539697999496979414;339735;370523;288006;-1201;
2024-05-23T22:36:22.116;539697999515130672;339438;370198;287825;-1209;
2024-05-23T22:36:22.135;539697999533281930;339370;370212;287795;-1251;
2024-05-23T22:36:22.153;539697999551433188;339514;370328;287853;-1210;
2024-05-23T22:36:22.171;539697999569584446;339796;370649;288084;-1243;
2024-05-23T22:36:22.189;539697999587735704;340111;371118;288405;-1268;
2024-05-23T22:36:22.207;539697999605886962;340486;371599;288756;-1240;
2024-05-23T22:36:22.225;539697999624038220;340940;372099;289120;-1211;
2024-05-23T22:36:22.243;539697999642189478;341332;372602;289465;-1233;
2024-05-23T22:36:22.262;539697999660340736;341578;372897;289700;-1235;
2024-05-23T22:36:22.280;539697999678491994;341857;373256;289947;-1260;
2024-05-23T22:36:22.298;539697999696643252;342048;373491;290144;-1228;
2024-05-23T22:36:22.316;539697999714794510;342125;373683;290222;-1269;
2024-05-23T22:36:22.334;539697999732945768;342247;373819;290362;-1248;
2024-05-23T22:36:22.352;539697999751097026;342265;373950;290449;-1220;
2024-05-23T22:36:22.370;539697999769248284;342296;373949;290459;-1234;
2024-05-23T22:36:22.389;539697999787399542;342325;374085;290503;-1233;
2024-05-23T22:36:22.407;539697999805550800;342422;374218;290621;-1250;
2024-05-23T22:36:22.425;539697999823702058;342502;374266;290678;-1220;
2024-05-23T22:36:22.443;539697999841853316;342567;374330;290783;-1221;
2024-05-23T22:36:22.461;539697999860004574;342585;374368;290856;-1294;
2024-05-23T22:36:22.479;539697999878155832;342651;374465;290850;-1253;
2024-05-23T22:36:22.498;539697999896307090;342760;374662;291007;-1228;
2024-05-23T22:36:22.516;539697999914458348;342896;374777;291178;-1240;
2024-05-23T22:36:22.534;539697999932609606;342969;374946;291285;-1238;
2024-05-23T22:36:22.552;539697999950760864;343037;374958;291333;-1257;
2024-05-23T22:36:22.570;539697999968912122;342849;374682;291160;-1227;
2024-05-23T22:36:22.588;539697999987063380;342236;374042;290794;-1209;
2024-05-23T22:36:22.606;539698000005214638;341240;373009;290067;-1218;
2024-05-23T22:36:22.625;539698000023367630;340079;371655;289171;-1177;
2024-05-23T22:36:22.643;539698000041520608;338793;370127;288053;-1210;
2024-05-23T22:36:22.661;539698000059673586;337462;368642;287078;-1259;
2024-05-23T22:36:22.679;539698000077826564;336383;367402;286263;-1263;
2024-05-23T22:36:22.697;539698000095979542;335573;366503;285638;-1261;
2024-05-23T22:36:22.715;539698000114132520;334920;365781;285224;-1217;
2024-05-23T22:36:22.734;539698000132285498;334584;365379;284910;-1279;
2024-05-23T22:36:22.752;539698000150438476;334401;365191;284869;-1197;
2024-05-23T22:36:22.770;539698000168591454;334554;365354;284995;-1215;
2024-05-23T22:36:22.788;539698000186744432;334797;365548;285174;-1253;
2024-05-23T22:36:22.806;539698000204897410;335129;365954;285526;-1254;
2024-05-23T22:36:22.824;539698000223050388;335427;366414;285808;-1234;
2024-05-23T22:36:22.842;539698000241203366;335839;366850;286084;-1251;
2024-05-23T22:36:22.861;539698000259356344;336174;367281;286374;-1224;
2024-05-23T22:36:22.879;539698000277509322;336491;367693;286701;-1211;
2024-05-23T22:36:22.897;539698000295662300;336709;367878;286914;-1238;
2024-05-23T22:36:22.915;539698000313815278;336884;368148;287042;-1250;
2024-05-23T22:36:22.933;539698000331968256;336973;368300;287215;-1246;
2024-05-23T22:36:22.951;539698000350121234;337039;368441;287249;-1199;
2024-05-23T22:36:22.969;539698000368274212;337075;368498;287305;-1199;
2024-05-23T22:36:22.988;539698000386427190;337053;368518;287366;-1209;
2024-05-23T22:36:23.006;539698000404580168;337146;368554;287423;-1238;
2024-05-23T22:36:23.024;539698000422733146;337194;368567;287489;-1222;
2024-05-23T22:36:23.042;539698000440886124;337255;368697;287596;-1210;
2024-05-23T22:36:23.060;539698000459039102;337275;368761;287626;-1187;
2024-05-23T22:36:23.078;539698000477192080;337349;368852;287727;-1212;
2024-05-23T22:36:23.097;539698000495345058;337443;368966;287769;-1208;
2024-05-23T22:36:23.115;539698000513498036;337465;369108;287910;-1197;
2024-05-23T22:36:23.133;539698000531651014;337607;369208;288032;-1200;
2024-05-23T22:36:23.151;539698000549803992;337720;369412;288209;-1218;
2024-05-23T22:36:23.169;539698000567956970;337907;369591;288353;-1172;
2024-05-23T22:36:23.187;539698000586109948;337786;369548;288324;-1274;
2024-05-23T22:36:23.205;539698000604262926;337525;369202;288066;-1229;
2024-05-23T22:36:23.224;539698000622415904;336840;368543;287601;-1283;
2024-05-23T22:36:23.242;539698000640568882;335903;367556;286913;-1233;
2024-05-23T22:36:23.260;539698000658722478;334847;366342;286080;-1220;
2024-05-23T22:36:23.278;539698000676876069;333736;365128;285184;-1205;
2024-05-23T22:36:23.296;539698000695029660;332800;364143;284468;-1190;
2024-05-23T22:36:23.314;539698000713183251;331953;363266;283902;-1245;
2024-05-23T22:36:23.333;539698000731336842;331418;362668;283455;-1168;
2024-05-23T22:36:23.351;539698000749490433;331071;362283;283210;-1239;
2024-05-23T22:36:23.369;539698000767644024;330941;362147;283119;-1274;
2024-05-23T22:36:23.387;539698000785797615;331040;362185;283174;-1271;
2024-05-23T22:36:23.405;539698000803951206;331160;362368;283308;-1237;
2024-05-23T22:36:23.423;539698000822104797;331539;362872;283653;-1242;
2024-05-23T22:36:23.441;539698000840258388;332027;363383;284078;-1207;
2024-05-23T22:36:23.460;539698000858411979;332384;363835;284382;-1205;
2024-05-23T22:36:23.478;539698000876565570;332739;364329;284698;-1216;
2024-05-23T22:36:23.496;539698000894719161;333148;364733;284990;-1234;
2024-05-23T22:36:23.514;539698000912872752;333501;365162;285300;-1207;
2024-05-23T22:36:23.532;539698000931026343;333789;365499;285575;-1194;
2024-05-23T22:36:23.550;539698000949179934;333981;365768;285768;-1239;
2024-05-23T22:36:23.569;539698000967333525;334120;366015;285904;-1274;
2024-05-23T22:36:23.587;539698000985487116;334293;366181;286052;-1235;
2024-05-23T22:36:23.605;539698001003640707;334452;366377;286129;-1218;
2024-05-23T22:36:23.623;539698001021794298;334495;366490;286191;-1287;
2024-05-23T22:36:23.641;539698001039947889;334576;366643;286300;-1233;
2024-05-23T22:36:23.659;539698001058101480;334737;366820;286483;-1279;
2024-05-23T22:36:23.677;539698001076255071;334784;366978;286595;-1263;
2024-05-23T22:36:23.696;539698001094408662;334948;367125;286696;-1233;
2024-05-23T22:36:23.714;539698001112562253;335085;367329;286812;-1273;
2024-05-23T22:36:23.732;539698001130715844;335273;367652;287036;-1277;
2024-05-23T22:36:23.750;539698001148869435;335472;367928;287189;-1239;
2024-05-23T22:36:23.768;539698001167023026;335701;368141;287367;-1265;
2024-05-23T22:36:23.786;539698001185176617;335968;368545;287598;-1235;
2024-05-23T22:36:23.805;539698001203330208;336354;368869;287827;-1198;
2024-05-23T22:36:23.823;539698001221483799;336624;369205;288083;-1219;
2024-05-23T22:36:23.841;539698001239637390;336702;369390;288145;-1206;
2024-05-23T22:36:23.859;539698001257790981;336500;369257;288066;-1237;
2024-05-23T22:36:23.877;539698001275944572;336072;368928;287768;-1189;
2024-05-23T22:36:23.895;539698001294098163;335449;368237;287254;-1203;
2024-05-23T22:36:23.913;539698001312251754;334736;367589;286705;-1222;
2024-05-23T22:36:23.932;539698001330405304;334059;366865;286142;-1268;
2024-05-23T22:36:23.950;539698001348558849;333396;366300;285662;-1250;
2024-05-23T22:36:23.968;539698001366712394;333028;365948;285378;-1195;
2024-05-23T22:36:23.986;539698001384865939;332858;365751;285166;-1207;
2024-05-23T22:36:24.004;539698001403019484;332816;365824;285207;-1223;
2024-05-23T22:36:24.022;539698001421173029;333050;365999;285363;-1227;
2024-05-23T22:36:24.041;539698001439326574;333442;366496;285624;-1202;
2024-05-23T22:36:24.059;539698001457480119;333884;367151;286045;-1219;
2024-05-23T22:36:24.077;539698001475633664;334455;367779;286425;-1234;
2024-05-23T22:36:24.095;539698001493787209;335007;368502;286938;-1235;
2024-05-23T22:36:24.113;539698001511940754;335562;369191;287351;-1252;
2024-05-23T22:36:24.131;539698001530094299;336248;369891;287844;-1269;
2024-05-23T22:36:24.149;539698001548247844;336723;370593;288249;-1220;
2024-05-23T22:36:24.168;539698001566401389;337277;371224;288683;-1198;
2024-05-23T22:36:24.186;539698001584554934;337683;371723;289050;-1218;
2024-05-23T22:36:24.204;539698001602708479;338066;372282;289371;-1239;
2024-05-23T22:36:24.222;539698001620862024;338379;372702;289620;-1259;
2024-05-23T22:36:24.240;539698001639015569;338756;373142;289895;-1169;
2024-05-23T22:36:24.258;539698001657169114;339021;373518;290156;-1227;
2024-05-23T22:36:24.277;539698001675322659;339356;373962;290382;-1195;
2024-05-23T22:36:24.295;539698001693476204;339596;374297;290610;-1238;
2024-05-23T22:36:24.313;539698001711629749;339916;374656;290815;-1217;
2024-05-23T22:36:24.331;539698001729783294;340206;375048;291032;-1237;
2024-05-23T22:36:24.349;539698001747936839;340503;375403;291214;-1228;
2024-05-23T22:36:24.367;539698001766090384;340820;375786;291514;-1186;
2024-05-23T22:36:24.385;539698001784243929;341194;376234;291799;-1198;
2024-05-23T22:36:24.404;539698001802397474;341461;376683;292073;-1203;
2024-05-23T22:36:24.422;539698001820551019;341820;377089;292312;-1220;
2024-05-23T22:36:24.440;539698001838704564;342175;377572;292613;-1263;
2024-05-23T22:36:24.458;539698001856858109;342532;377965;292831;-1201;
2024-05-23T22:36:24.476;539698001875011654;342844;378389;293124;-1209;
2024-05-23T22:36:24.494;539698001893165199;342934;378573;293141;-1266;
2024-05-23T22:36:24.513;539698001911318744;342758;378477;293054;-1252;
2024-05-23T22:36:24.531;539698001929472289;342471;378165;292772;-1233;
2024-05-23T22:36:24.549;539698001947625834;341984;377706;292392;-1215;
2024-05-23T22:36:24.567;539698001965781704;341500;377159;291926;-1201;
2024-05-23T22:36:24.585;539698001983937563;340983;376626;291555;-1246;
2024-05-23T22:36:24.603;539698002002093422;340591;376233;291196;-1195;
2024-05-23T22:36:24.621;539698002020249281;340356;375944;290974;-1178;
2024-05-23T22:36:24.640;539698002038405140;340328;375949;290981;-1158;
2024-05-23T22:36:24.658;539698002056560999;340466;376037;291007;-1191;
2024-05-23T22:36:24.676;539698002074716858;340672;376317;291139;-1163;
2024-05-23T22:36:24.694;539698002092872717;340997;376689;291440;-1227;
2024-05-23T22:36:24.712;539698002111028576;341486;377212;291792;-1266;
2024-05-23T22:36:24.730;539698002129184435;342041;377826;292175;-1278;
2024-05-23T22:36:24.749;539698002147340294;342582;378391;292612;-1282;
2024-05-23T22:36:24.767;539698002165496153;343100;378945;292993;-1249;
2024-05-23T22:36:24.785;539698002183652012;343523;379533;293394;-1228;
2024-05-23T22:36:24.803;539698002201807871;344041;380109;293756;-1112;
2024-05-23T22:36:24.821;539698002219963730;344419;380635;294083;-1188;
2024-05-23T22:36:24.839;539698002238119589;344816;381014;294323;-1169;
2024-05-23T22:36:24.857;539698002256275448;345094;381368;294647;-1254;
2024-05-23T22:36:24.876;539698002274431307;345454;381782;294848;-1243;
2024-05-23T22:36:24.894;539698002292587166;345660;382074;295014;-1224;
2024-05-23T22:36:24.912;539698002310743025;345938;382460;295240;-1242;
2024-05-23T22:36:24.930;539698002328898884;346207;382861;295457;-1227;
2024-05-23T22:36:24.948;539698002347054743;346505;383107;295690;-1252;
2024-05-23T22:36:24.966;539698002365210602;346851;383422;295911;-1296;
2024-05-23T22:36:24.985;539698002383366461;347099;383829;296087;-1209;
2024-05-23T22:36:25.003;539698002401522320;347436;384149;296342;-1225;
2024-05-23T22:36:25.021;539698002419678179;347730;384479;296566;-1206;
2024-05-23T22:36:25.039;539698002437834038;348077;384847;296885;-1200;
2024-05-23T22:36:25.057;539698002455989897;348428;385214;297095;-1219;
2024-05-23T22:36:25.075;539698002474145756;348707;385535;297299;-1169;
2024-05-23T22:36:25.094;539698002492301615;348838;385728;297417;-1226;
2024-05-23T22:36:25.112;539698002510457474;348855;385762;297490;-1182;
2024-05-23T22:36:25.130;539698002528613333;348535;385480;297204;-1164;
2024-05-23T22:36:25.148;539698002546769192;348186;385147;296830;-1203;
2024-05-23T22:36:25.166;539698002564925051;347754;384730;296488;-1188;
2024-05-23T22:36:25.184;539698002583080910;347337;384305;296123;-1223;
2024-05-23T22:36:25.202;539698002601236769;347026;384052;295880;-1195;
2024-05-23T22:36:25.221;539698002619392628;346802;383781;295683;-1217;
2024-05-23T22:36:25.239;539698002637546920;346735;383747;295594;-1174;
2024-05-23T22:36:25.257;539698002655701206;346842;383846;295667;-1165;
2024-05-23T22:36:25.275;539698002673855492;347097;384086;295824;-1228;
2024-05-23T22:36:25.293;539698002692009778;347412;384423;296132;-1224;
2024-05-23T22:36:25.311;539698002710164064;347897;384875;296404;-1151;
2024-05-23T22:36:25.330;539698002728318350;348272;385341;296677;-1229;
2024-05-23T22:36:25.348;539698002746472636;348813;385829;297126;-1178;
2024-05-23T22:36:25.366;539698002764626922;349185;386353;297412;-1191;
2024-05-23T22:36:25.384;539698002782781208;349664;386858;297749;-1214;
2024-05-23T22:36:25.402;539698002800935494;350017;387264;298071;-1203;
2024-05-23T22:36:25.420;539698002819089780;350424;387651;298374;-1216;
2024-05-23T22:36:25.438;539698002837244066;350663;387978;298485;-1270;
2024-05-23T22:36:25.457;539698002855398352;351016;388355;298717;-1257;
2024-05-23T22:36:25.475;539698002873552638;351301;388660;298979;-1194;
2024-05-23T22:36:25.493;539698002891706924;351512;388935;299177;-1216;
2024-05-23T22:36:25.511;539698002909861210;351738;389202;299311;-1240;
2024-05-23T22:36:25.529;539698002928015496;351958;389489;299552;-1249;
2024-05-23T22:36:25.547;539698002946169782;352229;389731;299790;-1232;
2024-05-23T22:36:25.566;539698002964324068;352487;390046;299944;-1202;
2024-05-23T22:36:25.584;539698002982478354;352762;390364;300173;-1210;
2024-05-23T22:36:25.602;539698003000632640;353044;390637;300319;-1227;
2024-05-23T22:36:25.620;539698003018786926;353338;390920;300539;-1210;
2024-05-23T22:36:25.638;539698003036941212;353640;391294;300804;-1246;
2024-05-23T22:36:25.656;539698003055095498;353879;391627;301050;-1209;
2024-05-23T22:36:25.674;539698003073249784;354001;391781;301086;-1220;
2024-05-23T22:36:25.693;539698003091404070;353927;391746;301021;-1268;
2024-05-23T22:36:25.711;539698003109558356;353743;391486;300853;-1172;
2024-05-23T22:36:25.729;539698003127712642;353306;391132;300535;-1229;
2024-05-23T22:36:25.747;539698003145866928;352935;390778;300167;-1191;
2024-05-23T22:36:25.765;539698003164021214;352438;390250;299853;-1199;
2024-05-23T22:36:25.783;539698003182175500;352050;389821;299471;-1232;
2024-05-23T22:36:25.802;539698003200329786;351924;389582;299365;-1236;
2024-05-23T22:36:25.820;539698003218484072;351852;389473;299230;-1203;
2024-05-23T22:36:25.838;539698003236638358;351922;389567;299222;-1233;
2024-05-23T22:36:25.856;539698003254792644;352080;389763;299368;-1284;
2024-05-23T22:36:25.874;539698003272947318;352420;390010;299566;-1188;
2024-05-23T22:36:25.892;539698003291101981;352739;390361;299766;-1232;
2024-05-23T22:36:25.910;539698003309256644;353214;390820;300135;-1200;
2024-05-23T22:36:25.929;539698003327411307;353596;391184;300433;-1289;
2024-05-23T22:36:25.947;539698003345565970;354066;391718;300723;-1248;
2024-05-23T22:36:25.965;539698003363720633;354380;392166;301008;-1219;
2024-05-23T22:36:25.983;539698003381875296;354777;392563;301307;-1250;
2024-05-23T22:36:26.001;539698003400029959;355076;392875;301520;-1241;
2024-05-23T22:36:26.019;539698003418184622;355266;393146;301718;-1232;
2024-05-23T22:36:26.038;539698003436339285;355510;393346;301867;-1175;
2024-05-23T22:36:26.056;539698003454493948;355690;393556;301996;-1225;
2024-05-23T22:36:26.074;539698003472648611;355855;393763;302187;-1308;
2024-05-23T22:36:26.092;539698003490803274;356074;394028;302334;-1185;
2024-05-23T22:36:26.110;539698003508957937;356268;394144;302474;-1197;
2024-05-23T22:36:26.128;539698003527112600;356478;394339;302529;-1226;
2024-05-23T22:36:26.146;539698003545267263;356658;394478;302671;-1232;
2024-05-23T22:36:26.165;539698003563421926;356872;394717;302860;-1205;
2024-05-23T22:36:26.183;539698003581576589;357037;394967;303095;-1233;
2024-05-23T22:36:26.201;539698003599731252;357375;395162;303285;-1238;
2024-05-23T22:36:26.219;539698003617885915;357510;395345;303410;-1219;
2024-05-23T22:36:26.237;539698003636040578;357690;395497;303515;-1242;
2024-05-23T22:36:26.255;539698003654195241;357638;395526;303536;-1240;
2024-05-23T22:36:26.274;539698003672349904;357476;395281;303377;-1221;
2024-05-23T22:36:26.292;539698003690504567;357089;394896;303025;-1198;
2024-05-23T22:36:26.310;539698003708659230;356585;394427;302643;-1210;
2024-05-23T22:36:26.328;539698003726813893;356152;393888;302239;-1245;
2024-05-23T22:36:26.346;539698003744968556;355702;393407;301838;-1200;
2024-05-23T22:36:26.364;539698003763123219;355405;392945;301509;-1239;
2024-05-23T22:36:26.383;539698003781277882;355244;392706;301300;-1205;
2024-05-23T22:36:26.401;539698003799432545;355170;392599;301212;-1176;
2024-05-23T22:36:26.419;539698003817587208;355237;392582;301233;-1167;
2024-05-23T22:36:26.437;539698003835741871;355344;392737;301284;-1238;
2024-05-23T22:36:26.455;539698003853896534;355664;393007;301542;-1216;
2024-05-23T22:36:26.473;539698003872051197;355942;393318;301734;-1192;
2024-05-23T22:36:26.491;539698003890205860;356278;393704;301967;-1226;
2024-05-23T22:36:26.510;539698003908360523;356702;394150;302273;-1243;
2024-05-23T22:36:26.528;539698003926515186;357047;394543;302572;-1245;
2024-05-23T22:36:26.546;539698003944668422;357421;394870;302804;-1252;
2024-05-23T22:36:26.564;539698003962821623;357767;395257;303059;-1192;
2024-05-23T22:36:26.582;539698003980974824;358010;395547;303295;-1223;
2024-05-23T22:36:26.600;539698003999128025;358196;395766;303381;-1194;
2024-05-23T22:36:26.619;539698004017281226;358415;396105;303642;-1174;
2024-05-23T22:36:26.637;539698004035434427;358599;396188;303679;-1237;
2024-05-23T22:36:26.655;539698004053587628;358774;396441;303880;-1241;
2024-05-23T22:36:26.673;539698004071740829;358901;396563;303907;-1242;
2024-05-23T22:36:26.691;539698004089894030;359073;396747;304055;-1277;
2024-05-23T22:36:26.709;539698004108047231;359263;396917;304222;-1310;
2024-05-23T22:36:26.727;539698004126200432;359419;397047;304334;-1245;
2024-05-23T22:36:26.746;539698004144353633;359603;397155;304412;-1175;
2024-05-23T22:36:26.764;539698004162506834;359734;397396;304578;-1305;
2024-05-23T22:36:26.782;539698004180660035;359921;397554;304695;-1276;
2024-05-23T22:36:26.800;539698004198813236;360104;397714;304806;-1253;
2024-05-23T22:36:26.818;539698004216966437;360305;397864;304945;-1263;
2024-05-23T22:36:26.836;539698004235119638;360352;397839;305014;-1274;
2024-05-23T22:36:26.854;539698004253272839;360169;397718;304835;-1214;
2024-05-23T22:36:26.873;539698004271426040;359816;397276;304523;-1207;
2024-05-23T22:36:26.891;539698004289579241;359257;396628;304127;-1215;
2024-05-23T22:36:26.909;539698004307732442;358634;395882;303579;-1265;
2024-05-23T22:36:26.927;539698004325885643;357886;395074;302888;-1259;
2024-05-23T22:36:26.945;539698004344038844;357343;394406;302422;-1212;
2024-05-23T22:36:26.963;539698004362192045;356881;393663;301987;-1226;
2024-05-23T22:36:26.982;539698004380345246;356473;393173;301660;-1200;
2024-05-23T22:36:27.000;539698004398498447;356256;392852;301386;-1246;
2024-05-23T22:36:27.018;539698004416651648;356216;392687;301310;-1240;
2024-05-23T22:36:27.036;539698004434804849;356283;392648;301368;-1246;
2024-05-23T22:36:27.054;539698004452958050;356436;392728;301396;-1221;
2024-05-23T22:36:27.072;539698004471111251;356632;392946;301582;-1266;
2024-05-23T22:36:27.090;539698004489264452;356901;393251;301798;-1285;
2024-05-23T22:36:27.109;539698004507417653;357229;393568;301999;-1239;
2024-05-23T22:36:27.127;539698004525570854;357461;393802;302235;-1223;
2024-05-23T22:36:27.145;539698004543724055;357773;394055;302478;-1257;
2024-05-23T22:36:27.163;539698004561877256;358018;394335;302639;-1216;
2024-05-23T22:36:27.181;539698004580030457;358179;394387;302727;-1280;
2024-05-23T22:36:27.199;539698004598183658;358302;394532;302857;-1305;
2024-05-23T22:36:27.218;539698004616336859;358445;394652;302938;-1286;
2024-05-23T22:36:27.236;539698004634490060;358543;394750;302929;-1286;
2024-05-23T22:36:27.254;539698004652643328;358632;394843;303066;-1251;
2024-05-23T22:36:27.272;539698004670796589;358702;394857;303155;-1260;
2024-05-23T22:36:27.290;539698004688949850;358816;394982;303240;-1226;
2024-05-23T22:36:27.308;539698004707103111;358864;394984;303249;-1249;
2024-05-23T22:36:27.326;539698004725256372;358921;395050;303281;-1233;
2024-05-23T22:36:27.345;539698004743409633;359013;395106;303364;-1271;
2024-05-23T22:36:27.363;539698004761562894;359123;395094;303419;-1255;
2024-05-23T22:36:27.381;539698004779716155;359168;395178;303513;-1254;
2024-05-23T22:36:27.399;539698004797869416;359357;395333;303649;-1251;
2024-05-23T22:36:27.417;539698004816022677;359449;395448;303751;-1221;
2024-05-23T22:36:27.435;539698004834175938;359571;395523;303872;-1273;
2024-05-23T22:36:27.454;539698004852329199;359576;395561;303845;-1290;
2024-05-23T22:36:27.472;539698004870482460;359449;395348;303698;-1254;
2024-05-23T22:36:27.490;539698004888635721;359065;394871;303388;-1189;
2024-05-23T22:36:27.508;539698004906788982;358471;394175;302901;-1241;
2024-05-23T22:36:27.526;539698004924942243;357710;393259;302226;-1239;
2024-05-23T22:36:27.544;539698004943095504;356964;392310;301481;-1288;
2024-05-23T22:36:27.562;539698004961248765;356207;391338;300804;-1286;
2024-05-23T22:36:27.581;539698004979402026;355546;390574;300324;-1289;
2024-05-23T22:36:27.599;539698004997555287;355067;389915;299834;-1219;
2024-05-23T22:36:27.617;539698005015708548;354761;389437;299545;-1262;
2024-05-23T22:36:27.635;539698005033861809;354554;389153;299401;-1284;
2024-05-23T22:36:27.653;539698005052015070;354494;388984;299314;-1259;
2024-05-23T22:36:27.671;539698005070168331;354596;389040;299342;-1248;
2024-05-23T22:36:27.690;539698005088321592;354806;389186;299440;-1282;
2024-05-23T22:36:27.708;539698005106474853;355059;389438;299681;-1228;
2024-05-23T22:36:27.726;539698005124628114;355318;389775;299882;-1216;
2024-05-23T22:36:27.744;539698005142781375;355606;389982;300086;-1225;
2024-05-23T22:36:27.762;539698005160934636;355777;390236;300288;-1210;
2024-05-23T22:36:27.780;539698005179087897;356053;390439;300427;-1246;
2024-05-23T22:36:27.798;539698005197241158;356219;390538;300531;-1166;
2024-05-23T22:36:27.817;539698005215394419;356334;390646;300563;-1236;
2024-05-23T22:36:27.835;539698005233547680;356368;390714;300668;-1209;
2024-05-23T22:36:27.853;539698005251700941;356454;390695;300723;-1222;
2024-05-23T22:36:27.871;539698005269854202;356471;390768;300788;-1242;
2024-05-23T22:36:27.889;539698005288007463;356521;390820;300798;-1200;
2024-05-23T22:36:27.907;539698005306160724;356547;390806;300800;-1262;
2024-05-23T22:36:27.926;539698005324313336;356612;390782;300871;-1295;
2024-05-23T22:36:27.944;539698005342465937;356611;390775;300851;-1199;
2024-05-23T22:36:27.962;539698005360618538;356654;390827;300903;-1277;
2024-05-23T22:36:27.980;539698005378771139;356753;390943;300989;-1226;
2024-05-23T22:36:27.998;539698005396923740;356782;390875;300943;-1168;
2024-05-23T22:36:28.016;539698005415076341;356887;390857;301011;-1233;
2024-05-23T22:36:28.034;539698005433228942;357001;391040;301137;-1211;
2024-05-23T22:36:28.053;539698005451381543;357027;391077;301168;-1219;
2024-05-23T22:36:28.071;539698005469534144;357144;391140;301304;-1257;
2024-05-23T22:36:28.089;539698005487686745;357238;391261;301346;-1276;
2024-05-23T22:36:28.107;539698005505839346;357372;391323;301430;-1262;
2024-05-23T22:36:28.125;539698005523991947;357339;391282;301393;-1260;
2024-05-23T22:36:28.143;539698005542144548;357072;391016;301245;-1223;
2024-05-23T22:36:28.162;539698005560297149;356586;390369;300797;-1249;
2024-05-23T22:36:28.180;539698005578449750;355813;389562;300180;-1274;
2024-05-23T22:36:28.198;539698005596602351;354981;388541;299494;-1265;
2024-05-23T22:36:28.216;539698005614754952;354075;387486;298699;-1282;
2024-05-23T22:36:28.234;539698005632907553;353352;386555;298144;-1233;
2024-05-23T22:36:28.252;539698005651060154;352662;385622;297532;-1248;
2024-05-23T22:36:28.270;539698005669212755;352242;384948;297146;-1242;
2024-05-23T22:36:28.289;539698005687365356;351916;384504;296809;-1272;
2024-05-23T22:36:28.307;539698005705517957;351698;384217;296575;-1335;
2024-05-23T22:36:28.325;539698005723670558;351765;384218;296655;-1351;
2024-05-23T22:36:28.343;539698005741823159;351891;384374;296708;-1319;
2024-05-23T22:36:28.361;539698005759975760;352201;384614;296885;-1277;
2024-05-23T22:36:28.379;539698005778128361;352518;384996;297151;-1291;
2024-05-23T22:36:28.398;539698005796280962;352959;385414;297507;-1258;
2024-05-23T22:36:28.416;539698005814433563;353288;385776;297820;-1294;
2024-05-23T22:36:28.434;539698005832586164;353578;386181;298068;-1277;
2024-05-23T22:36:28.452;539698005850738765;353932;386659;298418;-1232;
2024-05-23T22:36:28.470;539698005868891366;354192;386991;298577;-1263;
2024-05-23T22:36:28.488;539698005887043967;354341;387292;298725;-1275;
2024-05-23T22:36:28.506;539698005905196568;354612;387538;298925;-1269;
2024-05-23T22:36:28.525;539698005923349169;354831;387843;299150;-1272;
2024-05-23T22:36:28.543;539698005941501770;354974;388052;299283;-1274;
2024-05-23T22:36:28.561;539698005959654371;355084;388224;299365;-1284;
2024-05-23T22:36:28.579;539698005977806972;355296;388430;299631;-1296;
2024-05-23T22:36:28.597;539698005995960834;355491;388637;299710;-1269;
2024-05-23T22:36:28.615;539698006014114684;355644;388872;299859;-1216;
2024-05-23T22:36:28.633;539698006032268534;355867;389080;299999;-1270;
2024-05-23T22:36:28.652;539698006050422384;356044;389257;300121;-1345;
2024-05-23T22:36:28.670;539698006068576234;356186;389534;300327;-1318;
2024-05-23T22:36:28.688;539698006086730084;356402;389767;300375;-1327;
2024-05-23T22:36:28.706;539698006104883934;356697;390137;300597;-1308;
2024-05-23T22:36:28.724;539698006123037784;356932;390340;300796;-1284;
2024-05-23T22:36:28.742;539698006141191634;357211;390717;301018;-1295;
2024-05-23T22:36:28.761;539698006159345484;357425;391006;301195;-1292;
2024-05-23T22:36:28.779;539698006177499334;357426;391195;301350;-1313;
2024-05-23T22:36:28.797;539698006195653184;357437;391099;301223;-1276;
2024-05-23T22:36:28.815;539698006213807034;357067;390691;300905;-1336;
2024-05-23T22:36:28.833;539698006231960884;356516;390130;300442;-1302;
2024-05-23T22:36:28.851;539698006250114734;355828;389349;300006;-1283;
2024-05-23T22:36:28.869;539698006268268584;355134;388569;299349;-1294;
2024-05-23T22:36:28.888;539698006286422434;354448;387732;298815;-1263;
2024-05-23T22:36:28.906;539698006304576284;353967;387098;298406;-1257;
2024-05-23T22:36:28.924;539698006322730134;353567;386648;298073;-1286;
2024-05-23T22:36:28.942;539698006340883984;353433;386390;297901;-1257;
2024-05-23T22:36:28.960;539698006359037834;353394;386329;297845;-1252;
2024-05-23T22:36:28.978;539698006377191684;353552;386461;297933;-1311;
2024-05-23T22:36:28.997;539698006395345534;353799;386670;298126;-1270;
2024-05-23T22:36:29.015;539698006413499384;354108;387108;298403;-1289;
2024-05-23T22:36:29.033;539698006431653234;354490;387508;298694;-1278;
2024-05-23T22:36:29.051;539698006449807084;354874;387979;299056;-1291;
2024-05-23T22:36:29.069;539698006467960934;355225;388480;299310;-1267;
2024-05-23T22:36:29.087;539698006486114784;355538;388814;299541;-1259;
2024-05-23T22:36:29.105;539698006504268634;355836;389107;299798;-1280;
2024-05-23T22:36:29.124;539698006522422484;356038;389364;300005;-1221;
2024-05-23T22:36:29.142;539698006540576334;356203;389573;300143;-1301;
2024-05-23T22:36:29.160;539698006558730184;356355;389797;300304;-1202;
2024-05-23T22:36:29.178;539698006576884034;356459;390006;300443;-1259;
2024-05-23T22:36:29.196;539698006595037884;356520;390092;300487;-1277;
2024-05-23T22:36:29.214;539698006613191734;356680;390254;300544;-1248;
2024-05-23T22:36:29.233;539698006631344650;356822;390352;300714;-1249;
2024-05-23T22:36:29.251;539698006649497538;356864;390463;300764;-1304;
2024-05-23T22:36:29.269;539698006667650426;357034;390635;300864;-1250;
2024-05-23T22:36:29.287;539698006685803314;357141;390852;301025;-1236;
2024-05-23T22:36:29.305;539698006703956202;357207;390948;301111;-1235;
2024-05-23T22:36:29.323;539698006722109090;357408;391175;301212;-1252;
2024-05-23T22:36:29.341;539698006740261978;357522;391366;301366;-1269;
2024-05-23T22:36:29.360;539698006758414866;357719;391540;301554;-1253;
2024-05-23T22:36:29.378;539698006776567754;357832;391667;301685;-1203;
2024-05-23T22:36:29.396;539698006794720642;357837;391649;301573;-1242;
2024-05-23T22:36:29.414;539698006812873530;357497;391289;301319;-1254;
2024-05-23T22:36:29.432;539698006831026418;356852;390694;300888;-1235;
2024-05-23T22:36:29.450;539698006849179306;356135;389814;300374;-1185;
2024-05-23T22:36:29.469;539698006867332194;355364;388918;299730;-1261;
2024-05-23T22:36:29.487;539698006885485082;354594;388021;299088;-1251;
2024-05-23T22:36:29.505;539698006903637970;353966;387245;298539;-1231;
2024-05-23T22:36:29.523;539698006921790858;353424;386631;298118;-1265;
2024-05-23T22:36:29.541;539698006939943746;353112;386172;297861;-1268;
2024-05-23T22:36:29.559;539698006958096634;352961;386011;297734;-1241;
2024-05-23T22:36:29.577;539698006976249522;353018;385967;297761;-1253;
2024-05-23T22:36:29.596;539698006994402410;353173;386113;297931;-1305;
2024-05-23T22:36:29.614;539698007012555298;353366;386346;298090;-1296;
2024-05-23T22:36:29.632;539698007030708186;353782;386778;298398;-1270;
2024-05-23T22:36:29.650;539698007048861074;354072;387119;298647;-1271;
2024-05-23T22:36:29.668;539698007067013962;354379;387541;298931;-1258;
2024-05-23T22:36:29.686;539698007085166850;354698;387878;299194;-1233;
2024-05-23T22:36:29.705;539698007103319738;354901;388176;299438;-1245;
2024-05-23T22:36:29.723;539698007121472626;355109;388356;299557;-1234;
2024-05-23T22:36:29.741;539698007139625514;355219;388558;299675;-1270;
2024-05-23T22:36:29.759;539698007157778402;355310;388737;299775;-1254;
2024-05-23T22:36:29.777;539698007175931290;355449;388911;299854;-1259;
2024-05-23T22:36:29.795;539698007194084178;355535;389036;300013;-1218;
2024-05-23T22:36:29.813;539698007212237066;355532;389125;300125;-1248;
2024-05-23T22:36:29.832;539698007230389954;355638;389238;300177;-1279;
2024-05-23T22:36:29.850;539698007248542842;355667;389232;300184;-1299;
2024-05-23T22:36:29.868;539698007266695730;355830;389393;300330;-1229;
2024-05-23T22:36:29.886;539698007284848618;355944;389474;300397;-1257;
2024-05-23T22:36:29.904;539698007303001506;356049;389687;300500;-1283;
2024-05-23T22:36:29.922;539698007321154394;356207;389857;300628;-1297;
2024-05-23T22:36:29.941;539698007339307354;356378;390090;300803;-1256;
2024-05-23T22:36:29.959;539698007357460308;356505;390152;301018;-1207;
2024-05-23T22:36:29.977;539698007375613262;356385;390087;300891;-1227;
2024-05-23T22:36:29.995;539698007393766216;356011;389746;300626;-1250;
2024-05-23T22:36:30.013;539698007411919170;355426;389136;300178;-1275;
2024-05-23T22:36:30.031;539698007430072124;354689;388363;299602;-1238;
2024-05-23T22:36:30.049;539698007448225078;353931;387457;298967;-1244;
2024-05-23T22:36:30.068;539698007466378032;353128;386483;298305;-1244;
2024-05-23T22:36:30.086;539698007484530986;352263;385623;297674;-1252;
2024-05-23T22:36:30.104;539698007502683940;351749;385068;297267;-1255;
2024-05-23T22:36:30.122;539698007520836894;351440;384675;296953;-1270;
2024-05-23T22:36:30.140;539698007538989848;351274;384404;296799;-1273;
2024-05-23T22:36:30.158;539698007557142802;351258;384340;296802;-1285;
2024-05-23T22:36:30.177;539698007575295756;351460;384528;296902;-1270;
2024-05-23T22:36:30.195;539698007593448710;351699;384786;297100;-1222;
2024-05-23T22:36:30.213;539698007611601664;351965;385050;297368;-1212;
2024-05-23T22:36:30.231;539698007629754618;352249;385546;297680;-1229;
2024-05-23T22:36:30.249;539698007647907572;352723;385951;297984;-1183;
2024-05-23T22:36:30.267;539698007666060526;352946;386256;298154;-1278;
2024-05-23T22:36:30.285;539698007684213480;353237;386539;298373;-1262;
2024-05-23T22:36:30.304;539698007702366434;353342;386833;298580;-1260;
2024-05-23T22:36:30.322;539698007720519388;353524;387088;298744;-1261;
2024-05-23T22:36:30.340;539698007738672342;353570;387190;298822;-1270;
2024-05-23T22:36:30.358;539698007756825296;353603;387242;298910;-1309;
2024-05-23T22:36:30.376;539698007774978250;353693;387388;299022;-1306;
2024-05-23T22:36:30.394;539698007793131204;353737;387455;299016;-1320;
2024-05-23T22:36:30.413;539698007811284158;353795;387509;299116;-1291;
2024-05-23T22:36:30.431;539698007829437112;353905;387574;299151;-1305;
2024-05-23T22:36:30.449;539698007847590066;353978;387684;299254;-1258;
2024-05-23T22:36:30.467;539698007865743020;354018;387807;299384;-1251;
2024-05-23T22:36:30.485;539698007883895974;354102;387948;299473;-1260;
2024-05-23T22:36:30.503;539698007902048928;354229;388081;299576;-1268;
2024-05-23T22:36:30.521;539698007920201882;354365;388161;299585;-1259;
2024-05-23T22:36:30.540;539698007938354836;354291;388180;299614;-1269;
2024-05-23T22:36:30.558;539698007956507790;353999;387869;299434;-1255;
2024-05-23T22:36:30.576;539698007974660744;353445;387328;299062;-1261;
2024-05-23T22:36:30.594;539698007992812430;352667;386524;298475;-1273;
2024-05-23T22:36:30.612;539698008010964100;351821;385663;297805;-1296;
2024-05-23T22:36:30.630;539698008029115770;350921;384735;297088;-1280;
2024-05-23T22:36:30.648;539698008047267440;350190;383790;296490;-1263;
2024-05-23T22:36:30.667;539698008065419110;349515;383061;295985;-1304;
2024-05-23T22:36:30.685;539698008083570780;349036;382526;295566;-1268;
2024-05-23T22:36:30.703;539698008101722450;348735;382200;295320;-1231;
2024-05-23T22:36:30.721;539698008119874120;348621;381990;295220;-1253;
2024-05-23T22:36:30.739;539698008138025790;348575;382016;295251;-1254;
2024-05-23T22:36:30.757;539698008156177460;348837;382217;295332;-1268;
2024-05-23T22:36:30.776;539698008174329130;349110;382458;295622;-1255;
2024-05-23T22:36:30.794;539698008192480800;349402;382818;295885;-1283;
2024-05-23T22:36:30.812;539698008210632470;349744;383223;296154;-1233;
2024-05-23T22:36:30.830;539698008228784140;350055;383528;296372;-1243;
2024-05-23T22:36:30.848;539698008246935810;350236;383865;296592;-1254;
2024-05-23T22:36:30.866;539698008265087480;350366;384017;296628;-1322;
2024-05-23T22:36:30.884;539698008283239150;350504;384128;296764;-1251;
2024-05-23T22:36:30.903;539698008301390820;350526;384191;296787;-1222;
2024-05-23T22:36:30.921;539698008319542490;350486;384221;296866;-1229;
2024-05-23T22:36:30.939;539698008337694160;350504;384275;296858;-1188;
2024-05-23T22:36:30.957;539698008355845830;350489;384349;296856;-1198;
2024-05-23T22:36:30.975;539698008373997500;350485;384368;296878;-1234;
2024-05-23T22:36:30.993;539698008392149170;350492;384410;296901;-1195;
2024-05-23T22:36:31.012;539698008410300840;350501;384449;296929;-1306;
2024-05-23T22:36:31.030;539698008428452510;350586;384571;296942;-1324;
2024-05-23T22:36:31.048;539698008446604180;350661;384797;297063;-1263;
2024-05-23T22:36:31.066;539698008464755850;350732;384959;297164;-1282;
2024-05-23T22:36:31.084;539698008482907520;350768;385018;297241;-1251;
2024-05-23T22:36:31.102;539698008501059190;350707;384961;297153;-1259;
2024-05-23T22:36:31.120;539698008519210860;350279;384591;296851;-1279;
2024-05-23T22:36:31.139;539698008537362530;349661;383870;296346;-1310;
2024-05-23T22:36:31.157;539698008555514200;348752;383026;295732;-1344;
2024-05-23T22:36:31.175;539698008573665870;347893;382179;295010;-1219;
2024-05-23T22:36:31.193;539698008591817540;347059;381224;294356;-1258;
2024-05-23T22:36:31.211;539698008609969210;346277;380367;293800;-1285;
2024-05-23T22:36:31.229;539698008628122049;345735;379750;293339;-1263;
2024-05-23T22:36:31.247;539698008646274878;345327;379312;293026;-1313;
2024-05-23T22:36:31.266;539698008664427707;345128;379105;292875;-1291;
2024-05-23T22:36:31.284;539698008682580536;345044;378989;292827;-1215;
2024-05-23T22:36:31.302;539698008700733365;345199;379137;292952;-1207;
2024-05-23T22:36:31.320;539698008718886194;345352;379392;293086;-1241;
2024-05-23T22:36:31.338;539698008737039023;345603;379658;293248;-1212;
2024-05-23T22:36:31.356;539698008755191852;345897;379956;293505;-1212;
2024-05-23T22:36:31.375;539698008773344681;346127;380222;293607;-1258;
2024-05-23T22:36:31.393;539698008791497510;346467;380528;293909;-1225;
2024-05-23T22:36:31.411;539698008809650339;346681;380756;294040;-1232;
2024-05-23T22:36:31.429;539698008827803168;346822;380941;294247;-1227;
2024-05-23T22:36:31.447;539698008845955997;346918;381134;294349;-1236;
2024-05-23T22:36:31.465;539698008864108826;346949;381242;294415;-1235;
2024-05-23T22:36:31.483;539698008882261655;347058;381353;294521;-1209;
2024-05-23T22:36:31.502;539698008900414484;347034;381403;294553;-1235;
2024-05-23T22:36:31.520;539698008918567313;347131;381487;294657;-1248;
2024-05-23T22:36:31.538;539698008936720142;347167;381565;294764;-1242;
2024-05-23T22:36:31.556;539698008954872971;347244;381633;294755;-1283;
2024-05-23T22:36:31.574;539698008973025800;347288;381709;294858;-1236;
2024-05-23T22:36:31.592;539698008991178629;347308;381836;294935;-1296;
2024-05-23T22:36:31.611;539698009009331458;347430;381962;294997;-1300;
2024-05-23T22:36:31.629;539698009027484287;347458;382051;295062;-1239;
2024-05-23T22:36:31.647;539698009045637116;347611;382213;295177;-1255;
2024-05-23T22:36:31.665;539698009063789945;347674;382292;295219;-1261;
2024-05-23T22:36:31.683;539698009081942774;347443;382072;295096;-1214;
2024-05-23T22:36:31.701;539698009100095603;346871;381576;294616;-1272;
2024-05-23T22:36:31.719;539698009118248432;346093;380696;294039;-1217;
2024-05-23T22:36:31.738;539698009136401261;345048;379703;293282;-1249;
2024-05-23T22:36:31.756;539698009154554090;343918;378585;292462;-1251;
2024-05-23T22:36:31.774;539698009172706919;342883;377461;291592;-1245;
2024-05-23T22:36:31.792;539698009190859748;341983;376430;290819;-1191;
2024-05-23T22:36:31.810;539698009209012577;341227;375676;290230;-1250;
2024-05-23T22:36:31.828;539698009227165406;340695;375127;289808;-1246;
2024-05-23T22:36:31.847;539698009245318235;340406;374809;289551;-1304;
2024-05-23T22:36:31.865;539698009263471064;340280;374724;289568;-1292;
2024-05-23T22:36:31.883;539698009281623893;340318;374675;289543;-1271;
2024-05-23T22:36:31.901;539698009299776722;340492;374864;289689;-1258;
2024-05-23T22:36:31.919;539698009317930366;340797;375165;289944;-1270;
2024-05-23T22:36:31.937;539698009336083998;341177;375526;290212;-1232;
2024-05-23T22:36:31.955;539698009354237630;341457;375906;290458;-1210;
2024-05-23T22:36:31.974;539698009372391262;341797;376265;290731;-1195;
2024-05-23T22:36:31.992;539698009390544894;342086;376595;291007;-1262;
2024-05-23T22:36:32.010;539698009408698526;342284;376851;291220;-1244;
2024-05-23T22:36:32.028;539698009426852158;342449;377163;291334;-1313;
2024-05-23T22:36:32.046;539698009445005790;342618;377411;291503;-1289;
2024-05-23T22:36:32.064;539698009463159422;342672;377471;291538;-1266;
2024-05-23T22:36:32.083;539698009481313054;342859;377642;291628;-1215;
2024-05-23T22:36:32.101;539698009499466686;342923;377731;291753;-1246;
2024-05-23T22:36:32.119;539698009517620318;342951;377800;291803;-1234;
2024-05-23T22:36:32.137;539698009535773950;343046;377957;291878;-1260;
2024-05-23T22:36:32.155;539698009553927582;343047;378027;291875;-1248;
2024-05-23T22:36:32.173;539698009572081214;343077;378156;291925;-1258;
2024-05-23T22:36:32.191;539698009590234846;343248;378244;292076;-1268;
2024-05-23T22:36:32.210;539698009608388478;343314;378368;292175;-1294;
2024-05-23T22:36:32.228;539698009626542110;343410;378542;292308;-1236;
2024-05-23T22:36:32.246;539698009644695742;343533;378745;292385;-1255;
2024-05-23T22:36:32.264;539698009662849374;343516;378756;292424;-1274;
2024-05-23T22:36:32.282;539698009681003006;343278;378590;292241;-1224;
2024-05-23T22:36:32.300;539698009699156638;342768;378098;291908;-1260;
2024-05-23T22:36:32.319;539698009717310270;342009;377309;291291;-1302;
2024-05-23T22:36:32.337;539698009735463902;341130;376416;290548;-1245;
2024-05-23T22:36:32.355;539698009753617534;340335;375471;289858;-1297;
2024-05-23T22:36:32.373;539698009771771166;339454;374548;289197;-1299;
2024-05-23T22:36:32.391;539698009789924798;338668;373798;288589;-1263;
2024-05-23T22:36:32.409;539698009808078430;338163;373256;288222;-1270;
2024-05-23T22:36:32.427;539698009826232062;337815;372873;287917;-1237;
2024-05-23T22:36:32.446;539698009844385694;337657;372728;287817;-1275;
2024-05-23T22:36:32.464;539698009862539326;337638;372674;287796;-1285;
2024-05-23T22:36:32.482;539698009880692958;337810;372836;287961;-1272;
2024-05-23T22:36:32.500;539698009898846590;338094;373116;288157;-1322;
2024-05-23T22:36:32.518;539698009917000222;338432;373517;288465;-1267;
2024-05-23T22:36:32.536;539698009935153854;338870;373941;288715;-1263;
2024-05-23T22:36:32.555;539698009953307486;339210;374354;289082;-1242;
2024-05-23T22:36:32.573;539698009971461118;339485;374727;289340;-1297;
2024-05-23T22:36:32.591;539698009989614750;339829;375061;289574;-1271;
2024-05-23T22:36:32.609;539698010007768382;340097;375417;289759;-1267;
2024-05-23T22:36:32.627;539698010025921862;340321;375606;289908;-1293;
2024-05-23T22:36:32.645;539698010044075329;340527;375869;290119;-1229;
2024-05-23T22:36:32.663;539698010062228796;340740;375998;290203;-1269;
2024-05-23T22:36:32.682;539698010080382263;340833;376212;290342;-1265;
2024-05-23T22:36:32.700;539698010098535730;340886;376283;290481;-1294;
2024-05-23T22:36:32.718;539698010116689197;341043;376516;290592;-1224;
2024-05-23T22:36:32.736;539698010134842664;341115;376666;290674;-1214;
2024-05-23T22:36:32.754;539698010152996131;341225;376709;290717;-1253;
2024-05-23T22:36:32.772;539698010171149598;341414;376907;290921;-1234;
2024-05-23T22:36:32.791;539698010189303065;341533;377074;291049;-1300;
2024-05-23T22:36:32.809;539698010207456532;341688;377293;291172;-1274;
2024-05-23T22:36:32.827;539698010225609999;341885;377520;291320;-1188;
2024-05-23T22:36:32.845;539698010243763466;341996;377730;291370;-1284;
2024-05-23T22:36:32.863;539698010261916933;342177;377886;291617;-1302;
2024-05-23T22:36:32.881;539698010280070400;342271;377958;291630;-1310;
2024-05-23T22:36:32.899;539698010298223867;342064;377780;291468;-1283;
2024-05-23T22:36:32.918;539698010316377334;341655;377380;291205;-1260;
2024-05-23T22:36:32.936;539698010334530801;340981;376799;290677;-1274;
2024-05-23T22:36:32.954;539698010352684268;340323;376122;290135;-1262;
2024-05-23T22:36:32.972;539698010370837735;339669;375407;289568;-1288;
2024-05-23T22:36:32.990;539698010388991202;339086;374850;289058;-1290;
2024-05-23T22:36:33.008;539698010407144669;338622;374336;288690;-1256;
2024-05-23T22:36:33.027;539698010425298136;338343;374065;288502;-1254;
2024-05-23T22:36:33.045;539698010443451603;338253;373996;288393;-1272;
2024-05-23T22:36:33.063;539698010461605070;338311;374050;288447;-1260;
2024-05-23T22:36:33.081;539698010479758537;338552;374340;288639;-1246;
2024-05-23T22:36:33.099;539698010497912004;338919;374712;288930;-1244;
2024-05-23T22:36:33.117;539698010516065471;339316;375223;289271;-1297;
2024-05-23T22:36:33.135;539698010534218938;339857;375721;289624;-1253;
2024-05-23T22:36:33.154;539698010552372405;340328;376218;290001;-1279;
2024-05-23T22:36:33.172;539698010570525872;340800;376784;290377;-1289;
2024-05-23T22:36:33.190;539698010588679339;341256;377360;290771;-1287;
2024-05-23T22:36:33.208;539698010606832806;341733;377829;291107;-1309;
2024-05-23T22:36:33.226;539698010624986273;342093;378303;291410;-1308;
2024-05-23T22:36:33.244;539698010643139740;342441;378716;291755;-1308;
2024-05-23T22:36:33.263;539698010661293207;342781;379153;292039;-1327;
2024-05-23T22:36:33.281;539698010679446674;343021;379499;292273;-1301;
2024-05-23T22:36:33.299;539698010697598796;343316;379868;292469;-1289;
2024-05-23T22:36:33.317;539698010715750902;343578;380170;292671;-1269;
2024-05-23T22:36:33.335;539698010733903008;343861;380525;292875;-1277;
2024-05-23T22:36:33.353;539698010752055114;344185;380910;293057;-1243;
2024-05-23T22:36:33.371;539698010770207220;344425;381200;293245;-1316;
2024-05-23T22:36:33.390;539698010788359326;344734;381512;293475;-1303;
2024-05-23T22:36:33.408;539698010806511432;344924;381880;293677;-1322;
2024-05-23T22:36:33.426;539698010824663538;345255;382298;293979;-1274;
2024-05-23T22:36:33.444;539698010842815644;345635;382673;294185;-1287;
2024-05-23T22:36:33.462;539698010860967750;345919;383038;294467;-1322;
2024-05-23T22:36:33.480;539698010879119856;346229;383348;294691;-1299;
2024-05-23T22:36:33.498;539698010897271962;346354;383592;294794;-1255;
2024-05-23T22:36:33.517;539698010915424068;346225;383573;294725;-1262;
2024-05-23T22:36:33.535;539698010933576174;345914;383257;294453;-1257;
2024-05-23T22:36:33.553;539698010951728280;345487;382837;294064;-1191;
2024-05-23T22:36:33.571;539698010969880386;344973;382371;293674;-1284;
2024-05-23T22:36:33.589;539698010988032492;344495;381956;293285;-1318;
2024-05-23T22:36:33.607;539698011006184598;344163;381573;292936;-1272;
2024-05-23T22:36:33.626;539698011024336704;343939;381265;292716;-1320;
2024-05-23T22:36:33.644;539698011042488810;343935;381252;292675;-1270;
2024-05-23T22:36:33.662;539698011060640916;343972;381306;292632;-1250;
2024-05-23T22:36:33.680;539698011078793022;344193;381551;292881;-1273;
2024-05-23T22:36:33.698;539698011096945128;344565;381940;293146;-1226;
2024-05-23T22:36:33.716;539698011115097234;345005;382364;293438;-1208;
2024-05-23T22:36:33.734;539698011133249340;345495;382903;293851;-1266;
2024-05-23T22:36:33.753;539698011151401446;345987;383398;294179;-1254;
2024-05-23T22:36:33.771;539698011169553552;346430;383963;294597;-1236;
2024-05-23T22:36:33.789;539698011187705658;346877;384410;294868;-1267;
2024-05-23T22:36:33.807;539698011205857764;347207;384857;295204;-1265;
2024-05-23T22:36:33.825;539698011224009870;347517;385254;295480;-1263;
2024-05-23T22:36:33.843;539698011242161976;347866;385675;295737;-1187;
2024-05-23T22:36:33.862;539698011260314082;348184;385934;295953;-1233;
2024-05-23T22:36:33.880;539698011278466188;348452;386224;296180;-1255;
2024-05-23T22:36:33.898;539698011296618294;348661;386588;296388;-1222;
2024-05-23T22:36:33.916;539698011314770400;348903;386795;296555;-1258;
2024-05-23T22:36:33.934;539698011332922506;349122;387004;296682;-1277;
2024-05-23T22:36:33.952;539698011351073867;349410;387326;296907;-1207;
2024-05-23T22:36:33.970;539698011369225210;349656;387602;297110;-1243;
2024-05-23T22:36:33.989;539698011387376553;349902;387938;297275;-1294;
2024-05-23T22:36:34.007;539698011405527896;350202;388263;297542;-1268;
2024-05-23T22:36:34.025;539698011423679239;350492;388531;297745;-1266;
2024-05-23T22:36:34.043;539698011441830582;350776;388880;297969;-1260;
2024-05-23T22:36:34.061;539698011459981925;351033;389156;298117;-1254;
2024-05-23T22:36:34.079;539698011478133268;351135;389251;298228;-1272;
2024-05-23T22:36:34.098;539698011496284611;351056;389199;298162;-1249;
2024-05-23T22:36:34.116;539698011514435954;350865;388933;297923;-1214;
2024-05-23T22:36:34.134;539698011532587297;350371;388471;297554;-1238;
2024-05-23T22:36:34.152;539698011550738640;349937;388009;297126;-1278;
2024-05-23T22:36:34.170;539698011568889983;349513;387548;296769;-1255;
2024-05-23T22:36:34.188;539698011587041326;349196;387172;296482;-1233;
2024-05-23T22:36:34.206;539698011605192669;348929;386827;296220;-1235;
2024-05-23T22:36:34.225;539698011623344012;348889;386685;296093;-1263;
2024-05-23T22:36:34.243;539698011641495355;348964;386744;296107;-1208;
2024-05-23T22:36:34.261;539698011659646698;349074;386879;296268;-1271;
2024-05-23T22:36:34.279;539698011677798041;349413;387221;296430;-1240;
2024-05-23T22:36:34.297;539698011695949384;349747;387545;296623;-1242;
2024-05-23T22:36:34.315;539698011714100727;350152;387979;297027;-1252;
2024-05-23T22:36:34.333;539698011732252070;350550;388416;297377;-1239;
2024-05-23T22:36:34.352;539698011750403413;350915;388813;297721;-1272;
2024-05-23T22:36:34.370;539698011768554756;351316;389230;298036;-1221;
2024-05-23T22:36:34.388;539698011786706099;351697;389600;298325;-1283;
2024-05-23T22:36:34.406;539698011804857442;352062;389935;298616;-1209;
2024-05-23T22:36:34.424;539698011823008785;352306;390140;298691;-1276;
2024-05-23T22:36:34.442;539698011841160128;352559;390384;298845;-1214;
2024-05-23T22:36:34.461;539698011859311471;352744;390649;299077;-1228;
2024-05-23T22:36:34.479;539698011877462814;352944;390877;299222;-1237;
2024-05-23T22:36:34.497;539698011895614157;353112;391047;299390;-1252;
2024-05-23T22:36:34.515;539698011913765500;353336;391232;299500;-1294;
2024-05-23T22:36:34.533;539698011931916843;353555;391437;299689;-1273;
2024-05-23T22:36:34.551;539698011950068186;353851;391708;299854;-1233;
2024-05-23T22:36:34.569;539698011968219529;354033;391851;300067;-1215;
2024-05-23T22:36:34.588;539698011986370872;354247;392076;300217;-1268;
2024-05-23T22:36:34.606;539698012004522215;354476;392326;300403;-1243;
2024-05-23T22:36:34.624;539698012022673558;354712;392536;300577;-1227;
2024-05-23T22:36:34.642;539698012040824901;354826;392652;300633;-1244;
2024-05-23T22:36:34.660;539698012058976244;354696;392491;300558;-1286;
2024-05-23T22:36:34.678;539698012077128358;354401;392157;300246;-1273;
2024-05-23T22:36:34.697;539698012095280464;353980;391692;299960;-1285;
2024-05-23T22:36:34.715;539698012113432570;353498;391090;299453;-1278;
2024-05-23T22:36:34.733;539698012131584676;353016;390595;299046;-1251;
2024-05-23T22:36:34.751;539698012149736782;352664;390037;298686;-1244;
2024-05-23T22:36:34.769;539698012167888888;352340;389680;298412;-1229;
2024-05-23T22:36:34.787;539698012186040994;352225;389481;298235;-1237;
2024-05-23T22:36:34.805;539698012204193100;352275;389397;298204;-1199;
2024-05-23T22:36:34.824;539698012222345206;352395;389504;298280;-1295;
2024-05-23T22:36:34.842;539698012240497312;352625;389630;298437;-1280;
2024-05-23T22:36:34.860;539698012258649418;352941;390017;298646;-1308;
2024-05-23T22:36:34.878;539698012276801524;353305;390439;298978;-1248;
2024-05-23T22:36:34.896;539698012294953630;353664;390723;299286;-1227;
2024-05-23T22:36:34.914;539698012313105736;354006;391155;299555;-1265;
2024-05-23T22:36:34.932;539698012331257842;354390;391567;299866;-1285;
2024-05-23T22:36:34.951;539698012349409948;354704;391829;300100;-1279;
2024-05-23T22:36:34.969;539698012367562054;354934;392059;300282;-1266;
2024-05-23T22:36:34.987;539698012385714160;355159;392323;300561;-1194;
2024-05-23T22:36:35.005;539698012403866266;355329;392533;300632;-1240;
2024-05-23T22:36:35.023;539698012422018372;355508;392631;300788;-1217;
2024-05-23T22:36:35.041;539698012440170478;355650;392755;300820;-1256;
2024-05-23T22:36:35.060;539698012458322584;355794;392906;300917;-1300;
2024-05-23T22:36:35.078;539698012476474690;355961;393095;301142;-1251;
2024-05-23T22:36:35.096;539698012494626796;356103;393164;301161;-1233;
2024-05-23T22:36:35.114;539698012512778902;356270;393387;301316;-1261;
2024-05-23T22:36:35.132;539698012530931008;356471;393520;301466;-1284;
2024-05-23T22:36:35.150;539698012549083114;356685;393725;301619;-1263;
2024-05-23T22:36:35.168;539698012567235220;356922;393906;301755;-1240;
2024-05-23T22:36:35.187;539698012585387326;357047;394054;301845;-1199;
2024-05-23T22:36:35.205;539698012603539432;356944;393979;301833;-1257;
2024-05-23T22:36:35.223;539698012621691538;356693;393724;301634;-1289;
2024-05-23T22:36:35.241;539698012639843644;356353;393197;301273;-1265;
2024-05-23T22:36:35.259;539698012657995750;355831;392589;300800;-1270;
2024-05-23T22:36:35.277;539698012676147856;355339;391957;300425;-1224;
2024-05-23T22:36:35.296;539698012694299962;354849;391345;299933;-1234;
2024-05-23T22:36:35.314;539698012712452068;354499;390922;299550;-1227;
2024-05-23T22:36:35.332;539698012730604997;354275;390527;299330;-1209;
2024-05-23T22:36:35.350;539698012748757906;354192;390342;299233;-1182;
2024-05-23T22:36:35.368;539698012766910815;354176;390310;299219;-1228;
2024-05-23T22:36:35.386;539698012785063724;354391;390411;299321;-1206;
2024-05-23T22:36:35.404;539698012803216633;354662;390690;299473;-1207;
2024-05-23T22:36:35.423;539698012821369542;354995;391070;299726;-1149;
2024-05-23T22:36:35.441;539698012839522451;355313;391417;299954;-1254;
2024-05-23T22:36:35.459;539698012857675360;355635;391773;300280;-1234;
2024-05-23T22:36:35.477;539698012875828269;356012;392108;300533;-1269;
2024-05-23T22:36:35.495;539698012893981178;356280;392422;300749;-1211;
2024-05-23T22:36:35.513;539698012912134087;356475;392670;300944;-1265;
2024-05-23T22:36:35.532;539698012930286996;356711;392809;301119;-1222;
2024-05-23T22:36:35.550;539698012948439905;356840;392978;301190;-1217;
2024-05-23T22:36:35.568;539698012966592814;356922;393055;301279;-1235;
2024-05-23T22:36:35.586;539698012984745723;357071;393180;301323;-1243;
2024-05-23T22:36:35.604;539698013002898632;357124;393256;301353;-1294;
2024-05-23T22:36:35.622;539698013021051541;357237;393445;301509;-1215;
2024-05-23T22:36:35.640;539698013039204450;357324;393445;301573;-1243;
2024-05-23T22:36:35.659;539698013057357359;357433;393567;301607;-1194;
2024-05-23T22:36:35.677;539698013075510268;357591;393679;301696;-1243;
2024-05-23T22:36:35.695;539698013093663177;357783;393861;301779;-1204;
2024-05-23T22:36:35.713;539698013111816086;357913;394096;301949;-1214;
2024-05-23T22:36:35.731;539698013129968995;357995;394174;301948;-1227;
2024-05-23T22:36:35.749;539698013148121904;357879;394022;301910;-1280;
2024-05-23T22:36:35.767;539698013166274813;357588;393639;301607;-1285;
2024-05-23T22:36:35.786;539698013184427722;357126;392973;301200;-1285;
2024-05-23T22:36:35.804;539698013202580631;356466;392195;300601;-1263;
2024-05-23T22:36:35.822;539698013220733540;355818;391441;300013;-1311;
2024-05-23T22:36:35.840;539698013238886449;355211;390592;299508;-1276;
2024-05-23T22:36:35.858;539698013257039358;354806;390058;299068;-1293;
2024-05-23T22:36:35.876;539698013275192267;354467;389480;298748;-1241;
2024-05-23T22:36:35.895;539698013293345176;354277;389187;298597;-1300;
2024-05-23T22:36:35.913;539698013311498085;354305;389138;298588;-1210;
2024-05-23T22:36:35.931;539698013329650994;354371;389107;298605;-1318;
2024-05-23T22:36:35.949;539698013347803903;354568;389324;298743;-1239;
2024-05-23T22:36:35.967;539698013365956812;354797;389525;298932;-1255;
2024-05-23T22:36:35.985;539698013384109721;355147;389815;299109;-1267;
2024-05-23T22:36:36.003;539698013402262630;355392;390099;299308;-1285;
2024-05-23T22:36:36.022;539698013420413988;355658;390382;299617;-1254;
2024-05-23T22:36:36.040;539698013438565311;355831;390618;299762;-1220;
2024-05-23T22:36:36.058;539698013456716634;356040;390756;299860;-1195;
2024-05-23T22:36:36.076;539698013474867957;356165;390912;299965;-1220;
2024-05-23T22:36:36.094;539698013493019280;356299;391005;300033;-1243;
2024-05-23T22:36:36.112;539698013511170603;356323;391001;300102;-1217;
2024-05-23T22:36:36.131;539698013529321926;356340;391079;300180;-1229;
2024-05-23T22:36:36.149;539698013547473249;356486;391158;300223;-1263;
2024-05-23T22:36:36.167;539698013565624572;356510;391157;300220;-1287;
2024-05-23T22:36:36.185;539698013583775895;356590;391141;300286;-1283;
2024-05-23T22:36:36.203;539698013601927218;356680;391160;300319;-1283;
2024-05-23T22:36:36.221;539698013620078541;356712;391149;300340;-1273;
2024-05-23T22:36:36.239;539698013638229864;356842;391292;300389;-1279;
2024-05-23T22:36:36.258;539698013656381187;356870;391325;300467;-1312;
2024-05-23T22:36:36.276;539698013674532510;357010;391375;300541;-1221;
2024-05-23T22:36:36.294;539698013692683833;356998;391399;300565;-1284;
2024-05-23T22:36:36.312;539698013710835156;356845;391187;300427;-1274;
2024-05-23T22:36:36.330;539698013728986479;356422;390643;300067;-1240;
2024-05-23T22:36:36.348;539698013747137802;355695;389751;299427;-1328;
2024-05-23T22:36:36.367;539698013765289125;354856;388693;298766;-1284;
2024-05-23T22:36:36.385;539698013783440448;353886;387429;297925;-1211;
2024-05-23T22:36:36.403;539698013801591771;352968;386278;297119;-1256;
2024-05-23T22:36:36.421;539698013819743094;352152;385107;296410;-1273;
2024-05-23T22:36:36.439;539698013837894417;351483;384245;295865;-1242;
2024-05-23T22:36:36.457;539698013856045740;351028;383596;295400;-1300;
2024-05-23T22:36:36.475;539698013874197063;350797;383243;295196;-1182;
2024-05-23T22:36:36.494;539698013892348386;350703;382970;295099;-1278;
2024-05-23T22:36:36.512;539698013910499709;350693;382937;295082;-1273;
2024-05-23T22:36:36.530;539698013928651032;350828;383081;295172;-1285;
2024-05-23T22:36:36.548;539698013946802355;351035;383274;295388;-1263;
2024-05-23T22:36:36.566;539698013964953678;351222;383505;295563;-1282;
2024-05-23T22:36:36.584;539698013983105001;351555;383748;295797;-1268;
2024-05-23T22:36:36.602;539698014001256324;351707;384029;296004;-1276;
2024-05-23T22:36:36.621;539698014019407647;351908;384234;296132;-1288;
2024-05-23T22:36:36.639;539698014037558970;351991;384425;296254;-1265;
2024-05-23T22:36:36.657;539698014055710293;352158;384482;296330;-1286;
2024-05-23T22:36:36.675;539698014073861616;352243;384571;296407;-1256;
2024-05-23T22:36:36.693;539698014092012939;352297;384561;296513;-1269;
2024-05-23T22:36:36.711;539698014110164262;352367;384622;296538;-1248;
2024-05-23T22:36:36.730;539698014128316384;352393;384557;296583;-1251;
2024-05-23T22:36:36.748;539698014146468490;352381;384526;296552;-1265;
2024-05-23T22:36:36.766;539698014164620596;352430;384549;296582;-1229;
2024-05-23T22:36:36.784;539698014182772702;352461;384527;296684;-1210;
2024-05-23T22:36:36.802;539698014200924808;352454;384528;296660;-1244;
2024-05-23T22:36:36.820;539698014219076914;352460;384597;296676;-1261;
2024-05-23T22:36:36.838;539698014237229020;352564;384639;296758;-1266;
2024-05-23T22:36:36.857;539698014255381126;352573;384644;296816;-1232;
2024-05-23T22:36:36.875;539698014273533232;352598;384689;296854;-1224;
2024-05-23T22:36:36.893;539698014291685338;352501;384497;296703;-1254;
2024-05-23T22:36:36.911;539698014309837444;352076;384012;296434;-1260;
2024-05-23T22:36:36.929;539698014327989550;351489;383186;295967;-1266;
2024-05-23T22:36:36.947;539698014346141656;350660;382167;295242;-1252;
2024-05-23T22:36:36.966;539698014364293762;349699;380948;294357;-1252;
2024-05-23T22:36:36.984;539698014382445868;348680;379702;293635;-1256;
2024-05-23T22:36:37.002;539698014400597974;347827;378610;292953;-1280;
2024-05-23T22:36:37.020;539698014418750080;347134;377629;292302;-1311;
2024-05-23T22:36:37.038;539698014436902186;346592;376920;291889;-1322;
2024-05-23T22:36:37.056;539698014455054292;346261;376412;291598;-1271;
2024-05-23T22:36:37.074;539698014473206398;346093;376220;291499;-1232;
2024-05-23T22:36:37.093;539698014491358504;346125;376154;291482;-1211;
2024-05-23T22:36:37.111;539698014509510610;346292;376266;291624;-1223;
2024-05-23T22:36:37.129;539698014527662716;346387;376454;291773;-1283;
2024-05-23T22:36:37.147;539698014545814822;346663;376778;292041;-1265;
2024-05-23T22:36:37.165;539698014563966928;347001;377102;292289;-1252;
2024-05-23T22:36:37.183;539698014582119034;347185;377355;292475;-1254;
2024-05-23T22:36:37.201;539698014600271140;347441;377638;292702;-1237;
2024-05-23T22:36:37.220;539698014618423246;347578;377839;292853;-1265;
2024-05-23T22:36:37.238;539698014636575352;347697;377987;292977;-1289;
2024-05-23T22:36:37.256;539698014654727458;347816;378050;293016;-1269;
2024-05-23T22:36:37.274;539698014672879564;347917;378131;293096;-1266;
2024-05-23T22:36:37.292;539698014691031670;347880;378166;293167;-1220;
2024-05-23T22:36:37.310;539698014709183776;347958;378117;293221;-1253;
2024-05-23T22:36:37.329;539698014727335882;347945;378139;293244;-1256;
2024-05-23T22:36:37.347;539698014745487988;347901;378120;293263;-1242;
2024-05-23T22:36:37.365;539698014763640094;347879;378164;293315;-1251;
2024-05-23T22:36:37.383;539698014781792200;347963;378174;293380;-1212;
2024-05-23T22:36:37.401;539698014799945192;347970;378207;293428;-1214;
2024-05-23T22:36:37.419;539698014818098170;348040;378232;293443;-1244;
2024-05-23T22:36:37.437;539698014836251148;348065;378249;293512;-1292;
2024-05-23T22:36:37.456;539698014854404126;348180;378393;293629;-1261;
2024-05-23T22:36:37.474;539698014872557104;348247;378480;293711;-1260;
2024-05-23T22:36:37.492;539698014890710082;348360;378588;293843;-1207;
2024-05-23T22:36:37.510;539698014908863060;348390;378542;293876;-1224;
2024-05-23T22:36:37.528;539698014927016038;348184;378363;293735;-1218;
2024-05-23T22:36:37.546;539698014945169016;347682;377860;293392;-1218;
2024-05-23T22:36:37.565;539698014963321994;346975;376891;292882;-1275;
2024-05-23T22:36:37.583;539698014981474972;346127;375849;292169;-1228;
2024-05-23T22:36:37.601;539698014999627950;345182;374677;291428;-1239;
2024-05-23T22:36:37.619;539698015017780928;344307;373601;290719;-1277;
2024-05-23T22:36:37.637;539698015035933906;343464;372648;290097;-1249;
2024-05-23T22:36:37.655;539698015054086884;342919;371929;289622;-1235;
2024-05-23T22:36:37.673;539698015072239862;342555;371424;289313;-1237;
2024-05-23T22:36:37.692;539698015090392840;342318;371132;289184;-1240;
2024-05-23T22:36:37.710;539698015108545818;342338;371113;289166;-1268;
2024-05-23T22:36:37.728;539698015126698796;342425;371220;289298;-1255;
2024-05-23T22:36:37.746;539698015144851774;342721;371471;289468;-1269;
2024-05-23T22:36:37.764;539698015163004752;343033;371880;289738;-1260;
2024-05-23T22:36:37.782;539698015181157730;343346;372351;290066;-1231;
2024-05-23T22:36:37.801;539698015199310708;343643;372744;290425;-1237;
2024-05-23T22:36:37.819;539698015217463686;343973;373148;290735;-1244;
2024-05-23T22:36:37.837;539698015235616664;344308;373516;291014;-1224;
2024-05-23T22:36:37.855;539698015253769642;344533;373826;291234;-1216;
2024-05-23T22:36:37.873;539698015271922620;344767;374134;291361;-1248;
2024-05-23T22:36:37.891;539698015290075598;344925;374354;291626;-1228;
2024-05-23T22:36:37.909;539698015308228576;345065;374535;291739;-1261;
2024-05-23T22:36:37.928;539698015326381554;345249;374709;291908;-1237;
2024-05-23T22:36:37.946;539698015344534532;345422;374907;292064;-1207;
2024-05-23T22:36:37.964;539698015362687510;345520;375048;292158;-1255;
2024-05-23T22:36:37.982;539698015380840488;345613;375242;292326;-1301;
2024-05-23T22:36:38.000;539698015398993466;345772;375468;292440;-1267;
2024-05-23T22:36:38.018;539698015417146444;345951;375667;292584;-1235;
2024-05-23T22:36:38.037;539698015435298566;346113;375886;292780;-1232;
2024-05-23T22:36:38.055;539698015453450672;346290;376098;292913;-1279;
2024-05-23T22:36:38.073;539698015471602778;346461;376422;293086;-1263;
2024-05-23T22:36:38.091;539698015489754884;346700;376680;293336;-1272;
2024-05-23T22:36:38.109;539698015507906990;346842;376917;293494;-1267;
2024-05-23T22:36:38.127;539698015526059096;347136;377186;293776;-1243;
2024-05-23T22:36:38.145;539698015544211202;347358;377495;293974;-1208;
2024-05-23T22:36:38.164;539698015562363308;347443;377678;294060;-1257;
2024-05-23T22:36:38.182;539698015580515414;347335;377553;293920;-1214;
2024-05-23T22:36:38.200;539698015598667520;346925;377142;293640;-1219;
2024-05-23T22:36:38.218;539698015616819626;346230;376426;293139;-1249;
2024-05-23T22:36:38.236;539698015634971732;345520;375580;292631;-1192;
2024-05-23T22:36:38.254;539698015653123838;344779;374750;292046;-1228;
2024-05-23T22:36:38.272;539698015671275944;344141;373966;291566;-1225;
2024-05-23T22:36:38.291;539698015689428050;343593;373319;291144;-1214;
2024-05-23T22:36:38.309;539698015707580156;343215;372930;290861;-1235;
2024-05-23T22:36:38.327;539698015725732262;343156;372753;290781;-1266;
2024-05-23T22:36:38.345;539698015743884368;343069;372783;290735;-1274;
2024-05-23T22:36:38.363;539698015762036474;343287;373026;290952;-1260;
2024-05-23T22:36:38.381;539698015780188580;343648;373379;291266;-1221;
2024-05-23T22:36:38.400;539698015798340686;343975;373970;291626;-1232;
2024-05-23T22:36:38.418;539698015816492792;344393;374436;291919;-1257;
2024-05-23T22:36:38.436;539698015834644898;344843;374932;292287;-1249;
2024-05-23T22:36:38.454;539698015852797004;345184;375415;292649;-1291;
2024-05-23T22:36:38.472;539698015870949110;345576;375890;292983;-1212;
2024-05-23T22:36:38.490;539698015889101216;345923;376314;293195;-1280;
2024-05-23T22:36:38.508;539698015907253322;346198;376648;293490;-1238;
2024-05-23T22:36:38.527;539698015925405428;346390;376969;293648;-1275;
2024-05-23T22:36:38.545;539698015943557534;346581;377263;293846;-1215;
2024-05-23T22:36:38.563;539698015961709640;346699;377417;293994;-1215;
2024-05-23T22:36:38.581;539698015979861746;346909;377657;294176;-1279;
2024-05-23T22:36:38.599;539698015998013852;347021;377911;294248;-1277;
2024-05-23T22:36:38.617;539698016016165958;347140;378071;294385;-1282;
2024-05-23T22:36:38.636;539698016034318064;347336;378366;294575;-1248;
2024-05-23T22:36:38.654;539698016052470170;347443;378484;294697;-1262;
2024-05-23T22:36:38.672;539698016070623696;347604;378698;294851;-1254;
2024-05-23T22:36:38.690;539698016088777204;347778;378955;295020;-1238;
2024-05-23T22:36:38.708;539698016106930712;347977;379210;295245;-1257;
2024-05-23T22:36:38.726;539698016125084220;348187;379480;295475;-1229;
2024-05-23T22:36:38.744;539698016143237728;348297;379728;295602;-1253;
2024-05-23T22:36:38.763;539698016161391236;348531;379954;295751;-1261;
2024-05-23T22:36:38.781;539698016179544744;348575;380006;295768;-1214;
2024-05-23T22:36:38.799;539698016197698252;348285;379780;295647;-1225;
2024-05-23T22:36:38.817;539698016215851760;347776;379208;295237;-1300;
2024-05-23T22:36:38.835;539698016234005268;347164;378569;294795;-1228;
2024-05-23T22:36:38.853;539698016252158776;346421;377712;294162;-1241;
2024-05-23T22:36:38.872;539698016270312284;345802;376969;293666;-1225;
2024-05-23T22:36:38.890;539698016288465792;345134;376242;293220;-1254;
2024-05-23T22:36:38.908;539698016306619300;344722;375682;292866;-1194;
2024-05-23T22:36:38.926;539698016324772808;344393;375410;292653;-1225;
2024-05-23T22:36:38.944;539698016342926316;344347;375321;292624;-1283;
2024-05-23T22:36:38.962;539698016361079824;344442;375343;292645;-1241;
2024-05-23T22:36:38.980;539698016379233332;344718;375666;292868;-1243;
2024-05-23T22:36:38.999;539698016397386840;344986;376048;293113;-1233;
2024-05-23T22:36:39.017;539698016415540348;345311;376482;293407;-1266;
2024-05-23T22:36:39.035;539698016433693856;345747;376962;293731;-1255;
2024-05-23T22:36:39.053;539698016451847364;346058;377458;294030;-1248;
2024-05-23T22:36:39.071;539698016470000872;346410;377840;294318;-1239;
2024-05-23T22:36:39.089;539698016488154380;346652;378183;294621;-1256;
2024-05-23T22:36:39.108;539698016506307888;346971;378612;294831;-1194;
2024-05-23T22:36:39.126;539698016524461396;347182;378859;295074;-1182;
2024-05-23T22:36:39.144;539698016542614904;347406;379150;295203;-1243;
2024-05-23T22:36:39.162;539698016560768412;347506;379336;295306;-1274;
2024-05-23T22:36:39.180;539698016578921920;347704;379578;295452;-1237;
2024-05-23T22:36:39.198;539698016597075428;347806;379763;295532;-1269;
2024-05-23T22:36:39.216;539698016615228936;347939;379958;295696;-1211;
2024-05-23T22:36:39.235;539698016633382444;348043;380096;295774;-1241;
2024-05-23T22:36:39.253;539698016651535952;348206;380324;295971;-1272;
2024-05-23T22:36:39.271;539698016669689460;348372;380465;296094;-1200;
2024-05-23T22:36:39.289;539698016687842968;348553;380740;296258;-1255;
2024-05-23T22:36:39.307;539698016705996476;348723;380999;296384;-1255;
2024-05-23T22:36:39.325;539698016724149984;348888;381275;296584;-1250;
2024-05-23T22:36:39.344;539698016742304597;349152;381527;296762;-1262;
2024-05-23T22:36:39.362;539698016760459204;349147;381656;296787;-1269;
2024-05-23T22:36:39.380;539698016778613811;349004;381504;296658;-1240;
2024-05-23T22:36:39.398;539698016796768418;348526;381079;296328;-1266;
2024-05-23T22:36:39.416;539698016814923025;347917;380461;295940;-1250;
2024-05-23T22:36:39.434;539698016833077632;347256;379689;295394;-1228;
2024-05-23T22:36:39.452;539698016851232239;346541;378840;294780;-1229;
2024-05-23T22:36:39.471;539698016869386846;345877;378191;294359;-1256;
2024-05-23T22:36:39.489;539698016887541453;345368;377670;293944;-1258;
2024-05-23T22:36:39.507;539698016905696060;345003;377235;293650;-1199;
2024-05-23T22:36:39.525;539698016923850667;344889;377083;293556;-1217;
2024-05-23T22:36:39.543;539698016942005274;344896;377133;293586;-1227;
2024-05-23T22:36:39.561;539698016960159881;345046;377337;293735;-1269;
2024-05-23T22:36:39.580;539698016978314488;345311;377713;293931;-1249;
2024-05-23T22:36:39.598;539698016996469095;345624;378080;294197;-1239;
2024-05-23T22:36:39.616;539698017014623702;346044;378529;294489;-1274;
2024-05-23T22:36:39.634;539698017032778309;346406;379011;294872;-1262;
2024-05-23T22:36:39.652;539698017050932916;346732;379478;295098;-1291;
2024-05-23T22:36:39.670;539698017069087523;347034;379834;295336;-1223;
2024-05-23T22:36:39.688;539698017087242130;347293;380157;295536;-1248;
2024-05-23T22:36:39.707;539698017105396737;347550;380447;295757;-1217;
2024-05-23T22:36:39.725;539698017123551344;347672;380653;295934;-1249;
2024-05-23T22:36:39.743;539698017141705951;347873;380877;296046;-1188;
2024-05-23T22:36:39.761;539698017159860558;348017;381077;296099;-1199;
2024-05-23T22:36:39.779;539698017178015165;348146;381258;296275;-1293;
2024-05-23T22:36:39.797;539698017196169772;348214;381426;296346;-1270;
2024-05-23T22:36:39.816;539698017214324379;348335;381655;296474;-1291;
2024-05-23T22:36:39.834;539698017232478986;348473;381832;296589;-1272;
2024-05-23T22:36:39.852;539698017250633593;348582;382019;296682;-1251;
2024-05-23T22:36:39.870;539698017268788200;348794;382272;296833;-1275;
2024-05-23T22:36:39.888;539698017286942807;348954;382496;297041;-1248;
2024-05-23T22:36:39.906;539698017305097414;349152;382774;297161;-1277;
2024-05-23T22:36:39.924;539698017323252021;349281;382905;297254;-1273;
2024-05-23T22:36:39.943;539698017341406628;349178;382873;297273;-1310;
2024-05-23T22:36:39.961;539698017359561235;348794;382589;297008;-1291;
2024-05-23T22:36:39.979;539698017377715842;348275;382043;296512;-1263;
2024-05-23T22:36:39.997;539698017395870730;347601;381319;296036;-1231;
2024-05-23T22:36:40.015;539698017414025599;346906;380579;295460;-1262;
2024-05-23T22:36:40.033;539698017432180468;346245;379891;294896;-1288;
2024-05-23T22:36:40.052;539698017450335337;345758;379357;294570;-1241;
2024-05-23T22:36:40.070;539698017468490206;345314;379029;294301;-1237;
2024-05-23T22:36:40.088;539698017486645075;345127;378763;294125;-1267;
2024-05-23T22:36:40.106;539698017504799944;345115;378726;294063;-1231;
2024-05-23T22:36:40.124;539698017522954813;345177;378876;294125;-1272;
2024-05-23T22:36:40.142;539698017541109682;345423;379185;294295;-1212;
2024-05-23T22:36:40.160;539698017559264551;345764;379501;294578;-1304;
2024-05-23T22:36:40.179;539698017577419420;346108;379971;294887;-1249;
2024-05-23T22:36:40.197;539698017595574289;346507;380315;295166;-1267;
2024-05-23T22:36:40.215;539698017613729158;346782;380764;295444;-1284;
2024-05-23T22:36:40.233;539698017631884027;347066;381135;295665;-1287;
2024-05-23T22:36:40.251;539698017650038896;347353;381381;295928;-1252;
2024-05-23T22:36:40.269;539698017668193765;347563;381679;296147;-1217;
2024-05-23T22:36:40.288;539698017686348634;347724;381824;296173;-1219;
2024-05-23T22:36:40.306;539698017704503503;347831;382052;296276;-1226;
2024-05-23T22:36:40.324;539698017722658372;347910;382220;296390;-1236;
2024-05-23T22:36:40.342;539698017740813241;347992;382291;296444;-1270;
2024-05-23T22:36:40.360;539698017758968110;348126;382503;296626;-1218;
2024-05-23T22:36:40.378;539698017777122979;348249;382657;296705;-1278;
2024-05-23T22:36:40.397;539698017795277848;348300;382822;296843;-1233;
2024-05-23T22:36:40.415;539698017813432717;348417;382939;296898;-1283;
2024-05-23T22:36:40.433;539698017831587586;348521;383036;296932;-1307;
2024-05-23T22:36:40.451;539698017849742455;348698;383249;297088;-1260;
2024-05-23T22:36:40.469;539698017867897324;348815;383388;297174;-1251;
2024-05-23T22:36:40.487;539698017886052193;348734;383526;297158;-1270;
2024-05-23T22:36:40.505;539698017904207062;348525;383253;296974;-1272;
2024-05-23T22:36:40.524;539698017922361931;348053;382703;296593;-1274;
2024-05-23T22:36:40.542;539698017940516800;347386;382089;296076;-1275;
2024-05-23T22:36:40.560;539698017958671669;346684;381432;295571;-1216;
2024-05-23T22:36:40.578;539698017976826538;345990;380751;294994;-1257;
2024-05-23T22:36:40.596;539698017994981407;345364;380200;294490;-1272;
2024-05-23T22:36:40.614;539698018013136276;344936;379811;294181;-1188;
2024-05-23T22:36:40.633;539698018031291145;344724;379539;293907;-1234;
2024-05-23T22:36:40.651;539698018049446014;344572;379462;293892;-1273;
2024-05-23T22:36:40.669;539698018067599494;344637;379579;293956;-1267;
2024-05-23T22:36:40.687;539698018085752961;344869;379870;294118;-1205;
2024-05-23T22:36:40.705;539698018103906428;345184;380179;294243;-1225;
2024-05-23T22:36:40.723;539698018122059895;345559;380577;294577;-1261;
2024-05-23T22:36:40.741;539698018140213362;346016;381117;294937;-1261;
2024-05-23T22:36:40.760;539698018158366829;346345;381587;295269;-1259;
2024-05-23T22:36:40.778;539698018176520296;346747;382030;295577;-1245;
2024-05-23T22:36:40.796;539698018194673763;347063;382438;295772;-1259;
2024-05-23T22:36:40.814;539698018212827230;347260;382774;296025;-1178;
2024-05-23T22:36:40.832;539698018230980697;347573;383064;296212;-1202;
2024-05-23T22:36:40.850;539698018249134164;347728;383276;296337;-1252;
2024-05-23T22:36:40.869;539698018267287631;347879;383420;296392;-1262;
2024-05-23T22:36:40.887;539698018285441098;347950;383609;296544;-1208;
2024-05-23T22:36:40.905;539698018303594565;348094;383781;296612;-1232;
2024-05-23T22:36:40.923;539698018321748032;348241;384012;296751;-1201;
2024-05-23T22:36:40.941;539698018339901499;348322;384105;296763;-1259;
2024-05-23T22:36:40.959;539698018358054966;348433;384245;296893;-1246;
2024-05-23T22:36:40.977;539698018376208433;348556;384324;296994;-1237;
2024-05-23T22:36:40.996;539698018394361900;348572;384489;297052;-1251;
2024-05-23T22:36:41.014;539698018412515367;348775;384664;297154;-1252;
2024-05-23T22:36:41.032;539698018430668834;348934;384774;297319;-1227;
2024-05-23T22:36:41.050;539698018448822301;349070;384986;297422;-1236;
2024-05-23T22:36:41.068;539698018466975768;349044;385015;297430;-1275;
2024-05-23T22:36:41.086;539698018485129235;348761;384767;297201;-1252;
2024-05-23T22:36:41.105;539698018503282702;348266;384309;296870;-1239;
2024-05-23T22:36:41.123;539698018521436169;347516;383606;296258;-1233;
2024-05-23T22:36:41.141;539698018539589636;346712;382750;295610;-1242;
2024-05-23T22:36:41.159;539698018557743103;345906;381916;294957;-1242;
2024-05-23T22:36:41.177;539698018575896570;345189;381162;294359;-1250;
2024-05-23T22:36:41.195;539698018594050037;344638;380544;293901;-1273;
2024-05-23T22:36:41.213;539698018612203504;344242;380216;293639;-1283;
2024-05-23T22:36:41.232;539698018630356971;344037;379974;293501;-1306;
2024-05-23T22:36:41.250;539698018648510438;343999;379848;293346;-1306;
2024-05-23T22:36:41.268;539698018666663905;344127;379954;293459;-1265;
2024-05-23T22:36:41.286;539698018684817372;344295;380199;293606;-1291;
2024-05-23T22:36:41.304;539698018702970839;344554;380545;293787;-1290;
2024-05-23T22:36:41.322;539698018721124306;344890;380869;294126;-1259;
2024-05-23T22:36:41.340;539698018739275070;345245;381253;294381;-1287;
2024-05-23T22:36:41.359;539698018757425815;345554;381619;294675;-1211;
2024-05-23T22:36:41.377;539698018775576560;345852;382013;294934;-1241;
2024-05-23T22:36:41.395;539698018793727305;346178;382324;295152;-1251;
2024-05-23T22:36:41.413;539698018811878050;346326;382455;295276;-1237;
2024-05-23T22:36:41.431;539698018830028795;346515;382754;295442;-1202;
2024-05-23T22:36:41.449;539698018848179540;346673;382892;295548;-1206;
2024-05-23T22:36:41.468;539698018866330285;346790;383074;295674;-1225;
2024-05-23T22:36:41.486;539698018884481030;346917;383147;295704;-1258;
2024-05-23T22:36:41.504;539698018902631775;347023;383335;295767;-1293;
2024-05-23T22:36:41.522;539698018920782520;347157;383398;295909;-1226;
2024-05-23T22:36:41.540;539698018938933265;347213;383589;296009;-1286;
2024-05-23T22:36:41.558;539698018957084010;347347;383712;296076;-1245;
2024-05-23T22:36:41.576;539698018975234755;347445;383860;296253;-1263;
2024-05-23T22:36:41.595;539698018993385500;347598;384053;296320;-1259;
2024-05-23T22:36:41.613;539698019011536245;347806;384177;296423;-1232;
2024-05-23T22:36:41.631;539698019029686990;347927;384351;296581;-1245;
2024-05-23T22:36:41.649;539698019047837735;348058;384491;296673;-1211;
2024-05-23T22:36:41.667;539698019065988480;348127;384546;296748;-1221;
2024-05-23T22:36:41.685;539698019084139225;347917;384390;296585;-1220;
2024-05-23T22:36:41.704;539698019102289970;347501;383994;296240;-1243;
2024-05-23T22:36:41.722;539698019120440715;346975;383442;295809;-1236;
2024-05-23T22:36:41.740;539698019138591460;346205;382657;295218;-1243;
2024-05-23T22:36:41.758;539698019156742205;345498;381947;294643;-1185;
2024-05-23T22:36:41.776;539698019174892950;344831;381133;294089;-1270;
2024-05-23T22:36:41.794;539698019193043695;344293;380603;293629;-1253;
2024-05-23T22:36:41.812;539698019211194440;343933;380198;293332;-1245;
2024-05-23T22:36:41.831;539698019229345185;343724;379937;293198;-1290;
2024-05-23T22:36:41.849;539698019247495930;343667;379915;293186;-1276;
2024-05-23T22:36:41.867;539698019265646675;343892;380060;293261;-1245;
2024-05-23T22:36:41.885;539698019283797420;344035;380262;293385;-1275;
2024-05-23T22:36:41.903;539698019301948165;344290;380538;293575;-1280;
2024-05-23T22:36:41.921;539698019320098910;344639;380857;293886;-1270;
2024-05-23T22:36:41.939;539698019338249655;344964;381230;294161;-1291;
2024-05-23T22:36:41.958;539698019356400400;345332;381641;294424;-1258;
2024-05-23T22:36:41.976;539698019374551145;345584;381863;294676;-1279;
2024-05-23T22:36:41.994;539698019392701890;345926;382180;294946;-1255;
2024-05-23T22:36:42.012;539698019410854850;346098;382543;295096;-1296;
2024-05-23T22:36:42.030;539698019429007804;346361;382709;295324;-1228;
2024-05-23T22:36:42.048;539698019447160758;346415;382845;295414;-1242;
2024-05-23T22:36:42.067;539698019465313712;346645;383009;295489;-1214;
2024-05-23T22:36:42.085;539698019483466666;346725;383144;295591;-1280;
2024-05-23T22:36:42.103;539698019501619620;346903;383266;295696;-1236;
2024-05-23T22:36:42.121;539698019519772574;347027;383330;295822;-1272;
2024-05-23T22:36:42.139;539698019537925528;347116;383458;295881;-1255;
2024-05-23T22:36:42.157;539698019556078482;347281;383559;295929;-1235;
2024-05-23T22:36:42.175;539698019574231436;347399;383744;296106;-1261;
2024-05-23T22:36:42.194;539698019592384390;347531;383873;296230;-1266;
2024-05-23T22:36:42.212;539698019610537344;347675;384011;296349;-1277;
2024-05-23T22:36:42.230;539698019628690298;347873;384296;296471;-1258;
2024-05-23T22:36:42.248;539698019646843252;348060;384463;296645;-1271;
2024-05-23T22:36:42.266;539698019664996206;348235;384627;296811;-1318;
2024-05-23T22:36:42.284;539698019683149160;348501;384901;296931;-1242;
2024-05-23T22:36:42.303;539698019701302114;348642;384991;297089;-1170;
2024-05-23T22:36:42.321;539698019719455068;348621;384998;297114;-1245;
2024-05-23T22:36:42.339;539698019737608022;348480;384823;296985;-1182;
2024-05-23T22:36:42.357;539698019755760976;348055;384384;296701;-1215;
2024-05-23T22:36:42.375;539698019773913930;347481;383756;296154;-1216;
2024-05-23T22:36:42.393;539698019792066884;346819;383006;295590;-1262;
2024-05-23T22:36:42.411;539698019810219838;346189;382367;295167;-1245;
2024-05-23T22:36:42.430;539698019828372792;345747;381792;294734;-1284;
2024-05-23T22:36:42.448;539698019846525746;345323;381350;294386;-1279;
2024-05-23T22:36:42.466;539698019864678700;345143;381094;294198;-1232;
2024-05-23T22:36:42.484;539698019882831654;345040;381014;294111;-1280;
2024-05-23T22:36:42.502;539698019900984608;345111;381035;294150;-1286;
2024-05-23T22:36:42.520;539698019919137562;345273;381077;294253;-1358;
2024-05-23T22:36:42.539;539698019937290516;345566;381415;294448;-1306;
2024-05-23T22:36:42.557;539698019955443470;345989;381892;294795;-1297;
2024-05-23T22:36:42.575;539698019973596424;346394;382208;295084;-1265;
2024-05-23T22:36:42.593;539698019991749378;346807;382709;295482;-1206;
2024-05-23T22:36:42.611;539698020009902332;347279;383165;295785;-1239;
2024-05-23T22:36:42.629;539698020028055286;347575;383558;296069;-1272;
2024-05-23T22:36:42.647;539698020046208240;347888;383881;296314;-1338;
2024-05-23T22:36:42.666;539698020064361878;348252;384269;296616;-1280;
2024-05-23T22:36:42.684;539698020082515510;348595;384660;296850;-1262;
2024-05-23T22:36:42.702;539698020100669142;348900;384990;297066;-1303;
2024-05-23T22:36:42.720;539698020118822774;349104;385205;297242;-1276;
2024-05-23T22:36:42.738;539698020136976406;349420;385573;297518;-1270;
2024-05-23T22:36:42.756;539698020155130038;349704;385874;297744;-1299;
2024-05-23T22:36:42.775;539698020173283670;349930;386105;297902;-1277;
2024-05-23T22:36:42.793;539698020191437302;350159;386468;298082;-1268;
2024-05-23T22:36:42.811;539698020209590934;350470;386818;298306;-1310;
2024-05-23T22:36:42.829;539698020227744566;350732;387154;298538;-1285;
2024-05-23T22:36:42.847;539698020245898198;351058;387525;298764;-1329;
2024-05-23T22:36:42.865;539698020264051830;351388;387879;299015;-1291;
2024-05-23T22:36:42.883;539698020282205462;351711;388211;299237;-1277;
2024-05-23T22:36:42.902;539698020300359094;352030;388611;299500;-1310;
2024-05-23T22:36:42.920;539698020318512726;352396;388993;299771;-1252;
2024-05-23T22:36:42.938;539698020336666358;352662;389362;300003;-1265;
2024-05-23T22:36:42.956;539698020354819990;352838;389487;300113;-1255;
2024-05-23T22:36:42.974;539698020372973622;352819;389536;300058;-1255;
2024-05-23T22:36:42.992;539698020391127254;352610;389318;299868;-1202;
2024-05-23T22:36:43.011;539698020409280886;352260;389032;299632;-1253;
2024-05-23T22:36:43.029;539698020427434518;351874;388586;299310;-1276;
2024-05-23T22:36:43.047;539698020445588150;351594;388215;299080;-1210;
2024-05-23T22:36:43.065;539698020463741782;351331;387924;298807;-1245;
2024-05-23T22:36:43.083;539698020481895414;351214;387823;298713;-1245;
2024-05-23T22:36:43.101;539698020500049046;351122;387735;298601;-1252;
2024-05-23T22:36:43.119;539698020518202678;351287;387888;298630;-1310;
2024-05-23T22:36:43.138;539698020536356310;351533;388134;298765;-1273;
2024-05-23T22:36:43.156;539698020554509942;351884;388506;299068;-1241;
2024-05-23T22:36:43.174;539698020572663574;352287;388922;299293;-1218;
2024-05-23T22:36:43.192;539698020590817206;352728;389308;299643;-1267;
2024-05-23T22:36:43.210;539698020608970838;353164;389893;300051;-1250;
2024-05-23T22:36:43.228;539698020627124470;353580;390355;300406;-1248;
2024-05-23T22:36:43.247;539698020645278102;353963;390803;300702;-1244;
2024-05-23T22:36:43.265;539698020663431734;354378;391337;300958;-1259;
2024-05-23T22:36:43.283;539698020681585366;354667;391636;301277;-1267;
2024-05-23T22:36:43.301;539698020699738998;354975;391983;301410;-1306;
2024-05-23T22:36:43.319;539698020717892630;355338;392301;301625;-1224;
2024-05-23T22:36:43.337;539698020736046262;355619;392594;301867;-1255;
2024-05-23T22:36:43.355;539698020754199894;355859;392902;302088;-1303;
2024-05-23T22:36:43.374;539698020772352058;356071;393112;302262;-1233;
2024-05-23T22:36:43.392;539698020790504203;356290;393341;302391;-1288;
2024-05-23T22:36:43.410;539698020808656348;356529;393594;302659;-1286;
2024-05-23T22:36:43.428;539698020826808493;356864;393985;302889;-1274;
2024-05-23T22:36:43.446;539698020844960638;357092;394167;302980;-1289;
2024-05-23T22:36:43.464;539698020863112783;357328;394412;303169;-1268;
2024-05-23T22:36:43.482;539698020881264928;357607;394690;303357;-1274;
2024-05-23T22:36:43.501;539698020899417073;357865;395026;303570;-1243;
2024-05-23T22:36:43.519;539698020917569218;358048;395225;303778;-1260;
2024-05-23T22:36:43.537;539698020935721363;358431;395623;303995;-1269;
2024-05-23T22:36:43.555;539698020953873508;358523;395827;304112;-1254;
2024-05-23T22:36:43.573;539698020972025653;358519;395785;304136;-1238;
2024-05-23T22:36:43.591;539698020990177798;358283;395494;303920;-1270;
2024-05-23T22:36:43.610;539698021008329943;358040;395160;303705;-1229;
2024-05-23T22:36:43.628;539698021026482088;357569;394626;303327;-1240;
2024-05-23T22:36:43.646;539698021044634233;357224;394093;302963;-1254;
2024-05-23T22:36:43.664;539698021062786378;356864;393666;302673;-1251;
2024-05-23T22:36:43.682;539698021080938523;356608;393270;302399;-1246;
2024-05-23T22:36:43.700;539698021099090668;356516;393100;302272;-1228;
2024-05-23T22:36:43.718;539698021117242813;356549;393002;302213;-1238;
2024-05-23T22:36:43.737;539698021135394958;356629;393080;302293;-1255;
2024-05-23T22:36:43.755;539698021153547103;356854;393351;302518;-1265;
2024-05-23T22:36:43.773;539698021171699248;357179;393674;302718;-1220;
2024-05-23T22:36:43.791;539698021189851393;357485;394044;302982;-1166;
2024-05-23T22:36:43.809;539698021208003538;357913;394441;303280;-1248;
2024-05-23T22:36:43.827;539698021226155683;358267;394795;303564;-1287;
2024-05-23T22:36:43.846;539698021244307828;358654;395117;303854;-1292;
2024-05-23T22:36:43.864;539698021262459973;358926;395481;304081;-1243;
2024-05-23T22:36:43.882;539698021280612118;359192;395796;304318;-1252;
2024-05-23T22:36:43.900;539698021298764263;359455;396111;304455;-1268;
2024-05-23T22:36:43.918;539698021316916408;359707;396285;304631;-1226;
2024-05-23T22:36:43.936;539698021335068553;359903;396521;304829;-1225;
2024-05-23T22:36:43.954;539698021353220698;360111;396678;304956;-1304;
2024-05-23T22:36:43.973;539698021371372843;360245;396826;305048;-1293;
2024-05-23T22:36:43.991;539698021389524988;360414;397023;305189;-1231;
2024-05-23T22:36:44.009;539698021407677133;360568;397154;305311;-1314;
2024-05-23T22:36:44.027;539698021425829278;360774;397325;305467;-1278;
2024-05-23T22:36:44.045;539698021443981423;360987;397492;305580;-1260;
2024-05-23T22:36:44.063;539698021462133568;361136;397720;305789;-1214;
2024-05-23T22:36:44.082;539698021480286528;361315;397914;305874;-1194;
2024-05-23T22:36:44.100;539698021498439482;361510;398106;306025;-1259;
2024-05-23T22:36:44.118;539698021516592436;361755;398343;306230;-1285;
2024-05-23T22:36:44.136;539698021534745390;361904;398436;306426;-1272;
2024-05-23T22:36:44.154;539698021552898344;361874;398422;306318;-1253;
2024-05-23T22:36:44.172;539698021571051298;361660;398204;306146;-1242;
2024-05-23T22:36:44.190;539698021589204252;361313;397773;305856;-1214;
2024-05-23T22:36:44.209;539698021607357206;360828;397134;305482;-1244;
2024-05-23T22:36:44.227;539698021625510160;360401;396557;305058;-1235;
2024-05-23T22:36:44.245;539698021643663114;359839;395873;304653;-1310;
2024-05-23T22:36:44.263;539698021661816068;359439;395279;304276;-1341;
2024-05-23T22:36:44.281;539698021679969022;359175;394909;304014;-1255;
2024-05-23T22:36:44.299;539698021698121976;359042;394631;303888;-1241;
2024-05-23T22:36:44.317;539698021716274930;359065;394507;303888;-1223;
2024-05-23T22:36:44.336;539698021734427884;359091;394527;303913;-1320;
2024-05-23T22:36:44.354;539698021752580838;359300;394773;304107;-1265;
2024-05-23T22:36:44.372;539698021770733792;359655;395024;304331;-1265;
2024-05-23T22:36:44.390;539698021788886746;359896;395260;304494;-1309;
2024-05-23T22:36:44.408;539698021807039700;360237;395618;304739;-1235;
2024-05-23T22:36:44.426;539698021825192654;360491;395941;304998;-1296;
2024-05-23T22:36:44.445;539698021843345608;360810;396132;305162;-1320;
2024-05-23T22:36:44.463;539698021861498562;360943;396315;305336;-1297;
2024-05-23T22:36:44.481;539698021879651516;361156;396558;305511;-1275;
2024-05-23T22:36:44.499;539698021897804470;361385;396693;305644;-1259;
2024-05-23T22:36:44.517;539698021915957424;361449;396817;305686;-1291;
2024-05-23T22:36:44.535;539698021934110378;361514;396843;305796;-1289;
2024-05-23T22:36:44.553;539698021952263332;361609;396930;305896;-1244;
2024-05-23T22:36:44.572;539698021970416286;361709;397044;305971;-1287;
2024-05-23T22:36:44.590;539698021988569240;361863;397189;306057;-1260;
2024-05-23T22:36:44.608;539698022006722194;361959;397234;306164;-1286;
2024-05-23T22:36:44.626;539698022024875148;362046;397342;306184;-1286;
2024-05-23T22:36:44.644;539698022043028102;362154;397395;306295;-1259;
2024-05-23T22:36:44.662;539698022061181056;362303;397529;306400;-1239;
2024-05-23T22:36:44.681;539698022079334010;362416;397604;306525;-1271;
2024-05-23T22:36:44.699;539698022097486964;362546;397698;306700;-1246;
2024-05-23T22:36:44.717;539698022115639918;362517;397681;306630;-1260;
2024-05-23T22:36:44.735;539698022133792040;362286;397400;306551;-1255;
2024-05-23T22:36:44.753;539698022151944146;361902;396954;306214;-1273;
2024-05-23T22:36:44.771;539698022170096252;361413;396261;305775;-1191;
2024-05-23T22:36:44.789;539698022188248358;360755;395427;305241;-1242;
2024-05-23T22:36:44.808;539698022206400464;360237;394736;304810;-1201;
2024-05-23T22:36:44.826;539698022224552570;359674;394003;304375;-1277;
2024-05-23T22:36:44.844;539698022242704676;359294;393457;304061;-1269;
2024-05-23T22:36:44.862;539698022260856782;359070;392978;303782;-1260;
2024-05-23T22:36:44.880;539698022279008888;358911;392773;303644;-1245;
2024-05-23T22:36:44.898;539698022297160994;358900;392674;303563;-1249;
2024-05-23T22:36:44.917;539698022315313100;358983;392694;303628;-1219;
2024-05-23T22:36:44.935;539698022333465206;359126;392821;303781;-1297;
2024-05-23T22:36:44.953;539698022351617312;359291;392974;303876;-1255;
2024-05-23T22:36:44.971;539698022369769418;359512;393180;304070;-1322;
2024-05-23T22:36:44.989;539698022387921524;359822;393406;304246;-1312;
2024-05-23T22:36:45.007;539698022406073630;360026;393658;304516;-1280;
2024-05-23T22:36:45.025;539698022424225736;360292;393808;304644;-1222;
2024-05-23T22:36:45.044;539698022442377842;360390;394003;304801;-1225;
2024-05-23T22:36:45.062;539698022460529948;360443;394053;304831;-1289;
2024-05-23T22:36:45.080;539698022478682054;360547;394071;304874;-1258;
2024-05-23T22:36:45.098;539698022496834160;360583;394129;304931;-1238;
2024-05-23T22:36:45.116;539698022514986266;360638;394167;304943;-1261;
2024-05-23T22:36:45.134;539698022533138372;360694;394212;305021;-1229;
2024-05-23T22:36:45.153;539698022551290478;360687;394200;305050;-1268;
2024-05-23T22:36:45.171;539698022569442584;360739;394207;305047;-1269;
2024-05-23T22:36:45.189;539698022587594690;360840;394268;305116;-1219;
2024-05-23T22:36:45.207;539698022605746796;360820;394294;305157;-1295;
2024-05-23T22:36:45.225;539698022623898902;360976;394390;305306;-1232;
2024-05-23T22:36:45.243;539698022642051008;361072;394455;305350;-1268;
2024-05-23T22:36:45.261;539698022660203114;361133;394507;305414;-1265;
2024-05-23T22:36:45.280;539698022678355220;361136;394392;305386;-1284;
2024-05-23T22:36:45.298;539698022696507326;360761;393948;305109;-1284;
2024-05-23T22:36:45.316;539698022714659432;360269;393363;304630;-1243;
2024-05-23T22:36:45.334;539698022732811538;359592;392577;304147;-1238;
2024-05-23T22:36:45.352;539698022750963644;358926;391704;303593;-1267;
2024-05-23T22:36:45.370;539698022769115766;358301;390854;303049;-1256;
2024-05-23T22:36:45.388;539698022787267872;357702;390087;302531;-1273;
2024-05-23T22:36:45.407;539698022805419978;357311;389565;302169;-1214;
2024-05-23T22:36:45.425;539698022823572084;357042;389158;301945;-1208;
2024-05-23T22:36:45.443;539698022841724190;356931;388930;301822;-1208;
2024-05-23T22:36:45.461;539698022859876296;356962;388857;301746;-1220;
2024-05-23T22:36:45.479;539698022878028402;357087;388966;301858;-1233;
2024-05-23T22:36:45.497;539698022896180508;357298;389192;301972;-1251;
2024-05-23T22:36:45.516;539698022914332614;357617;389529;302248;-1236;
2024-05-23T22:36:45.534;539698022932484720;357931;389961;302422;-1279;
2024-05-23T22:36:45.552;539698022950636826;358188;390204;302644;-1282;
2024-05-23T22:36:45.570;539698022968788932;358470;390511;302823;-1228;
2024-05-23T22:36:45.588;539698022986941038;358699;390894;303040;-1239;
2024-05-23T22:36:45.606;539698023005093144;358915;391087;303221;-1218;
2024-05-23T22:36:45.624;539698023023245250;359088;391304;303427;-1181;
2024-05-23T22:36:45.643;539698023041397356;359255;391509;303552;-1239;
2024-05-23T22:36:45.661;539698023059549462;359365;391631;303627;-1232;
2024-05-23T22:36:45.679;539698023077701568;359449;391701;303596;-1253;
2024-05-23T22:36:45.697;539698023095853674;359661;391880;303811;-1204;
2024-05-23T22:36:45.715;539698023114005780;359757;392031;303876;-1224;
2024-05-23T22:36:45.733;539698023132157886;359776;392069;303843;-1257;
2024-05-23T22:36:45.752;539698023150309992;359865;392247;303972;-1273;
2024-05-23T22:36:45.770;539698023168462098;359984;392273;304029;-1309;
2024-05-23T22:36:45.788;539698023186614204;360114;392396;304166;-1253;
2024-05-23T22:36:45.806;539698023204766310;360175;392418;304234;-1343;
2024-05-23T22:36:45.824;539698023222918416;360320;392611;304348;-1277;
2024-05-23T22:36:45.842;539698023241070522;360506;392744;304488;-1226;
2024-05-23T22:36:45.860;539698023259222628;360378;392595;304341;-1286;
2024-05-23T22:36:45.879;539698023277374734;360056;392189;304078;-1258;
2024-05-23T22:36:45.897;539698023295526840;359417;391457;303607;-1236;
2024-05-23T22:36:45.915;539698023313678946;358627;390527;302912;-1237;
2024-05-23T22:36:45.933;539698023331831052;357690;389338;302237;-1318;
2024-05-23T22:36:45.951;539698023349983158;356761;388174;301473;-1294;
2024-05-23T22:36:45.969;539698023368135264;355865;387066;300729;-1289;
2024-05-23T22:36:45.988;539698023386287370;355143;386046;300110;-1291;
2024-05-23T22:36:46.006;539698023404439476;354620;385345;299625;-1232;
2024-05-23T22:36:46.024;539698023422591598;354219;384766;299307;-1317;
2024-05-23T22:36:46.042;539698023440743704;354068;384459;299059;-1328;
2024-05-23T22:36:46.060;539698023458895810;354022;384243;299044;-1254;
2024-05-23T22:36:46.078;539698023477047916;354056;384251;299074;-1296;
2024-05-23T22:36:46.096;539698023495200022;354228;384437;299213;-1299;
2024-05-23T22:36:46.115;539698023513352128;354424;384628;299341;-1294;
2024-05-23T22:36:46.133;539698023531504234;354645;384844;299519;-1287;
2024-05-23T22:36:46.151;539698023549656340;354801;385071;299657;-1290;
2024-05-23T22:36:46.169;539698023567808446;355003;385209;299813;-1301;
2024-05-23T22:36:46.187;539698023585960552;355117;385359;299885;-1350;
2024-05-23T22:36:46.205;539698023604112658;355243;385527;300035;-1308;
2024-05-23T22:36:46.223;539698023622264764;355294;385545;300059;-1324;
2024-05-23T22:36:46.242;539698023640416870;355350;385647;300146;-1279;
2024-05-23T22:36:46.260;539698023658568976;355370;385668;300180;-1267;
2024-05-23T22:36:46.278;539698023676721082;355314;385595;300165;-1321;
2024-05-23T22:36:46.296;539698023694873188;355348;385581;300140;-1347;
2024-05-23T22:36:46.314;539698023713025294;355390;385495;300231;-1297;
2024-05-23T22:36:46.332;539698023731177400;355334;385510;300258;-1270;
2024-05-23T22:36:46.351;539698023749329506;355394;385549;300256;-1297;
2024-05-23T22:36:46.369;539698023767481612;355416;385566;300305;-1274;
2024-05-23T22:36:46.387;539698023785633718;355449;385519;300260;-1257;
2024-05-23T22:36:46.405;539698023803785824;355481;385542;300319;-1245;
2024-05-23T22:36:46.423;539698023821937930;355485;385515;300413;-1267;
2024-05-23T22:36:46.441;539698023840090036;355461;385570;300429;-1314;
2024-05-23T22:36:46.459;539698023858242142;355331;385363;300255;-1322;
2024-05-23T22:36:46.478;539698023876394248;354859;384845;299924;-1309;
2024-05-23T22:36:46.496;539698023894546354;354135;384030;299348;-1277;
2024-05-23T22:36:46.514;539698023912698460;353268;382998;298718;-1252;
2024-05-23T22:36:46.532;539698023930850566;352341;381841;297973;-1321;
2024-05-23T22:36:46.550;539698023949002672;351446;380734;297206;-1256;
2024-05-23T22:36:46.568;539698023967154778;350532;379664;296499;-1312;
2024-05-23T22:36:46.587;539698023985306884;349893;378762;296017;-1304;
2024-05-23T22:36:46.605;539698024003458990;349318;378152;295564;-1292;
2024-05-23T22:36:46.623;539698024021611096;349051;377702;295291;-1314;
2024-05-23T22:36:46.641;539698024039763202;348878;377500;295168;-1295;
2024-05-23T22:36:46.659;539698024057915308;348849;377473;295164;-1309;
2024-05-23T22:36:46.677;539698024076067414;348988;377504;295233;-1327;
2024-05-23T22:36:46.695;539698024094219520;349120;377752;295375;-1258;
2024-05-23T22:36:46.714;539698024112371626;349350;378012;295579;-1279;
2024-05-23T22:36:46.732;539698024130523748;349479;378214;295761;-1274;
2024-05-23T22:36:46.750;539698024148675854;349724;378433;295904;-1301;
2024-05-23T22:36:46.768;539698024166827960;349941;378600;296120;-1258;
2024-05-23T22:36:46.786;539698024184980066;350118;378834;296229;-1251;
2024-05-23T22:36:46.804;539698024203132172;350234;379058;296376;-1239;
2024-05-23T22:36:46.823;539698024221284278;350186;379087;296427;-1216;
2024-05-23T22:36:46.841;539698024239436384;350241;379058;296424;-1271;
2024-05-23T22:36:46.859;539698024257588490;350246;379108;296447;-1293;
2024-05-23T22:36:46.877;539698024275740596;350317;379168;296561;-1222;
2024-05-23T22:36:46.895;539698024293892702;350346;379214;296589;-1236;
2024-05-23T22:36:46.913;539698024312044808;350341;379246;296600;-1273;
2024-05-23T22:36:46.931;539698024330196914;350337;379221;296547;-1296;
2024-05-23T22:36:46.950;539698024348349020;350341;379246;296571;-1288;
2024-05-23T22:36:46.968;539698024366501126;350366;379296;296686;-1252;
2024-05-23T22:36:46.986;539698024384653232;350425;379374;296748;-1286;
2024-05-23T22:36:47.004;539698024402805338;350503;379467;296817;-1293;
2024-05-23T22:36:47.022;539698024420957444;350529;379546;296874;-1256;
2024-05-23T22:36:47.040;539698024439109550;350632;379635;296956;-1286;
2024-05-23T22:36:47.058;539698024457261656;350720;379734;297054;-1279;
2024-05-23T22:36:47.077;539698024475413762;350694;379746;297012;-1268;
2024-05-23T22:36:47.095;539698024493565868;350502;379454;296932;-1222;
2024-05-23T22:36:47.113;539698024511717974;349964;378892;296507;-1279;
2024-05-23T22:36:47.131;539698024529870080;349179;378070;295884;-1317;
2024-05-23T22:36:47.149;539698024548022186;348430;377180;295247;-1316;
2024-05-23T22:36:47.167;539698024566174292;347521;376242;294616;-1228;
2024-05-23T22:36:47.186;539698024584326398;346755;375229;293979;-1221;
2024-05-23T22:36:47.204;539698024602478504;346051;374512;293470;-1231;
2024-05-23T22:36:47.222;539698024620630610;345566;373916;293045;-1273;
2024-05-23T22:36:47.240;539698024638782716;345223;373626;292850;-1286;
2024-05-23T22:36:47.258;539698024656934822;345140;373400;292735;-1257;
2024-05-23T22:36:47.276;539698024675086928;345131;373400;292674;-1267;
2024-05-23T22:36:47.294;539698024693239034;345252;373511;292694;-1284;
2024-05-23T22:36:47.313;539698024711391140;345417;373784;292908;-1248;
2024-05-23T22:36:47.331;539698024729543246;345643;374137;293141;-1275;
2024-05-23T22:36:47.349;539698024747695352;346003;374568;293440;-1271;
2024-05-23T22:36:47.367;539698024765847458;346291;374919;293667;-1232;
2024-05-23T22:36:47.385;539698024783999572;346550;375282;293909;-1226;
2024-05-23T22:36:47.403;539698024802151678;346786;375543;294133;-1243;
2024-05-23T22:36:47.422;539698024820303784;347017;375893;294322;-1208;
2024-05-23T22:36:47.440;539698024838455890;347210;376174;294484;-1237;
2024-05-23T22:36:47.458;539698024856607996;347375;376371;294654;-1267;
2024-05-23T22:36:47.476;539698024874760102;347520;376627;294853;-1258;
2024-05-23T22:36:47.494;539698024892912208;347712;376869;294971;-1249;
2024-05-23T22:36:47.512;539698024911064314;347811;377078;295096;-1261;
2024-05-23T22:36:47.530;539698024929216420;347997;377305;295253;-1267;
2024-05-23T22:36:47.549;539698024947368526;348186;377535;295400;-1215;
2024-05-23T22:36:47.567;539698024965520632;348339;377833;295531;-1256;
2024-05-23T22:36:47.585;539698024983672738;348582;378112;295718;-1266;
2024-05-23T22:36:47.603;539698025001824844;348777;378460;295872;-1275;
2024-05-23T22:36:47.621;539698025019976950;348986;378712;296117;-1262;
2024-05-23T22:36:47.639;539698025038129056;349250;379078;296270;-1190;
2024-05-23T22:36:47.658;539698025056281162;349544;379410;296525;-1229;
2024-05-23T22:36:47.676;539698025074433268;349790;379788;296743;-1272;
2024-05-23T22:36:47.694;539698025092585374;350015;380157;296936;-1225;
2024-05-23T22:36:47.712;539698025110737480;350039;380376;297024;-1219;
2024-05-23T22:36:47.730;539698025128889586;349892;380351;296860;-1220;
2024-05-23T22:36:47.748;539698025147041692;349641;380023;296662;-1252;
2024-05-23T22:36:47.766;539698025165193798;349094;379536;296232;-1257;
2024-05-23T22:36:47.785;539698025183345904;348527;379003;295869;-1257;
2024-05-23T22:36:47.803;539698025201498010;347998;378438;295405;-1241;
2024-05-23T22:36:47.821;539698025219650116;347537;378062;295058;-1219;
2024-05-23T22:36:47.839;539698025237802222;347205;377661;294733;-1232;
2024-05-23T22:36:47.857;539698025255954328;347023;377656;294675;-1207;
2024-05-23T22:36:47.875;539698025274106434;347070;377688;294558;-1227;
2024-05-23T22:36:47.893;539698025292258540;347171;377873;294659;-1231;
2024-05-23T22:36:47.912;539698025310410646;347419;378268;294916;-1243;
2024-05-23T22:36:47.930;539698025328562752;347832;378640;295218;-1182;
2024-05-23T22:36:47.948;539698025346714858;348229;379191;295568;-1218;
2024-05-23T22:36:47.966;539698025364866964;348659;379678;295902;-1210;
2024-05-23T22:36:47.984;539698025383019070;349024;380266;296223;-1245;
2024-05-23T22:36:48.002;539698025401171176;349476;380827;296560;-1221;
2024-05-23T22:36:48.021;539698025419323282;349862;381247;296848;-1249;
2024-05-23T22:36:48.039;539698025437475388;350202;381692;297137;-1186;
2024-05-23T22:36:48.057;539698025455627494;350463;382134;297431;-1234;
2024-05-23T22:36:48.075;539698025473778944;350711;382411;297619;-1251;
2024-05-23T22:36:48.093;539698025491930385;350901;382766;297833;-1263;
2024-05-23T22:36:48.111;539698025510081826;351173;383159;297975;-1233;
2024-05-23T22:36:48.129;539698025528233267;351319;383479;298112;-1236;
2024-05-23T22:36:48.148;539698025546384708;351551;383782;298330;-1220;
2024-05-23T22:36:48.166;539698025564536149;351770;384039;298580;-1233;
2024-05-23T22:36:48.184;539698025582687590;352000;384322;298700;-1275;
2024-05-23T22:36:48.202;539698025600839031;352239;384697;298897;-1193;
2024-05-23T22:36:48.220;539698025618990472;352434;384995;299043;-1249;
2024-05-23T22:36:48.238;539698025637141913;352645;385383;299218;-1220;
2024-05-23T22:36:48.257;539698025655293354;352931;385635;299420;-1261;
2024-05-23T22:36:48.275;539698025673444795;353130;385955;299621;-1253;
2024-05-23T22:36:48.293;539698025691596236;353367;386261;299852;-1271;
2024-05-23T22:36:48.311;539698025709747677;353506;386458;299931;-1239;
2024-05-23T22:36:48.329;539698025727899118;353394;386450;299858;-1245;
2024-05-23T22:36:48.347;539698025746050559;353081;386170;299681;-1239;
2024-05-23T22:36:48.365;539698025764202000;352622;385869;299283;-1218;
2024-05-23T22:36:48.384;539698025782353441;352135;385398;298852;-1241;
2024-05-23T22:36:48.402;539698025800504882;351572;384896;298494;-1215;
2024-05-23T22:36:48.420;539698025818656323;351173;384484;298121;-1235;
2024-05-23T22:36:48.438;539698025836807764;350854;384219;297914;-1209;
2024-05-23T22:36:48.456;539698025854959205;350693;384082;297808;-1251;
2024-05-23T22:36:48.474;539698025873110646;350705;384067;297758;-1227;
2024-05-23T22:36:48.492;539698025891262087;350777;384123;297813;-1178;
2024-05-23T22:36:48.511;539698025909413528;350959;384479;297962;-1243;
2024-05-23T22:36:48.529;539698025927564969;351284;384824;298272;-1227;
2024-05-23T22:36:48.547;539698025945716410;351624;385235;298510;-1284;
2024-05-23T22:36:48.565;539698025963867851;352043;385712;298868;-1236;
2024-05-23T22:36:48.583;539698025982019292;352439;386163;299052;-1251;
2024-05-23T22:36:48.601;539698026000170733;352767;386592;299365;-1228;
2024-05-23T22:36:48.620;539698026018322174;353130;387016;299647;-1193;
2024-05-23T22:36:48.638;539698026036473615;353325;387373;299885;-1257;
2024-05-23T22:36:48.656;539698026054625056;353606;387753;300129;-1251;
2024-05-23T22:36:48.674;539698026072776497;353796;387962;300295;-1238;
2024-05-23T22:36:48.692;539698026090927938;354006;388303;300497;-1233;
2024-05-23T22:36:48.710;539698026109079379;354153;388619;300652;-1226;
2024-05-23T22:36:48.728;539698026127230820;354330;388778;300758;-1274;
2024-05-23T22:36:48.747;539698026145382261;354514;389034;300941;-1273;
2024-05-23T22:36:48.765;539698026163533702;354675;389289;301039;-1257;
2024-05-23T22:36:48.783;539698026181684855;354861;389565;301245;-1274;
2024-05-23T22:36:48.801;539698026199835986;355058;389865;301423;-1239;
2024-05-23T22:36:48.819;539698026217987117;355278;390181;301649;-1239;
2024-05-23T22:36:48.837;539698026236138248;355430;390372;301750;-1246;
2024-05-23T22:36:48.856;539698026254289379;355669;390683;301940;-1258;
2024-05-23T22:36:48.874;539698026272440510;355979;390961;302118;-1271;
2024-05-23T22:36:48.892;539698026290591641;356037;391154;302208;-1252;
2024-05-23T22:36:48.910;539698026308742772;355878;391112;302128;-1220;
