Phone timestamp;sensor timestamp [ns];channel 0;channel 1;channel 2;ambient
2024-05-23T22:19:32.303;539696989715499399;245430;250083;184559;-1397;
2024-05-23T22:19:32.321;539696989733658331;245095;249806;184367;-1423;
2024-05-23T22:19:32.339;539696989751817263;244932;249656;184328;-1433;
2024-05-23T22:19:32.357;539696989769976195;244936;249670;184336;-1432;
2024-05-23T22:19:32.375;539696989788135127;245045;249832;184433;-1393;
2024-05-23T22:19:32.393;539696989806294059;245303;250083;184591;-1417;
2024-05-23T22:19:32.411;539696989824452991;245567;250336;184797;-1434;
2024-05-23T22:19:32.430;539696989842611923;245870;250678;184984;-1473;
2024-05-23T22:19:32.448;539696989860770855;246240;251049;185208;-1379;
2024-05-23T22:19:32.466;539696989878929787;246597;251314;185330;-1391;
2024-05-23T22:19:32.484;539696989897088719;246965;251616;185529;-1377;
2024-05-23T22:19:32.502;539696989915247651;247296;251888;185732;-1406;
2024-05-23T22:19:32.520;539696989933406583;247486;252104;185712;-1388;
2024-05-23T22:19:32.539;539696989951565515;247622;252278;185864;-1429;
2024-05-23T22:19:32.557;539696989969724447;247796;252409;185937;-1416;
2024-05-23T22:19:32.575;539696989987883379;247956;252561;186030;-1398;
2024-05-23T22:19:32.593;539696990006042311;248091;252691;186096;-1380;
2024-05-23T22:19:32.611;539696990024201243;248147;252760;186091;-1415;
2024-05-23T22:19:32.629;539696990042360175;248243;252792;186110;-1420;
2024-05-23T22:19:32.648;539696990060519107;248403;252889;186164;-1470;
2024-05-23T22:19:32.666;539696990078678039;248450;252993;186245;-1477;
2024-05-23T22:19:32.684;539696990096836971;248600;253112;186303;-1441;
2024-05-23T22:19:32.702;539696990114995903;248745;253230;186367;-1443;
2024-05-23T22:19:32.720;539696990133154835;248868;253407;186396;-1416;
2024-05-23T22:19:32.738;539696990151313767;249002;253499;186446;-1419;
2024-05-23T22:19:32.756;539696990169472699;249113;253560;186469;-1423;
2024-05-23T22:19:32.775;539696990187631631;249225;253673;186591;-1411;
2024-05-23T22:19:32.793;539696990205790563;249371;253809;186586;-1478;
2024-05-23T22:19:32.811;539696990223949495;249449;253899;186675;-1426;
2024-05-23T22:19:32.829;539696990242108427;249447;253855;186643;-1453;
2024-05-23T22:19:32.847;539696990260267359;249238;253658;186602;-1457;
2024-05-23T22:19:32.865;539696990278426291;248797;253234;186295;-1409;
2024-05-23T22:19:32.884;539696990296585223;248119;252606;185922;-1381;
2024-05-23T22:19:32.902;539696990314744155;247469;251888;185426;-1446;
2024-05-23T22:19:32.920;539696990332903087;246727;251188;185129;-1448;
2024-05-23T22:19:32.938;539696990351062019;246062;250628;184796;-1398;
2024-05-23T22:19:32.956;539696990369220951;245658;250217;184602;-1451;
2024-05-23T22:19:32.974;539696990387379883;245433;250050;184487;-1450;
2024-05-23T22:19:32.993;539696990405538815;245337;249972;184513;-1449;
2024-05-23T22:19:33.011;539696990423697779;245449;250117;184577;-1409;
2024-05-23T22:19:33.029;539696990441856711;245565;250298;184633;-1451;
2024-05-23T22:19:33.047;539696990460015643;245880;250579;184775;-1423;
2024-05-23T22:19:33.065;539696990478174575;246187;250843;185020;-1456;
2024-05-23T22:19:33.083;539696990496333507;246532;251226;185235;-1402;
2024-05-23T22:19:33.101;539696990514492439;246940;251616;185429;-1408;
2024-05-23T22:19:33.120;539696990532651371;247241;251877;185581;-1451;
2024-05-23T22:19:33.138;539696990550810303;247419;252064;185692;-1441;
2024-05-23T22:19:33.156;539696990568969235;247653;252239;185849;-1458;
2024-05-23T22:19:33.174;539696990587128167;247799;252473;185918;-1496;
2024-05-23T22:19:33.192;539696990605287099;248028;252573;185969;-1462;
2024-05-23T22:19:33.210;539696990623446031;248259;252743;186086;-1405;
2024-05-23T22:19:33.229;539696990641604963;248330;252841;186119;-1387;
2024-05-23T22:19:33.247;539696990659763895;248376;252902;186104;-1438;
2024-05-23T22:19:33.265;539696990677922827;248432;252986;186179;-1437;
2024-05-23T22:19:33.283;539696990696081759;248470;253040;186164;-1428;
2024-05-23T22:19:33.301;539696990714240691;248580;253112;186201;-1412;
2024-05-23T22:19:33.319;539696990732399623;248721;253204;186275;-1359;
2024-05-23T22:19:33.338;539696990750558555;248763;253213;186315;-1369;
2024-05-23T22:19:33.356;539696990768717487;248866;253306;186363;-1390;
2024-05-23T22:19:33.374;539696990786876419;248944;253420;186442;-1437;
2024-05-23T22:19:33.392;539696990805035351;249091;253500;186465;-1410;
2024-05-23T22:19:33.410;539696990823194283;249101;253543;186473;-1444;
2024-05-23T22:19:33.428;539696990841353215;249253;253653;186536;-1422;
2024-05-23T22:19:33.447;539696990859512147;249123;253567;186468;-1402;
2024-05-23T22:19:33.465;539696990877671079;248870;253273;186273;-1377;
2024-05-23T22:19:33.483;539696990895830011;248274;252741;185918;-1389;
2024-05-23T22:19:33.501;539696990913988943;247572;252049;185520;-1408;
2024-05-23T22:19:33.519;539696990932147875;246792;251318;185102;-1404;
2024-05-23T22:19:33.537;539696990950306807;246056;250586;184725;-1458;
2024-05-23T22:19:33.555;539696990968465739;245481;250178;184498;-1434;
2024-05-23T22:19:33.574;539696990986624671;245140;249771;184275;-1459;
2024-05-23T22:19:33.592;539696991004783603;244883;249566;184223;-1440;
2024-05-23T22:19:33.610;539696991022942535;244874;249583;184213;-1493;
2024-05-23T22:19:33.628;539696991041101467;245011;249709;184286;-1437;
2024-05-23T22:19:33.646;539696991059260399;245159;249907;184442;-1407;
2024-05-23T22:19:33.664;539696991077419331;245433;250178;184587;-1410;
2024-05-23T22:19:33.683;539696991095578263;245762;250498;184711;-1453;
2024-05-23T22:19:33.701;539696991113738613;246046;250847;184938;-1463;
2024-05-23T22:19:33.719;539696991131898951;246399;251161;185103;-1439;
2024-05-23T22:19:33.737;539696991150059289;246677;251455;185279;-1445;
2024-05-23T22:19:33.755;539696991168219627;246973;251641;185465;-1444;
2024-05-23T22:19:33.773;539696991186379965;247187;251868;185535;-1448;
2024-05-23T22:19:33.792;539696991204540303;247315;251997;185590;-1461;
2024-05-23T22:19:33.810;539696991222700641;247481;252203;185684;-1398;
2024-05-23T22:19:33.828;539696991240860979;247658;252289;185755;-1448;
2024-05-23T22:19:33.846;539696991259021317;247706;252348;185749;-1399;
2024-05-23T22:19:33.864;539696991277181655;247880;252448;185821;-1406;
2024-05-23T22:19:33.882;539696991295341993;247950;252467;185845;-1512;
2024-05-23T22:19:33.901;539696991313502331;248013;252547;185871;-1455;
2024-05-23T22:19:33.919;539696991331662669;248067;252613;185892;-1459;
2024-05-23T22:19:33.937;539696991349823007;248163;252725;185992;-1414;
2024-05-23T22:19:33.955;539696991367983345;248252;252815;186043;-1439;
2024-05-23T22:19:33.973;539696991386143683;248353;252905;186070;-1439;
2024-05-23T22:19:33.991;539696991404304021;248439;253032;186138;-1427;
2024-05-23T22:19:34.009;539696991422464359;248563;253180;186178;-1407;
2024-05-23T22:19:34.028;539696991440624697;248658;253280;186265;-1443;
2024-05-23T22:19:34.046;539696991458785035;248818;253416;186363;-1389;
2024-05-23T22:19:34.064;539696991476945373;248928;253471;186345;-1425;
2024-05-23T22:19:34.082;539696991495105711;249086;253589;186418;-1405;
2024-05-23T22:19:34.100;539696991513266049;249170;253654;186471;-1331;
2024-05-23T22:19:34.118;539696991531426387;249139;253657;186493;-1391;
2024-05-23T22:19:34.137;539696991549586725;248820;253324;186250;-1440;
2024-05-23T22:19:34.155;539696991567747063;248264;252786;185913;-1382;
2024-05-23T22:19:34.173;539696991585907401;247447;252030;185478;-1430;
2024-05-23T22:19:34.191;539696991604067739;246652;251249;184987;-1395;
2024-05-23T22:19:34.209;539696991622228077;245876;250457;184563;-1487;
2024-05-23T22:19:34.227;539696991640388415;245274;249970;184277;-1404;
2024-05-23T22:19:34.246;539696991658548753;244876;249630;184163;-1466;
2024-05-23T22:19:34.264;539696991676709091;244590;249426;184011;-1482;
2024-05-23T22:19:34.282;539696991694869429;244590;249361;184011;-1459;
2024-05-23T22:19:34.300;539696991713029767;244686;249507;184173;-1431;
2024-05-23T22:19:34.318;539696991731190105;244821;249697;184254;-1424;
2024-05-23T22:19:34.336;539696991749350443;245168;249980;184413;-1438;
2024-05-23T22:19:34.355;539696991767510781;245544;250363;184653;-1378;
2024-05-23T22:19:34.373;539696991785671119;245853;250677;184867;-1458;
2024-05-23T22:19:34.391;539696991803834706;246216;251031;185111;-1410;
2024-05-23T22:19:34.409;539696991821998277;246574;251355;185259;-1414;
2024-05-23T22:19:34.427;539696991840161848;246853;251546;185412;-1424;
2024-05-23T22:19:34.445;539696991858325419;247114;251803;185481;-1405;
2024-05-23T22:19:34.463;539696991876488990;247258;251979;185577;-1465;
2024-05-23T22:19:34.482;539696991894652561;247519;252162;185664;-1405;
2024-05-23T22:19:34.500;539696991912816132;247646;252266;185762;-1437;
2024-05-23T22:19:34.518;539696991930979703;247643;252324;185784;-1479;
2024-05-23T22:19:34.536;539696991949143274;247793;252467;185817;-1403;
2024-05-23T22:19:34.554;539696991967306845;247832;252529;185889;-1409;
2024-05-23T22:19:34.572;539696991985470416;247932;252622;185906;-1404;
2024-05-23T22:19:34.591;539696992003633987;248029;252697;185966;-1402;
2024-05-23T22:19:34.609;539696992021797558;248133;252703;185951;-1405;
2024-05-23T22:19:34.627;539696992039961129;248256;252819;185979;-1461;
2024-05-23T22:19:34.645;539696992058124700;248387;252974;186097;-1473;
2024-05-23T22:19:34.663;539696992076288271;248490;253123;186187;-1479;
2024-05-23T22:19:34.681;539696992094451842;248607;253162;186259;-1472;
2024-05-23T22:19:34.700;539696992112615413;248776;253341;186379;-1392;
2024-05-23T22:19:34.718;539696992130778984;248929;253448;186464;-1411;
2024-05-23T22:19:34.736;539696992148942555;249042;253619;186472;-1378;
2024-05-23T22:19:34.754;539696992167106126;249144;253694;186485;-1481;
2024-05-23T22:19:34.772;539696992185269697;249322;253861;186592;-1441;
2024-05-23T22:19:34.790;539696992203433268;249254;253756;186554;-1430;
2024-05-23T22:19:34.809;539696992221596839;248887;253484;186364;-1439;
2024-05-23T22:19:34.827;539696992239760410;248304;252871;185964;-1458;
2024-05-23T22:19:34.845;539696992257923981;247629;252188;185631;-1449;
2024-05-23T22:19:34.863;539696992276087552;246887;251465;185222;-1434;
2024-05-23T22:19:34.881;539696992294251123;246130;250808;184807;-1385;
2024-05-23T22:19:34.899;539696992312414694;245594;250297;184577;-1407;
2024-05-23T22:19:34.918;539696992330578265;245239;249986;184346;-1421;
2024-05-23T22:19:34.936;539696992348741836;245099;249864;184329;-1457;
2024-05-23T22:19:34.954;539696992366905407;245163;249884;184392;-1404;
2024-05-23T22:19:34.972;539696992385068978;245309;250019;184541;-1413;
2024-05-23T22:19:34.990;539696992403232549;245519;250301;184643;-1395;
2024-05-23T22:19:35.008;539696992421396120;245810;250605;184828;-1370;
2024-05-23T22:19:35.027;539696992439559691;246246;250973;185096;-1382;
2024-05-23T22:19:35.045;539696992457723262;246523;251253;185276;-1371;
2024-05-23T22:19:35.063;539696992475885491;246935;251685;185524;-1340;
2024-05-23T22:19:35.081;539696992494047691;247159;251970;185647;-1466;
2024-05-23T22:19:35.099;539696992512209891;247459;252236;185751;-1402;
2024-05-23T22:19:35.117;539696992530372091;247687;252447;185921;-1417;
2024-05-23T22:19:35.136;539696992548534291;247924;252637;186013;-1396;
2024-05-23T22:19:35.154;539696992566696491;248055;252798;186045;-1425;
2024-05-23T22:19:35.172;539696992584858691;248184;252917;186121;-1393;
2024-05-23T22:19:35.190;539696992603020891;248291;252996;186140;-1454;
2024-05-23T22:19:35.208;539696992621183091;248402;253055;186230;-1457;
2024-05-23T22:19:35.226;539696992639345291;248450;253026;186210;-1455;
2024-05-23T22:19:35.245;539696992657507491;248555;253171;186297;-1496;
2024-05-23T22:19:35.263;539696992675669691;248657;253221;186349;-1445;
2024-05-23T22:19:35.281;539696992693831891;248775;253329;186359;-1487;
2024-05-23T22:19:35.299;539696992711994091;248914;253485;186473;-1445;
2024-05-23T22:19:35.317;539696992730156291;248995;253536;186502;-1473;
2024-05-23T22:19:35.335;539696992748318491;249186;253707;186585;-1357;
2024-05-23T22:19:35.353;539696992766480691;249240;253840;186604;-1430;
2024-05-23T22:19:35.372;539696992784642891;249334;253931;186640;-1484;
2024-05-23T22:19:35.390;539696992802805091;249549;254079;186737;-1396;
2024-05-23T22:19:35.408;539696992820967291;249620;254225;186813;-1402;
2024-05-23T22:19:35.426;539696992839129491;249752;254313;186858;-1386;
2024-05-23T22:19:35.444;539696992857291691;249569;254106;186778;-1372;
2024-05-23T22:19:35.462;539696992875453891;249147;253713;186579;-1385;
2024-05-23T22:19:35.481;539696992893616091;248508;253050;186165;-1408;
2024-05-23T22:19:35.499;539696992911778291;247722;252339;185748;-1391;
2024-05-23T22:19:35.517;539696992929940491;247000;251613;185303;-1399;
2024-05-23T22:19:35.535;539696992948102691;246272;251037;184967;-1456;
2024-05-23T22:19:35.553;539696992966264891;245822;250529;184695;-1442;
2024-05-23T22:19:35.571;539696992984427091;245534;250309;184587;-1451;
2024-05-23T22:19:35.590;539696993002589291;245432;250205;184579;-1399;
2024-05-23T22:19:35.608;539696993020751491;245440;250236;184640;-1425;
2024-05-23T22:19:35.626;539696993038913691;245525;250368;184722;-1406;
2024-05-23T22:19:35.644;539696993057075891;245840;250699;184947;-1391;
2024-05-23T22:19:35.662;539696993075238091;246094;250921;185053;-1390;
2024-05-23T22:19:35.680;539696993093400291;246409;251241;185217;-1423;
2024-05-23T22:19:35.699;539696993111562491;246765;251587;185443;-1445;
2024-05-23T22:19:35.717;539696993129724691;247139;251899;185609;-1423;
2024-05-23T22:19:35.735;539696993147886891;247471;252227;185818;-1422;
2024-05-23T22:19:35.753;539696993166049091;247614;252430;185925;-1420;
2024-05-23T22:19:35.771;539696993184207497;247794;252580;186008;-1460;
2024-05-23T22:19:35.789;539696993202365876;247863;252704;186078;-1412;
2024-05-23T22:19:35.808;539696993220524255;248032;252840;186053;-1440;
2024-05-23T22:19:35.826;539696993238682634;248078;252909;186109;-1445;
2024-05-23T22:19:35.844;539696993256841013;248114;252921;186105;-1454;
2024-05-23T22:19:35.862;539696993274999392;248136;252966;186104;-1451;
2024-05-23T22:19:35.880;539696993293157771;248128;253006;186144;-1460;
2024-05-23T22:19:35.898;539696993311316150;248091;253030;186172;-1462;
2024-05-23T22:19:35.916;539696993329474529;248061;252935;186143;-1467;
2024-05-23T22:19:35.935;539696993347632908;248033;252992;186144;-1493;
2024-05-23T22:19:35.953;539696993365791287;247875;252936;186040;-1474;
2024-05-23T22:19:35.971;539696993383949666;247726;252818;185986;-1523;
2024-05-23T22:19:35.989;539696993402108045;247527;252599;185828;-1523;
2024-05-23T22:19:36.007;539696993420266424;247318;252495;185745;-1468;
2024-05-23T22:19:36.025;539696993438424803;247037;252260;185637;-1426;
2024-05-23T22:19:36.044;539696993456583182;246796;252162;185516;-1427;
2024-05-23T22:19:36.062;539696993474741561;246561;252051;185351;-1444;
2024-05-23T22:19:36.080;539696993492899940;246136;251672;185202;-1461;
2024-05-23T22:19:36.098;539696993511058319;245586;251212;184929;-1430;
2024-05-23T22:19:36.116;539696993529216698;244865;250457;184590;-1388;
2024-05-23T22:19:36.134;539696993547375077;243625;249050;183783;-1428;
2024-05-23T22:19:36.153;539696993565533456;241771;247170;182733;-1447;
2024-05-23T22:19:36.171;539696993583691835;240214;245646;181742;-1424;
2024-05-23T22:19:36.189;539696993601850214;239234;244595;181072;-1443;
2024-05-23T22:19:36.207;539696993620008593;238654;244096;180764;-1445;
2024-05-23T22:19:36.225;539696993638166972;238812;244113;180807;-1433;
2024-05-23T22:19:36.243;539696993656325351;239726;244985;181335;-1422;
2024-05-23T22:19:36.261;539696993674483730;241067;246221;181998;-1432;
2024-05-23T22:19:36.280;539696993692642109;242571;247596;182818;-1478;
2024-05-23T22:19:36.298;539696993710800488;244164;249104;183736;-1408;
2024-05-23T22:19:36.316;539696993728958867;245665;250653;184629;-1417;
2024-05-23T22:19:36.334;539696993747117246;247334;252207;185547;-1477;
2024-05-23T22:19:36.352;539696993765275625;249164;253988;186605;-1468;
2024-05-23T22:19:36.370;539696993783434004;250986;255794;187638;-1433;
2024-05-23T22:19:36.389;539696993801592383;252909;257552;188733;-1439;
2024-05-23T22:19:36.407;539696993819750762;254461;258861;189591;-1506;
2024-05-23T22:19:36.425;539696993837908714;255638;259711;190186;-1472;
2024-05-23T22:19:36.443;539696993856066646;256262;259952;190419;-1431;
2024-05-23T22:19:36.461;539696993874224578;256293;259801;190266;-1460;
2024-05-23T22:19:36.479;539696993892382510;256220;259668;190183;-1416;
2024-05-23T22:19:36.498;539696993910540442;256322;259976;190198;-1408;
2024-05-23T22:19:36.516;539696993928698374;257228;260871;190592;-1446;
2024-05-23T22:19:36.534;539696993946856306;257231;260824;190471;-1481;
2024-05-23T22:19:36.552;539696993965014238;255996;259581;189634;-1454;
2024-05-23T22:19:36.570;539696993983172170;254071;257785;188509;-1431;
2024-05-23T22:19:36.588;539696994001330102;252379;256347;187510;-1448;
2024-05-23T22:19:36.606;539696994019488034;251382;255499;187061;-1411;
2024-05-23T22:19:36.625;539696994037645966;251247;255485;187146;-1464;
2024-05-23T22:19:36.643;539696994055803898;251095;255480;187177;-1425;
2024-05-23T22:19:36.661;539696994073961830;250342;254807;186809;-1410;
2024-05-23T22:19:36.679;539696994092119762;249303;253783;186126;-1400;
2024-05-23T22:19:36.697;539696994110277694;248461;253133;185678;-1419;
2024-05-23T22:19:36.715;539696994128435626;247854;252685;185409;-1474;
2024-05-23T22:19:36.734;539696994146593558;247244;252259;185155;-1434;
2024-05-23T22:19:36.752;539696994164751490;246427;251496;184668;-1490;
2024-05-23T22:19:36.770;539696994182909422;245578;250731;184279;-1460;
2024-05-23T22:19:36.788;539696994201067354;244826;250147;183900;-1438;
2024-05-23T22:19:36.806;539696994219225286;244209;249565;183646;-1405;
2024-05-23T22:19:36.824;539696994237383218;243791;249159;183383;-1464;
2024-05-23T22:19:36.843;539696994255541150;243488;248995;183304;-1419;
2024-05-23T22:19:36.861;539696994273699082;243494;249032;183388;-1434;
2024-05-23T22:19:36.879;539696994291857014;243717;249337;183547;-1379;
2024-05-23T22:19:36.897;539696994310014946;244083;249696;183807;-1391;
2024-05-23T22:19:36.915;539696994328172878;244494;250226;184049;-1406;
2024-05-23T22:19:36.933;539696994346330810;244935;250644;184288;-1426;
2024-05-23T22:19:36.951;539696994364488742;245514;251222;184631;-1400;
2024-05-23T22:19:36.970;539696994382646674;245947;251719;184859;-1381;
2024-05-23T22:19:36.988;539696994400804606;246329;252143;185143;-1419;
2024-05-23T22:19:37.006;539696994418962538;246658;252500;185313;-1441;
2024-05-23T22:19:37.024;539696994437122977;247000;252812;185533;-1473;
2024-05-23T22:19:37.042;539696994455283390;247233;253062;185627;-1417;
2024-05-23T22:19:37.060;539696994473443803;247404;253207;185774;-1431;
2024-05-23T22:19:37.079;539696994491604216;247480;253314;185816;-1477;
2024-05-23T22:19:37.097;539696994509764629;247534;253399;185851;-1424;
2024-05-23T22:19:37.115;539696994527925042;247444;253351;185837;-1444;
2024-05-23T22:19:37.133;539696994546085455;247372;253278;185733;-1386;
2024-05-23T22:19:37.151;539696994564245868;247245;253245;185740;-1441;
2024-05-23T22:19:37.169;539696994582406281;247087;253122;185629;-1453;
2024-05-23T22:19:37.188;539696994600566694;246787;252895;185520;-1505;
2024-05-23T22:19:37.206;539696994618727107;246604;252680;185361;-1455;
2024-05-23T22:19:37.224;539696994636887520;246314;252493;185269;-1412;
2024-05-23T22:19:37.242;539696994655047933;246081;252269;185111;-1439;
2024-05-23T22:19:37.260;539696994673208346;245885;252117;185017;-1419;
2024-05-23T22:19:37.278;539696994691368759;245728;251934;184976;-1459;
2024-05-23T22:19:37.297;539696994709529172;245580;251905;184953;-1387;
2024-05-23T22:19:37.315;539696994727689585;245532;251827;184878;-1382;
2024-05-23T22:19:37.333;539696994745849998;245413;251744;184873;-1397;
2024-05-23T22:19:37.351;539696994764010411;245121;251426;184732;-1399;
2024-05-23T22:19:37.369;539696994782170824;244520;250911;184380;-1427;
2024-05-23T22:19:37.387;539696994800331237;243828;250094;183941;-1475;
2024-05-23T22:19:37.405;539696994818491650;243043;249387;183541;-1491;
2024-05-23T22:19:37.424;539696994836652063;242418;248782;183235;-1455;
2024-05-23T22:19:37.442;539696994854812476;242236;248594;183148;-1392;
2024-05-23T22:19:37.460;539696994872972889;242309;248623;183180;-1442;
2024-05-23T22:19:37.478;539696994891133302;242565;248818;183343;-1378;
2024-05-23T22:19:37.496;539696994909293715;242945;249205;183630;-1382;
2024-05-23T22:19:37.514;539696994927454128;243529;249653;183987;-1415;
2024-05-23T22:19:37.533;539696994945614541;244227;250360;184362;-1388;
2024-05-23T22:19:37.551;539696994963774954;244907;250921;184634;-1459;
2024-05-23T22:19:37.569;539696994981935367;245597;251564;185022;-1480;
2024-05-23T22:19:37.587;539696995000095780;246114;252115;185370;-1419;
2024-05-23T22:19:37.605;539696995018256193;246710;252645;185684;-1404;
2024-05-23T22:19:37.623;539696995036416606;247237;253106;185939;-1419;
2024-05-23T22:19:37.642;539696995054577019;247837;253629;186289;-1389;
2024-05-23T22:19:37.660;539696995072737432;248216;253999;186466;-1464;
2024-05-23T22:19:37.678;539696995090896770;248608;254337;186644;-1419;
2024-05-23T22:19:37.696;539696995109056075;248792;254480;186721;-1438;
2024-05-23T22:19:37.714;539696995127215380;249027;254631;186788;-1455;
2024-05-23T22:19:37.732;539696995145374685;249187;254729;186899;-1375;
2024-05-23T22:19:37.751;539696995163533990;249338;254712;186898;-1343;
2024-05-23T22:19:37.769;539696995181693295;249477;254799;186991;-1378;
2024-05-23T22:19:37.787;539696995199852600;249650;254951;187117;-1392;
2024-05-23T22:19:37.805;539696995218011905;249687;254934;187029;-1431;
2024-05-23T22:19:37.823;539696995236171210;249779;254964;187075;-1446;
2024-05-23T22:19:37.841;539696995254330515;249941;255027;187105;-1423;
2024-05-23T22:19:37.859;539696995272489820;250070;255145;187113;-1421;
2024-05-23T22:19:37.878;539696995290649125;250277;255277;187137;-1470;
2024-05-23T22:19:37.896;539696995308808430;250506;255485;187306;-1459;
2024-05-23T22:19:37.914;539696995326967735;250694;255650;187346;-1446;
2024-05-23T22:19:37.932;539696995345127040;250880;255736;187435;-1414;
2024-05-23T22:19:37.950;539696995363286345;250733;255528;187312;-1473;
2024-05-23T22:19:37.968;539696995381445650;250319;255221;187111;-1432;
2024-05-23T22:19:37.987;539696995399604955;249797;254696;186794;-1406;
2024-05-23T22:19:38.005;539696995417764260;249095;254001;186357;-1414;
2024-05-23T22:19:38.023;539696995435923565;248372;253309;185945;-1392;
2024-05-23T22:19:38.041;539696995454082870;247670;252739;185510;-1451;
2024-05-23T22:19:38.059;539696995472242175;247140;252234;185289;-1442;
2024-05-23T22:19:38.077;539696995490401480;246738;251907;185078;-1431;
2024-05-23T22:19:38.096;539696995508560785;246484;251698;185061;-1387;
2024-05-23T22:19:38.114;539696995526720090;246465;251715;185087;-1362;
2024-05-23T22:19:38.132;539696995544879395;246480;251770;185122;-1442;
2024-05-23T22:19:38.150;539696995563038700;246588;251937;185245;-1429;
2024-05-23T22:19:38.168;539696995581198005;246760;252255;185408;-1400;
2024-05-23T22:19:38.186;539696995599357310;247020;252447;185568;-1440;
2024-05-23T22:19:38.205;539696995617516615;247298;252680;185671;-1407;
2024-05-23T22:19:38.223;539696995635675920;247385;252844;185746;-1425;
2024-05-23T22:19:38.241;539696995653835225;247482;252879;185763;-1416;
2024-05-23T22:19:38.259;539696995671994530;247581;253002;185769;-1449;
2024-05-23T22:19:38.277;539696995690153835;247559;252968;185835;-1468;
2024-05-23T22:19:38.295;539696995708313140;247499;252884;185735;-1485;
2024-05-23T22:19:38.313;539696995726472445;247374;252829;185632;-1484;
2024-05-23T22:19:38.332;539696995744631750;247298;252748;185637;-1397;
2024-05-23T22:19:38.350;539696995762791055;247231;252700;185562;-1422;
2024-05-23T22:19:38.368;539696995780950360;247062;252599;185548;-1414;
2024-05-23T22:19:38.386;539696995799111640;247038;252493;185478;-1442;
2024-05-23T22:19:38.404;539696995817272901;246987;252532;185471;-1413;
2024-05-23T22:19:38.422;539696995835434162;246975;252529;185458;-1397;
2024-05-23T22:19:38.441;539696995853595423;246977;252473;185402;-1445;
2024-05-23T22:19:38.459;539696995871756684;246991;252475;185435;-1434;
2024-05-23T22:19:38.477;539696995889917945;246956;252454;185363;-1456;
2024-05-23T22:19:38.495;539696995908079206;247014;252411;185342;-1445;
2024-05-23T22:19:38.513;539696995926240467;246905;252352;185305;-1446;
2024-05-23T22:19:38.531;539696995944401728;246616;252129;185211;-1442;
2024-05-23T22:19:38.550;539696995962562989;246192;251707;185015;-1395;
2024-05-23T22:19:38.568;539696995980724250;245533;251060;184620;-1478;
2024-05-23T22:19:38.586;539696995998885511;244836;250331;184240;-1439;
2024-05-23T22:19:38.604;539696996017046772;244138;249648;183820;-1474;
2024-05-23T22:19:38.622;539696996035208033;243499;249149;183555;-1408;
2024-05-23T22:19:38.640;539696996053369294;243059;248709;183317;-1456;
2024-05-23T22:19:38.659;539696996071530555;242751;248495;183211;-1433;
2024-05-23T22:19:38.677;539696996089691816;242623;248314;183141;-1396;
2024-05-23T22:19:38.695;539696996107853077;242619;248329;183139;-1395;
2024-05-23T22:19:38.713;539696996126014338;242784;248416;183257;-1408;
2024-05-23T22:19:38.731;539696996144175599;242894;248649;183383;-1395;
2024-05-23T22:19:38.749;539696996162336860;243174;248897;183524;-1409;
2024-05-23T22:19:38.767;539696996180498121;243493;249233;183725;-1407;
2024-05-23T22:19:38.786;539696996198659382;243763;249546;183861;-1425;
2024-05-23T22:19:38.804;539696996216820643;244016;249724;183989;-1405;
2024-05-23T22:19:38.822;539696996234981904;244257;250033;184143;-1398;
2024-05-23T22:19:38.840;539696996253143165;244393;250113;184164;-1387;
2024-05-23T22:19:38.858;539696996271304426;244548;250211;184253;-1413;
2024-05-23T22:19:38.876;539696996289465687;244668;250362;184289;-1386;
2024-05-23T22:19:38.895;539696996307626948;244663;250348;184346;-1392;
2024-05-23T22:19:38.913;539696996325788209;244761;250393;184336;-1437;
2024-05-23T22:19:38.931;539696996343949470;244837;250480;184390;-1383;
2024-05-23T22:19:38.949;539696996362110731;244910;250515;184416;-1395;
2024-05-23T22:19:38.967;539696996380271992;244922;250540;184460;-1389;
2024-05-23T22:19:38.985;539696996398433253;245052;250614;184484;-1403;
2024-05-23T22:19:39.004;539696996416594514;245052;250695;184472;-1443;
2024-05-23T22:19:39.022;539696996434753599;245239;250860;184614;-1407;
2024-05-23T22:19:39.040;539696996452912681;245254;250881;184555;-1395;
2024-05-23T22:19:39.058;539696996471071763;245433;250978;184597;-1433;
2024-05-23T22:19:39.076;539696996489230845;245403;251062;184703;-1428;
2024-05-23T22:19:39.094;539696996507389927;245521;251160;184788;-1391;
2024-05-23T22:19:39.113;539696996525549009;245553;251120;184688;-1414;
2024-05-23T22:19:39.131;539696996543708091;245352;250901;184586;-1466;
2024-05-23T22:19:39.149;539696996561867173;244969;250454;184399;-1442;
2024-05-23T22:19:39.167;539696996580026255;244309;249806;183944;-1458;
2024-05-23T22:19:39.185;539696996598185337;243558;249125;183543;-1430;
2024-05-23T22:19:39.203;539696996616344419;242961;248573;183323;-1433;
2024-05-23T22:19:39.222;539696996634503501;242403;248050;183012;-1451;
2024-05-23T22:19:39.240;539696996652662583;242110;247696;182888;-1392;
2024-05-23T22:19:39.258;539696996670821665;241855;247464;182780;-1441;
2024-05-23T22:19:39.276;539696996688980747;241751;247446;182747;-1391;
2024-05-23T22:19:39.294;539696996707139829;241804;247531;182754;-1458;
2024-05-23T22:19:39.312;539696996725298911;241956;247684;182922;-1476;
2024-05-23T22:19:39.330;539696996743457993;242166;247965;183097;-1417;
2024-05-23T22:19:39.349;539696996761617075;242520;248216;183270;-1441;
2024-05-23T22:19:39.367;539696996779776157;242875;248562;183495;-1423;
2024-05-23T22:19:39.385;539696996797935239;243247;248905;183677;-1415;
2024-05-23T22:19:39.403;539696996816094321;243643;249311;183824;-1450;
2024-05-23T22:19:39.421;539696996834253403;243996;249586;184006;-1438;
2024-05-23T22:19:39.439;539696996852412485;244341;249923;184226;-1430;
2024-05-23T22:19:39.458;539696996870571567;244609;250176;184370;-1446;
2024-05-23T22:19:39.476;539696996888730649;244869;250398;184442;-1440;
2024-05-23T22:19:39.494;539696996906889731;245075;250623;184585;-1375;
2024-05-23T22:19:39.512;539696996925048813;245155;250735;184647;-1439;
2024-05-23T22:19:39.530;539696996943207895;245372;250803;184664;-1425;
2024-05-23T22:19:39.548;539696996961366977;245453;250980;184763;-1403;
2024-05-23T22:19:39.567;539696996979526059;245668;251133;184783;-1415;
2024-05-23T22:19:39.585;539696996997685141;245846;251228;184889;-1416;
2024-05-23T22:19:39.603;539696997015844223;246019;251418;185027;-1398;
2024-05-23T22:19:39.621;539696997034003305;246143;251526;185114;-1358;
2024-05-23T22:19:39.639;539696997052162387;246254;251605;185132;-1402;
2024-05-23T22:19:39.657;539696997070322810;246329;251784;185172;-1397;
2024-05-23T22:19:39.675;539696997088483199;246467;251816;185245;-1390;
2024-05-23T22:19:39.694;539696997106643588;246602;251927;185292;-1424;
2024-05-23T22:19:39.712;539696997124803977;246570;251964;185290;-1398;
2024-05-23T22:19:39.730;539696997142964366;246405;251710;185175;-1394;
2024-05-23T22:19:39.748;539696997161124755;245928;251250;184887;-1403;
2024-05-23T22:19:39.766;539696997179285144;245355;250653;184602;-1432;
2024-05-23T22:19:39.784;539696997197445533;244720;249965;184215;-1346;
2024-05-23T22:19:39.803;539696997215605922;244031;249346;183843;-1458;
2024-05-23T22:19:39.821;539696997233766311;243468;248886;183552;-1487;
2024-05-23T22:19:39.839;539696997251926700;243134;248487;183363;-1442;
2024-05-23T22:19:39.857;539696997270087089;242863;248266;183258;-1431;
2024-05-23T22:19:39.875;539696997288247478;242816;248263;183255;-1410;
2024-05-23T22:19:39.893;539696997306407867;242826;248304;183294;-1496;
2024-05-23T22:19:39.912;539696997324568256;243021;248508;183372;-1492;
2024-05-23T22:19:39.930;539696997342728645;243321;248762;183604;-1447;
2024-05-23T22:19:39.948;539696997360889034;243635;248999;183707;-1463;
2024-05-23T22:19:39.966;539696997379049423;244015;249390;183841;-1453;
2024-05-23T22:19:39.984;539696997397209812;244309;249690;184108;-1386;
2024-05-23T22:19:40.002;539696997415370201;244614;250018;184261;-1400;
2024-05-23T22:19:40.021;539696997433530590;244950;250345;184424;-1460;
2024-05-23T22:19:40.039;539696997451690979;245174;250585;184565;-1468;
2024-05-23T22:19:40.057;539696997469851368;245472;250793;184650;-1420;
2024-05-23T22:19:40.075;539696997488011757;245668;250987;184718;-1462;
2024-05-23T22:19:40.093;539696997506172146;245792;251100;184830;-1470;
2024-05-23T22:19:40.111;539696997524332535;245934;251264;184944;-1428;
2024-05-23T22:19:40.129;539696997542492924;246082;251321;185003;-1433;
2024-05-23T22:19:40.148;539696997560653313;246246;251482;185031;-1426;
2024-05-23T22:19:40.166;539696997578813702;246328;251593;185113;-1466;
2024-05-23T22:19:40.184;539696997596974091;246456;251659;185164;-1424;
2024-05-23T22:19:40.202;539696997615134480;246508;251715;185210;-1480;
2024-05-23T22:19:40.220;539696997633294869;246632;251800;185217;-1474;
2024-05-23T22:19:40.238;539696997651455258;246681;251847;185227;-1454;
2024-05-23T22:19:40.257;539696997669615647;246858;251967;185345;-1397;
2024-05-23T22:19:40.275;539696997687776036;246896;252061;185367;-1387;
2024-05-23T22:19:40.293;539696997705935119;246998;252142;185428;-1383;
2024-05-23T22:19:40.311;539696997724094176;247035;252223;185424;-1437;
2024-05-23T22:19:40.329;539696997742253233;246864;251971;185368;-1403;
2024-05-23T22:19:40.347;539696997760412290;246453;251528;185088;-1409;
2024-05-23T22:19:40.366;539696997778571347;245898;250945;184712;-1407;
2024-05-23T22:19:40.384;539696997796730404;245171;250347;184341;-1386;
2024-05-23T22:19:40.402;539696997814889461;244425;249643;183953;-1426;
2024-05-23T22:19:40.420;539696997833048518;243796;249072;183622;-1389;
2024-05-23T22:19:40.438;539696997851207575;243394;248614;183358;-1433;
2024-05-23T22:19:40.456;539696997869366632;243168;248396;183223;-1429;
2024-05-23T22:19:40.475;539696997887525689;242954;248286;183278;-1393;
2024-05-23T22:19:40.493;539696997905684746;242980;248245;183252;-1412;
2024-05-23T22:19:40.511;539696997923843803;243039;248380;183321;-1406;
2024-05-23T22:19:40.529;539696997942002860;243282;248603;183438;-1419;
2024-05-23T22:19:40.547;539696997960161917;243612;248920;183662;-1416;
2024-05-23T22:19:40.565;539696997978320974;243935;249194;183815;-1433;
2024-05-23T22:19:40.583;539696997996480031;244190;249476;183998;-1464;
2024-05-23T22:19:40.602;539696998014639088;244493;249800;184195;-1429;
2024-05-23T22:19:40.620;539696998032798145;244804;249970;184271;-1466;
2024-05-23T22:19:40.638;539696998050957202;245011;250195;184375;-1440;
2024-05-23T22:19:40.656;539696998069116259;245224;250454;184556;-1410;
2024-05-23T22:19:40.674;539696998087275316;245343;250611;184606;-1356;
2024-05-23T22:19:40.692;539696998105434373;245417;250665;184587;-1445;
2024-05-23T22:19:40.711;539696998123593430;245565;250745;184633;-1397;
2024-05-23T22:19:40.729;539696998141752487;245760;250867;184712;-1419;
2024-05-23T22:19:40.747;539696998159911544;245738;250928;184754;-1459;
2024-05-23T22:19:40.765;539696998178070601;245785;250987;184776;-1456;
2024-05-23T22:19:40.783;539696998196229658;245840;251016;184792;-1442;
2024-05-23T22:19:40.801;539696998214388715;245914;251026;184739;-1429;
2024-05-23T22:19:40.820;539696998232547772;245946;251200;184861;-1431;
2024-05-23T22:19:40.838;539696998250706829;246048;251173;184858;-1461;
2024-05-23T22:19:40.856;539696998268865886;246163;251232;184846;-1460;
2024-05-23T22:19:40.874;539696998287024943;246145;251296;184910;-1441;
2024-05-23T22:19:40.892;539696998305184000;246289;251399;184862;-1445;
2024-05-23T22:19:40.910;539696998323343057;246243;251332;184941;-1458;
2024-05-23T22:19:40.929;539696998341502114;245995;251052;184772;-1464;
2024-05-23T22:19:40.947;539696998359662125;245490;250641;184477;-1438;
2024-05-23T22:19:40.965;539696998377822130;244823;249955;184135;-1448;
2024-05-23T22:19:40.983;539696998395982135;244170;249314;183707;-1389;
2024-05-23T22:19:41.001;539696998414142140;243490;248716;183398;-1397;
2024-05-23T22:19:41.019;539696998432302145;242855;248150;183129;-1460;
2024-05-23T22:19:41.037;539696998450462150;242500;247709;182929;-1438;
2024-05-23T22:19:41.056;539696998468622155;242265;247523;182815;-1408;
2024-05-23T22:19:41.074;539696998486782160;242161;247448;182812;-1449;
2024-05-23T22:19:41.092;539696998504942165;242217;247591;182912;-1425;
2024-05-23T22:19:41.110;539696998523102170;242339;247697;182972;-1460;
2024-05-23T22:19:41.128;539696998541262175;242580;248014;183152;-1429;
2024-05-23T22:19:41.146;539696998559422180;242858;248311;183299;-1464;
2024-05-23T22:19:41.165;539696998577582185;243179;248584;183415;-1414;
2024-05-23T22:19:41.183;539696998595742190;243494;248967;183669;-1445;
2024-05-23T22:19:41.201;539696998613902195;243832;249240;183800;-1436;
2024-05-23T22:19:41.219;539696998632062200;244115;249416;183930;-1461;
2024-05-23T22:19:41.237;539696998650222205;244363;249654;184067;-1400;
2024-05-23T22:19:41.255;539696998668382210;244553;249899;184190;-1376;
2024-05-23T22:19:41.274;539696998686542215;244735;250065;184290;-1408;
2024-05-23T22:19:41.292;539696998704702220;244805;250206;184305;-1449;
2024-05-23T22:19:41.310;539696998722862225;244960;250273;184360;-1426;
2024-05-23T22:19:41.328;539696998741022230;245007;250349;184402;-1434;
2024-05-23T22:19:41.346;539696998759182235;245186;250444;184493;-1346;
2024-05-23T22:19:41.364;539696998777342240;245279;250524;184493;-1408;
2024-05-23T22:19:41.383;539696998795502245;245301;250528;184503;-1453;
2024-05-23T22:19:41.401;539696998813662250;245412;250624;184524;-1424;
2024-05-23T22:19:41.419;539696998831822255;245488;250706;184538;-1456;
2024-05-23T22:19:41.437;539696998849982260;245618;250819;184658;-1378;
2024-05-23T22:19:41.455;539696998868142265;245721;250901;184712;-1456;
2024-05-23T22:19:41.473;539696998886302270;245822;251026;184847;-1442;
2024-05-23T22:19:41.491;539696998904462275;245986;251163;184882;-1403;
2024-05-23T22:19:41.510;539696998922622280;246051;251268;184833;-1485;
2024-05-23T22:19:41.528;539696998940782285;246185;251279;184915;-1395;
2024-05-23T22:19:41.546;539696998958942290;246228;251335;184937;-1444;
2024-05-23T22:19:41.564;539696998977100807;246050;251168;184795;-1483;
2024-05-23T22:19:41.582;539696998995259305;245573;250741;184498;-1465;
2024-05-23T22:19:41.600;539696999013417803;244858;250076;184162;-1451;
2024-05-23T22:19:41.619;539696999031576301;244176;249411;183748;-1450;
2024-05-23T22:19:41.637;539696999049734799;243457;248752;183376;-1467;
2024-05-23T22:19:41.655;539696999067893297;242874;248239;183100;-1448;
2024-05-23T22:19:41.673;539696999086051795;242386;247722;182843;-1467;
2024-05-23T22:19:41.691;539696999104210293;242137;247498;182782;-1479;
2024-05-23T22:19:41.709;539696999122368791;242094;247438;182758;-1450;
2024-05-23T22:19:41.728;539696999140527289;242125;247464;182769;-1466;
2024-05-23T22:19:41.746;539696999158685787;242257;247594;182871;-1448;
2024-05-23T22:19:41.764;539696999176844285;242515;247859;183053;-1365;
2024-05-23T22:19:41.782;539696999195002783;242784;248189;183188;-1438;
2024-05-23T22:19:41.800;539696999213161281;243084;248457;183436;-1456;
2024-05-23T22:19:41.818;539696999231319779;243464;248856;183588;-1479;
2024-05-23T22:19:41.836;539696999249478277;243846;249204;183840;-1456;
2024-05-23T22:19:41.855;539696999267636775;244141;249512;184003;-1477;
2024-05-23T22:19:41.873;539696999285795273;244417;249723;184089;-1414;
2024-05-23T22:19:41.891;539696999303953771;244623;249892;184172;-1394;
2024-05-23T22:19:41.909;539696999322112269;244827;250095;184276;-1493;
2024-05-23T22:19:41.927;539696999340270767;245027;250285;184343;-1464;
2024-05-23T22:19:41.945;539696999358429265;245146;250390;184434;-1461;
2024-05-23T22:19:41.964;539696999376587763;245236;250500;184479;-1463;
2024-05-23T22:19:41.982;539696999394746261;245432;250608;184563;-1427;
2024-05-23T22:19:42.000;539696999412904759;245559;250686;184647;-1420;
2024-05-23T22:19:42.018;539696999431063257;245593;250767;184654;-1472;
2024-05-23T22:19:42.036;539696999449221755;245660;250905;184720;-1494;
2024-05-23T22:19:42.054;539696999467380253;245828;250978;184778;-1400;
2024-05-23T22:19:42.073;539696999485538751;245912;251060;184769;-1390;
2024-05-23T22:19:42.091;539696999503697249;246043;251222;184889;-1387;
2024-05-23T22:19:42.109;539696999521855747;246209;251340;184981;-1442;
2024-05-23T22:19:42.127;539696999540014245;246322;251428;184983;-1466;
2024-05-23T22:19:42.145;539696999558172743;246471;251579;185035;-1426;
2024-05-23T22:19:42.163;539696999576331241;246624;251736;185149;-1431;
2024-05-23T22:19:42.181;539696999594489739;246655;251741;185142;-1427;
2024-05-23T22:19:42.200;539696999612648237;246520;251589;185120;-1415;
2024-05-23T22:19:42.218;539696999630806735;246137;251255;184879;-1476;
2024-05-23T22:19:42.236;539696999648966670;245569;250714;184515;-1429;
2024-05-23T22:19:42.254;539696999667126570;244889;250070;184139;-1444;
2024-05-23T22:19:42.272;539696999685286470;244236;249400;183806;-1414;
2024-05-23T22:19:42.290;539696999703446370;243614;248771;183441;-1466;
2024-05-23T22:19:42.309;539696999721606270;243180;248417;183259;-1436;
2024-05-23T22:19:42.327;539696999739766170;242979;248192;183176;-1433;
2024-05-23T22:19:42.345;539696999757926070;242856;248153;183179;-1399;
2024-05-23T22:19:42.363;539696999776085970;242890;248200;183209;-1386;
2024-05-23T22:19:42.381;539696999794245870;243074;248423;183323;-1375;
2024-05-23T22:19:42.399;539696999812405770;243360;248680;183470;-1400;
2024-05-23T22:19:42.418;539696999830565670;243682;248990;183714;-1389;
2024-05-23T22:19:42.436;539696999848725570;243972;249330;183833;-1378;
2024-05-23T22:19:42.454;539696999866885470;244325;249651;184056;-1430;
2024-05-23T22:19:42.472;539696999885045370;244636;249923;184209;-1409;
2024-05-23T22:19:42.490;539696999903205270;244959;250277;184356;-1436;
2024-05-23T22:19:42.508;539696999921365170;245246;250463;184515;-1425;
2024-05-23T22:19:42.527;539696999939525070;245449;250685;184554;-1447;
2024-05-23T22:19:42.545;539696999957684970;245658;250941;184747;-1415;
2024-05-23T22:19:42.563;539696999975844870;245796;251040;184723;-1467;
2024-05-23T22:19:42.581;539696999994004770;245863;251128;184866;-1472;
2024-05-23T22:19:42.599;539697000012164670;246015;251211;184897;-1432;
2024-05-23T22:19:42.617;539697000030324570;246145;251334;185002;-1427;
2024-05-23T22:19:42.635;539697000048484470;246233;251384;184987;-1411;
2024-05-23T22:19:42.654;539697000066644370;246287;251502;184981;-1465;
2024-05-23T22:19:42.672;539697000084804270;246394;251536;185073;-1440;
2024-05-23T22:19:42.690;539697000102964170;246478;251659;185094;-1397;
2024-05-23T22:19:42.708;539697000121124070;246555;251714;185135;-1459;
2024-05-23T22:19:42.726;539697000139283970;246729;251837;185249;-1394;
2024-05-23T22:19:42.744;539697000157443870;246839;251910;185267;-1422;
2024-05-23T22:19:42.763;539697000175603770;246989;252020;185351;-1400;
2024-05-23T22:19:42.781;539697000193763670;247101;252117;185414;-1356;
2024-05-23T22:19:42.799;539697000211923570;247202;252220;185461;-1389;
2024-05-23T22:19:42.817;539697000230083470;247070;252134;185369;-1370;
2024-05-23T22:19:42.835;539697000248243370;246727;251796;185165;-1409;
2024-05-23T22:19:42.853;539697000266403270;246166;251276;184879;-1413;
2024-05-23T22:19:42.872;539697000284563170;245482;250682;184575;-1379;
2024-05-23T22:19:42.890;539697000302723070;244823;249969;184173;-1410;
2024-05-23T22:19:42.908;539697000320882652;244250;249445;183837;-1403;
2024-05-23T22:19:42.926;539697000339042218;243734;248964;183646;-1402;
2024-05-23T22:19:42.944;539697000357201784;243479;248626;183496;-1441;
2024-05-23T22:19:42.962;539697000375361350;243237;248535;183418;-1417;
2024-05-23T22:19:42.981;539697000393520916;243347;248535;183478;-1419;
2024-05-23T22:19:42.999;539697000411680482;243421;248693;183493;-1386;
2024-05-23T22:19:43.017;539697000429840048;243596;248954;183698;-1463;
2024-05-23T22:19:43.035;539697000447999614;243925;249269;183893;-1422;
2024-05-23T22:19:43.053;539697000466159180;244239;249588;184061;-1414;
2024-05-23T22:19:43.071;539697000484318746;244621;249954;184213;-1441;
2024-05-23T22:19:43.089;539697000502478312;244901;250251;184344;-1402;
2024-05-23T22:19:43.108;539697000520637878;245137;250505;184469;-1407;
2024-05-23T22:19:43.126;539697000538797444;245393;250734;184589;-1429;
2024-05-23T22:19:43.144;539697000556957010;245642;250943;184749;-1358;
2024-05-23T22:19:43.162;539697000575116576;245763;251026;184799;-1357;
2024-05-23T22:19:43.180;539697000593276142;245926;251152;184835;-1440;
2024-05-23T22:19:43.198;539697000611435708;246083;251287;184961;-1328;
2024-05-23T22:19:43.217;539697000629595274;246203;251348;185062;-1341;
2024-05-23T22:19:43.235;539697000647754840;246297;251383;185069;-1372;
2024-05-23T22:19:43.253;539697000665914406;246333;251461;185106;-1386;
2024-05-23T22:19:43.271;539697000684073972;246468;251571;185105;-1400;
2024-05-23T22:19:43.289;539697000702233538;246485;251634;185158;-1444;
2024-05-23T22:19:43.307;539697000720393104;246571;251772;185248;-1382;
2024-05-23T22:19:43.326;539697000738552670;246635;251819;185239;-1454;
2024-05-23T22:19:43.344;539697000756712236;246782;251887;185306;-1459;
2024-05-23T22:19:43.362;539697000774871802;246866;251965;185379;-1391;
2024-05-23T22:19:43.380;539697000793031368;246942;252053;185412;-1414;
2024-05-23T22:19:43.398;539697000811190934;247034;252155;185456;-1369;
2024-05-23T22:19:43.416;539697000829350500;246973;252143;185409;-1414;
2024-05-23T22:19:43.435;539697000847510066;246703;251842;185244;-1407;
2024-05-23T22:19:43.453;539697000865669632;246130;251266;184889;-1432;
2024-05-23T22:19:43.471;539697000883829198;245480;250624;184556;-1391;
2024-05-23T22:19:43.489;539697000901988764;244699;250016;184143;-1398;
2024-05-23T22:19:43.507;539697000920148330;244102;249327;183763;-1371;
2024-05-23T22:19:43.525;539697000938307896;243459;248809;183495;-1393;
2024-05-23T22:19:43.543;539697000956467462;243146;248484;183281;-1361;
2024-05-23T22:19:43.562;539697000974628022;242916;248342;183317;-1400;
2024-05-23T22:19:43.580;539697000992788560;242875;248278;183288;-1390;
2024-05-23T22:19:43.598;539697001010949098;242942;248366;183354;-1389;
2024-05-23T22:19:43.616;539697001029109636;243045;248559;183434;-1376;
2024-05-23T22:19:43.634;539697001047270174;243373;248834;183629;-1421;
2024-05-23T22:19:43.652;539697001065430712;243615;249133;183699;-1410;
2024-05-23T22:19:43.671;539697001083591250;243913;249402;183869;-1376;
2024-05-23T22:19:43.689;539697001101751788;244217;249652;184026;-1387;
2024-05-23T22:19:43.707;539697001119912326;244532;249881;184214;-1430;
2024-05-23T22:19:43.725;539697001138072864;244807;250163;184394;-1433;
2024-05-23T22:19:43.743;539697001156233402;244954;250380;184470;-1458;
2024-05-23T22:19:43.761;539697001174393940;245106;250545;184533;-1436;
2024-05-23T22:19:43.780;539697001192554478;245263;250691;184592;-1413;
2024-05-23T22:19:43.798;539697001210715016;245362;250740;184594;-1379;
2024-05-23T22:19:43.816;539697001228875554;245364;250771;184688;-1357;
2024-05-23T22:19:43.834;539697001247036092;245474;250922;184773;-1360;
2024-05-23T22:19:43.852;539697001265196630;245580;250975;184736;-1386;
2024-05-23T22:19:43.870;539697001283357168;245616;250998;184765;-1390;
2024-05-23T22:19:43.889;539697001301517706;245666;251031;184784;-1440;
2024-05-23T22:19:43.907;539697001319678244;245794;251139;184780;-1394;
2024-05-23T22:19:43.925;539697001337838782;245856;251225;184884;-1393;
2024-05-23T22:19:43.943;539697001355999320;245901;251229;184849;-1433;
2024-05-23T22:19:43.961;539697001374159858;246034;251353;184934;-1399;
2024-05-23T22:19:43.979;539697001392320396;246063;251442;184947;-1395;
2024-05-23T22:19:43.997;539697001410480934;246170;251548;184993;-1376;
2024-05-23T22:19:44.016;539697001428641472;246217;251635;185061;-1392;
2024-05-23T22:19:44.034;539697001446802010;246351;251693;185114;-1365;
2024-05-23T22:19:44.052;539697001464962548;246267;251638;185114;-1422;
2024-05-23T22:19:44.070;539697001483123086;245957;251345;184967;-1398;
2024-05-23T22:19:44.088;539697001501283624;245347;250670;184533;-1453;
2024-05-23T22:19:44.106;539697001519444162;244598;250057;184231;-1381;
2024-05-23T22:19:44.125;539697001537604700;243818;249239;183712;-1428;
2024-05-23T22:19:44.143;539697001555765238;243114;248600;183351;-1408;
2024-05-23T22:19:44.161;539697001573925776;242535;247995;183046;-1439;
2024-05-23T22:19:44.179;539697001592086314;242181;247648;182947;-1337;
2024-05-23T22:19:44.197;539697001610246852;241883;247488;182788;-1408;
2024-05-23T22:19:44.215;539697001628407390;241875;247520;182862;-1400;
2024-05-23T22:19:44.234;539697001646567928;241956;247585;182915;-1414;
2024-05-23T22:19:44.252;539697001664726246;242089;247818;183022;-1423;
2024-05-23T22:19:44.270;539697001682884536;242408;248170;183231;-1432;
2024-05-23T22:19:44.288;539697001701042826;242733;248484;183434;-1426;
2024-05-23T22:19:44.306;539697001719201116;243103;248784;183560;-1379;
2024-05-23T22:19:44.324;539697001737359406;243476;249169;183805;-1344;
2024-05-23T22:19:44.343;539697001755517696;243771;249444;183884;-1379;
2024-05-23T22:19:44.361;539697001773675986;244056;249643;184079;-1447;
2024-05-23T22:19:44.379;539697001791834276;244290;249882;184197;-1465;
2024-05-23T22:19:44.397;539697001809992566;244491;250045;184300;-1460;
2024-05-23T22:19:44.415;539697001828150856;244603;250143;184305;-1440;
2024-05-23T22:19:44.433;539697001846309146;244802;250307;184443;-1411;
2024-05-23T22:19:44.451;539697001864467436;244864;250402;184390;-1352;
2024-05-23T22:19:44.470;539697001882625726;244975;250453;184510;-1427;
2024-05-23T22:19:44.488;539697001900784016;245059;250520;184548;-1448;
2024-05-23T22:19:44.506;539697001918942306;245161;250638;184583;-1410;
2024-05-23T22:19:44.524;539697001937100596;245176;250712;184594;-1404;
2024-05-23T22:19:44.542;539697001955258886;245316;250750;184619;-1408;
2024-05-23T22:19:44.560;539697001973417176;245337;250843;184692;-1429;
2024-05-23T22:19:44.579;539697001991575466;245476;250942;184771;-1417;
2024-05-23T22:19:44.597;539697002009733756;245526;251068;184882;-1459;
2024-05-23T22:19:44.615;539697002027892046;245679;251194;184853;-1365;
2024-05-23T22:19:44.633;539697002046050336;245795;251240;184954;-1365;
2024-05-23T22:19:44.651;539697002064208626;245873;251325;184959;-1408;
2024-05-23T22:19:44.669;539697002082366916;245966;251391;184983;-1382;
2024-05-23T22:19:44.688;539697002100525206;245838;251280;184890;-1424;
2024-05-23T22:19:44.706;539697002118683496;245438;250861;184687;-1419;
2024-05-23T22:19:44.724;539697002136841786;244839;250320;184307;-1368;
2024-05-23T22:19:44.742;539697002155000076;244169;249602;183919;-1431;
2024-05-23T22:19:44.760;539697002173158366;243415;248953;183562;-1423;
2024-05-23T22:19:44.778;539697002191316656;242782;248404;183167;-1391;
2024-05-23T22:19:44.796;539697002209474946;242270;247933;183010;-1416;
2024-05-23T22:19:44.815;539697002227633236;241974;247617;182805;-1423;
2024-05-23T22:19:44.833;539697002245791526;241903;247466;182861;-1362;
2024-05-23T22:19:44.851;539697002263949816;241805;247547;182836;-1403;
2024-05-23T22:19:44.869;539697002282108106;241939;247699;182930;-1376;
2024-05-23T22:19:44.887;539697002300266396;242205;247915;183072;-1360;
2024-05-23T22:19:44.905;539697002318424686;242536;248210;183261;-1420;
2024-05-23T22:19:44.924;539697002336582976;242826;248606;183525;-1441;
2024-05-23T22:19:44.942;539697002354741498;243147;248942;183691;-1453;
2024-05-23T22:19:44.960;539697002372899996;243457;249264;183853;-1393;
2024-05-23T22:19:44.978;539697002391058494;243794;249535;183961;-1454;
2024-05-23T22:19:44.996;539697002409216992;244035;249739;184101;-1412;
2024-05-23T22:19:45.014;539697002427375490;244264;249952;184284;-1444;
2024-05-23T22:19:45.033;539697002445533988;244423;250124;184338;-1450;
2024-05-23T22:19:45.051;539697002463692486;244563;250233;184358;-1448;
2024-05-23T22:19:45.069;539697002481850984;244656;250386;184446;-1396;
2024-05-23T22:19:45.087;539697002500009482;244834;250460;184466;-1382;
2024-05-23T22:19:45.105;539697002518167980;244917;250512;184536;-1433;
2024-05-23T22:19:45.123;539697002536326478;245018;250631;184576;-1379;
2024-05-23T22:19:45.141;539697002554484976;245043;250671;184629;-1375;
2024-05-23T22:19:45.160;539697002572643474;245125;250726;184679;-1415;
2024-05-23T22:19:45.178;539697002590801972;245214;250831;184689;-1408;
2024-05-23T22:19:45.196;539697002608960470;245361;250952;184787;-1427;
2024-05-23T22:19:45.214;539697002627118968;245495;251099;184844;-1334;
2024-05-23T22:19:45.232;539697002645277466;245541;251132;184885;-1398;
2024-05-23T22:19:45.250;539697002663435964;245676;251142;184903;-1421;
2024-05-23T22:19:45.269;539697002681594462;245813;251342;184945;-1445;
2024-05-23T22:19:45.287;539697002699752960;245922;251447;184993;-1404;
2024-05-23T22:19:45.305;539697002717911458;246012;251521;185051;-1398;
2024-05-23T22:19:45.323;539697002736069956;246043;251558;185020;-1461;
2024-05-23T22:19:45.341;539697002754228454;245799;251361;184879;-1441;
2024-05-23T22:19:45.359;539697002772386952;245269;250842;184624;-1444;
2024-05-23T22:19:45.378;539697002790545450;244616;250184;184249;-1415;
2024-05-23T22:19:45.396;539697002808703948;243883;249455;183787;-1468;
2024-05-23T22:19:45.414;539697002826862446;243147;248808;183397;-1426;
2024-05-23T22:19:45.432;539697002845020944;242596;248300;183131;-1421;
2024-05-23T22:19:45.450;539697002863179442;242111;247825;182996;-1459;
2024-05-23T22:19:45.468;539697002881337940;241913;247631;182859;-1432;
2024-05-23T22:19:45.486;539697002899496438;241841;247587;182842;-1439;
2024-05-23T22:19:45.505;539697002917654936;241878;247618;182947;-1402;
2024-05-23T22:19:45.523;539697002935813434;242029;247816;182987;-1423;
2024-05-23T22:19:45.541;539697002953971932;242323;248041;183187;-1489;
2024-05-23T22:19:45.559;539697002972130430;242662;248441;183365;-1414;
2024-05-23T22:19:45.577;539697002990288928;242990;248786;183545;-1485;
2024-05-23T22:19:45.595;539697003008447426;243351;249136;183749;-1464;
2024-05-23T22:19:45.614;539697003026604916;243602;249393;183922;-1455;
2024-05-23T22:19:45.632;539697003044762382;243946;249681;184099;-1458;
2024-05-23T22:19:45.650;539697003062919848;244205;249847;184234;-1424;
2024-05-23T22:19:45.668;539697003081077314;244258;250031;184309;-1440;
2024-05-23T22:19:45.686;539697003099234780;244475;250259;184404;-1411;
2024-05-23T22:19:45.704;539697003117392246;244598;250298;184415;-1450;
2024-05-23T22:19:45.723;539697003135549712;244669;250406;184459;-1454;
2024-05-23T22:19:45.741;539697003153707178;244764;250451;184507;-1442;
2024-05-23T22:19:45.759;539697003171864644;244804;250526;184502;-1462;
2024-05-23T22:19:45.777;539697003190022110;244938;250628;184583;-1433;
2024-05-23T22:19:45.795;539697003208179576;245012;250678;184604;-1421;
2024-05-23T22:19:45.813;539697003226337042;245142;250764;184611;-1386;
2024-05-23T22:19:45.831;539697003244494508;245227;250836;184698;-1371;
2024-05-23T22:19:45.850;539697003262651974;245350;250969;184764;-1402;
2024-05-23T22:19:45.868;539697003280809440;245424;251036;184762;-1425;
2024-05-23T22:19:45.886;539697003298966906;245506;251126;184825;-1397;
2024-05-23T22:19:45.904;539697003317124372;245558;251252;184912;-1382;
2024-05-23T22:19:45.922;539697003335281838;245688;251314;184960;-1375;
2024-05-23T22:19:45.940;539697003353439304;245794;251396;184942;-1390;
2024-05-23T22:19:45.959;539697003371596770;245727;251392;184937;-1415;
2024-05-23T22:19:45.977;539697003389754236;245472;251063;184765;-1456;
2024-05-23T22:19:45.995;539697003407911702;244951;250542;184409;-1489;
2024-05-23T22:19:46.013;539697003426069168;244348;249887;184098;-1451;
2024-05-23T22:19:46.031;539697003444226634;243630;249227;183735;-1440;
2024-05-23T22:19:46.049;539697003462384100;243016;248658;183383;-1399;
2024-05-23T22:19:46.068;539697003480541566;242509;248189;183187;-1412;
2024-05-23T22:19:46.086;539697003498699032;242123;247844;182978;-1432;
2024-05-23T22:19:46.104;539697003516856498;241961;247718;182986;-1474;
2024-05-23T22:19:46.122;539697003535013964;241990;247787;183038;-1397;
2024-05-23T22:19:46.140;539697003553171430;242112;247886;183073;-1441;
2024-05-23T22:19:46.158;539697003571328896;242362;248176;183229;-1389;
2024-05-23T22:19:46.176;539697003589486362;242634;248431;183359;-1398;
2024-05-23T22:19:46.195;539697003607643828;242981;248739;183600;-1365;
2024-05-23T22:19:46.213;539697003625801294;243328;249109;183756;-1338;
2024-05-23T22:19:46.231;539697003643958760;243589;249344;183858;-1380;
2024-05-23T22:19:46.249;539697003662116226;243895;249626;184039;-1407;
2024-05-23T22:19:46.267;539697003680273692;244151;249912;184204;-1421;
2024-05-23T22:19:46.285;539697003698431158;244383;250162;184278;-1375;
2024-05-23T22:19:46.304;539697003716588624;244565;250317;184381;-1342;
2024-05-23T22:19:46.322;539697003734744970;244654;250368;184441;-1400;
2024-05-23T22:19:46.340;539697003752901282;244789;250480;184545;-1375;
2024-05-23T22:19:46.358;539697003771057594;244904;250565;184636;-1351;
2024-05-23T22:19:46.376;539697003789213906;245044;250639;184594;-1364;
2024-05-23T22:19:46.394;539697003807370218;245112;250745;184705;-1356;
2024-05-23T22:19:46.413;539697003825526530;245181;250779;184744;-1330;
2024-05-23T22:19:46.431;539697003843682842;245136;250823;184687;-1423;
2024-05-23T22:19:46.449;539697003861839154;245267;250909;184706;-1338;
2024-05-23T22:19:46.467;539697003879995466;245316;250955;184713;-1397;
2024-05-23T22:19:46.485;539697003898151778;245502;251109;184810;-1421;
2024-05-23T22:19:46.503;539697003916308090;245561;251198;184870;-1414;
2024-05-23T22:19:46.521;539697003934464402;245696;251217;184921;-1364;
2024-05-23T22:19:46.540;539697003952620714;245661;251222;184898;-1474;
2024-05-23T22:19:46.558;539697003970777026;245709;251260;184957;-1447;
2024-05-23T22:19:46.576;539697003988933338;245648;251135;184855;-1411;
2024-05-23T22:19:46.594;539697004007089650;245298;250784;184715;-1409;
2024-05-23T22:19:46.612;539697004025245962;244724;250223;184361;-1393;
2024-05-23T22:19:46.630;539697004043402274;243921;249531;183902;-1413;
2024-05-23T22:19:46.649;539697004061558586;243200;248816;183483;-1447;
2024-05-23T22:19:46.667;539697004079714898;242553;248194;183140;-1406;
2024-05-23T22:19:46.685;539697004097871210;242041;247709;182941;-1424;
2024-05-23T22:19:46.703;539697004116027522;241793;247502;182859;-1390;
2024-05-23T22:19:46.721;539697004134183834;241667;247356;182756;-1448;
2024-05-23T22:19:46.739;539697004152340146;241612;247331;182754;-1405;
2024-05-23T22:19:46.757;539697004170496458;241760;247437;182859;-1400;
2024-05-23T22:19:46.776;539697004188652770;241875;247662;182932;-1478;
2024-05-23T22:19:46.794;539697004206809082;242202;247990;183108;-1453;
2024-05-23T22:19:46.812;539697004224965394;242515;248329;183316;-1453;
2024-05-23T22:19:46.830;539697004243121706;242855;248628;183505;-1417;
2024-05-23T22:19:46.848;539697004261278018;243145;248856;183618;-1480;
2024-05-23T22:19:46.866;539697004279434330;243496;249169;183831;-1402;
2024-05-23T22:19:46.885;539697004297590642;243701;249407;183930;-1404;
2024-05-23T22:19:46.903;539697004315746954;243908;249557;183959;-1423;
2024-05-23T22:19:46.921;539697004333903266;244055;249630;184087;-1474;
2024-05-23T22:19:46.939;539697004352059578;244199;249768;184194;-1455;
2024-05-23T22:19:46.957;539697004370215890;244279;249908;184226;-1505;
2024-05-23T22:19:46.975;539697004388372202;244366;249989;184289;-1383;
2024-05-23T22:19:46.994;539697004406528714;244469;250114;184338;-1433;
2024-05-23T22:19:47.012;539697004424685191;244539;250187;184347;-1405;
2024-05-23T22:19:47.030;539697004442841668;244632;250188;184363;-1477;
2024-05-23T22:19:47.048;539697004460998145;244725;250289;184431;-1404;
2024-05-23T22:19:47.066;539697004479154622;244792;250313;184456;-1416;
2024-05-23T22:19:47.084;539697004497311099;244815;250428;184474;-1440;
2024-05-23T22:19:47.102;539697004515467576;244966;250480;184557;-1357;
2024-05-23T22:19:47.121;539697004533624053;245074;250575;184552;-1389;
2024-05-23T22:19:47.139;539697004551780530;245190;250717;184627;-1460;
2024-05-23T22:19:47.157;539697004569937007;245263;250822;184671;-1359;
2024-05-23T22:19:47.175;539697004588093484;245396;250934;184682;-1392;
2024-05-23T22:19:47.193;539697004606249961;245485;251009;184778;-1438;
2024-05-23T22:19:47.211;539697004624406438;245621;251069;184826;-1416;
2024-05-23T22:19:47.230;539697004642562915;245417;250874;184716;-1365;
2024-05-23T22:19:47.248;539697004660719392;245015;250482;184457;-1390;
2024-05-23T22:19:47.266;539697004678875869;244269;249792;184051;-1443;
2024-05-23T22:19:47.284;539697004697032346;243577;249127;183683;-1420;
2024-05-23T22:19:47.302;539697004715188823;242853;248397;183296;-1433;
2024-05-23T22:19:47.320;539697004733345300;242348;247899;182965;-1347;
2024-05-23T22:19:47.339;539697004751501777;241789;247436;182725;-1448;
2024-05-23T22:19:47.357;539697004769658254;241507;247153;182603;-1359;
2024-05-23T22:19:47.375;539697004787814731;241333;247090;182563;-1470;
2024-05-23T22:19:47.393;539697004805971208;241448;247162;182662;-1408;
2024-05-23T22:19:47.411;539697004824127685;241646;247315;182708;-1383;
2024-05-23T22:19:47.429;539697004842284162;241812;247581;182894;-1423;
2024-05-23T22:19:47.447;539697004860440639;242147;247835;183047;-1453;
2024-05-23T22:19:47.466;539697004878597116;242463;248142;183262;-1432;
2024-05-23T22:19:47.484;539697004896753593;242850;248492;183421;-1422;
2024-05-23T22:19:47.502;539697004914910070;243140;248841;183624;-1414;
2024-05-23T22:19:47.520;539697004933066547;243501;249136;183769;-1383;
2024-05-23T22:19:47.538;539697004951223024;243678;249285;183888;-1438;
2024-05-23T22:19:47.556;539697004969379501;243925;249505;184034;-1405;
2024-05-23T22:19:47.575;539697004987535978;244100;249644;184102;-1424;
2024-05-23T22:19:47.593;539697005005692455;244250;249760;184182;-1436;
2024-05-23T22:19:47.611;539697005023848932;244291;249898;184214;-1454;
2024-05-23T22:19:47.629;539697005042005409;244481;250034;184313;-1392;
2024-05-23T22:19:47.647;539697005060161886;244569;250038;184335;-1372;
2024-05-23T22:19:47.665;539697005078319212;244648;250122;184326;-1369;
2024-05-23T22:19:47.683;539697005096476524;244739;250130;184339;-1424;
2024-05-23T22:19:47.702;539697005114633836;244852;250290;184441;-1357;
2024-05-23T22:19:47.720;539697005132791148;244850;250349;184471;-1398;
2024-05-23T22:19:47.738;539697005150948460;244944;250423;184474;-1378;
2024-05-23T22:19:47.756;539697005169105772;245095;250575;184544;-1348;
2024-05-23T22:19:47.774;539697005187263084;245188;250571;184621;-1368;
2024-05-23T22:19:47.792;539697005205420396;245244;250726;184625;-1415;
2024-05-23T22:19:47.811;539697005223577708;245400;250788;184697;-1386;
2024-05-23T22:19:47.829;539697005241735020;245509;250899;184738;-1362;
2024-05-23T22:19:47.847;539697005259892332;245532;250915;184761;-1393;
2024-05-23T22:19:47.865;539697005278049644;245414;250815;184686;-1404;
2024-05-23T22:19:47.883;539697005296206956;245043;250430;184497;-1441;
2024-05-23T22:19:47.901;539697005314364268;244485;249838;184160;-1388;
2024-05-23T22:19:47.920;539697005332521580;243806;249127;183725;-1422;
2024-05-23T22:19:47.938;539697005350678892;243048;248536;183415;-1385;
2024-05-23T22:19:47.956;539697005368836204;242475;247996;183118;-1344;
2024-05-23T22:19:47.974;539697005386993516;242067;247567;182904;-1339;
2024-05-23T22:19:47.992;539697005405150828;241737;247280;182741;-1455;
2024-05-23T22:19:48.010;539697005423308140;241669;247229;182739;-1358;
2024-05-23T22:19:48.028;539697005441465452;241700;247314;182761;-1414;
2024-05-23T22:19:48.047;539697005459622764;241852;247427;182836;-1365;
2024-05-23T22:19:48.065;539697005477780076;242112;247705;183009;-1422;
2024-05-23T22:19:48.083;539697005495937388;242470;248001;183195;-1409;
2024-05-23T22:19:48.101;539697005514094700;242810;248382;183412;-1411;
2024-05-23T22:19:48.119;539697005532252012;243131;248729;183613;-1358;
2024-05-23T22:19:48.137;539697005550409324;243503;249052;183757;-1339;
2024-05-23T22:19:48.156;539697005568566636;243785;249288;183896;-1358;
2024-05-23T22:19:48.174;539697005586723948;244076;249510;183951;-1433;
2024-05-23T22:19:48.192;539697005604881260;244317;249853;184170;-1407;
2024-05-23T22:19:48.210;539697005623038572;244539;250023;184264;-1381;
2024-05-23T22:19:48.228;539697005641195884;244745;250167;184330;-1404;
2024-05-23T22:19:48.246;539697005659353196;244961;250313;184517;-1365;
2024-05-23T22:19:48.265;539697005677510508;245024;250421;184506;-1380;
2024-05-23T22:19:48.283;539697005695668695;245142;250505;184537;-1405;
2024-05-23T22:19:48.301;539697005713826865;245259;250611;184617;-1387;
2024-05-23T22:19:48.319;539697005731985035;245368;250691;184690;-1424;
2024-05-23T22:19:48.337;539697005750143205;245453;250781;184667;-1454;
2024-05-23T22:19:48.355;539697005768301375;245535;250841;184718;-1413;
2024-05-23T22:19:48.373;539697005786459545;245700;250966;184767;-1416;
2024-05-23T22:19:48.392;539697005804617715;245790;251041;184812;-1446;
2024-05-23T22:19:48.410;539697005822775885;245933;251175;184921;-1360;
2024-05-23T22:19:48.428;539697005840934055;246097;251376;184985;-1372;
2024-05-23T22:19:48.446;539697005859092225;246188;251419;185001;-1402;
2024-05-23T22:19:48.464;539697005877250395;246237;251482;185003;-1397;
2024-05-23T22:19:48.482;539697005895408565;246395;251608;185143;-1361;
2024-05-23T22:19:48.501;539697005913566735;246388;251635;185154;-1432;
2024-05-23T22:19:48.519;539697005931724905;246278;251571;185090;-1482;
2024-05-23T22:19:48.537;539697005949883075;245871;251113;184788;-1424;
2024-05-23T22:19:48.555;539697005968041245;245234;250525;184434;-1450;
2024-05-23T22:19:48.573;539697005986199415;244516;249684;184006;-1434;
2024-05-23T22:19:48.591;539697006004357585;243859;249122;183691;-1444;
2024-05-23T22:19:48.610;539697006022515755;243220;248589;183320;-1432;
2024-05-23T22:19:48.628;539697006040673925;242840;248188;183208;-1439;
2024-05-23T22:19:48.646;539697006058832095;242597;247994;183043;-1436;
2024-05-23T22:19:48.664;539697006076990265;242442;247909;183019;-1449;
2024-05-23T22:19:48.682;539697006095148435;242495;247936;183171;-1432;
2024-05-23T22:19:48.700;539697006113306605;242690;248109;183217;-1445;
2024-05-23T22:19:48.718;539697006131464775;242914;248367;183430;-1411;
2024-05-23T22:19:48.737;539697006149622945;243237;248657;183567;-1460;
2024-05-23T22:19:48.755;539697006167781115;243657;249040;183787;-1423;
2024-05-23T22:19:48.773;539697006185939285;243934;249368;183916;-1445;
2024-05-23T22:19:48.791;539697006204097455;244234;249649;184070;-1428;
2024-05-23T22:19:48.809;539697006222255625;244524;249873;184240;-1398;
2024-05-23T22:19:48.827;539697006240413795;244710;250136;184286;-1370;
2024-05-23T22:19:48.846;539697006258571965;244960;250283;184424;-1427;
2024-05-23T22:19:48.864;539697006276730135;245040;250356;184480;-1429;
2024-05-23T22:19:48.882;539697006294888305;245147;250490;184541;-1392;
2024-05-23T22:19:48.900;539697006313046475;245202;250494;184530;-1411;
2024-05-23T22:19:48.918;539697006331204645;245312;250575;184608;-1405;
2024-05-23T22:19:48.936;539697006349362815;245396;250588;184624;-1421;
2024-05-23T22:19:48.955;539697006367520985;245462;250695;184622;-1449;
2024-05-23T22:19:48.973;539697006385679155;245541;250757;184721;-1383;
2024-05-23T22:19:48.991;539697006403836776;245544;250779;184724;-1449;
2024-05-23T22:19:49.009;539697006421994367;245641;250820;184692;-1441;
2024-05-23T22:19:49.027;539697006440151958;245700;250916;184695;-1430;
2024-05-23T22:19:49.045;539697006458309549;245796;251004;184770;-1387;
2024-05-23T22:19:49.063;539697006476467140;245825;251114;184860;-1389;
2024-05-23T22:19:49.082;539697006494624731;245927;251135;184841;-1395;
2024-05-23T22:19:49.100;539697006512782322;245985;251201;184921;-1356;
2024-05-23T22:19:49.118;539697006530939913;245983;251156;184850;-1354;
2024-05-23T22:19:49.136;539697006549097504;245631;250847;184686;-1392;
2024-05-23T22:19:49.154;539697006567255095;245102;250291;184334;-1472;
2024-05-23T22:19:49.172;539697006585412686;244432;249562;183909;-1441;
2024-05-23T22:19:49.191;539697006603570277;243669;248864;183585;-1410;
2024-05-23T22:19:49.209;539697006621727868;242898;248222;183153;-1433;
2024-05-23T22:19:49.227;539697006639885459;242355;247753;182852;-1392;
2024-05-23T22:19:49.245;539697006658043050;241937;247350;182735;-1410;
2024-05-23T22:19:49.263;539697006676200641;241699;247157;182673;-1416;
2024-05-23T22:19:49.281;539697006694358232;241686;247093;182629;-1358;
2024-05-23T22:19:49.300;539697006712515823;241759;247212;182674;-1369;
2024-05-23T22:19:49.318;539697006730673414;241849;247344;182667;-1300;
2024-05-23T22:19:49.336;539697006748831005;242018;247581;182816;-1347;
2024-05-23T22:19:49.354;539697006766988596;242307;247847;183030;-1398;
2024-05-23T22:19:49.372;539697006785146187;242575;248126;183194;-1416;
2024-05-23T22:19:49.390;539697006803303778;242860;248404;183364;-1424;
2024-05-23T22:19:49.408;539697006821461369;243226;248676;183492;-1373;
2024-05-23T22:19:49.427;539697006839618960;243396;248860;183598;-1427;
2024-05-23T22:19:49.445;539697006857776551;243590;249078;183696;-1414;
2024-05-23T22:19:49.463;539697006875934142;243766;249163;183782;-1395;
2024-05-23T22:19:49.481;539697006894091733;243933;249354;183832;-1391;
2024-05-23T22:19:49.499;539697006912249324;243972;249468;183844;-1440;
2024-05-23T22:19:49.517;539697006930406915;244034;249551;183860;-1345;
2024-05-23T22:19:49.536;539697006948564506;244135;249621;183885;-1404;
2024-05-23T22:19:49.554;539697006966722097;244195;249653;183959;-1346;
2024-05-23T22:19:49.572;539697006984879688;244303;249728;184068;-1373;
2024-05-23T22:19:49.590;539697007003037279;244365;249779;184075;-1371;
2024-05-23T22:19:49.608;539697007021194870;244399;249867;184030;-1423;
2024-05-23T22:19:49.626;539697007039352461;244526;249976;184135;-1390;
2024-05-23T22:19:49.645;539697007057510052;244620;250078;184182;-1330;
2024-05-23T22:19:49.663;539697007075668533;244701;250124;184242;-1381;
2024-05-23T22:19:49.681;539697007093827012;244866;250241;184300;-1389;
2024-05-23T22:19:49.699;539697007111985491;245006;250304;184329;-1461;
2024-05-23T22:19:49.717;539697007130143970;245003;250368;184398;-1481;
2024-05-23T22:19:49.735;539697007148302449;245140;250463;184419;-1470;
2024-05-23T22:19:49.753;539697007166460928;245155;250407;184385;-1440;
2024-05-23T22:19:49.772;539697007184619407;244906;250199;184228;-1434;
2024-05-23T22:19:49.790;539697007202777886;244424;249748;183965;-1408;
2024-05-23T22:19:49.808;539697007220936365;243748;249048;183609;-1378;
2024-05-23T22:19:49.826;539697007239094844;243013;248334;183170;-1398;
2024-05-23T22:19:49.844;539697007257253323;242277;247648;182864;-1467;
2024-05-23T22:19:49.862;539697007275411802;241772;247174;182563;-1391;
2024-05-23T22:19:49.881;539697007293570281;241309;246780;182347;-1399;
2024-05-23T22:19:49.899;539697007311728760;240997;246602;182223;-1450;
2024-05-23T22:19:49.917;539697007329887239;241021;246543;182265;-1393;
2024-05-23T22:19:49.935;539697007348045718;241050;246681;182370;-1341;
2024-05-23T22:19:49.953;539697007366204197;241253;246872;182411;-1337;
2024-05-23T22:19:49.971;539697007384362676;241526;247103;182630;-1388;
2024-05-23T22:19:49.990;539697007402521155;241884;247412;182820;-1476;
2024-05-23T22:19:50.008;539697007420679634;242227;247773;183046;-1399;
2024-05-23T22:19:50.026;539697007438838113;242578;248105;183208;-1387;
2024-05-23T22:19:50.044;539697007456996592;242848;248358;183291;-1429;
2024-05-23T22:19:50.062;539697007475155071;243159;248608;183458;-1405;
2024-05-23T22:19:50.080;539697007493313550;243425;248809;183594;-1447;
2024-05-23T22:19:50.098;539697007511472029;243581;249011;183711;-1448;
2024-05-23T22:19:50.117;539697007529630508;243744;249175;183835;-1378;
2024-05-23T22:19:50.135;539697007547788987;243846;249210;183818;-1457;
2024-05-23T22:19:50.153;539697007565947466;243902;249281;183789;-1434;
2024-05-23T22:19:50.171;539697007584105945;243968;249385;183819;-1491;
2024-05-23T22:19:50.189;539697007602264424;244066;249480;183856;-1447;
2024-05-23T22:19:50.207;539697007620422903;244142;249529;183912;-1450;
2024-05-23T22:19:50.226;539697007638581382;244308;249661;183984;-1393;
2024-05-23T22:19:50.244;539697007656739861;244394;249719;184004;-1392;
2024-05-23T22:19:50.262;539697007674898340;244466;249770;184051;-1428;
2024-05-23T22:19:50.280;539697007693054818;244557;249916;184160;-1421;
2024-05-23T22:19:50.298;539697007711211284;244654;249958;184213;-1475;
2024-05-23T22:19:50.316;539697007729367750;244838;250078;184211;-1377;
2024-05-23T22:19:50.335;539697007747524216;244895;250199;184263;-1444;
2024-05-23T22:19:50.353;539697007765680682;245040;250268;184313;-1395;
2024-05-23T22:19:50.371;539697007783837148;245066;250358;184355;-1414;
2024-05-23T22:19:50.389;539697007801993614;244833;250044;184240;-1385;
2024-05-23T22:19:50.407;539697007820150080;244350;249608;183993;-1342;
2024-05-23T22:19:50.425;539697007838306546;243710;249024;183586;-1347;
2024-05-23T22:19:50.443;539697007856463012;243070;248385;183261;-1368;
2024-05-23T22:19:50.462;539697007874619478;242469;247784;182875;-1328;
2024-05-23T22:19:50.480;539697007892775944;241885;247262;182613;-1393;
2024-05-23T22:19:50.498;539697007910932410;241454;246963;182468;-1446;
2024-05-23T22:19:50.516;539697007929088876;241301;246749;182399;-1439;
2024-05-23T22:19:50.534;539697007947245342;241271;246817;182471;-1402;
2024-05-23T22:19:50.552;539697007965401808;241369;246930;182571;-1409;
2024-05-23T22:19:50.571;539697007983558274;241576;247116;182656;-1364;
2024-05-23T22:19:50.589;539697008001714740;241821;247400;182830;-1420;
2024-05-23T22:19:50.607;539697008019871206;242116;247717;182950;-1436;
2024-05-23T22:19:50.625;539697008038027672;242446;248046;183186;-1434;
2024-05-23T22:19:50.643;539697008056184138;242835;248370;183377;-1396;
2024-05-23T22:19:50.661;539697008074340604;243113;248603;183514;-1386;
2024-05-23T22:19:50.679;539697008092497070;243369;248891;183636;-1388;
2024-05-23T22:19:50.698;539697008110653536;243614;249092;183823;-1375;
2024-05-23T22:19:50.716;539697008128810002;243818;249261;183907;-1358;
2024-05-23T22:19:50.734;539697008146966468;243918;249388;183922;-1422;
2024-05-23T22:19:50.752;539697008165122934;244105;249530;184046;-1383;
2024-05-23T22:19:50.770;539697008183279400;244190;249648;184064;-1388;
2024-05-23T22:19:50.788;539697008201435866;244270;249689;184045;-1428;
2024-05-23T22:19:50.807;539697008219592332;244355;249804;184124;-1414;
2024-05-23T22:19:50.825;539697008237748798;244344;249831;184114;-1453;
2024-05-23T22:19:50.843;539697008255905264;244475;249886;184169;-1389;
2024-05-23T22:19:50.861;539697008274061730;244531;249966;184229;-1427;
2024-05-23T22:19:50.879;539697008292218196;244674;250099;184295;-1399;
2024-05-23T22:19:50.897;539697008310374662;244738;250145;184346;-1386;
2024-05-23T22:19:50.916;539697008328529828;244835;250275;184403;-1414;
2024-05-23T22:19:50.934;539697008346684986;244891;250349;184419;-1445;
2024-05-23T22:19:50.952;539697008364840144;245079;250525;184477;-1358;
2024-05-23T22:19:50.970;539697008382995302;245154;250629;184510;-1369;
2024-05-23T22:19:50.988;539697008401150460;245257;250609;184573;-1403;
2024-05-23T22:19:51.006;539697008419305618;245235;250597;184513;-1365;
2024-05-23T22:19:51.024;539697008437460776;244926;250272;184364;-1328;
2024-05-23T22:19:51.043;539697008455615934;244311;249646;183975;-1375;
2024-05-23T22:19:51.061;539697008473771092;243612;249063;183636;-1380;
2024-05-23T22:19:51.079;539697008491926250;242975;248413;183285;-1358;
2024-05-23T22:19:51.097;539697008510081408;242367;247785;182948;-1376;
2024-05-23T22:19:51.115;539697008528236566;241857;247376;182700;-1423;
2024-05-23T22:19:51.133;539697008546391724;241497;247119;182552;-1411;
2024-05-23T22:19:51.152;539697008564546882;241369;246993;182590;-1395;
2024-05-23T22:19:51.170;539697008582702040;241391;247044;182649;-1397;
2024-05-23T22:19:51.188;539697008600857198;241465;247158;182685;-1389;
2024-05-23T22:19:51.206;539697008619012356;241670;247403;182783;-1429;
2024-05-23T22:19:51.224;539697008637167514;241990;247641;182976;-1437;
2024-05-23T22:19:51.242;539697008655322672;242268;247957;183140;-1399;
2024-05-23T22:19:51.260;539697008673477830;242570;248293;183358;-1429;
2024-05-23T22:19:51.279;539697008691632988;242834;248547;183448;-1484;
2024-05-23T22:19:51.297;539697008709788146;243093;248767;183610;-1441;
2024-05-23T22:19:51.315;539697008727943304;243237;248944;183594;-1467;
2024-05-23T22:19:51.333;539697008746098462;243406;249072;183707;-1473;
2024-05-23T22:19:51.351;539697008764253620;243542;249195;183805;-1388;
2024-05-23T22:19:51.369;539697008782408778;243597;249297;183850;-1391;
2024-05-23T22:19:51.388;539697008800563936;243652;249348;183822;-1370;
2024-05-23T22:19:51.406;539697008818719094;243654;249407;183882;-1422;
2024-05-23T22:19:51.424;539697008836874252;243686;249383;183850;-1450;
2024-05-23T22:19:51.442;539697008855029410;243751;249421;183817;-1491;
2024-05-23T22:19:51.460;539697008873184568;243836;249523;183936;-1436;
2024-05-23T22:19:51.478;539697008891339726;243846;249479;183976;-1434;
2024-05-23T22:19:51.496;539697008909494884;243864;249485;183928;-1455;
2024-05-23T22:19:51.515;539697008927650042;243884;249600;183990;-1458;
2024-05-23T22:19:51.533;539697008945805200;243977;249666;184073;-1421;
2024-05-23T22:19:51.551;539697008963960896;244054;249717;184088;-1449;
2024-05-23T22:19:51.569;539697008982116562;244100;249782;184068;-1434;
2024-05-23T22:19:51.587;539697009000272228;244083;249771;184040;-1410;
2024-05-23T22:19:51.605;539697009018427894;243847;249558;183929;-1448;
2024-05-23T22:19:51.624;539697009036583560;243398;249015;183689;-1482;
2024-05-23T22:19:51.642;539697009054739226;242831;248396;183341;-1450;
2024-05-23T22:19:51.660;539697009072894892;242095;247754;182913;-1464;
2024-05-23T22:19:51.678;539697009091050558;241444;247154;182575;-1437;
2024-05-23T22:19:51.696;539697009109206224;240944;246777;182331;-1411;
2024-05-23T22:19:51.714;539697009127361890;240572;246400;182180;-1473;
2024-05-23T22:19:51.733;539697009145517556;240356;246249;182074;-1426;
2024-05-23T22:19:51.751;539697009163673222;240325;246225;182095;-1325;
2024-05-23T22:19:51.769;539697009181828888;240329;246263;182105;-1450;
2024-05-23T22:19:51.787;539697009199984554;240539;246480;182310;-1372;
2024-05-23T22:19:51.805;539697009218140220;240761;246727;182417;-1424;
2024-05-23T22:19:51.823;539697009236295886;241020;246957;182545;-1470;
2024-05-23T22:19:51.841;539697009254451552;241425;247358;182787;-1476;
2024-05-23T22:19:51.860;539697009272607218;241703;247653;182932;-1440;
2024-05-23T22:19:51.878;539697009290762884;242006;247928;183057;-1431;
2024-05-23T22:19:51.896;539697009308918550;242249;248118;183132;-1441;
2024-05-23T22:19:51.914;539697009327074216;242490;248361;183360;-1388;
2024-05-23T22:19:51.932;539697009345229882;242607;248505;183425;-1513;
2024-05-23T22:19:51.950;539697009363385548;242765;248611;183449;-1510;
2024-05-23T22:19:51.969;539697009381541214;242912;248716;183526;-1442;
2024-05-23T22:19:51.987;539697009399696880;243039;248861;183633;-1374;
2024-05-23T22:19:52.005;539697009417852546;243082;248928;183627;-1442;
2024-05-23T22:19:52.023;539697009436008212;243202;248998;183692;-1396;
2024-05-23T22:19:52.041;539697009454163878;243290;249139;183755;-1396;
2024-05-23T22:19:52.059;539697009472319544;243323;249221;183776;-1427;
2024-05-23T22:19:52.077;539697009490475210;243406;249262;183738;-1424;
2024-05-23T22:19:52.096;539697009508630876;243595;249408;183905;-1371;
2024-05-23T22:19:52.114;539697009526786542;243656;249534;183892;-1373;
2024-05-23T22:19:52.132;539697009544942208;243750;249577;183989;-1404;
2024-05-23T22:19:52.150;539697009563097874;243922;249710;184039;-1400;
2024-05-23T22:19:52.168;539697009581253540;244019;249800;184117;-1382;
2024-05-23T22:19:52.186;539697009599409206;244181;249848;184177;-1412;
2024-05-23T22:19:52.205;539697009617568766;244268;249967;184194;-1460;
2024-05-23T22:19:52.223;539697009635728322;244305;250021;184223;-1398;
2024-05-23T22:19:52.241;539697009653887878;244053;249803;184075;-1364;
2024-05-23T22:19:52.259;539697009672047434;243565;249237;183713;-1389;
2024-05-23T22:19:52.277;539697009690206990;242894;248656;183438;-1359;
2024-05-23T22:19:52.295;539697009708366546;242080;247907;183049;-1437;
2024-05-23T22:19:52.314;539697009726526102;241460;247236;182667;-1410;
2024-05-23T22:19:52.332;539697009744685658;240926;246768;182453;-1372;
2024-05-23T22:19:52.350;539697009762845214;240525;246492;182214;-1395;
2024-05-23T22:19:52.368;539697009781004770;240269;246308;182202;-1414;
2024-05-23T22:19:52.386;539697009799164326;240212;246218;182155;-1387;
2024-05-23T22:19:52.404;539697009817323882;240323;246272;182211;-1470;
2024-05-23T22:19:52.422;539697009835483438;240500;246497;182331;-1441;
2024-05-23T22:19:52.441;539697009853642994;240741;246712;182491;-1409;
2024-05-23T22:19:52.459;539697009871802550;241076;247082;182652;-1442;
2024-05-23T22:19:52.477;539697009889962106;241465;247434;182881;-1390;
2024-05-23T22:19:52.495;539697009908121662;241788;247790;183057;-1394;
2024-05-23T22:19:52.513;539697009926281218;242095;248139;183260;-1406;
2024-05-23T22:19:52.531;539697009944440774;242331;248335;183373;-1436;
2024-05-23T22:19:52.550;539697009962600330;242582;248496;183535;-1448;
2024-05-23T22:19:52.568;539697009980759886;242791;248699;183588;-1391;
2024-05-23T22:19:52.586;539697009998919442;242907;248809;183631;-1378;
2024-05-23T22:19:52.604;539697010017078998;242975;248903;183700;-1420;
2024-05-23T22:19:52.622;539697010035238554;243096;248991;183753;-1363;
2024-05-23T22:19:52.640;539697010053398110;243090;249042;183717;-1421;
2024-05-23T22:19:52.659;539697010071557666;243189;249083;183765;-1438;
2024-05-23T22:19:52.677;539697010089717222;243268;249177;183791;-1412;
2024-05-23T22:19:52.695;539697010107876778;243391;249276;183897;-1378;
2024-05-23T22:19:52.713;539697010126036334;243503;249268;183902;-1380;
2024-05-23T22:19:52.731;539697010144195890;243517;249398;183924;-1431;
2024-05-23T22:19:52.749;539697010162355446;243534;249443;183959;-1439;
2024-05-23T22:19:52.768;539697010180515002;243641;249566;184063;-1400;
2024-05-23T22:19:52.786;539697010198674558;243756;249579;184040;-1420;
2024-05-23T22:19:52.804;539697010216834114;243853;249710;184074;-1440;
2024-05-23T22:19:52.822;539697010234992213;243973;249797;184155;-1472;
2024-05-23T22:19:52.840;539697010253150299;243922;249676;184089;-1423;
2024-05-23T22:19:52.858;539697010271308385;243493;249308;183831;-1386;
2024-05-23T22:19:52.876;539697010289466471;242869;248741;183492;-1357;
2024-05-23T22:19:52.895;539697010307624557;242173;248091;183115;-1445;
2024-05-23T22:19:52.913;539697010325782643;241514;247424;182769;-1388;
2024-05-23T22:19:52.931;539697010343940729;240939;246854;182456;-1417;
2024-05-23T22:19:52.949;539697010362098815;240493;246489;182319;-1351;
2024-05-23T22:19:52.967;539697010380256901;240237;246305;182206;-1318;
2024-05-23T22:19:52.985;539697010398414987;240138;246212;182142;-1421;
2024-05-23T22:19:53.004;539697010416573073;240129;246187;182150;-1529;
2024-05-23T22:19:53.022;539697010434731159;240309;246395;182307;-1425;
2024-05-23T22:19:53.040;539697010452889245;240505;246605;182435;-1431;
2024-05-23T22:19:53.058;539697010471047331;240876;246938;182609;-1482;
2024-05-23T22:19:53.076;539697010489205417;241230;247328;182786;-1451;
2024-05-23T22:19:53.094;539697010507363503;241561;247696;182970;-1449;
2024-05-23T22:19:53.113;539697010525521589;241865;247927;183120;-1509;
2024-05-23T22:19:53.131;539697010543679675;242161;248306;183333;-1392;
2024-05-23T22:19:53.149;539697010561837761;242426;248491;183457;-1400;
2024-05-23T22:19:53.167;539697010579995847;242617;248671;183559;-1430;
2024-05-23T22:19:53.185;539697010598153933;242842;248774;183614;-1434;
2024-05-23T22:19:53.203;539697010616312019;242971;248919;183688;-1488;
2024-05-23T22:19:53.221;539697010634470105;243075;248995;183758;-1406;
2024-05-23T22:19:53.240;539697010652628191;243143;249131;183805;-1432;
2024-05-23T22:19:53.258;539697010670786277;243236;249250;183827;-1409;
2024-05-23T22:19:53.276;539697010688944363;243390;249323;183872;-1341;
2024-05-23T22:19:53.294;539697010707102449;243448;249419;183936;-1417;
2024-05-23T22:19:53.312;539697010725260535;243561;249460;184017;-1410;
2024-05-23T22:19:53.330;539697010743418621;243647;249548;183999;-1419;
2024-05-23T22:19:53.349;539697010761576707;243767;249661;184081;-1387;
2024-05-23T22:19:53.367;539697010779734793;243885;249763;184117;-1425;
2024-05-23T22:19:53.385;539697010797892879;243959;249866;184176;-1386;
2024-05-23T22:19:53.403;539697010816050965;244039;249950;184297;-1449;
2024-05-23T22:19:53.421;539697010834209051;244209;250053;184341;-1391;
2024-05-23T22:19:53.439;539697010852367137;244262;250165;184362;-1448;
2024-05-23T22:19:53.458;539697010870525223;244292;250128;184311;-1417;
2024-05-23T22:19:53.476;539697010888683309;244092;249933;184168;-1443;
2024-05-23T22:19:53.494;539697010906841902;243562;249489;183972;-1474;
2024-05-23T22:19:53.512;539697010925000483;242943;248833;183566;-1397;
2024-05-23T22:19:53.530;539697010943159064;242246;248232;183249;-1451;
2024-05-23T22:19:53.548;539697010961317645;241539;247585;182884;-1508;
2024-05-23T22:19:53.566;539697010979476226;241025;246989;182573;-1472;
2024-05-23T22:19:53.585;539697010997634807;240689;246704;182349;-1436;
2024-05-23T22:19:53.603;539697011015793388;240486;246542;182330;-1447;
2024-05-23T22:19:53.621;539697011033951969;240406;246542;182316;-1485;
2024-05-23T22:19:53.639;539697011052110550;240521;246694;182390;-1425;
2024-05-23T22:19:53.657;539697011070269131;240686;246846;182479;-1473;
2024-05-23T22:19:53.675;539697011088427712;241007;247186;182688;-1494;
2024-05-23T22:19:53.694;539697011106586293;241391;247471;182818;-1516;
2024-05-23T22:19:53.712;539697011124744874;241656;247772;183032;-1482;
2024-05-23T22:19:53.730;539697011142903455;241961;248112;183244;-1429;
2024-05-23T22:19:53.748;539697011161062036;242220;248348;183349;-1412;
2024-05-23T22:19:53.766;539697011179220617;242530;248634;183525;-1443;
2024-05-23T22:19:53.784;539697011197379198;242762;248773;183553;-1393;
2024-05-23T22:19:53.803;539697011215537779;242845;248956;183626;-1433;
2024-05-23T22:19:53.821;539697011233696360;243035;249023;183694;-1441;
2024-05-23T22:19:53.839;539697011251854941;243123;249136;183754;-1424;
2024-05-23T22:19:53.857;539697011270013522;243198;249177;183733;-1405;
2024-05-23T22:19:53.875;539697011288172103;243191;249250;183825;-1405;
2024-05-23T22:19:53.893;539697011306330684;243250;249338;183854;-1410;
2024-05-23T22:19:53.911;539697011324489265;243352;249347;183862;-1423;
2024-05-23T22:19:53.930;539697011342647846;243365;249351;183855;-1456;
2024-05-23T22:19:53.948;539697011360806427;243454;249449;183927;-1444;
2024-05-23T22:19:53.966;539697011378965008;243559;249502;183950;-1387;
2024-05-23T22:19:53.984;539697011397123589;243618;249601;183986;-1455;
2024-05-23T22:19:54.002;539697011415282170;243746;249650;183993;-1405;
2024-05-23T22:19:54.020;539697011433440751;243778;249709;184063;-1449;
2024-05-23T22:19:54.039;539697011451599332;243821;249763;184036;-1432;
2024-05-23T22:19:54.057;539697011469757913;243624;249504;183937;-1324;
2024-05-23T22:19:54.075;539697011487916494;243165;249038;183685;-1425;
2024-05-23T22:19:54.093;539697011506075075;242507;248450;183270;-1398;
2024-05-23T22:19:54.111;539697011524233656;241874;247838;182938;-1416;
2024-05-23T22:19:54.129;539697011542392237;241277;247326;182673;-1466;
2024-05-23T22:19:54.148;539697011560550818;240816;246806;182395;-1422;
2024-05-23T22:19:54.166;539697011578708531;240484;246522;182215;-1402;
2024-05-23T22:19:54.184;539697011596866232;240323;246433;182227;-1382;
2024-05-23T22:19:54.202;539697011615023933;240270;246408;182214;-1446;
2024-05-23T22:19:54.220;539697011633181634;240367;246451;182302;-1457;
2024-05-23T22:19:54.238;539697011651339335;240556;246655;182389;-1472;
2024-05-23T22:19:54.256;539697011669497036;240823;246981;182536;-1420;
2024-05-23T22:19:54.275;539697011687654737;241085;247258;182620;-1425;
2024-05-23T22:19:54.293;539697011705812438;241444;247615;182815;-1457;
2024-05-23T22:19:54.311;539697011723970139;241767;247873;183073;-1370;
2024-05-23T22:19:54.329;539697011742127840;241965;248142;183177;-1406;
2024-05-23T22:19:54.347;539697011760285541;242171;248327;183280;-1481;
2024-05-23T22:19:54.365;539697011778443242;242398;248478;183367;-1437;
2024-05-23T22:19:54.384;539697011796600943;242556;248627;183416;-1459;
2024-05-23T22:19:54.402;539697011814758644;242681;248735;183542;-1405;
2024-05-23T22:19:54.420;539697011832916345;242770;248844;183541;-1426;
2024-05-23T22:19:54.438;539697011851074046;242816;248902;183505;-1381;
2024-05-23T22:19:54.456;539697011869231747;242852;248911;183510;-1350;
2024-05-23T22:19:54.474;539697011887389448;242910;248953;183593;-1441;
2024-05-23T22:19:54.493;539697011905547149;242924;249010;183563;-1434;
2024-05-23T22:19:54.511;539697011923704850;242943;249010;183532;-1464;
2024-05-23T22:19:54.529;539697011941862551;243045;249093;183607;-1419;
2024-05-23T22:19:54.547;539697011960020252;243084;249115;183644;-1382;
2024-05-23T22:19:54.565;539697011978177953;243167;249184;183674;-1456;
2024-05-23T22:19:54.583;539697011996335654;243288;249252;183715;-1420;
2024-05-23T22:19:54.601;539697012014493355;243381;249356;183806;-1422;
2024-05-23T22:19:54.620;539697012032651056;243444;249484;183764;-1382;
2024-05-23T22:19:54.638;539697012050808757;243526;249541;183832;-1385;
2024-05-23T22:19:54.656;539697012068966458;243470;249353;183739;-1368;
2024-05-23T22:19:54.674;539697012087124159;243171;249038;183636;-1307;
2024-05-23T22:19:54.692;539697012105281860;242536;248456;183175;-1396;
2024-05-23T22:19:54.710;539697012123439561;241878;247873;182870;-1394;
2024-05-23T22:19:54.729;539697012141597262;241232;247167;182519;-1375;
2024-05-23T22:19:54.747;539697012159754963;240652;246628;182266;-1373;
2024-05-23T22:19:54.765;539697012177912664;240208;246220;181983;-1432;
2024-05-23T22:19:54.783;539697012196070365;239945;246061;181903;-1397;
2024-05-23T22:19:54.801;539697012214228066;239939;245991;181925;-1404;
2024-05-23T22:19:54.819;539697012232385767;239996;246097;181988;-1396;
2024-05-23T22:19:54.838;539697012250543468;240139;246194;182123;-1383;
2024-05-23T22:19:54.856;539697012268701169;240432;246454;182264;-1431;
2024-05-23T22:19:54.874;539697012286859268;240826;246809;182450;-1433;
2024-05-23T22:19:54.892;539697012305017354;241227;247249;182694;-1447;
2024-05-23T22:19:54.910;539697012323175440;241549;247539;182868;-1436;
2024-05-23T22:19:54.928;539697012341333526;241936;247955;183050;-1398;
2024-05-23T22:19:54.946;539697012359491612;242266;248196;183229;-1471;
2024-05-23T22:19:54.965;539697012377649698;242544;248481;183367;-1407;
2024-05-23T22:19:54.983;539697012395807784;242793;248691;183479;-1409;
2024-05-23T22:19:55.001;539697012413965870;242922;248834;183525;-1412;
2024-05-23T22:19:55.019;539697012432123956;243081;248985;183586;-1438;
2024-05-23T22:19:55.037;539697012450282042;243203;249014;183618;-1395;
2024-05-23T22:19:55.055;539697012468440128;243244;249093;183700;-1378;
2024-05-23T22:19:55.074;539697012486598214;243316;249171;183756;-1423;
2024-05-23T22:19:55.092;539697012504756300;243379;249233;183748;-1420;
2024-05-23T22:19:55.110;539697012522914386;243501;249328;183801;-1364;
2024-05-23T22:19:55.128;539697012541072472;243524;249397;183839;-1410;
2024-05-23T22:19:55.146;539697012559230558;243635;249448;183852;-1464;
2024-05-23T22:19:55.164;539697012577388644;243732;249534;183887;-1479;
2024-05-23T22:19:55.183;539697012595546730;243846;249641;183961;-1490;
2024-05-23T22:19:55.201;539697012613704816;243944;249690;183961;-1443;
2024-05-23T22:19:55.219;539697012631862902;243997;249791;184033;-1462;
2024-05-23T22:19:55.237;539697012650020988;244097;249816;184005;-1412;
2024-05-23T22:19:55.255;539697012668179074;243965;249668;183958;-1327;
2024-05-23T22:19:55.273;539697012686337160;243476;249225;183656;-1399;
2024-05-23T22:19:55.291;539697012704495246;242867;248631;183283;-1439;
2024-05-23T22:19:55.310;539697012722653332;242238;248022;182955;-1429;
2024-05-23T22:19:55.328;539697012740811418;241634;247373;182662;-1402;
2024-05-23T22:19:55.346;539697012758969504;241107;246935;182406;-1419;
2024-05-23T22:19:55.364;539697012777127590;240641;246560;182146;-1415;
2024-05-23T22:19:55.382;539697012795285676;240568;246343;182135;-1410;
2024-05-23T22:19:55.400;539697012813443762;240475;246325;182128;-1382;
2024-05-23T22:19:55.419;539697012831601848;240565;246393;182216;-1398;
2024-05-23T22:19:55.437;539697012849759934;240730;246630;182275;-1476;
2024-05-23T22:19:55.455;539697012867918020;241070;246924;182454;-1362;
2024-05-23T22:19:55.473;539697012886076106;241367;247231;182569;-1425;
2024-05-23T22:19:55.491;539697012904234192;241659;247545;182803;-1425;
2024-05-23T22:19:55.509;539697012922392278;242071;247902;182998;-1422;
2024-05-23T22:19:55.528;539697012940550364;242368;248261;183189;-1445;
2024-05-23T22:19:55.546;539697012958707857;242698;248470;183310;-1448;
2024-05-23T22:19:55.564;539697012976865344;242905;248673;183418;-1449;
2024-05-23T22:19:55.582;539697012995022831;243192;248868;183566;-1412;
2024-05-23T22:19:55.600;539697013013180318;243325;249031;183656;-1428;
2024-05-23T22:19:55.618;539697013031337805;243414;249157;183673;-1377;
2024-05-23T22:19:55.636;539697013049495292;243495;249254;183732;-1421;
2024-05-23T22:19:55.655;539697013067652779;243649;249334;183831;-1402;
2024-05-23T22:19:55.673;539697013085810266;243709;249395;183861;-1447;
2024-05-23T22:19:55.691;539697013103967753;243874;249524;183944;-1426;
2024-05-23T22:19:55.709;539697013122125240;243809;249515;183901;-1424;
2024-05-23T22:19:55.727;539697013140282727;243917;249576;183934;-1423;
2024-05-23T22:19:55.745;539697013158440214;243982;249636;183913;-1465;
2024-05-23T22:19:55.764;539697013176597701;244091;249717;183933;-1426;
2024-05-23T22:19:55.782;539697013194755188;244271;249810;183968;-1413;
2024-05-23T22:19:55.800;539697013212912675;244388;249937;184113;-1414;
2024-05-23T22:19:55.818;539697013231070162;244425;250072;184116;-1484;
2024-05-23T22:19:55.836;539697013249227649;244518;250108;184234;-1405;
2024-05-23T22:19:55.854;539697013267385136;244501;250130;184170;-1436;
2024-05-23T22:19:55.873;539697013285542623;244314;249959;184050;-1504;
2024-05-23T22:19:55.891;539697013303700110;243934;249462;183839;-1496;
2024-05-23T22:19:55.909;539697013321857597;243297;248847;183493;-1443;
2024-05-23T22:19:55.927;539697013340015084;242565;248117;183029;-1493;
2024-05-23T22:19:55.945;539697013358172571;241975;247572;182729;-1436;
2024-05-23T22:19:55.963;539697013376330058;241507;247127;182503;-1409;
2024-05-23T22:19:55.981;539697013394487545;241135;246810;182332;-1405;
2024-05-23T22:19:56.000;539697013412645032;240930;246625;182263;-1390;
2024-05-23T22:19:56.018;539697013430802519;240951;246682;182312;-1344;
2024-05-23T22:19:56.036;539697013448960006;241073;246761;182387;-1403;
2024-05-23T22:19:56.054;539697013467117493;241315;246964;182574;-1374;
2024-05-23T22:19:56.072;539697013485274980;241633;247309;182685;-1359;
2024-05-23T22:19:56.090;539697013503432467;241937;247588;182888;-1421;
2024-05-23T22:19:56.109;539697013521589954;242322;247932;183048;-1395;
2024-05-23T22:19:56.127;539697013539747441;242637;248250;183177;-1459;
2024-05-23T22:19:56.145;539697013557904928;242965;248536;183383;-1354;
2024-05-23T22:19:56.163;539697013576062415;243185;248826;183548;-1389;
2024-05-23T22:19:56.181;539697013594219902;243359;249071;183641;-1417;
2024-05-23T22:19:56.199;539697013612377389;243548;249169;183689;-1447;
2024-05-23T22:19:56.218;539697013630534876;243637;249294;183748;-1409;
2024-05-23T22:19:56.236;539697013648693130;243793;249335;183764;-1382;
2024-05-23T22:19:56.254;539697013666851379;243837;249412;183775;-1412;
2024-05-23T22:19:56.272;539697013685009628;243844;249420;183814;-1388;
2024-05-23T22:19:56.290;539697013703167877;243947;249478;183853;-1392;
2024-05-23T22:19:56.308;539697013721326126;244093;249530;183876;-1394;
2024-05-23T22:19:56.326;539697013739484375;244067;249581;183904;-1383;
2024-05-23T22:19:56.345;539697013757642624;244156;249619;183891;-1394;
2024-05-23T22:19:56.363;539697013775800873;244240;249687;183942;-1375;
2024-05-23T22:19:56.381;539697013793959122;244344;249808;184045;-1381;
2024-05-23T22:19:56.399;539697013812117371;244434;249855;184046;-1432;
2024-05-23T22:19:56.417;539697013830275620;244529;249995;184125;-1441;
2024-05-23T22:19:56.435;539697013848433869;244613;250028;184145;-1380;
2024-05-23T22:19:56.454;539697013866592118;244536;249982;184091;-1344;
2024-05-23T22:19:56.472;539697013884750367;244108;249519;183835;-1421;
2024-05-23T22:19:56.490;539697013902908616;243555;248941;183514;-1405;
2024-05-23T22:19:56.508;539697013921066865;242919;248249;183123;-1371;
2024-05-23T22:19:56.526;539697013939225114;242278;247742;182845;-1417;
2024-05-23T22:19:56.544;539697013957383363;241746;247267;182562;-1341;
2024-05-23T22:19:56.563;539697013975541612;241362;246930;182464;-1437;
2024-05-23T22:19:56.581;539697013993699861;241200;246742;182375;-1402;
2024-05-23T22:19:56.599;539697014011858110;241155;246728;182326;-1379;
2024-05-23T22:19:56.617;539697014030016359;241244;246816;182419;-1431;
2024-05-23T22:19:56.635;539697014048174608;241394;247022;182504;-1409;
2024-05-23T22:19:56.653;539697014066332857;241687;247222;182654;-1422;
2024-05-23T22:19:56.671;539697014084491106;242028;247520;182825;-1381;
2024-05-23T22:19:56.690;539697014102649355;242271;247792;183009;-1395;
2024-05-23T22:19:56.708;539697014120807604;242623;248081;183221;-1387;
2024-05-23T22:19:56.726;539697014138965853;242925;248382;183324;-1388;
2024-05-23T22:19:56.744;539697014157124102;243132;248623;183461;-1394;
2024-05-23T22:19:56.762;539697014175282351;243340;248847;183532;-1380;
2024-05-23T22:19:56.780;539697014193440600;243492;248964;183618;-1372;
2024-05-23T22:19:56.799;539697014211598849;243582;249113;183658;-1379;
2024-05-23T22:19:56.817;539697014229757098;243663;249206;183690;-1378;
2024-05-23T22:19:56.835;539697014247915347;243706;249180;183722;-1403;
2024-05-23T22:19:56.853;539697014266073596;243717;249193;183715;-1427;
2024-05-23T22:19:56.871;539697014284231845;243812;249287;183713;-1441;
2024-05-23T22:19:56.889;539697014302390094;243861;249338;183766;-1395;
2024-05-23T22:19:56.908;539697014320548343;243880;249331;183734;-1393;
2024-05-23T22:19:56.926;539697014338706592;243947;249421;183787;-1362;
2024-05-23T22:19:56.944;539697014356864153;243960;249442;183776;-1489;
2024-05-23T22:19:56.962;539697014375021684;243971;249498;183771;-1476;
2024-05-23T22:19:56.980;539697014393179215;244104;249542;183827;-1413;
2024-05-23T22:19:56.998;539697014411336746;244199;249595;183890;-1388;
2024-05-23T22:19:57.016;539697014429494277;244269;249694;183888;-1451;
2024-05-23T22:19:57.035;539697014447651808;244349;249716;183975;-1387;
2024-05-23T22:19:57.053;539697014465809339;244230;249648;183878;-1399;
2024-05-23T22:19:57.071;539697014483966870;243936;249327;183726;-1386;
2024-05-23T22:19:57.089;539697014502124401;243390;248823;183412;-1406;
2024-05-23T22:19:57.107;539697014520281932;242723;248094;183020;-1391;
2024-05-23T22:19:57.125;539697014538439463;241885;247425;182579;-1402;
2024-05-23T22:19:57.144;539697014556596994;241275;246817;182266;-1421;
2024-05-23T22:19:57.162;539697014574754525;240729;246295;181989;-1482;
2024-05-23T22:19:57.180;539697014592912056;240407;246008;181803;-1450;
2024-05-23T22:19:57.198;539697014611069587;240237;245887;181777;-1380;
2024-05-23T22:19:57.216;539697014629227118;240282;245834;181832;-1414;
2024-05-23T22:19:57.234;539697014647384649;240353;246005;181951;-1371;
2024-05-23T22:19:57.253;539697014665542180;240583;246269;182084;-1400;
2024-05-23T22:19:57.271;539697014683699711;240846;246587;182224;-1408;
2024-05-23T22:19:57.289;539697014701857242;241225;246878;182411;-1431;
2024-05-23T22:19:57.307;539697014720014773;241546;247202;182615;-1438;
2024-05-23T22:19:57.325;539697014738172304;241875;247459;182786;-1424;
2024-05-23T22:19:57.343;539697014756329835;242233;247806;183001;-1428;
2024-05-23T22:19:57.361;539697014774487366;242497;248051;183085;-1420;
2024-05-23T22:19:57.380;539697014792644897;242673;248291;183273;-1412;
2024-05-23T22:19:57.398;539697014810802428;242838;248412;183303;-1410;
2024-05-23T22:19:57.416;539697014828959959;242994;248519;183322;-1386;
2024-05-23T22:19:57.434;539697014847117490;243074;248654;183391;-1375;
2024-05-23T22:19:57.452;539697014865275021;243183;248627;183410;-1400;
2024-05-23T22:19:57.470;539697014883432552;243269;248727;183430;-1419;
2024-05-23T22:19:57.489;539697014901590083;243346;248849;183507;-1411;
2024-05-23T22:19:57.507;539697014919747614;243420;248782;183443;-1436;
2024-05-23T22:19:57.525;539697014937905145;243531;248881;183532;-1416;
2024-05-23T22:19:57.543;539697014956062676;243586;248979;183584;-1465;
2024-05-23T22:19:57.561;539697014974220207;243730;249114;183612;-1422;
2024-05-23T22:19:57.579;539697014992377738;243830;249233;183735;-1410;
2024-05-23T22:19:57.598;539697015010534426;243927;249338;183716;-1391;
2024-05-23T22:19:57.616;539697015028691110;244047;249404;183791;-1449;
2024-05-23T22:19:57.634;539697015046847794;244089;249475;183843;-1451;
2024-05-23T22:19:57.652;539697015065004478;244113;249510;183851;-1419;
2024-05-23T22:19:57.670;539697015083161162;243841;249166;183681;-1420;
2024-05-23T22:19:57.688;539697015101317846;243311;248703;183362;-1434;
2024-05-23T22:19:57.706;539697015119474530;242639;248092;182995;-1454;
2024-05-23T22:19:57.725;539697015137631214;241991;247443;182624;-1457;
2024-05-23T22:19:57.743;539697015155787898;241336;246832;182298;-1442;
2024-05-23T22:19:57.761;539697015173944582;240844;246369;182143;-1391;
2024-05-23T22:19:57.779;539697015192101266;240544;246115;181963;-1364;
2024-05-23T22:19:57.797;539697015210257950;240336;246056;181894;-1455;
2024-05-23T22:19:57.815;539697015228414634;240323;246053;181897;-1407;
2024-05-23T22:19:57.834;539697015246571318;240466;246198;181958;-1448;
2024-05-23T22:19:57.852;539697015264728002;240713;246348;182163;-1446;
2024-05-23T22:19:57.870;539697015282884686;241012;246713;182344;-1444;
2024-05-23T22:19:57.888;539697015301041370;241421;247057;182527;-1425;
2024-05-23T22:19:57.906;539697015319198054;241697;247433;182707;-1461;
2024-05-23T22:19:57.924;539697015337354738;242018;247716;182982;-1421;
2024-05-23T22:19:57.943;539697015355511422;242402;247936;183023;-1485;
2024-05-23T22:19:57.961;539697015373668106;242597;248202;183140;-1405;
2024-05-23T22:19:57.979;539697015391824790;242799;248410;183262;-1416;
2024-05-23T22:19:57.997;539697015409981474;242948;248553;183371;-1392;
2024-05-23T22:19:58.015;539697015428138158;243106;248652;183408;-1380;
2024-05-23T22:19:58.033;539697015446294842;243172;248652;183388;-1416;
2024-05-23T22:19:58.051;539697015464451526;243248;248731;183485;-1407;
2024-05-23T22:19:58.070;539697015482608210;243325;248767;183483;-1422;
2024-05-23T22:19:58.088;539697015500764894;243334;248885;183534;-1434;
2024-05-23T22:19:58.106;539697015518921578;243410;248910;183592;-1393;
2024-05-23T22:19:58.124;539697015537078262;243517;249052;183684;-1385;
2024-05-23T22:19:58.142;539697015555234946;243554;249109;183720;-1392;
2024-05-23T22:19:58.160;539697015573391630;243655;249132;183732;-1388;
2024-05-23T22:19:58.179;539697015591548314;243744;249249;183823;-1338;
2024-05-23T22:19:58.197;539697015609704998;243841;249337;183767;-1396;
2024-05-23T22:19:58.215;539697015627861682;243880;249454;183833;-1363;
2024-05-23T22:19:58.233;539697015646018366;244023;249514;183876;-1445;
2024-05-23T22:19:58.251;539697015664175908;244113;249632;184009;-1387;
2024-05-23T22:19:58.269;539697015682333416;244029;249523;183888;-1405;
2024-05-23T22:19:58.287;539697015700490924;243704;249209;183607;-1429;
2024-05-23T22:19:58.306;539697015718648432;243099;248618;183370;-1396;
2024-05-23T22:19:58.324;539697015736805940;242472;247962;182998;-1395;
2024-05-23T22:19:58.342;539697015754963448;241771;247355;182629;-1402;
2024-05-23T22:19:58.360;539697015773120956;241132;246804;182301;-1440;
2024-05-23T22:19:58.378;539697015791278464;240678;246320;182110;-1442;
2024-05-23T22:19:58.396;539697015809435972;240413;246151;182032;-1386;
2024-05-23T22:19:58.415;539697015827593480;240309;246024;181931;-1415;
2024-05-23T22:19:58.433;539697015845750988;240357;246101;182046;-1393;
2024-05-23T22:19:58.451;539697015863908496;240501;246386;182135;-1395;
2024-05-23T22:19:58.469;539697015882066004;240806;246630;182357;-1392;
2024-05-23T22:19:58.487;539697015900223512;241103;246865;182502;-1422;
2024-05-23T22:19:58.505;539697015918381020;241475;247281;182725;-1403;
2024-05-23T22:19:58.524;539697015936538528;241849;247600;182895;-1413;
2024-05-23T22:19:58.542;539697015954696036;242187;247931;183040;-1379;
2024-05-23T22:19:58.560;539697015972853544;242527;248276;183224;-1402;
2024-05-23T22:19:58.578;539697015991011052;242705;248451;183350;-1438;
2024-05-23T22:19:58.596;539697016009168560;242942;248692;183498;-1387;
2024-05-23T22:19:58.614;539697016027326068;243049;248786;183563;-1407;
2024-05-23T22:19:58.632;539697016045483576;243220;248955;183604;-1455;
2024-05-23T22:19:58.651;539697016063641084;243354;249054;183647;-1382;
2024-05-23T22:19:58.669;539697016081798592;243477;249189;183735;-1419;
2024-05-23T22:19:58.687;539697016099956100;243516;249216;183773;-1399;
2024-05-23T22:19:58.705;539697016118113608;243630;249303;183820;-1411;
2024-05-23T22:19:58.723;539697016136271116;243670;249400;183820;-1426;
2024-05-23T22:19:58.741;539697016154428624;243783;249433;183894;-1440;
2024-05-23T22:19:58.760;539697016172586132;243901;249535;183927;-1425;
2024-05-23T22:19:58.778;539697016190743640;244049;249608;184005;-1425;
2024-05-23T22:19:58.796;539697016208901148;244079;249707;184003;-1437;
2024-05-23T22:19:58.814;539697016227058656;244199;249803;184070;-1463;
2024-05-23T22:19:58.832;539697016245216164;244255;249870;184165;-1449;
2024-05-23T22:19:58.850;539697016263373672;244416;249960;184194;-1434;
2024-05-23T22:19:58.869;539697016281531180;244374;249922;184134;-1394;
2024-05-23T22:19:58.887;539697016299688688;244037;249601;183954;-1373;
2024-05-23T22:19:58.905;539697016317846196;243507;249090;183619;-1380;
2024-05-23T22:19:58.923;539697016336003834;242880;248457;183297;-1454;
2024-05-23T22:19:58.941;539697016354161450;242179;247813;182925;-1457;
2024-05-23T22:19:58.959;539697016372319066;241530;247232;182612;-1442;
2024-05-23T22:19:58.977;539697016390476682;240988;246779;182340;-1448;
2024-05-23T22:19:58.996;539697016408634298;240670;246516;182165;-1428;
2024-05-23T22:19:59.014;539697016426791914;240561;246419;182165;-1427;
2024-05-23T22:19:59.032;539697016444949530;240565;246475;182154;-1448;
2024-05-23T22:19:59.050;539697016463107146;240637;246505;182246;-1438;
2024-05-23T22:19:59.068;539697016481264762;240817;246736;182393;-1453;
2024-05-23T22:19:59.086;539697016499422378;241114;247022;182534;-1456;
2024-05-23T22:19:59.105;539697016517579994;241469;247346;182729;-1468;
2024-05-23T22:19:59.123;539697016535737610;241793;247658;182925;-1421;
2024-05-23T22:19:59.141;539697016553895226;242025;247930;183042;-1448;
2024-05-23T22:19:59.159;539697016572052842;242207;248171;183196;-1463;
2024-05-23T22:19:59.177;539697016590210458;242502;248383;183275;-1408;
2024-05-23T22:19:59.195;539697016608368074;242702;248540;183363;-1412;
2024-05-23T22:19:59.214;539697016626525690;242859;248723;183426;-1433;
2024-05-23T22:19:59.232;539697016644683306;242978;248837;183512;-1455;
2024-05-23T22:19:59.250;539697016662840922;243049;248820;183499;-1446;
2024-05-23T22:19:59.268;539697016680998538;243086;248897;183613;-1428;
2024-05-23T22:19:59.286;539697016699156154;243182;248993;183627;-1439;
2024-05-23T22:19:59.304;539697016717313770;243266;249018;183651;-1427;
2024-05-23T22:19:59.322;539697016735471386;243314;249134;183696;-1365;
2024-05-23T22:19:59.341;539697016753629002;243321;249108;183675;-1451;
2024-05-23T22:19:59.359;539697016771786618;243457;249211;183732;-1428;
2024-05-23T22:19:59.377;539697016789944234;243417;249268;183724;-1441;
2024-05-23T22:19:59.395;539697016808101850;243524;249304;183749;-1393;
2024-05-23T22:19:59.413;539697016826259466;243590;249311;183765;-1406;
2024-05-23T22:19:59.431;539697016844417082;243686;249417;183788;-1438;
2024-05-23T22:19:59.450;539697016862574698;243680;249473;183871;-1405;
2024-05-23T22:19:59.468;539697016880732314;243436;249253;183736;-1428;
2024-05-23T22:19:59.486;539697016898889930;243014;248902;183500;-1391;
2024-05-23T22:19:59.504;539697016917047546;242397;248172;183066;-1445;
2024-05-23T22:19:59.522;539697016935205162;241663;247443;182736;-1397;
2024-05-23T22:19:59.540;539697016953362778;240966;246861;182369;-1455;
2024-05-23T22:19:59.559;539697016971520394;240323;246295;182071;-1441;
2024-05-23T22:19:59.577;539697016989677834;239889;245839;181845;-1480;
2024-05-23T22:19:59.595;539697017007835240;239673;245642;181694;-1413;
2024-05-23T22:19:59.613;539697017025992646;239545;245590;181710;-1478;
2024-05-23T22:19:59.631;539697017044150052;239602;245666;181803;-1465;
2024-05-23T22:19:59.649;539697017062307458;239783;245893;181921;-1463;
2024-05-23T22:19:59.667;539697017080464864;240031;246220;182059;-1467;
2024-05-23T22:19:59.686;539697017098622270;240367;246370;182191;-1467;
2024-05-23T22:19:59.704;539697017116779676;240715;246704;182343;-1456;
2024-05-23T22:19:59.722;539697017134937082;241085;247073;182606;-1457;
2024-05-23T22:19:59.740;539697017153094488;241354;247342;182699;-1490;
2024-05-23T22:19:59.758;539697017171251894;241573;247635;182864;-1441;
2024-05-23T22:19:59.776;539697017189409300;241806;247761;183031;-1463;
2024-05-23T22:19:59.795;539697017207566706;241965;247960;183078;-1471;
2024-05-23T22:19:59.813;539697017225724112;242157;248163;183214;-1425;
2024-05-23T22:19:59.831;539697017243881518;242310;248277;183262;-1392;
2024-05-23T22:19:59.849;539697017262038924;242424;248413;183325;-1353;
2024-05-23T22:19:59.867;539697017280196330;242507;248552;183383;-1406;
2024-05-23T22:19:59.885;539697017298353736;242628;248585;183439;-1413;
2024-05-23T22:19:59.904;539697017316511142;242689;248642;183460;-1408;
2024-05-23T22:19:59.922;539697017334668548;242794;248779;183547;-1415;
2024-05-23T22:19:59.940;539697017352825954;242910;248797;183497;-1407;
2024-05-23T22:19:59.958;539697017370983360;243022;248934;183609;-1460;
2024-05-23T22:19:59.976;539697017389140766;243132;249035;183657;-1472;
2024-05-23T22:19:59.994;539697017407298172;243247;249106;183712;-1343;
2024-05-23T22:20:00.012;539697017425455578;243311;249254;183778;-1362;
2024-05-23T22:20:00.031;539697017443612984;243442;249342;183816;-1376;
2024-05-23T22:20:00.049;539697017461770390;243458;249398;183824;-1413;
2024-05-23T22:20:00.067;539697017479927796;243383;249232;183752;-1393;
2024-05-23T22:20:00.085;539697017498085202;243015;248936;183570;-1458;
2024-05-23T22:20:00.103;539697017516242608;242499;248416;183231;-1377;
2024-05-23T22:20:00.121;539697017534400014;241784;247768;182893;-1358;
2024-05-23T22:20:00.140;539697017552557420;241066;247074;182526;-1397;
2024-05-23T22:20:00.158;539697017570714826;240509;246521;182170;-1449;
2024-05-23T22:20:00.176;539697017588872232;240101;246179;181982;-1414;
2024-05-23T22:20:00.194;539697017607029638;239734;245862;181914;-1431;
2024-05-23T22:20:00.212;539697017625187044;239704;245802;181881;-1434;
2024-05-23T22:20:00.230;539697017643344450;239667;245879;181865;-1460;
2024-05-23T22:20:00.249;539697017661501856;239866;246029;182067;-1433;
2024-05-23T22:20:00.267;539697017679659296;240066;246272;182166;-1453;
2024-05-23T22:20:00.285;539697017697816702;240368;246531;182293;-1440;
2024-05-23T22:20:00.303;539697017715974108;240695;246875;182485;-1417;
2024-05-23T22:20:00.321;539697017734131514;241056;247197;182645;-1423;
2024-05-23T22:20:00.339;539697017752288920;241340;247511;182850;-1379;
2024-05-23T22:20:00.357;539697017770446326;241620;247711;183006;-1391;
2024-05-23T22:20:00.376;539697017788603732;241841;247999;183137;-1425;
2024-05-23T22:20:00.394;539697017806761138;242057;248189;183183;-1359;
2024-05-23T22:20:00.412;539697017824918544;242221;248375;183292;-1405;
2024-05-23T22:20:00.430;539697017843075950;242390;248522;183380;-1481;
2024-05-23T22:20:00.448;539697017861233356;242494;248549;183465;-1454;
2024-05-23T22:20:00.466;539697017879390762;242583;248636;183480;-1474;
2024-05-23T22:20:00.485;539697017897548168;242706;248758;183508;-1410;
2024-05-23T22:20:00.503;539697017915705574;242724;248778;183491;-1442;
2024-05-23T22:20:00.521;539697017933862980;242896;248896;183575;-1322;
2024-05-23T22:20:00.539;539697017952020386;242954;248918;183609;-1342;
2024-05-23T22:20:00.557;539697017970177792;242994;249015;183623;-1374;
2024-05-23T22:20:00.575;539697017988335198;243100;249059;183669;-1410;
2024-05-23T22:20:00.593;539697018006492604;243202;249190;183701;-1431;
2024-05-23T22:20:00.612;539697018024650010;243394;249295;183757;-1414;
2024-05-23T22:20:00.630;539697018042807416;243486;249368;183865;-1460;
2024-05-23T22:20:00.648;539697018060964822;243644;249475;183937;-1382;
2024-05-23T22:20:00.666;539697018079122228;243656;249619;183951;-1388;
2024-05-23T22:20:00.684;539697018097279634;243564;249508;183926;-1406;
2024-05-23T22:20:00.702;539697018115437040;243228;249180;183678;-1357;
2024-05-23T22:20:00.721;539697018133594446;242662;248604;183357;-1444;
2024-05-23T22:20:00.739;539697018151751852;242026;247964;183025;-1386;
2024-05-23T22:20:00.757;539697018169909258;241396;247418;182702;-1369;
2024-05-23T22:20:00.775;539697018188066664;240864;246860;182449;-1353;
2024-05-23T22:20:00.793;539697018206224070;240418;246564;182215;-1368;
2024-05-23T22:20:00.811;539697018224381476;240143;246260;182097;-1417;
2024-05-23T22:20:00.830;539697018242538882;240129;246248;182125;-1355;
2024-05-23T22:20:00.848;539697018260696288;240185;246334;182171;-1358;
2024-05-23T22:20:00.866;539697018278853694;240337;246506;182327;-1381;
2024-05-23T22:20:00.884;539697018297011100;240649;246765;182441;-1369;
2024-05-23T22:20:00.902;539697018315168506;240983;247078;182644;-1422;
2024-05-23T22:20:00.920;539697018333325912;241378;247437;182873;-1449;
2024-05-23T22:20:00.938;539697018351483318;241733;247801;183145;-1443;
2024-05-23T22:20:00.957;539697018369640758;242040;248170;183232;-1414;
2024-05-23T22:20:00.975;539697018387798164;242377;248485;183362;-1414;
2024-05-23T22:20:00.993;539697018405955570;242633;248652;183508;-1424;
2024-05-23T22:20:01.011;539697018424112976;242899;248888;183634;-1387;
2024-05-23T22:20:01.029;539697018442270382;243144;249050;183689;-1365;
2024-05-23T22:20:01.047;539697018460427788;243199;249156;183709;-1398;
2024-05-23T22:20:01.066;539697018478585194;243317;249301;183797;-1362;
2024-05-23T22:20:01.084;539697018496742600;243450;249337;183845;-1399;
2024-05-23T22:20:01.102;539697018514900006;243498;249403;183944;-1404;
2024-05-23T22:20:01.120;539697018533057412;243629;249533;183994;-1389;
2024-05-23T22:20:01.138;539697018551214818;243701;249617;184031;-1382;
2024-05-23T22:20:01.156;539697018569372224;243794;249729;184067;-1370;
2024-05-23T22:20:01.175;539697018587529630;243893;249820;184108;-1387;
2024-05-23T22:20:01.193;539697018605687036;243952;249863;184187;-1445;
2024-05-23T22:20:01.211;539697018623844442;244041;249950;184230;-1441;
2024-05-23T22:20:01.229;539697018642001848;244181;250059;184241;-1387;
2024-05-23T22:20:01.247;539697018660159254;244331;250240;184341;-1364;
2024-05-23T22:20:01.265;539697018678316660;244471;250291;184387;-1391;
2024-05-23T22:20:01.283;539697018696474066;244613;250396;184455;-1402;
2024-05-23T22:20:01.302;539697018714631472;244642;250460;184472;-1368;
2024-05-23T22:20:01.320;539697018732788878;244432;250304;184380;-1413;
2024-05-23T22:20:01.338;539697018750946284;244018;249820;184130;-1408;
2024-05-23T22:20:01.356;539697018769103690;243501;249224;183726;-1361;
2024-05-23T22:20:01.374;539697018787261096;242683;248490;183339;-1410;
2024-05-23T22:20:01.392;539697018805418502;242020;247772;183009;-1397;
2024-05-23T22:20:01.411;539697018823575908;241469;247317;182719;-1358;
2024-05-23T22:20:01.429;539697018841733314;241074;246964;182495;-1375;
2024-05-23T22:20:01.447;539697018859890720;240786;246752;182374;-1409;
2024-05-23T22:20:01.465;539697018878048126;240748;246692;182377;-1373;
2024-05-23T22:20:01.483;539697018896205532;240790;246831;182424;-1379;
2024-05-23T22:20:01.501;539697018914362938;240962;246928;182507;-1379;
2024-05-23T22:20:01.520;539697018932520344;241205;247167;182713;-1392;
2024-05-23T22:20:01.538;539697018950677750;241466;247503;182873;-1377;
2024-05-23T22:20:01.556;539697018968835156;241767;247732;182975;-1450;
2024-05-23T22:20:01.574;539697018986992562;242106;248153;183206;-1391;
2024-05-23T22:20:01.592;539697019005149968;242361;248330;183334;-1450;
2024-05-23T22:20:01.610;539697019023307374;242582;248598;183520;-1448;
2024-05-23T22:20:01.628;539697019041464780;242838;248751;183547;-1420;
2024-05-23T22:20:01.647;539697019059622226;242967;248961;183653;-1355;
2024-05-23T22:20:01.665;539697019077779653;243068;249041;183634;-1390;
2024-05-23T22:20:01.683;539697019095937080;243177;249035;183685;-1360;
2024-05-23T22:20:01.701;539697019114094507;243231;249158;183716;-1432;
2024-05-23T22:20:01.719;539697019132251934;243329;249234;183793;-1427;
2024-05-23T22:20:01.737;539697019150409361;243397;249220;183760;-1386;
2024-05-23T22:20:01.756;539697019168566788;243362;249257;183769;-1378;
2024-05-23T22:20:01.774;539697019186724215;243400;249302;183769;-1440;
2024-05-23T22:20:01.792;539697019204881642;243451;249378;183807;-1415;
2024-05-23T22:20:01.810;539697019223039069;243477;249383;183804;-1340;
2024-05-23T22:20:01.828;539697019241196496;243523;249444;183826;-1360;
2024-05-23T22:20:01.846;539697019259353923;243664;249519;183895;-1358;
2024-05-23T22:20:01.865;539697019277511350;243713;249573;183908;-1364;
2024-05-23T22:20:01.883;539697019295668777;243795;249707;183957;-1420;
2024-05-23T22:20:01.901;539697019313826204;243762;249700;183959;-1399;
2024-05-23T22:20:01.919;539697019331983631;243547;249413;183803;-1443;
2024-05-23T22:20:01.937;539697019350141058;243077;248927;183500;-1432;
2024-05-23T22:20:01.955;539697019368298485;242418;248247;183139;-1410;
2024-05-23T22:20:01.973;539697019386455912;241725;247545;182735;-1372;
2024-05-23T22:20:01.992;539697019404613339;241064;246968;182427;-1409;
2024-05-23T22:20:02.010;539697019422770766;240468;246413;182043;-1424;
2024-05-23T22:20:02.028;539697019440928193;240208;246136;181980;-1355;
2024-05-23T22:20:02.046;539697019459085620;239982;245938;181901;-1350;
2024-05-23T22:20:02.064;539697019477243047;239961;246001;181907;-1374;
2024-05-23T22:20:02.082;539697019495400474;240032;246019;181967;-1361;
2024-05-23T22:20:02.101;539697019513557901;240212;246206;182095;-1362;
2024-05-23T22:20:02.119;539697019531715328;240415;246439;182198;-1376;
2024-05-23T22:20:02.137;539697019549872755;240726;246734;182404;-1365;
2024-05-23T22:20:02.155;539697019568030182;241095;247127;182582;-1338;
2024-05-23T22:20:02.173;539697019586187609;241371;247493;182748;-1357;
2024-05-23T22:20:02.191;539697019604345036;241615;247769;182915;-1390;
2024-05-23T22:20:02.210;539697019622502463;241922;247969;183091;-1395;
2024-05-23T22:20:02.228;539697019640659890;242161;248197;183210;-1443;
2024-05-23T22:20:02.246;539697019658817317;242399;248356;183309;-1408;
2024-05-23T22:20:02.264;539697019676974744;242504;248508;183323;-1427;
2024-05-23T22:20:02.282;539697019695132171;242672;248602;183389;-1424;
2024-05-23T22:20:02.300;539697019713289598;242771;248714;183477;-1421;
2024-05-23T22:20:02.318;539697019731447025;242908;248779;183514;-1420;
2024-05-23T22:20:02.337;539697019749604452;242966;248772;183525;-1458;
2024-05-23T22:20:02.355;539697019767762170;243127;248942;183572;-1450;
2024-05-23T22:20:02.373;539697019785919885;243164;249049;183636;-1412;
2024-05-23T22:20:02.391;539697019804077600;243229;249107;183688;-1402;
2024-05-23T22:20:02.409;539697019822235315;243387;249211;183746;-1396;
2024-05-23T22:20:02.427;539697019840393030;243476;249329;183737;-1379;
2024-05-23T22:20:02.446;539697019858550745;243580;249442;183806;-1356;
2024-05-23T22:20:02.464;539697019876708460;243739;249485;183808;-1431;
2024-05-23T22:20:02.482;539697019894866175;243889;249611;183899;-1365;
2024-05-23T22:20:02.500;539697019913023890;243991;249700;183956;-1371;
2024-05-23T22:20:02.518;539697019931181605;244074;249792;184024;-1428;
