Phone timestamp;sensor timestamp [ns];channel 0;channel 1;channel 2;ambient
2024-05-23T22:34:30.872;539697888273187118;348955;381213;292031;-1272;
2024-05-23T22:34:30.890;539697888291337203;347761;379701;290986;-1294;
2024-05-23T22:34:30.908;539697888309487288;346643;378371;290047;-1246;
2024-05-23T22:34:30.926;539697888327637373;345754;377268;289315;-1294;
2024-05-23T22:34:30.944;539697888345787458;345100;376435;288772;-1220;
2024-05-23T22:34:30.962;539697888363937543;344701;375941;288533;-1236;
2024-05-23T22:34:30.980;539697888382087628;344540;375692;288351;-1199;
2024-05-23T22:34:30.999;539697888400237713;344561;375751;288369;-1224;
2024-05-23T22:34:31.017;539697888418387798;344779;376042;288540;-1210;
2024-05-23T22:34:31.035;539697888436537883;345056;376344;288800;-1250;
2024-05-23T22:34:31.053;539697888454687968;345401;376867;289151;-1199;
2024-05-23T22:34:31.071;539697888472838053;345777;377327;289435;-1261;
2024-05-23T22:34:31.089;539697888490988138;346087;377758;289758;-1289;
2024-05-23T22:34:31.107;539697888509138223;346485;378222;290072;-1250;
2024-05-23T22:34:31.126;539697888527288308;346711;378478;290338;-1290;
2024-05-23T22:34:31.144;539697888545438393;346927;378763;290455;-1286;
2024-05-23T22:34:31.162;539697888563588478;347029;378954;290596;-1269;
2024-05-23T22:34:31.180;539697888581738563;347136;379108;290711;-1241;
2024-05-23T22:34:31.198;539697888599888648;347223;379194;290760;-1236;
2024-05-23T22:34:31.216;539697888618038733;347250;379253;290819;-1273;
2024-05-23T22:34:31.235;539697888636188818;347303;379357;290921;-1267;
2024-05-23T22:34:31.253;539697888654338903;347344;379457;290985;-1234;
2024-05-23T22:34:31.271;539697888672488988;347424;379541;291045;-1211;
2024-05-23T22:34:31.289;539697888690639073;347424;379669;291083;-1269;
2024-05-23T22:34:31.307;539697888708789158;347513;379798;291157;-1294;
2024-05-23T22:34:31.325;539697888726939243;347650;379931;291303;-1351;
2024-05-23T22:34:31.343;539697888745089328;347782;380142;291473;-1303;
2024-05-23T22:34:31.362;539697888763239413;347921;380385;291531;-1301;
2024-05-23T22:34:31.380;539697888781389498;348099;380565;291723;-1291;
2024-05-23T22:34:31.398;539697888799539583;348304;380793;291901;-1319;
2024-05-23T22:34:31.416;539697888817689668;348457;381045;292092;-1283;
2024-05-23T22:34:31.434;539697888835839753;348721;381374;292315;-1270;
2024-05-23T22:34:31.452;539697888853989838;348918;381655;292457;-1271;
2024-05-23T22:34:31.470;539697888872139923;349105;381937;292594;-1278;
2024-05-23T22:34:31.489;539697888890290008;349422;382186;292841;-1269;
2024-05-23T22:34:31.507;539697888908440093;349554;382500;293004;-1253;
2024-05-23T22:34:31.525;539697888926590178;349760;382684;293238;-1275;
2024-05-23T22:34:31.543;539697888944740290;349958;382968;293400;-1241;
2024-05-23T22:34:31.561;539697888962890375;349947;383055;293438;-1317;
2024-05-23T22:34:31.579;539697888981040460;349754;382893;293288;-1235;
2024-05-23T22:34:31.598;539697888999190545;349172;382174;292782;-1261;
2024-05-23T22:34:31.616;539697889017340630;348213;381153;292010;-1244;
2024-05-23T22:34:31.634;539697889035490715;347003;379851;291081;-1229;
2024-05-23T22:34:31.652;539697889053640800;345856;378454;290156;-1261;
2024-05-23T22:34:31.670;539697889071790885;344711;377173;289261;-1270;
2024-05-23T22:34:31.688;539697889089940970;343776;376108;288524;-1284;
2024-05-23T22:34:31.706;539697889108091055;343095;375293;288006;-1282;
2024-05-23T22:34:31.725;539697889126241140;342712;374822;287635;-1250;
2024-05-23T22:34:31.743;539697889144391225;342583;374626;287452;-1207;
2024-05-23T22:34:31.761;539697889162541310;342532;374741;287500;-1222;
2024-05-23T22:34:31.779;539697889180691395;342704;374902;287629;-1323;
2024-05-23T22:34:31.797;539697889198841480;343021;375260;287930;-1257;
2024-05-23T22:34:31.815;539697889216991565;343412;375771;288320;-1256;
2024-05-23T22:34:31.833;539697889235141650;343762;376234;288624;-1312;
2024-05-23T22:34:31.852;539697889253291735;344120;376706;288839;-1302;
2024-05-23T22:34:31.870;539697889271441820;344407;377150;289170;-1355;
2024-05-23T22:34:31.888;539697889289591905;344692;377512;289496;-1259;
2024-05-23T22:34:31.906;539697889307741990;344935;377809;289676;-1245;
2024-05-23T22:34:31.924;539697889325892075;345084;377973;289823;-1265;
2024-05-23T22:34:31.942;539697889344042160;345186;378190;289906;-1217;
2024-05-23T22:34:31.961;539697889362192245;345196;378252;289966;-1252;
2024-05-23T22:34:31.979;539697889380342330;345264;378380;290050;-1276;
2024-05-23T22:34:31.997;539697889398492415;345299;378437;290042;-1309;
2024-05-23T22:34:32.015;539697889416642500;345362;378538;290111;-1266;
2024-05-23T22:34:32.033;539697889434792585;345461;378671;290219;-1277;
2024-05-23T22:34:32.051;539697889452942670;345481;378817;290335;-1267;
2024-05-23T22:34:32.069;539697889471092755;345571;378912;290365;-1282;
2024-05-23T22:34:32.088;539697889489242840;345718;379073;290477;-1297;
2024-05-23T22:34:32.106;539697889507392925;345837;379316;290668;-1288;
2024-05-23T22:34:32.124;539697889525543010;346017;379546;290816;-1236;
2024-05-23T22:34:32.142;539697889543693095;346193;379756;290918;-1272;
2024-05-23T22:34:32.160;539697889561843180;346323;379977;291116;-1294;
2024-05-23T22:34:32.178;539697889579993265;346507;380279;291268;-1307;
2024-05-23T22:34:32.196;539697889598143350;346689;380544;291398;-1308;
2024-05-23T22:34:32.215;539697889616294443;346969;380820;291630;-1253;
2024-05-23T22:34:32.233;539697889634445532;347154;381081;291790;-1272;
2024-05-23T22:34:32.251;539697889652596621;347431;381330;291992;-1234;
2024-05-23T22:34:32.269;539697889670747710;347680;381656;292209;-1235;
2024-05-23T22:34:32.287;539697889688898799;347837;381907;292344;-1259;
2024-05-23T22:34:32.305;539697889707049888;347840;382040;292428;-1222;
2024-05-23T22:34:32.324;539697889725200977;347578;381800;292215;-1228;
2024-05-23T22:34:32.342;539697889743352066;347028;381170;291766;-1299;
2024-05-23T22:34:32.360;539697889761503155;345996;380216;291048;-1285;
2024-05-23T22:34:32.378;539697889779654244;344976;379048;290226;-1257;
2024-05-23T22:34:32.396;539697889797805333;343824;377748;289284;-1286;
2024-05-23T22:34:32.414;539697889815956422;342827;376637;288500;-1296;
2024-05-23T22:34:32.432;539697889834107511;341983;375680;287806;-1307;
2024-05-23T22:34:32.451;539697889852258600;341435;375117;287435;-1304;
2024-05-23T22:34:32.469;539697889870409689;341082;374703;287198;-1302;
2024-05-23T22:34:32.487;539697889888560778;340978;374560;287074;-1219;
2024-05-23T22:34:32.505;539697889906711867;341053;374737;287231;-1205;
2024-05-23T22:34:32.523;539697889924862956;341313;375010;287413;-1256;
2024-05-23T22:34:32.541;539697889943014045;341608;375427;287698;-1299;
2024-05-23T22:34:32.559;539697889961165134;342010;375961;287977;-1297;
2024-05-23T22:34:32.578;539697889979316223;342381;376423;288342;-1214;
2024-05-23T22:34:32.596;539697889997467312;342792;376904;288665;-1304;
2024-05-23T22:34:32.614;539697890015618401;343090;377265;289011;-1255;
2024-05-23T22:34:32.632;539697890033769490;343383;377752;289288;-1265;
2024-05-23T22:34:32.650;539697890051920579;343623;378094;289533;-1228;
2024-05-23T22:34:32.668;539697890070071668;343720;378242;289623;-1261;
2024-05-23T22:34:32.687;539697890088222757;343880;378469;289743;-1232;
2024-05-23T22:34:32.705;539697890106373846;343995;378660;289860;-1219;
2024-05-23T22:34:32.723;539697890124524935;344054;378779;289958;-1257;
2024-05-23T22:34:32.741;539697890142676024;344058;378852;289956;-1223;
2024-05-23T22:34:32.759;539697890160827113;344205;379007;290092;-1262;
2024-05-23T22:34:32.777;539697890178978202;344314;379219;290171;-1295;
2024-05-23T22:34:32.795;539697890197129291;344385;379382;290260;-1252;
2024-05-23T22:34:32.814;539697890215280380;344410;379551;290378;-1278;
2024-05-23T22:34:32.832;539697890233431469;344629;379694;290516;-1258;
2024-05-23T22:34:32.850;539697890251582558;344785;379934;290663;-1226;
2024-05-23T22:34:32.868;539697890269733158;344865;380133;290813;-1271;
2024-05-23T22:34:32.886;539697890287883738;345179;380491;291057;-1262;
2024-05-23T22:34:32.904;539697890306034318;345291;380723;291176;-1292;
2024-05-23T22:34:32.922;539697890324184898;345522;381024;291383;-1308;
2024-05-23T22:34:32.941;539697890342335478;345744;381351;291569;-1242;
2024-05-23T22:34:32.959;539697890360486058;345965;381646;291792;-1216;
2024-05-23T22:34:32.977;539697890378636638;346135;381897;291925;-1285;
2024-05-23T22:34:32.995;539697890396787218;346259;382070;292019;-1225;
2024-05-23T22:34:33.013;539697890414937798;346017;381913;291864;-1231;
2024-05-23T22:34:33.031;539697890433088378;345487;381396;291442;-1279;
2024-05-23T22:34:33.050;539697890451238958;344540;380485;290656;-1263;
2024-05-23T22:34:33.068;539697890469389538;343529;379371;289952;-1250;
2024-05-23T22:34:33.086;539697890487540118;342457;378256;289100;-1267;
2024-05-23T22:34:33.104;539697890505690698;341476;377191;288398;-1299;
2024-05-23T22:34:33.122;539697890523841278;340731;376400;287801;-1231;
2024-05-23T22:34:33.140;539697890541991858;340152;375792;287293;-1253;
2024-05-23T22:34:33.158;539697890560142438;339817;375449;287124;-1307;
2024-05-23T22:34:33.177;539697890578293018;339641;375297;287008;-1310;
2024-05-23T22:34:33.195;539697890596443598;339712;375413;287096;-1321;
2024-05-23T22:34:33.213;539697890614594178;339955;375625;287261;-1262;
2024-05-23T22:34:33.231;539697890632744758;340312;376011;287557;-1258;
2024-05-23T22:34:33.249;539697890650895338;340699;376481;287871;-1209;
2024-05-23T22:34:33.267;539697890669045918;341108;376991;288248;-1220;
2024-05-23T22:34:33.286;539697890687196498;341377;377393;288512;-1216;
2024-05-23T22:34:33.304;539697890705347078;341778;377838;288835;-1284;
2024-05-23T22:34:33.322;539697890723497658;342038;378161;289063;-1238;
2024-05-23T22:34:33.340;539697890741648238;342179;378424;289207;-1256;
2024-05-23T22:34:33.358;539697890759798818;342303;378664;289343;-1222;
2024-05-23T22:34:33.376;539697890777949398;342422;378779;289425;-1250;
2024-05-23T22:34:33.394;539697890796099978;342470;378897;289546;-1262;
2024-05-23T22:34:33.413;539697890814250558;342540;378967;289590;-1261;
2024-05-23T22:34:33.431;539697890832401138;342635;379133;289701;-1287;
2024-05-23T22:34:33.449;539697890850551718;342689;379201;289710;-1246;
2024-05-23T22:34:33.467;539697890868702298;342748;379329;289896;-1283;
2024-05-23T22:34:33.485;539697890886852878;342843;379424;289930;-1228;
2024-05-23T22:34:33.503;539697890905003478;342994;379567;290039;-1215;
2024-05-23T22:34:33.521;539697890923154058;343100;379768;290114;-1286;
2024-05-23T22:34:33.540;539697890941304638;343275;379984;290257;-1273;
2024-05-23T22:34:33.558;539697890959455218;343444;380121;290400;-1236;
2024-05-23T22:34:33.576;539697890977605798;343639;380378;290536;-1228;
2024-05-23T22:34:33.594;539697890995756378;343827;380621;290755;-1261;
2024-05-23T22:34:33.612;539697891013906958;343975;380922;290955;-1272;
2024-05-23T22:34:33.630;539697891032057538;344185;381152;291159;-1236;
2024-05-23T22:34:33.649;539697891050208118;344416;381392;291338;-1232;
2024-05-23T22:34:33.667;539697891068358698;344557;381582;291376;-1235;
2024-05-23T22:34:33.685;539697891086509278;344397;381540;291322;-1239;
2024-05-23T22:34:33.703;539697891104659858;343952;381103;291044;-1194;
2024-05-23T22:34:33.721;539697891122810438;343200;380311;290392;-1259;
2024-05-23T22:34:33.739;539697891140961018;342183;379241;289642;-1254;
2024-05-23T22:34:33.757;539697891159111598;341051;378092;288761;-1278;
2024-05-23T22:34:33.776;539697891177262178;339999;376914;287918;-1262;
2024-05-23T22:34:33.794;539697891195412758;339079;375958;287260;-1273;
2024-05-23T22:34:33.812;539697891213563338;338418;375190;286730;-1274;
2024-05-23T22:34:33.830;539697891231713918;337986;374780;286446;-1240;
2024-05-23T22:34:33.848;539697891249864498;337769;374536;286213;-1279;
2024-05-23T22:34:33.866;539697891268015078;337776;374558;286260;-1271;
2024-05-23T22:34:33.884;539697891286165658;337939;374764;286392;-1335;
2024-05-23T22:34:33.903;539697891304316238;338213;375130;286665;-1326;
2024-05-23T22:34:33.921;539697891322466818;338581;375585;286958;-1274;
2024-05-23T22:34:33.939;539697891340617398;339129;376029;287325;-1262;
2024-05-23T22:34:33.957;539697891358767978;339488;376579;287663;-1292;
2024-05-23T22:34:33.975;539697891376918558;339872;377040;287930;-1295;
2024-05-23T22:34:33.993;539697891395069138;340228;377457;288206;-1307;
2024-05-23T22:34:34.012;539697891413219718;340561;377824;288540;-1285;
2024-05-23T22:34:34.030;539697891431370298;340778;378169;288722;-1327;
2024-05-23T22:34:34.048;539697891449520878;340946;378406;288870;-1292;
2024-05-23T22:34:34.066;539697891467671458;341097;378659;288944;-1255;
2024-05-23T22:34:34.084;539697891485822038;341294;378879;289136;-1280;
2024-05-23T22:34:34.102;539697891503972618;341396;379063;289298;-1234;
2024-05-23T22:34:34.120;539697891522123198;341550;379352;289488;-1258;
2024-05-23T22:34:34.139;539697891540274626;341671;379510;289474;-1303;
2024-05-23T22:34:34.157;539697891558426054;341815;379699;289615;-1314;
2024-05-23T22:34:34.175;539697891576577482;342009;379902;289779;-1249;
2024-05-23T22:34:34.193;539697891594728910;342140;380139;289982;-1223;
2024-05-23T22:34:34.211;539697891612880338;342407;380395;290083;-1206;
2024-05-23T22:34:34.229;539697891631031766;342650;380713;290293;-1226;
2024-05-23T22:34:34.247;539697891649183194;342928;380997;290547;-1222;
2024-05-23T22:34:34.266;539697891667334622;343209;381347;290740;-1245;
2024-05-23T22:34:34.284;539697891685486050;343394;381679;290956;-1283;
2024-05-23T22:34:34.302;539697891703637478;343684;381985;291100;-1252;
2024-05-23T22:34:34.320;539697891721788906;343999;382340;291313;-1224;
2024-05-23T22:34:34.338;539697891739940334;344264;382672;291566;-1218;
2024-05-23T22:34:34.356;539697891758091762;344401;382918;291746;-1304;
2024-05-23T22:34:34.375;539697891776243190;344455;383063;291747;-1261;
2024-05-23T22:34:34.393;539697891794394618;344056;382595;291421;-1259;
2024-05-23T22:34:34.411;539697891812546046;343427;381980;290940;-1245;
2024-05-23T22:34:34.429;539697891830697474;342474;381042;290240;-1228;
2024-05-23T22:34:34.447;539697891848848902;341452;379971;289403;-1236;
2024-05-23T22:34:34.465;539697891867000330;340525;378896;288663;-1232;
2024-05-23T22:34:34.483;539697891885151758;339742;378010;287968;-1255;
2024-05-23T22:34:34.502;539697891903303186;339153;377398;287551;-1206;
2024-05-23T22:34:34.520;539697891921454614;338793;376956;287241;-1268;
2024-05-23T22:34:34.538;539697891939606042;338664;376809;287119;-1231;
2024-05-23T22:34:34.556;539697891957757470;338725;376871;287162;-1229;
2024-05-23T22:34:34.574;539697891975908898;338946;377123;287336;-1226;
2024-05-23T22:34:34.592;539697891994060326;339275;377517;287644;-1262;
2024-05-23T22:34:34.611;539697892012211754;339732;377909;288004;-1287;
2024-05-23T22:34:34.629;539697892030363182;340133;378552;288335;-1318;
2024-05-23T22:34:34.647;539697892048514610;340604;379061;288714;-1284;
2024-05-23T22:34:34.665;539697892066666038;341024;379548;289081;-1234;
2024-05-23T22:34:34.683;539697892084817466;341360;379971;289341;-1231;
2024-05-23T22:34:34.701;539697892102968894;341604;380306;289579;-1227;
2024-05-23T22:34:34.719;539697892121120322;341852;380607;289792;-1208;
2024-05-23T22:34:34.738;539697892139271750;342014;380762;289906;-1299;
2024-05-23T22:34:34.756;539697892157423178;342151;380992;290037;-1274;
2024-05-23T22:34:34.774;539697892175574606;342307;381142;290171;-1268;
2024-05-23T22:34:34.792;539697892193725206;342541;381359;290297;-1269;
2024-05-23T22:34:34.810;539697892211875786;342627;381447;290406;-1295;
2024-05-23T22:34:34.828;539697892230026366;342754;381666;290527;-1295;
2024-05-23T22:34:34.846;539697892248176946;342877;381883;290599;-1282;
2024-05-23T22:34:34.865;539697892266327526;343032;382068;290763;-1231;
2024-05-23T22:34:34.883;539697892284478106;343240;382261;290896;-1253;
2024-05-23T22:34:34.901;539697892302628686;343500;382526;291069;-1262;
2024-05-23T22:34:34.919;539697892320779266;343728;382739;291269;-1262;
2024-05-23T22:34:34.937;539697892338929846;343907;382989;291447;-1272;
2024-05-23T22:34:34.955;539697892357080426;344216;383329;291661;-1243;
2024-05-23T22:34:34.974;539697892375231006;344484;383620;291880;-1188;
2024-05-23T22:34:34.992;539697892393381586;344777;383992;292063;-1222;
2024-05-23T22:34:35.010;539697892411532166;345040;384197;292257;-1223;
2024-05-23T22:34:35.028;539697892429682746;345328;384533;292542;-1232;
2024-05-23T22:34:35.046;539697892447833326;345584;384867;292686;-1249;
2024-05-23T22:34:35.064;539697892465983906;345862;385171;292919;-1240;
2024-05-23T22:34:35.082;539697892484134486;345999;385362;293061;-1259;
2024-05-23T22:34:35.101;539697892502285066;345925;385289;293033;-1325;
2024-05-23T22:34:35.119;539697892520435646;345469;384845;292653;-1285;
2024-05-23T22:34:35.137;539697892538586226;344735;384037;291997;-1265;
2024-05-23T22:34:35.155;539697892556736806;343769;383009;291251;-1268;
2024-05-23T22:34:35.173;539697892574887386;342865;381830;290459;-1303;
2024-05-23T22:34:35.191;539697892593037966;341903;380752;289708;-1305;
2024-05-23T22:34:35.210;539697892611188546;341167;379796;289070;-1278;
2024-05-23T22:34:35.228;539697892629339126;340586;379217;288564;-1256;
2024-05-23T22:34:35.246;539697892647489706;340300;378819;288334;-1257;
2024-05-23T22:34:35.264;539697892665640286;340257;378776;288289;-1292;
2024-05-23T22:34:35.282;539697892683790866;340384;378798;288369;-1260;
2024-05-23T22:34:35.300;539697892701941446;340671;379168;288616;-1300;
2024-05-23T22:34:35.318;539697892720092026;341070;379578;288925;-1242;
2024-05-23T22:34:35.337;539697892738242606;341491;380058;289245;-1273;
2024-05-23T22:34:35.355;539697892756393186;342041;380588;289622;-1256;
2024-05-23T22:34:35.373;539697892774543766;342438;381127;289973;-1283;
2024-05-23T22:34:35.391;539697892792694346;342824;381517;290279;-1309;
2024-05-23T22:34:35.409;539697892810844926;343170;381942;290543;-1251;
2024-05-23T22:34:35.427;539697892828995506;343503;382287;290815;-1254;
2024-05-23T22:34:35.445;539697892847146086;343700;382490;290981;-1255;
2024-05-23T22:34:35.464;539697892865296686;343872;382705;291139;-1290;
2024-05-23T22:34:35.482;539697892883447266;344036;382924;291252;-1272;
2024-05-23T22:34:35.500;539697892901597846;344171;383094;291404;-1268;
2024-05-23T22:34:35.518;539697892919748426;344318;383244;291478;-1222;
2024-05-23T22:34:35.536;539697892937899006;344498;383417;291620;-1272;
2024-05-23T22:34:35.554;539697892956049586;344623;383533;291685;-1263;
2024-05-23T22:34:35.573;539697892974200166;344803;383696;291811;-1291;
2024-05-23T22:34:35.591;539697892992350746;345021;383920;291983;-1284;
2024-05-23T22:34:35.609;539697893010501326;345239;384168;292152;-1238;
2024-05-23T22:34:35.627;539697893028651906;345465;384415;292284;-1272;
2024-05-23T22:34:35.645;539697893046802486;345683;384679;292509;-1240;
2024-05-23T22:34:35.663;539697893064953066;345876;384953;292707;-1253;
2024-05-23T22:34:35.681;539697893083103646;346211;385247;292911;-1253;
2024-05-23T22:34:35.700;539697893101254226;346531;385550;293090;-1248;
2024-05-23T22:34:35.718;539697893119404806;346759;385821;293314;-1248;
2024-05-23T22:34:35.736;539697893137555386;346998;386053;293469;-1236;
2024-05-23T22:34:35.754;539697893155705966;347281;386395;293736;-1251;
2024-05-23T22:34:35.772;539697893173856546;347517;386608;293878;-1295;
2024-05-23T22:34:35.790;539697893192007126;347470;386705;293929;-1287;
2024-05-23T22:34:35.808;539697893210157706;347228;386415;293701;-1255;
2024-05-23T22:34:35.827;539697893228308286;346661;385704;293126;-1272;
2024-05-23T22:34:35.845;539697893246458866;345860;384821;292514;-1270;
2024-05-23T22:34:35.863;539697893264609446;344972;383793;291806;-1285;
2024-05-23T22:34:35.881;539697893282760026;344261;382845;291143;-1244;
2024-05-23T22:34:35.899;539697893300910606;343691;382003;290623;-1228;
2024-05-23T22:34:35.917;539697893319061186;343173;381396;290138;-1328;
2024-05-23T22:34:35.936;539697893337211766;342958;381046;289913;-1274;
2024-05-23T22:34:35.954;539697893355362346;342927;380942;289883;-1302;
2024-05-23T22:34:35.972;539697893373512926;343047;381082;289944;-1323;
2024-05-23T22:34:35.990;539697893391663506;343427;381496;290153;-1286;
2024-05-23T22:34:36.008;539697893409814086;343823;381894;290492;-1292;
2024-05-23T22:34:36.026;539697893427964666;344321;382396;290954;-1270;
2024-05-23T22:34:36.044;539697893446115246;344683;382860;291270;-1240;
2024-05-23T22:34:36.063;539697893464265826;345162;383416;291612;-1289;
2024-05-23T22:34:36.081;539697893482416406;345593;383851;291940;-1251;
2024-05-23T22:34:36.099;539697893500566986;345894;384257;292218;-1304;
2024-05-23T22:34:36.117;539697893518717566;346131;384591;292435;-1268;
2024-05-23T22:34:36.135;539697893536870116;346356;384784;292553;-1300;
2024-05-23T22:34:36.153;539697893555022634;346539;385054;292693;-1320;
2024-05-23T22:34:36.171;539697893573175152;346752;385226;292803;-1232;
2024-05-23T22:34:36.190;539697893591327670;346908;385343;292960;-1214;
2024-05-23T22:34:36.208;539697893609480188;347191;385516;293141;-1246;
2024-05-23T22:34:36.226;539697893627632706;347227;385549;293237;-1253;
2024-05-23T22:34:36.244;539697893645785224;347330;385708;293275;-1290;
2024-05-23T22:34:36.262;539697893663937742;347495;385955;293407;-1296;
2024-05-23T22:34:36.280;539697893682090260;347750;386120;293538;-1291;
2024-05-23T22:34:36.299;539697893700242778;347863;386262;293668;-1303;
2024-05-23T22:34:36.317;539697893718395296;348048;386436;293854;-1222;
2024-05-23T22:34:36.335;539697893736547814;348287;386690;294003;-1246;
2024-05-23T22:34:36.353;539697893754700332;348501;386944;294179;-1255;
2024-05-23T22:34:36.371;539697893772852850;348759;387242;294377;-1291;
2024-05-23T22:34:36.389;539697893791005368;348986;387467;294615;-1235;
2024-05-23T22:34:36.407;539697893809157886;349277;387715;294774;-1236;
2024-05-23T22:34:36.426;539697893827310404;349351;387858;294793;-1272;
2024-05-23T22:34:36.444;539697893845462922;349408;387894;294878;-1242;
2024-05-23T22:34:36.462;539697893863615440;349073;387493;294608;-1263;
2024-05-23T22:34:36.480;539697893881767958;348531;386828;294097;-1255;
2024-05-23T22:34:36.498;539697893899920476;347785;385887;293430;-1307;
2024-05-23T22:34:36.516;539697893918072994;346928;384881;292698;-1306;
2024-05-23T22:34:36.535;539697893936225512;346230;383933;292005;-1291;
2024-05-23T22:34:36.553;539697893954378030;345620;383170;291540;-1277;
2024-05-23T22:34:36.571;539697893972530548;345238;382620;291124;-1221;
2024-05-23T22:34:36.589;539697893990683066;345044;382253;290919;-1235;
2024-05-23T22:34:36.607;539697894008835584;345112;382176;290841;-1275;
2024-05-23T22:34:36.625;539697894026988102;345287;382269;291003;-1226;
2024-05-23T22:34:36.643;539697894045140620;345515;382633;291284;-1225;
2024-05-23T22:34:36.662;539697894063293138;345859;383003;291551;-1234;
2024-05-23T22:34:36.680;539697894081445656;346258;383455;291880;-1241;
2024-05-23T22:34:36.698;539697894099598174;346740;383948;292239;-1253;
2024-05-23T22:34:36.716;539697894117750692;347091;384386;292583;-1224;
2024-05-23T22:34:36.734;539697894135903210;347448;384797;292843;-1209;
2024-05-23T22:34:36.752;539697894154055728;347757;385063;293053;-1252;
2024-05-23T22:34:36.771;539697894172208246;347948;385336;293262;-1253;
2024-05-23T22:34:36.789;539697894190360764;348139;385466;293356;-1305;
2024-05-23T22:34:36.807;539697894208512886;348291;385672;293509;-1311;
2024-05-23T22:34:36.825;539697894226664992;348438;385800;293643;-1299;
2024-05-23T22:34:36.843;539697894244817098;348547;385946;293745;-1212;
2024-05-23T22:34:36.861;539697894262969204;348753;386045;293855;-1227;
2024-05-23T22:34:36.879;539697894281121310;348822;386068;293911;-1235;
2024-05-23T22:34:36.898;539697894299273416;349044;386154;294047;-1236;
2024-05-23T22:34:36.916;539697894317425522;349136;386287;294094;-1246;
2024-05-23T22:34:36.934;539697894335577628;349307;386476;294246;-1261;
2024-05-23T22:34:36.952;539697894353729734;349429;386605;294433;-1223;
2024-05-23T22:34:36.970;539697894371881840;349704;386820;294585;-1271;
2024-05-23T22:34:36.988;539697894390033946;349868;387020;294664;-1242;
2024-05-23T22:34:37.006;539697894408186052;350081;387190;294830;-1222;
2024-05-23T22:34:37.025;539697894426338158;350285;387406;294981;-1265;
2024-05-23T22:34:37.043;539697894444490264;350500;387614;295107;-1239;
2024-05-23T22:34:37.061;539697894462642370;350647;387793;295334;-1288;
2024-05-23T22:34:37.079;539697894480794476;350772;387887;295373;-1260;
2024-05-23T22:34:37.097;539697894498946582;350613;387660;295258;-1257;
2024-05-23T22:34:37.115;539697894517098688;350089;387104;294842;-1231;
2024-05-23T22:34:37.134;539697894535250794;349374;386205;294205;-1273;
2024-05-23T22:34:37.152;539697894553402900;348555;385040;293488;-1278;
2024-05-23T22:34:37.170;539697894571555006;347621;383850;292676;-1280;
2024-05-23T22:34:37.188;539697894589707112;346822;382825;291966;-1234;
2024-05-23T22:34:37.206;539697894607859218;346222;381992;291402;-1307;
2024-05-23T22:34:37.224;539697894626011324;345844;381400;291013;-1226;
2024-05-23T22:34:37.242;539697894644163430;345733;381123;290837;-1222;
2024-05-23T22:34:37.261;539697894662315536;345687;381046;290789;-1192;
2024-05-23T22:34:37.279;539697894680467642;345829;381136;290917;-1245;
2024-05-23T22:34:37.297;539697894698619748;346150;381427;291098;-1251;
2024-05-23T22:34:37.315;539697894716771854;346486;381859;291408;-1236;
2024-05-23T22:34:37.333;539697894734923960;346962;382395;291814;-1173;
2024-05-23T22:34:37.351;539697894753076066;347420;382905;292141;-1246;
2024-05-23T22:34:37.370;539697894771228172;347757;383399;292462;-1240;
2024-05-23T22:34:37.388;539697894789380278;348169;383824;292840;-1185;
2024-05-23T22:34:37.406;539697894807532384;348503;384071;293106;-1235;
2024-05-23T22:34:37.424;539697894825684490;348723;384308;293243;-1241;
2024-05-23T22:34:37.442;539697894843836596;348865;384578;293392;-1280;
2024-05-23T22:34:37.460;539697894861988702;349091;384708;293538;-1260;
2024-05-23T22:34:37.478;539697894880139986;349271;384858;293692;-1269;
2024-05-23T22:34:37.497;539697894898291244;349345;384960;293694;-1285;
2024-05-23T22:34:37.515;539697894916442502;349559;385126;293840;-1222;
2024-05-23T22:34:37.533;539697894934593760;349625;385259;293933;-1245;
2024-05-23T22:34:37.551;539697894952745018;349752;385393;294051;-1254;
2024-05-23T22:34:37.569;539697894970896276;349980;385521;294111;-1304;
2024-05-23T22:34:37.587;539697894989047534;350178;385734;294272;-1251;
2024-05-23T22:34:37.606;539697895007198792;350406;385870;294447;-1199;
2024-05-23T22:34:37.624;539697895025350050;350604;386138;294580;-1209;
2024-05-23T22:34:37.642;539697895043501308;350884;386395;294775;-1224;
2024-05-23T22:34:37.660;539697895061652566;351060;386604;294972;-1241;
2024-05-23T22:34:37.678;539697895079803824;351297;386831;295201;-1250;
2024-05-23T22:34:37.696;539697895097955082;351567;387143;295377;-1276;
2024-05-23T22:34:37.714;539697895116106340;351765;387433;295595;-1275;
2024-05-23T22:34:37.733;539697895134257598;352010;387687;295798;-1243;
2024-05-23T22:34:37.751;539697895152408856;352264;387924;295954;-1238;
2024-05-23T22:34:37.769;539697895170560114;352536;388285;296200;-1276;
2024-05-23T22:34:37.787;539697895188711372;352730;388451;296322;-1228;
2024-05-23T22:34:37.805;539697895206862630;352618;388316;296237;-1272;
2024-05-23T22:34:37.823;539697895225013888;352205;387851;295908;-1207;
2024-05-23T22:34:37.841;539697895243165146;351456;386897;295250;-1252;
2024-05-23T22:34:37.860;539697895261316404;350603;385707;294438;-1201;
2024-05-23T22:34:37.878;539697895279467662;349634;384438;293599;-1243;
2024-05-23T22:34:37.896;539697895297618920;348728;383167;292759;-1249;
2024-05-23T22:34:37.914;539697895315770178;348025;382167;292088;-1271;
2024-05-23T22:34:37.932;539697895333921436;347533;381468;291668;-1271;
2024-05-23T22:34:37.950;539697895352072694;347206;381040;291408;-1288;
2024-05-23T22:34:37.969;539697895370223952;347088;380817;291273;-1268;
2024-05-23T22:34:37.987;539697895388375210;347217;380866;291308;-1271;
2024-05-23T22:34:38.005;539697895406526468;347504;381152;291533;-1241;
2024-05-23T22:34:38.023;539697895424677726;347829;381568;291861;-1286;
2024-05-23T22:34:38.041;539697895442828984;348299;382015;292185;-1275;
2024-05-23T22:34:38.059;539697895460980242;348694;382482;292511;-1294;
2024-05-23T22:34:38.077;539697895479131500;349154;382972;292904;-1277;
2024-05-23T22:34:38.096;539697895497282758;349532;383431;293210;-1257;
2024-05-23T22:34:38.114;539697895515434016;349807;383827;293551;-1217;
2024-05-23T22:34:38.132;539697895533586130;350068;384062;293708;-1240;
2024-05-23T22:34:38.150;539697895551738236;350281;384250;293797;-1242;
2024-05-23T22:34:38.168;539697895569890342;350422;384440;293911;-1286;
2024-05-23T22:34:38.186;539697895588042448;350589;384636;294150;-1283;
2024-05-23T22:34:38.205;539697895606194554;350696;384783;294281;-1215;
2024-05-23T22:34:38.223;539697895624346660;350811;384898;294367;-1243;
2024-05-23T22:34:38.241;539697895642498766;351005;385033;294400;-1266;
2024-05-23T22:34:38.259;539697895660650872;351152;385175;294485;-1218;
2024-05-23T22:34:38.277;539697895678802978;351340;385346;294680;-1239;
2024-05-23T22:34:38.295;539697895696955084;351454;385448;294759;-1257;
2024-05-23T22:34:38.313;539697895715107190;351722;385706;294937;-1216;
2024-05-23T22:34:38.332;539697895733259296;351868;385865;295063;-1229;
2024-05-23T22:34:38.350;539697895751411402;352041;386028;295255;-1241;
2024-05-23T22:34:38.368;539697895769563508;352230;386274;295421;-1267;
2024-05-23T22:34:38.386;539697895787715614;352462;386589;295603;-1274;
2024-05-23T22:34:38.404;539697895805867720;352694;386853;295818;-1217;
2024-05-23T22:34:38.422;539697895824019826;353011;387116;296027;-1236;
2024-05-23T22:34:38.440;539697895842171932;353245;387446;296241;-1226;
2024-05-23T22:34:38.459;539697895860324038;353489;387609;296500;-1228;
2024-05-23T22:34:38.477;539697895878476144;353734;387864;296635;-1241;
2024-05-23T22:34:38.495;539697895896628250;353982;388240;296860;-1238;
2024-05-23T22:34:38.513;539697895914780356;354230;388487;297031;-1220;
2024-05-23T22:34:38.531;539697895932932462;354462;388760;297216;-1277;
2024-05-23T22:34:38.549;539697895951084568;354724;389022;297458;-1234;
2024-05-23T22:34:38.568;539697895969236674;354947;389244;297630;-1241;
2024-05-23T22:34:38.586;539697895987388780;354947;389334;297605;-1231;
2024-05-23T22:34:38.604;539697896005540886;354638;388909;297358;-1197;
2024-05-23T22:34:38.622;539697896023692992;353975;388121;296782;-1276;
2024-05-23T22:34:38.640;539697896041845098;353177;386933;296049;-1257;
2024-05-23T22:34:38.658;539697896059997204;352138;385693;295186;-1279;
2024-05-23T22:34:38.676;539697896078149310;351176;384393;294299;-1244;
2024-05-23T22:34:38.695;539697896096301416;350285;383246;293510;-1223;
2024-05-23T22:34:38.713;539697896114453522;349650;382405;293006;-1246;
2024-05-23T22:34:38.731;539697896132605628;349193;381819;292636;-1180;
2024-05-23T22:34:38.749;539697896150757734;349040;381565;292424;-1243;
2024-05-23T22:34:38.767;539697896168909840;349101;381512;292442;-1223;
2024-05-23T22:34:38.785;539697896187061946;349308;381626;292531;-1224;
2024-05-23T22:34:38.804;539697896205214052;349561;381955;292820;-1239;
2024-05-23T22:34:38.822;539697896223365356;349927;382325;293121;-1287;
2024-05-23T22:34:38.840;539697896241516637;350300;382837;293458;-1238;
2024-05-23T22:34:38.858;539697896259667918;350712;383288;293807;-1212;
2024-05-23T22:34:38.876;539697896277819199;351067;383772;294070;-1251;
2024-05-23T22:34:38.894;539697896295970480;351312;384081;294278;-1299;
2024-05-23T22:34:38.912;539697896314121761;351597;384421;294528;-1255;
2024-05-23T22:34:38.931;539697896332273042;351870;384619;294716;-1271;
2024-05-23T22:34:38.949;539697896350424323;351970;384859;294843;-1229;
2024-05-23T22:34:38.967;539697896368575604;352091;384989;294960;-1249;
2024-05-23T22:34:38.985;539697896386726885;352213;385092;295039;-1201;
2024-05-23T22:34:39.003;539697896404878166;352338;385252;295110;-1259;
2024-05-23T22:34:39.021;539697896423029447;352416;385307;295201;-1250;
2024-05-23T22:34:39.039;539697896441180728;352564;385384;295294;-1282;
2024-05-23T22:34:39.058;539697896459332009;352615;385566;295433;-1238;
2024-05-23T22:34:39.076;539697896477483290;352762;385656;295533;-1291;
2024-05-23T22:34:39.094;539697896495634571;352859;385823;295641;-1268;
2024-05-23T22:34:39.112;539697896513785852;353052;385997;295723;-1253;
2024-05-23T22:34:39.130;539697896531937133;353181;386155;295897;-1244;
2024-05-23T22:34:39.148;539697896550088414;353503;386310;296039;-1290;
2024-05-23T22:34:39.167;539697896568239695;353599;386575;296162;-1260;
2024-05-23T22:34:39.185;539697896586390976;353800;386809;296380;-1275;
2024-05-23T22:34:39.203;539697896604542257;353976;387104;296534;-1226;
2024-05-23T22:34:39.221;539697896622693538;354147;387308;296742;-1254;
2024-05-23T22:34:39.239;539697896640844819;354411;387586;296890;-1263;
2024-05-23T22:34:39.257;539697896658996100;354599;387779;297082;-1304;
2024-05-23T22:34:39.275;539697896677147381;354775;388022;297249;-1314;
2024-05-23T22:34:39.294;539697896695298662;354981;388210;297427;-1283;
2024-05-23T22:34:39.312;539697896713449943;355168;388552;297621;-1319;
2024-05-23T22:34:39.330;539697896731601224;355411;388749;297798;-1261;
2024-05-23T22:34:39.348;539697896749752505;355523;388826;297873;-1278;
2024-05-23T22:34:39.366;539697896767903786;355341;388595;297638;-1252;
2024-05-23T22:34:39.384;539697896786055067;354712;387935;297150;-1322;
2024-05-23T22:34:39.403;539697896804206348;353838;386878;296500;-1289;
2024-05-23T22:34:39.421;539697896822357629;352830;385667;295690;-1290;
2024-05-23T22:34:39.439;539697896840508910;351859;384408;294808;-1255;
2024-05-23T22:34:39.457;539697896858660191;350916;383311;294124;-1232;
2024-05-23T22:34:39.475;539697896876811472;350209;382364;293530;-1275;
2024-05-23T22:34:39.493;539697896894962288;349702;381790;293099;-1254;
2024-05-23T22:34:39.511;539697896913113086;349424;381398;292762;-1277;
2024-05-23T22:34:39.530;539697896931263884;349312;381264;292718;-1331;
2024-05-23T22:34:39.548;539697896949414682;349435;381359;292830;-1266;
2024-05-23T22:34:39.566;539697896967565480;349657;381602;292994;-1283;
2024-05-23T22:34:39.584;539697896985716278;350009;381974;293311;-1302;
2024-05-23T22:34:39.602;539697897003867076;350388;382406;293603;-1228;
2024-05-23T22:34:39.620;539697897022017874;350707;382918;293944;-1277;
2024-05-23T22:34:39.638;539697897040168672;351080;383432;294251;-1237;
2024-05-23T22:34:39.657;539697897058319470;351396;383726;294489;-1273;
2024-05-23T22:34:39.675;539697897076470268;351614;384083;294698;-1252;
2024-05-23T22:34:39.693;539697897094621066;351768;384350;294902;-1251;
2024-05-23T22:34:39.711;539697897112771864;351876;384548;295091;-1251;
2024-05-23T22:34:39.729;539697897130922662;352002;384676;295155;-1277;
2024-05-23T22:34:39.747;539697897149073460;352126;384788;295193;-1224;
2024-05-23T22:34:39.766;539697897167224258;352204;384837;295191;-1260;
2024-05-23T22:34:39.784;539697897185375056;352255;385016;295386;-1297;
2024-05-23T22:34:39.802;539697897203525854;352374;385098;295352;-1341;
2024-05-23T22:34:39.820;539697897221676652;352507;385257;295462;-1277;
2024-05-23T22:34:39.838;539697897239827450;352634;385418;295619;-1239;
2024-05-23T22:34:39.856;539697897257978248;352662;385553;295748;-1287;
2024-05-23T22:34:39.874;539697897276129046;352792;385736;295846;-1202;
2024-05-23T22:34:39.893;539697897294279844;353009;385944;296013;-1236;
2024-05-23T22:34:39.911;539697897312430642;353149;386145;296148;-1265;
2024-05-23T22:34:39.929;539697897330581440;353301;386333;296224;-1324;
2024-05-23T22:34:39.947;539697897348732238;353528;386632;296379;-1267;
2024-05-23T22:34:39.965;539697897366883036;353696;386861;296586;-1253;
2024-05-23T22:34:39.983;539697897385033834;353788;387011;296739;-1268;
2024-05-23T22:34:40.001;539697897403184632;354021;387219;296874;-1252;
2024-05-23T22:34:40.020;539697897421335430;354270;387535;297079;-1314;
2024-05-23T22:34:40.038;539697897439486228;354411;387754;297220;-1296;
2024-05-23T22:34:40.056;539697897457637026;354638;387944;297388;-1267;
2024-05-23T22:34:40.074;539697897475787824;354559;387938;297413;-1256;
2024-05-23T22:34:40.092;539697897493938622;354156;387552;297112;-1263;
2024-05-23T22:34:40.110;539697897512089420;353440;386751;296585;-1265;
2024-05-23T22:34:40.129;539697897530237252;352446;385599;295729;-1294;
2024-05-23T22:34:40.147;539697897548385069;351306;384325;294852;-1259;
2024-05-23T22:34:40.165;539697897566532886;350198;383001;293897;-1241;
2024-05-23T22:34:40.183;539697897584680703;349171;381745;293090;-1260;
2024-05-23T22:34:40.201;539697897602828520;348412;380921;292497;-1239;
2024-05-23T22:34:40.219;539697897620976337;347827;380234;292041;-1251;
2024-05-23T22:34:40.237;539697897639124154;347485;379788;291793;-1254;
2024-05-23T22:34:40.256;539697897657271971;347300;379600;291612;-1299;
2024-05-23T22:34:40.274;539697897675419788;347331;379691;291670;-1269;
2024-05-23T22:34:40.292;539697897693567605;347578;379954;291914;-1221;
2024-05-23T22:34:40.310;539697897711715422;347897;380335;292148;-1223;
2024-05-23T22:34:40.328;539697897729863239;348253;380751;292419;-1294;
2024-05-23T22:34:40.346;539697897748011056;348596;381183;292776;-1229;
2024-05-23T22:34:40.364;539697897766158873;348886;381528;293015;-1200;
2024-05-23T22:34:40.383;539697897784306690;349149;381932;293358;-1236;
2024-05-23T22:34:40.401;539697897802454507;349331;382228;293541;-1249;
2024-05-23T22:34:40.419;539697897820602324;349529;382474;293674;-1204;
2024-05-23T22:34:40.437;539697897838750141;349645;382654;293778;-1204;
2024-05-23T22:34:40.455;539697897856897958;349661;382740;293850;-1227;
2024-05-23T22:34:40.473;539697897875045775;349689;382817;293924;-1234;
2024-05-23T22:34:40.492;539697897893193592;349803;382888;294025;-1248;
2024-05-23T22:34:40.510;539697897911341409;349794;383056;294059;-1302;
2024-05-23T22:34:40.528;539697897929489226;349937;383111;294083;-1253;
2024-05-23T22:34:40.546;539697897947637043;350011;383190;294160;-1270;
2024-05-23T22:34:40.564;539697897965784860;350091;383317;294286;-1218;
2024-05-23T22:34:40.582;539697897983932677;350130;383474;294388;-1267;
2024-05-23T22:34:40.600;539697898002080494;350228;383657;294559;-1262;
2024-05-23T22:34:40.619;539697898020228311;350362;383797;294641;-1265;
2024-05-23T22:34:40.637;539697898038376128;350511;384032;294783;-1205;
2024-05-23T22:34:40.655;539697898056523945;350586;384179;294911;-1266;
2024-05-23T22:34:40.673;539697898074671762;350775;384402;295008;-1257;
2024-05-23T22:34:40.691;539697898092819579;350952;384600;295181;-1250;
2024-05-23T22:34:40.709;539697898110967396;351199;384823;295366;-1239;
2024-05-23T22:34:40.727;539697898129115213;351340;385007;295529;-1160;
2024-05-23T22:34:40.746;539697898147263030;351510;385243;295688;-1246;
2024-05-23T22:34:40.764;539697898165410847;351597;385468;295793;-1176;
2024-05-23T22:34:40.782;539697898183558664;351694;385557;295855;-1253;
2024-05-23T22:34:40.800;539697898201709576;351472;385445;295766;-1208;
2024-05-23T22:34:40.818;539697898219860461;350928;384786;295266;-1236;
2024-05-23T22:34:40.836;539697898238011346;349922;383757;294574;-1268;
2024-05-23T22:34:40.854;539697898256162231;348741;382515;293682;-1227;
2024-05-23T22:34:40.873;539697898274313116;347550;381216;292779;-1237;
2024-05-23T22:34:40.891;539697898292464001;346408;380012;291867;-1238;
2024-05-23T22:34:40.909;539697898310614886;345493;378848;291111;-1270;
2024-05-23T22:34:40.927;539697898328765771;344705;378066;290578;-1250;
2024-05-23T22:34:40.945;539697898346916656;344221;377545;290196;-1215;
2024-05-23T22:34:40.963;539697898365067541;344010;377309;290076;-1235;
2024-05-23T22:34:40.982;539697898383218426;343935;377269;290030;-1224;
2024-05-23T22:34:41.000;539697898401369311;344062;377369;290132;-1307;
2024-05-23T22:34:41.018;539697898419520196;344316;377740;290316;-1316;
2024-05-23T22:34:41.036;539697898437671081;344715;378203;290663;-1244;
2024-05-23T22:34:41.054;539697898455821966;345014;378626;290967;-1283;
2024-05-23T22:34:41.072;539697898473972851;345377;379088;291280;-1299;
2024-05-23T22:34:41.090;539697898492123736;345726;379624;291615;-1271;
2024-05-23T22:34:41.109;539697898510274621;345994;379910;291869;-1237;
2024-05-23T22:34:41.127;539697898528425506;346117;380206;292031;-1227;
2024-05-23T22:34:41.145;539697898546576391;346286;380418;292123;-1262;
2024-05-23T22:34:41.163;539697898564727276;346408;380544;292263;-1253;
2024-05-23T22:34:41.181;539697898582878161;346481;380698;292336;-1263;
2024-05-23T22:34:41.199;539697898601029046;346546;380831;292415;-1251;
2024-05-23T22:34:41.217;539697898619179931;346597;380900;292458;-1216;
2024-05-23T22:34:41.236;539697898637330816;346664;381019;292551;-1236;
2024-05-23T22:34:41.254;539697898655481701;346730;381174;292650;-1251;
2024-05-23T22:34:41.272;539697898673632586;346764;381211;292736;-1306;
2024-05-23T22:34:41.290;539697898691783471;346859;381404;292803;-1263;
2024-05-23T22:34:41.308;539697898709934356;346938;381495;292941;-1238;
2024-05-23T22:34:41.326;539697898728085241;347106;381750;293074;-1237;
2024-05-23T22:34:41.345;539697898746236126;347227;381979;293191;-1177;
2024-05-23T22:34:41.363;539697898764387011;347394;382139;293340;-1194;
2024-05-23T22:34:41.381;539697898782537896;347551;382417;293489;-1241;
2024-05-23T22:34:41.399;539697898800688781;347665;382679;293642;-1220;
2024-05-23T22:34:41.417;539697898818839666;347881;382858;293870;-1175;
2024-05-23T22:34:41.435;539697898836989508;348117;383110;294040;-1191;
2024-05-23T22:34:41.453;539697898855139347;348334;383400;294178;-1208;
2024-05-23T22:34:41.472;539697898873289186;348558;383719;294349;-1215;
2024-05-23T22:34:41.490;539697898891439025;348698;383913;294471;-1218;
2024-05-23T22:34:41.508;539697898909588864;348872;384175;294697;-1195;
2024-05-23T22:34:41.526;539697898927738703;348791;384189;294721;-1211;
2024-05-23T22:34:41.544;539697898945888542;348519;383970;294505;-1246;
2024-05-23T22:34:41.562;539697898964038381;347867;383183;293987;-1244;
2024-05-23T22:34:41.581;539697898982188220;346790;382141;293194;-1270;
2024-05-23T22:34:41.599;539697899000338059;345584;380863;292312;-1259;
2024-05-23T22:34:41.617;539697899018487898;344316;379570;291294;-1245;
2024-05-23T22:34:41.635;539697899036637737;343360;378457;290566;-1254;
2024-05-23T22:34:41.653;539697899054787576;342441;377572;289897;-1261;
2024-05-23T22:34:41.671;539697899072937415;341888;376821;289444;-1275;
2024-05-23T22:34:41.689;539697899091087254;341495;376449;289124;-1241;
2024-05-23T22:34:41.708;539697899109237093;341341;376423;289045;-1200;
2024-05-23T22:34:41.726;539697899127386932;341451;376513;289129;-1253;
2024-05-23T22:34:41.744;539697899145536771;341644;376745;289283;-1274;
2024-05-23T22:34:41.762;539697899163686610;341959;377130;289491;-1256;
2024-05-23T22:34:41.780;539697899181836449;342308;377530;289878;-1211;
2024-05-23T22:34:41.798;539697899199986288;342854;378056;290281;-1225;
2024-05-23T22:34:41.816;539697899218136127;343188;378532;290542;-1219;
2024-05-23T22:34:41.835;539697899236285966;343416;378857;290721;-1251;
2024-05-23T22:34:41.853;539697899254435805;343636;379180;290937;-1277;
2024-05-23T22:34:41.871;539697899272585644;343863;379395;291205;-1286;
2024-05-23T22:34:41.889;539697899290735483;343938;379675;291275;-1250;
2024-05-23T22:34:41.907;539697899308885322;344079;379839;291444;-1254;
2024-05-23T22:34:41.925;539697899327035161;344168;379991;291567;-1211;
2024-05-23T22:34:41.943;539697899345185000;344240;380063;291636;-1278;
2024-05-23T22:34:41.962;539697899363334839;344295;380235;291726;-1265;
2024-05-23T22:34:41.980;539697899381484678;344367;380416;291758;-1250;
2024-05-23T22:34:41.998;539697899399634517;344452;380550;291876;-1234;
2024-05-23T22:34:42.016;539697899417784356;344614;380702;291954;-1226;
2024-05-23T22:34:42.034;539697899435934195;344640;380882;291981;-1240;
2024-05-23T22:34:42.052;539697899454084034;344777;381019;292134;-1235;
2024-05-23T22:34:42.071;539697899472234504;344987;381225;292336;-1172;
2024-05-23T22:34:42.089;539697899490384967;345072;381455;292431;-1223;
2024-05-23T22:34:42.107;539697899508535430;345251;381682;292632;-1212;
2024-05-23T22:34:42.125;539697899526685893;345431;381889;292762;-1214;
2024-05-23T22:34:42.143;539697899544836356;345568;382071;292936;-1250;
2024-05-23T22:34:42.161;539697899562986819;345860;382441;293103;-1228;
2024-05-23T22:34:42.179;539697899581137282;346015;382735;293304;-1280;
2024-05-23T22:34:42.198;539697899599287745;346220;383006;293539;-1191;
2024-05-23T22:34:42.216;539697899617438208;346423;383218;293681;-1283;
2024-05-23T22:34:42.234;539697899635588671;346677;383585;293872;-1189;
2024-05-23T22:34:42.252;539697899653739134;346904;383818;294050;-1170;
2024-05-23T22:34:42.270;539697899671889597;347037;384072;294178;-1270;
2024-05-23T22:34:42.288;539697899690040060;347133;384239;294240;-1270;
2024-05-23T22:34:42.307;539697899708190523;346934;384009;294134;-1227;
2024-05-23T22:34:42.325;539697899726340986;346263;383373;293671;-1231;
2024-05-23T22:34:42.343;539697899744491449;345298;382436;292983;-1206;
2024-05-23T22:34:42.361;539697899762641912;344211;381223;292132;-1275;
2024-05-23T22:34:42.379;539697899780792375;343063;379998;291135;-1274;
2024-05-23T22:34:42.397;539697899798942838;342093;378874;290369;-1227;
2024-05-23T22:34:42.415;539697899817093301;341185;377948;289660;-1276;
2024-05-23T22:34:42.434;539697899835243764;340616;377264;289148;-1252;
2024-05-23T22:34:42.452;539697899853394227;340247;376885;288879;-1241;
2024-05-23T22:34:42.470;539697899871544690;340141;376803;288748;-1242;
2024-05-23T22:34:42.488;539697899889695153;340199;376801;288813;-1217;
2024-05-23T22:34:42.506;539697899907845616;340411;377083;289057;-1193;
2024-05-23T22:34:42.524;539697899925996079;340797;377447;289256;-1218;
2024-05-23T22:34:42.542;539697899944146542;341174;377944;289561;-1219;
2024-05-23T22:34:42.561;539697899962297005;341533;378347;289910;-1224;
2024-05-23T22:34:42.579;539697899980447468;341847;378826;290195;-1222;
2024-05-23T22:34:42.597;539697899998597931;342189;379248;290485;-1207;
2024-05-23T22:34:42.615;539697900016748394;342411;379393;290679;-1276;
2024-05-23T22:34:42.633;539697900034898857;342592;379664;290818;-1255;
2024-05-23T22:34:42.651;539697900053049320;342734;379851;290988;-1225;
2024-05-23T22:34:42.670;539697900071199783;342841;380080;291070;-1245;
2024-05-23T22:34:42.688;539697900089350246;342957;380136;291125;-1237;
2024-05-23T22:34:42.706;539697900107500709;342966;380229;291166;-1234;
2024-05-23T22:34:42.724;539697900125651172;343107;380358;291275;-1240;
2024-05-23T22:34:42.742;539697900143801635;343120;380352;291323;-1266;
2024-05-23T22:34:42.760;539697900161952098;343197;380504;291383;-1243;
2024-05-23T22:34:42.778;539697900180102114;343307;380656;291445;-1217;
2024-05-23T22:34:42.797;539697900198252107;343390;380790;291493;-1254;
2024-05-23T22:34:42.815;539697900216402100;343560;381001;291684;-1236;
2024-05-23T22:34:42.833;539697900234552093;343590;381171;291745;-1239;
2024-05-23T22:34:42.851;539697900252702086;343755;381312;291886;-1272;
2024-05-23T22:34:42.869;539697900270852079;343933;381549;292065;-1232;
2024-05-23T22:34:42.887;539697900289002072;344163;381860;292148;-1276;
2024-05-23T22:34:42.905;539697900307152065;344271;381991;292272;-1282;
2024-05-23T22:34:42.924;539697900325302058;344463;382202;292427;-1280;
2024-05-23T22:34:42.942;539697900343452051;344611;382371;292551;-1260;
2024-05-23T22:34:42.960;539697900361602044;344776;382584;292688;-1235;
2024-05-23T22:34:42.978;539697900379752037;344895;382784;292773;-1209;
2024-05-23T22:34:42.996;539697900397902030;345060;382887;292930;-1259;
2024-05-23T22:34:43.014;539697900416052023;345044;382964;292916;-1244;
2024-05-23T22:34:43.033;539697900434202016;344749;382689;292658;-1330;
2024-05-23T22:34:43.051;539697900452352009;344125;382001;292203;-1249;
2024-05-23T22:34:43.069;539697900470502002;343173;380932;291468;-1263;
2024-05-23T22:34:43.087;539697900488651995;342058;379722;290597;-1238;
2024-05-23T22:34:43.105;539697900506801988;340983;378499;289709;-1216;
2024-05-23T22:34:43.123;539697900524951981;339922;377383;288824;-1198;
2024-05-23T22:34:43.141;539697900543101974;339127;376410;288141;-1223;
2024-05-23T22:34:43.160;539697900561251967;338510;375704;287642;-1254;
2024-05-23T22:34:43.178;539697900579401960;338179;375311;287332;-1229;
2024-05-23T22:34:43.196;539697900597551953;338034;375190;287238;-1291;
2024-05-23T22:34:43.214;539697900615701946;338093;375194;287262;-1244;
2024-05-23T22:34:43.232;539697900633851939;338283;375268;287372;-1250;
2024-05-23T22:34:43.250;539697900652001932;338511;375624;287614;-1292;
2024-05-23T22:34:43.268;539697900670151925;338890;376066;287882;-1232;
2024-05-23T22:34:43.287;539697900688301918;339318;376526;288233;-1224;
2024-05-23T22:34:43.305;539697900706451911;339623;376946;288449;-1259;
2024-05-23T22:34:43.323;539697900724601904;339954;377299;288732;-1240;
2024-05-23T22:34:43.341;539697900742751897;340215;377590;288927;-1222;
2024-05-23T22:34:43.359;539697900760901890;340425;377817;289131;-1210;
2024-05-23T22:34:43.377;539697900779051883;340585;378075;289270;-1240;
2024-05-23T22:34:43.396;539697900797201876;340707;378170;289407;-1244;
2024-05-23T22:34:43.414;539697900815351869;340808;378345;289517;-1227;
2024-05-23T22:34:43.432;539697900833501862;340883;378467;289506;-1257;
2024-05-23T22:34:43.450;539697900851651855;341029;378614;289611;-1239;
2024-05-23T22:34:43.468;539697900869801848;341125;378719;289693;-1236;
2024-05-23T22:34:43.486;539697900887952236;341279;378795;289811;-1214;
2024-05-23T22:34:43.504;539697900906102610;341340;378976;289866;-1251;
2024-05-23T22:34:43.523;539697900924252984;341472;379160;290055;-1266;
2024-05-23T22:34:43.541;539697900942403358;341632;379369;290144;-1228;
2024-05-23T22:34:43.559;539697900960553732;341845;379595;290272;-1215;
2024-05-23T22:34:43.577;539697900978704106;341958;379807;290407;-1204;
2024-05-23T22:34:43.595;539697900996854480;342220;380006;290543;-1263;
2024-05-23T22:34:43.613;539697901015004854;342510;380300;290738;-1274;
2024-05-23T22:34:43.631;539697901033155228;342726;380564;290917;-1248;
2024-05-23T22:34:43.650;539697901051305602;342958;380923;291114;-1286;
2024-05-23T22:34:43.668;539697901069455976;343205;381105;291318;-1263;
2024-05-23T22:34:43.686;539697901087606350;343424;381439;291537;-1265;
2024-05-23T22:34:43.704;539697901105756724;343640;381705;291722;-1319;
2024-05-23T22:34:43.722;539697901123907098;343973;382099;291960;-1259;
2024-05-23T22:34:43.740;539697901142057472;344201;382299;292036;-1226;
2024-05-23T22:34:43.759;539697901160207846;344210;382370;292098;-1244;
2024-05-23T22:34:43.777;539697901178358220;343748;381928;291755;-1240;
2024-05-23T22:34:43.795;539697901196508594;343009;381133;291184;-1267;
2024-05-23T22:34:43.813;539697901214658968;342006;380035;290310;-1231;
2024-05-23T22:34:43.831;539697901232809342;340963;378746;289399;-1235;
2024-05-23T22:34:43.849;539697901250959716;339882;377464;288473;-1191;
2024-05-23T22:34:43.867;539697901269110090;338959;376365;287710;-1215;
2024-05-23T22:34:43.886;539697901287260464;338250;375543;287148;-1185;
2024-05-23T22:34:43.904;539697901305410838;337681;374955;286721;-1245;
2024-05-23T22:34:43.922;539697901323561212;337462;374635;286473;-1249;
2024-05-23T22:34:43.940;539697901341711586;337416;374597;286373;-1291;
2024-05-23T22:34:43.958;539697901359861960;337569;374714;286520;-1295;
2024-05-23T22:34:43.976;539697901378012334;337823;374963;286656;-1261;
2024-05-23T22:34:43.994;539697901396162708;338184;375429;286970;-1277;
2024-05-23T22:34:44.013;539697901414313082;338712;375949;287414;-1265;
2024-05-23T22:34:44.031;539697901432463456;339079;376439;287720;-1283;
2024-05-23T22:34:44.049;539697901450613830;339550;376917;288039;-1278;
2024-05-23T22:34:44.067;539697901468764204;339896;377349;288351;-1244;
2024-05-23T22:34:44.085;539697901486914578;340210;377687;288535;-1273;
2024-05-23T22:34:44.103;539697901505064952;340441;378012;288712;-1239;
2024-05-23T22:34:44.122;539697901523215326;340646;378231;288916;-1278;
2024-05-23T22:34:44.140;539697901541365700;340770;378416;289026;-1244;
2024-05-23T22:34:44.158;539697901559518314;340965;378512;289091;-1286;
2024-05-23T22:34:44.176;539697901577670915;341102;378731;289260;-1222;
2024-05-23T22:34:44.194;539697901595823516;341254;378879;289328;-1175;
2024-05-23T22:34:44.212;539697901613976117;341378;379007;289439;-1234;
2024-05-23T22:34:44.230;539697901632128718;341501;379164;289529;-1260;
2024-05-23T22:34:44.249;539697901650281319;341631;379314;289668;-1284;
2024-05-23T22:34:44.267;539697901668433920;341805;379479;289841;-1265;
2024-05-23T22:34:44.285;539697901686586521;342000;379653;289929;-1238;
2024-05-23T22:34:44.303;539697901704739122;342265;379884;290073;-1208;
2024-05-23T22:34:44.321;539697901722891723;342469;380182;290276;-1245;
2024-05-23T22:34:44.339;539697901741044324;342722;380426;290446;-1237;
2024-05-23T22:34:44.358;539697901759196925;342930;380721;290615;-1181;
2024-05-23T22:34:44.376;539697901777349526;343184;380957;290805;-1218;
2024-05-23T22:34:44.394;539697901795502127;343478;381205;291021;-1198;
2024-05-23T22:34:44.412;539697901813654728;343695;381460;291224;-1253;
2024-05-23T22:34:44.430;539697901831807329;343974;381793;291422;-1285;
2024-05-23T22:34:44.448;539697901849959930;344236;382048;291583;-1282;
2024-05-23T22:34:44.466;539697901868112531;344496;382445;291826;-1243;
2024-05-23T22:34:44.485;539697901886265132;344703;382650;291946;-1274;
2024-05-23T22:34:44.503;539697901904417733;345008;382924;292155;-1225;
2024-05-23T22:34:44.521;539697901922570334;345204;383153;292375;-1261;
2024-05-23T22:34:44.539;539697901940722935;345066;383048;292318;-1333;
2024-05-23T22:34:44.557;539697901958875536;344641;382498;291946;-1267;
2024-05-23T22:34:44.575;539697901977028137;343934;381686;291336;-1271;
2024-05-23T22:34:44.593;539697901995180738;342900;380524;290510;-1269;
2024-05-23T22:34:44.612;539697902013333339;341820;379300;289578;-1271;
2024-05-23T22:34:44.630;539697902031485940;340827;378023;288718;-1226;
2024-05-23T22:34:44.648;539697902049638541;339964;376920;288019;-1300;
2024-05-23T22:34:44.666;539697902067791142;339350;376139;287476;-1242;
2024-05-23T22:34:44.684;539697902085943743;339056;375639;287086;-1278;
2024-05-23T22:34:44.702;539697902104096344;338795;375350;286917;-1239;
2024-05-23T22:34:44.721;539697902122248945;338813;375365;286946;-1305;
2024-05-23T22:34:44.739;539697902140401546;339049;375572;287095;-1297;
2024-05-23T22:34:44.757;539697902158554147;339357;375886;287304;-1269;
2024-05-23T22:34:44.775;539697902176706748;339809;376289;287583;-1303;
2024-05-23T22:34:44.793;539697902194859349;340251;376839;287972;-1260;
2024-05-23T22:34:44.811;539697902213011950;340632;377365;288293;-1267;
2024-05-23T22:34:44.829;539697902231165449;341033;377732;288689;-1243;
2024-05-23T22:34:44.848;539697902249318920;341353;378146;288983;-1170;
2024-05-23T22:34:44.866;539697902267472391;341653;378443;289083;-1199;
2024-05-23T22:34:44.884;539697902285625862;341892;378719;289339;-1171;
2024-05-23T22:34:44.902;539697902303779333;341994;378834;289387;-1263;
2024-05-23T22:34:44.920;539697902321932804;342172;379043;289598;-1223;
2024-05-23T22:34:44.938;539697902340086275;342304;379103;289685;-1253;
2024-05-23T22:34:44.957;539697902358239746;342448;379250;289826;-1241;
2024-05-23T22:34:44.975;539697902376393217;342592;379361;289866;-1243;
2024-05-23T22:34:44.993;539697902394546688;342724;379564;289983;-1178;
2024-05-23T22:34:45.011;539697902412700159;342804;379680;290101;-1256;
2024-05-23T22:34:45.029;539697902430853630;343005;379826;290214;-1268;
2024-05-23T22:34:45.047;539697902449007101;343099;379894;290352;-1274;
2024-05-23T22:34:45.065;539697902467160572;343248;380132;290513;-1286;
2024-05-23T22:34:45.084;539697902485314043;343451;380328;290631;-1286;
2024-05-23T22:34:45.102;539697902503467514;343669;380529;290735;-1260;
2024-05-23T22:34:45.120;539697902521620985;343886;380811;290933;-1259;
2024-05-23T22:34:45.138;539697902539774456;344099;381065;291175;-1242;
2024-05-23T22:34:45.156;539697902557927927;344326;381325;291315;-1227;
2024-05-23T22:34:45.174;539697902576081398;344660;381598;291606;-1174;
2024-05-23T22:34:45.193;539697902594234869;344869;381785;291685;-1208;
2024-05-23T22:34:45.211;539697902612388340;345022;382087;291903;-1208;
2024-05-23T22:34:45.229;539697902630541811;345322;382367;292103;-1242;
2024-05-23T22:34:45.247;539697902648695282;345569;382645;292322;-1237;
2024-05-23T22:34:45.265;539697902666848753;345758;382828;292460;-1221;
2024-05-23T22:34:45.283;539697902685002224;346017;383001;292628;-1256;
2024-05-23T22:34:45.301;539697902703155695;346001;383021;292617;-1262;
2024-05-23T22:34:45.320;539697902721309166;345746;382764;292494;-1192;
2024-05-23T22:34:45.338;539697902739462637;345042;381962;291877;-1225;
2024-05-23T22:34:45.356;539697902757616108;344184;380973;291195;-1218;
2024-05-23T22:34:45.374;539697902775769579;343209;379780;290418;-1251;
2024-05-23T22:34:45.392;539697902793923050;342225;378533;289561;-1238;
2024-05-23T22:34:45.410;539697902812076521;341298;377411;288722;-1287;
2024-05-23T22:34:45.429;539697902830229992;340688;376554;288217;-1337;
2024-05-23T22:34:45.447;539697902848383463;340285;376040;287869;-1372;
2024-05-23T22:34:45.465;539697902866536934;340134;375736;287712;-1287;
2024-05-23T22:34:45.483;539697902884690405;340147;375687;287750;-1254;
2024-05-23T22:34:45.501;539697902902843876;340280;375820;287862;-1309;
2024-05-23T22:34:45.519;539697902920997849;340652;376219;288098;-1241;
2024-05-23T22:34:45.537;539697902939151802;341073;376622;288408;-1252;
2024-05-23T22:34:45.556;539697902957305755;341422;377072;288746;-1245;
2024-05-23T22:34:45.574;539697902975459708;341765;377534;289073;-1289;
2024-05-23T22:34:45.592;539697902993613661;342225;377960;289363;-1252;
2024-05-23T22:34:45.610;539697903011767614;342538;378332;289683;-1185;
2024-05-23T22:34:45.628;539697903029921567;342795;378658;289838;-1269;
2024-05-23T22:34:45.646;539697903048075520;343055;378893;290067;-1201;
2024-05-23T22:34:45.665;539697903066229473;343138;379034;290164;-1263;
2024-05-23T22:34:45.683;539697903084383426;343275;379228;290301;-1231;
2024-05-23T22:34:45.701;539697903102537379;343373;379312;290417;-1249;
2024-05-23T22:34:45.719;539697903120691332;343478;379398;290426;-1248;
2024-05-23T22:34:45.737;539697903138845285;343605;379507;290524;-1242;
2024-05-23T22:34:45.755;539697903156999238;343691;379601;290615;-1242;
2024-05-23T22:34:45.773;539697903175153191;343843;379675;290655;-1215;
2024-05-23T22:34:45.792;539697903193307144;343954;379802;290825;-1214;
2024-05-23T22:34:45.810;539697903211461097;344119;379945;290919;-1234;
2024-05-23T22:34:45.828;539697903229615050;344194;380101;291093;-1301;
2024-05-23T22:34:45.846;539697903247769003;344429;380238;291213;-1278;
2024-05-23T22:34:45.864;539697903265922956;344572;380473;291345;-1225;
2024-05-23T22:34:45.882;539697903284076909;344834;380669;291584;-1259;
2024-05-23T22:34:45.901;539697903302230862;345035;380929;291703;-1225;
2024-05-23T22:34:45.919;539697903320384815;345255;381213;291859;-1226;
2024-05-23T22:34:45.937;539697903338538768;345551;381547;292080;-1200;
2024-05-23T22:34:45.955;539697903356692721;345799;381756;292375;-1191;
2024-05-23T22:34:45.973;539697903374846674;346012;382041;292476;-1215;
2024-05-23T22:34:45.991;539697903393000627;346191;382322;292711;-1177;
2024-05-23T22:34:46.009;539697903411154580;346421;382534;292799;-1270;
2024-05-23T22:34:46.028;539697903429308533;346676;382764;293038;-1314;
2024-05-23T22:34:46.046;539697903447462486;346871;382951;293198;-1243;
2024-05-23T22:34:46.064;539697903465616439;346886;382994;293267;-1257;
2024-05-23T22:34:46.082;539697903483770392;346556;382585;292948;-1216;
2024-05-23T22:34:46.100;539697903501924345;345883;381795;292439;-1257;
2024-05-23T22:34:46.118;539697903520078298;344931;380754;291660;-1275;
2024-05-23T22:34:46.137;539697903538232251;343856;379471;290787;-1279;
2024-05-23T22:34:46.155;539697903556386204;342890;378154;289941;-1238;
2024-05-23T22:34:46.173;539697903574540157;341964;376953;289197;-1222;
2024-05-23T22:34:46.191;539697903592694110;341271;376052;288622;-1244;
2024-05-23T22:34:46.209;539697903610847102;340790;375394;288187;-1239;
2024-05-23T22:34:46.227;539697903629000080;340511;374991;287914;-1238;
2024-05-23T22:34:46.245;539697903647153058;340440;374903;287829;-1242;
2024-05-23T22:34:46.264;539697903665306036;340542;375011;287936;-1192;
2024-05-23T22:34:46.282;539697903683459014;340808;375309;288192;-1256;
2024-05-23T22:34:46.300;539697903701611992;341247;375643;288458;-1249;
2024-05-23T22:34:46.318;539697903719764970;341713;376161;288801;-1261;
2024-05-23T22:34:46.336;539697903737917948;342065;376611;289145;-1237;
2024-05-23T22:34:46.354;539697903756070926;342438;377143;289471;-1244;
2024-05-23T22:34:46.373;539697903774223904;342775;377559;289726;-1262;
2024-05-23T22:34:46.391;539697903792376882;343130;377902;290018;-1253;
2024-05-23T22:34:46.409;539697903810529860;343335;378207;290217;-1246;
2024-05-23T22:34:46.427;539697903828682838;343560;378390;290378;-1218;
2024-05-23T22:34:46.445;539697903846835816;343614;378553;290439;-1286;
2024-05-23T22:34:46.463;539697903864988794;343802;378713;290651;-1217;
2024-05-23T22:34:46.481;539697903883141772;343916;378849;290717;-1225;
2024-05-23T22:34:46.500;539697903901294750;344067;378996;290783;-1211;
2024-05-23T22:34:46.518;539697903919447728;344169;379064;290879;-1241;
2024-05-23T22:34:46.536;539697903937600706;344344;379217;290989;-1222;
2024-05-23T22:34:46.554;539697903955753684;344512;379380;291116;-1201;
2024-05-23T22:34:46.572;539697903973906662;344585;379511;291218;-1223;
2024-05-23T22:34:46.590;539697903992059640;344681;379697;291335;-1273;
2024-05-23T22:34:46.609;539697904010212618;344905;379843;291500;-1246;
2024-05-23T22:34:46.627;539697904028365596;345125;380070;291655;-1272;
2024-05-23T22:34:46.645;539697904046518574;345366;380384;291911;-1214;
2024-05-23T22:34:46.663;539697904064671552;345575;380627;292078;-1224;
2024-05-23T22:34:46.681;539697904082824530;345790;380926;292252;-1257;
2024-05-23T22:34:46.699;539697904100977508;346008;381211;292428;-1265;
2024-05-23T22:34:46.717;539697904119130486;346267;381469;292625;-1265;
2024-05-23T22:34:46.736;539697904137283464;346546;381759;292788;-1277;
2024-05-23T22:34:46.754;539697904155436442;346808;382065;292997;-1293;
2024-05-23T22:34:46.772;539697904173589420;347049;382325;293246;-1272;
2024-05-23T22:34:46.790;539697904191742398;347247;382594;293392;-1211;
2024-05-23T22:34:46.808;539697904209895376;347511;382764;293529;-1261;
2024-05-23T22:34:46.826;539697904228048354;347726;383049;293728;-1252;
2024-05-23T22:34:46.845;539697904246201062;347860;383312;293869;-1251;
2024-05-23T22:34:46.863;539697904264353745;348025;383531;294112;-1202;
2024-05-23T22:34:46.881;539697904282506428;348129;383584;294163;-1268;
2024-05-23T22:34:46.899;539697904300659111;347998;383331;293983;-1238;
2024-05-23T22:34:46.917;539697904318811794;347369;382657;293516;-1257;
2024-05-23T22:34:46.935;539697904336964477;346503;381613;292770;-1250;
2024-05-23T22:34:46.953;539697904355117160;345373;380308;291868;-1252;
2024-05-23T22:34:46.972;539697904373269843;344291;378917;290969;-1267;
2024-05-23T22:34:46.990;539697904391422526;343230;377604;290106;-1284;
2024-05-23T22:34:47.008;539697904409575209;342403;376485;289427;-1267;
2024-05-23T22:34:47.026;539697904427727892;341815;375687;288898;-1229;
2024-05-23T22:34:47.044;539697904445880575;341437;375150;288583;-1310;
2024-05-23T22:34:47.062;539697904464033258;341282;374959;288480;-1279;
2024-05-23T22:34:47.080;539697904482185941;341313;374940;288456;-1270;
2024-05-23T22:34:47.099;539697904500338624;341461;375129;288600;-1254;
2024-05-23T22:34:47.117;539697904518491307;341806;375465;288902;-1252;
2024-05-23T22:34:47.135;539697904536643990;342191;375874;289206;-1291;
2024-05-23T22:34:47.153;539697904554796673;342676;376388;289514;-1317;
2024-05-23T22:34:47.171;539697904572949356;343117;376863;289912;-1283;
2024-05-23T22:34:47.189;539697904591102039;343405;377314;290239;-1293;
2024-05-23T22:34:47.208;539697904609254722;343638;377712;290466;-1308;
2024-05-23T22:34:47.226;539697904627407405;343892;377975;290655;-1313;
2024-05-23T22:34:47.244;539697904645560088;344107;378157;290809;-1288;
2024-05-23T22:34:47.262;539697904663712771;344241;378345;290979;-1238;
2024-05-23T22:34:47.280;539697904681865454;344397;378525;291097;-1215;
2024-05-23T22:34:47.298;539697904700018137;344484;378607;291133;-1252;
2024-05-23T22:34:47.316;539697904718170820;344630;378755;291241;-1176;
2024-05-23T22:34:47.335;539697904736323503;344669;378869;291334;-1221;
2024-05-23T22:34:47.353;539697904754476186;344710;378921;291359;-1274;
2024-05-23T22:34:47.371;539697904772628869;344902;379067;291475;-1218;
2024-05-23T22:34:47.389;539697904790781552;345033;379194;291657;-1283;
2024-05-23T22:34:47.407;539697904808934235;345181;379382;291742;-1260;
2024-05-23T22:34:47.425;539697904827086918;345310;379512;291838;-1266;
2024-05-23T22:34:47.444;539697904845239601;345516;379750;291983;-1251;
2024-05-23T22:34:47.462;539697904863392284;345688;379950;292170;-1239;
2024-05-23T22:34:47.480;539697904881544967;345956;380269;292414;-1219;
2024-05-23T22:34:47.498;539697904899697650;346139;380573;292547;-1255;
2024-05-23T22:34:47.516;539697904917850622;346348;380743;292703;-1276;
2024-05-23T22:34:47.534;539697904936003589;346594;381044;292843;-1259;
2024-05-23T22:34:47.552;539697904954156556;346831;381389;293108;-1237;
2024-05-23T22:34:47.571;539697904972309523;347065;381631;293264;-1278;
2024-05-23T22:34:47.589;539697904990462490;347293;381973;293497;-1244;
2024-05-23T22:34:47.607;539697905008615457;347543;382230;293688;-1262;
2024-05-23T22:34:47.625;539697905026768424;347714;382449;293868;-1271;
2024-05-23T22:34:47.643;539697905044921391;347995;382739;294056;-1239;
2024-05-23T22:34:47.661;539697905063074358;348217;383056;294280;-1292;
2024-05-23T22:34:47.680;539697905081227325;348491;383306;294441;-1307;
2024-05-23T22:34:47.698;539697905099380292;348634;383476;294614;-1276;
2024-05-23T22:34:47.716;539697905117533259;348942;383750;294754;-1233;
2024-05-23T22:34:47.734;539697905135686226;349078;383904;294864;-1224;
2024-05-23T22:34:47.752;539697905153839193;349015;383961;294888;-1251;
2024-05-23T22:34:47.770;539697905171992160;348641;383607;294645;-1223;
2024-05-23T22:34:47.788;539697905190145127;347996;382756;294027;-1259;
2024-05-23T22:34:47.807;539697905208298094;347019;381581;293256;-1236;
2024-05-23T22:34:47.825;539697905226451061;345927;380364;292408;-1184;
2024-05-23T22:34:47.843;539697905244604028;344870;379066;291483;-1246;
2024-05-23T22:34:47.861;539697905262756995;343943;377809;290695;-1273;
2024-05-23T22:34:47.879;539697905280909962;343167;376917;290059;-1232;
2024-05-23T22:34:47.897;539697905299062929;342691;376225;289598;-1267;
2024-05-23T22:34:47.916;539697905317215896;342300;375846;289362;-1284;
2024-05-23T22:34:47.934;539697905335368863;342285;375828;289388;-1249;
2024-05-23T22:34:47.952;539697905353521830;342300;375889;289358;-1272;
2024-05-23T22:34:47.970;539697905371674797;342577;376079;289519;-1271;
2024-05-23T22:34:47.988;539697905389827764;342943;376516;289869;-1254;
2024-05-23T22:34:48.006;539697905407980731;343291;377007;290206;-1243;
2024-05-23T22:34:48.024;539697905426133698;343719;377362;290532;-1214;
2024-05-23T22:34:48.043;539697905444286665;344024;377839;290858;-1224;
2024-05-23T22:34:48.061;539697905462439632;344315;378229;291056;-1258;
2024-05-23T22:34:48.079;539697905480592599;344563;378551;291253;-1293;
2024-05-23T22:34:48.097;539697905498745566;344759;378784;291439;-1223;
2024-05-23T22:34:48.115;539697905516898533;344881;378986;291567;-1216;
2024-05-23T22:34:48.133;539697905535051500;344966;379124;291649;-1191;
2024-05-23T22:34:48.152;539697905553204467;345049;379233;291711;-1259;
2024-05-23T22:34:48.170;539697905571357434;345093;379277;291795;-1256;
2024-05-23T22:34:48.188;539697905589510401;345172;379375;291831;-1294;
2024-05-23T22:34:48.206;539697905607663368;345256;379482;291890;-1276;
2024-05-23T22:34:48.224;539697905625817012;345264;379515;291892;-1330;
2024-05-23T22:34:48.242;539697905643970644;345373;379643;291982;-1313;
2024-05-23T22:34:48.260;539697905662124276;345554;379778;292060;-1253;
2024-05-23T22:34:48.279;539697905680277908;345625;379854;292179;-1283;
2024-05-23T22:34:48.297;539697905698431540;345759;380077;292307;-1237;
2024-05-23T22:34:48.315;539697905716585172;345900;380277;292449;-1204;
2024-05-23T22:34:48.333;539697905734738804;346089;380544;292584;-1237;
2024-05-23T22:34:48.351;539697905752892436;346358;380775;292788;-1218;
2024-05-23T22:34:48.369;539697905771046068;346527;380980;292938;-1306;
2024-05-23T22:34:48.388;539697905789199700;346662;381292;293100;-1286;
2024-05-23T22:34:48.406;539697905807353332;346874;381459;293308;-1292;
2024-05-23T22:34:48.424;539697905825506964;347134;381744;293494;-1312;
2024-05-23T22:34:48.442;539697905843660596;347379;381988;293718;-1245;
2024-05-23T22:34:48.460;539697905861814228;347587;382351;293871;-1253;
2024-05-23T22:34:48.478;539697905879967860;347782;382656;294046;-1278;
2024-05-23T22:34:48.496;539697905898121492;347999;382882;294267;-1208;
2024-05-23T22:34:48.515;539697905916275124;348263;383076;294309;-1293;
2024-05-23T22:34:48.533;539697905934428756;348448;383374;294538;-1306;
2024-05-23T22:34:48.551;539697905952582388;348626;383612;294652;-1271;
2024-05-23T22:34:48.569;539697905970736020;348751;383847;294858;-1239;
2024-05-23T22:34:48.587;539697905988889652;348658;383832;294858;-1265;
2024-05-23T22:34:48.605;539697906007043284;348340;383451;294549;-1268;
2024-05-23T22:34:48.624;539697906025196916;347644;382664;293980;-1302;
2024-05-23T22:34:48.642;539697906043350548;346753;381576;293168;-1278;
2024-05-23T22:34:48.660;539697906061504180;345589;380273;292289;-1324;
2024-05-23T22:34:48.678;539697906079657812;344418;378997;291389;-1258;
2024-05-23T22:34:48.696;539697906097811444;343373;377772;290536;-1291;
2024-05-23T22:34:48.714;539697906115965076;342625;376748;289854;-1314;
2024-05-23T22:34:48.732;539697906134118708;342114;376128;289441;-1231;
2024-05-23T22:34:48.751;539697906152272340;341691;375701;289154;-1296;
2024-05-23T22:34:48.769;539697906170425972;341574;375572;289019;-1285;
2024-05-23T22:34:48.787;539697906188579604;341633;375624;289142;-1250;
2024-05-23T22:34:48.805;539697906206733236;341838;375876;289280;-1269;
2024-05-23T22:34:48.823;539697906224886868;342189;376294;289598;-1256;
2024-05-23T22:34:48.841;539697906243040500;342559;376766;289844;-1304;
2024-05-23T22:34:48.860;539697906261194132;343005;377223;290158;-1320;
2024-05-23T22:34:48.878;539697906279347764;343367;377701;290531;-1244;
2024-05-23T22:34:48.896;539697906297500956;343672;378042;290713;-1261;
2024-05-23T22:34:48.914;539697906315654118;343854;378320;290939;-1262;
2024-05-23T22:34:48.932;539697906333807280;344079;378600;291149;-1299;
2024-05-23T22:34:48.950;539697906351960442;344240;378795;291236;-1258;
2024-05-23T22:34:48.968;539697906370113604;344291;378945;291354;-1279;
2024-05-23T22:34:48.987;539697906388266766;344381;379128;291429;-1270;
2024-05-23T22:34:49.005;539697906406419928;344470;379201;291456;-1297;
2024-05-23T22:34:49.023;539697906424573090;344526;379300;291487;-1309;
2024-05-23T22:34:49.041;539697906442726252;344603;379447;291640;-1228;
2024-05-23T22:34:49.059;539697906460879414;344641;379532;291667;-1282;
2024-05-23T22:34:49.077;539697906479032576;344790;379634;291753;-1299;
2024-05-23T22:34:49.095;539697906497185738;344840;379769;291858;-1293;
2024-05-23T22:34:49.114;539697906515338900;344962;379964;291997;-1282;
2024-05-23T22:34:49.132;539697906533492062;345123;380171;292124;-1251;
2024-05-23T22:34:49.150;539697906551645224;345245;380300;292147;-1342;
2024-05-23T22:34:49.168;539697906569798386;345455;380529;292380;-1259;
2024-05-23T22:34:49.186;539697906587951548;345653;380794;292507;-1233;
2024-05-23T22:34:49.204;539697906606104710;345839;381048;292715;-1256;
2024-05-23T22:34:49.223;539697906624257872;346068;381300;292940;-1226;
2024-05-23T22:34:49.241;539697906642411034;346280;381621;293073;-1252;
2024-05-23T22:34:49.259;539697906660564196;346460;381856;293226;-1257;
2024-05-23T22:34:49.277;539697906678717358;346670;382134;293380;-1203;
2024-05-23T22:34:49.295;539697906696870520;346838;382406;293544;-1257;
2024-05-23T22:34:49.313;539697906715023682;347081;382623;293702;-1259;
2024-05-23T22:34:49.331;539697906733176844;347332;382891;293884;-1194;
2024-05-23T22:34:49.350;539697906751330006;347490;383280;294144;-1173;
2024-05-23T22:34:49.368;539697906769483168;347741;383479;294301;-1235;
2024-05-23T22:34:49.386;539697906787636330;347902;383637;294379;-1227;
2024-05-23T22:34:49.404;539697906805789492;347966;383809;294578;-1269;
2024-05-23T22:34:49.422;539697906823942654;347825;383722;294392;-1258;
2024-05-23T22:34:49.440;539697906842095816;347363;383173;294014;-1228;
2024-05-23T22:34:49.459;539697906860248978;346501;382271;293381;-1268;
2024-05-23T22:34:49.477;539697906878402140;345402;380975;292463;-1233;
2024-05-23T22:34:49.495;539697906896555302;344198;379695;291497;-1275;
2024-05-23T22:34:49.513;539697906914708464;343003;378353;290564;-1290;
2024-05-23T22:34:49.531;539697906932861626;341971;377143;289681;-1274;
2024-05-23T22:34:49.549;539697906951014788;341191;376252;289067;-1226;
2024-05-23T22:34:49.567;539697906969167950;340635;375559;288538;-1266;
2024-05-23T22:34:49.586;539697906987321112;340317;375199;288274;-1252;
2024-05-23T22:34:49.604;539697907005473234;340267;375092;288242;-1270;
2024-05-23T22:34:49.622;539697907023625340;340346;375222;288296;-1227;
2024-05-23T22:34:49.640;539697907041777446;340580;375488;288502;-1229;
2024-05-23T22:34:49.658;539697907059929552;340870;375882;288697;-1248;
2024-05-23T22:34:49.676;539697907078081658;341362;376335;289047;-1239;
2024-05-23T22:34:49.695;539697907096233764;341718;376894;289448;-1328;
2024-05-23T22:34:49.713;539697907114385870;342134;377324;289750;-1279;
2024-05-23T22:34:49.731;539697907132537976;342458;377772;290041;-1246;
2024-05-23T22:34:49.749;539697907150690082;342745;378061;290237;-1267;
2024-05-23T22:34:49.767;539697907168842188;342916;378340;290437;-1267;
2024-05-23T22:34:49.785;539697907186994294;343081;378618;290612;-1253;
2024-05-23T22:34:49.803;539697907205146400;343238;378808;290777;-1236;
2024-05-23T22:34:49.822;539697907223298506;343298;378938;290796;-1224;
2024-05-23T22:34:49.840;539697907241450612;343375;379054;290835;-1220;
2024-05-23T22:34:49.858;539697907259602718;343408;379115;290870;-1244;
2024-05-23T22:34:49.876;539697907277754824;343554;379292;291022;-1259;
2024-05-23T22:34:49.894;539697907295906930;343648;379423;291071;-1285;
2024-05-23T22:34:49.912;539697907314059036;343715;379583;291171;-1282;
2024-05-23T22:34:49.931;539697907332211142;343827;379731;291265;-1187;
2024-05-23T22:34:49.949;539697907350363248;343938;379899;291361;-1237;
2024-05-23T22:34:49.967;539697907368515354;344128;380186;291484;-1229;
2024-05-23T22:34:49.985;539697907386667460;344276;380402;291663;-1226;
2024-05-23T22:34:50.003;539697907404819566;344481;380626;291778;-1225;
2024-05-23T22:34:50.021;539697907422971672;344666;380905;291966;-1267;
2024-05-23T22:34:50.039;539697907441123778;344867;381134;292161;-1233;
2024-05-23T22:34:50.058;539697907459275884;345149;381391;292331;-1274;
2024-05-23T22:34:50.076;539697907477427990;345312;381659;292474;-1201;
2024-05-23T22:34:50.094;539697907495580096;345588;381914;292681;-1234;
2024-05-23T22:34:50.112;539697907513732202;345826;382207;292776;-1277;
2024-05-23T22:34:50.130;539697907531884308;345980;382493;293003;-1243;
2024-05-23T22:34:50.148;539697907550036414;346215;382803;293181;-1234;
2024-05-23T22:34:50.167;539697907568188520;346481;383007;293396;-1261;
2024-05-23T22:34:50.185;539697907586340626;346621;383303;293568;-1293;
2024-05-23T22:34:50.203;539697907604492732;346830;383549;293707;-1289;
2024-05-23T22:34:50.221;539697907622644838;347051;383795;293876;-1209;
2024-05-23T22:34:50.239;539697907640796944;347246;384039;294046;-1226;
2024-05-23T22:34:50.257;539697907658949050;347402;384189;294199;-1263;
2024-05-23T22:34:50.275;539697907677101156;347461;384325;294312;-1251;
2024-05-23T22:34:50.294;539697907695253278;347208;384130;294099;-1300;
2024-05-23T22:34:50.312;539697907713405384;346583;383448;293562;-1267;
2024-05-23T22:34:50.330;539697907731557490;345687;382419;292790;-1256;
2024-05-23T22:34:50.348;539697907749709596;344545;381235;291895;-1255;
2024-05-23T22:34:50.366;539697907767861702;343300;379909;290885;-1235;
2024-05-23T22:34:50.384;539697907786013808;342232;378675;290039;-1241;
2024-05-23T22:34:50.402;539697907804165914;341274;377577;289198;-1255;
2024-05-23T22:34:50.421;539697907822318020;340628;376750;288642;-1240;
2024-05-23T22:34:50.439;539697907840470126;340190;376211;288185;-1216;
2024-05-23T22:34:50.457;539697907858622232;339945;375886;287984;-1272;
2024-05-23T22:34:50.475;539697907876774338;340023;375882;288056;-1272;
2024-05-23T22:34:50.493;539697907894926444;340099;376059;288125;-1279;
2024-05-23T22:34:50.511;539697907913078550;340393;376488;288345;-1249;
2024-05-23T22:34:50.530;539697907931230656;340817;376925;288733;-1182;
2024-05-23T22:34:50.548;539697907949382762;341230;377396;289026;-1228;
2024-05-23T22:34:50.566;539697907967534868;341646;377884;289375;-1243;
2024-05-23T22:34:50.584;539697907985686974;341998;378364;289712;-1203;
2024-05-23T22:34:50.602;539697908003839080;342350;378777;289961;-1192;
2024-05-23T22:34:50.620;539697908021991186;342616;379078;290115;-1263;
2024-05-23T22:34:50.638;539697908040143292;342831;379318;290349;-1245;
2024-05-23T22:34:50.657;539697908058295398;343009;379552;290497;-1250;
2024-05-23T22:34:50.675;539697908076447504;343139;379757;290479;-1277;
2024-05-23T22:34:50.693;539697908094599610;343257;379911;290628;-1228;
2024-05-23T22:34:50.711;539697908112751716;343232;380044;290714;-1246;
2024-05-23T22:34:50.729;539697908130903822;343355;380176;290827;-1262;
2024-05-23T22:34:50.747;539697908149055928;343425;380259;290893;-1313;
2024-05-23T22:34:50.766;539697908167208034;343464;380417;290941;-1235;
2024-05-23T22:34:50.784;539697908185360140;343672;380549;291059;-1239;
2024-05-23T22:34:50.802;539697908203512246;343822;380767;291202;-1235;
2024-05-23T22:34:50.820;539697908221664352;343920;380940;291249;-1256;
2024-05-23T22:34:50.838;539697908239816458;344144;381208;291441;-1292;
2024-05-23T22:34:50.856;539697908257968564;344283;381441;291609;-1287;
2024-05-23T22:34:50.874;539697908276120670;344541;381662;291797;-1231;
2024-05-23T22:34:50.893;539697908294272776;344768;381946;291939;-1273;
2024-05-23T22:34:50.911;539697908312424882;344982;382197;292141;-1328;
2024-05-23T22:34:50.929;539697908330576988;345294;382553;292380;-1283;
2024-05-23T22:34:50.947;539697908348729094;345546;382853;292565;-1290;
2024-05-23T22:34:50.965;539697908366881200;345788;383197;292796;-1244;
2024-05-23T22:34:50.983;539697908385033306;346075;383505;292990;-1272;
2024-05-23T22:34:51.001;539697908403185428;346274;383809;293243;-1273;
2024-05-23T22:34:51.020;539697908421337534;346457;384040;293420;-1309;
2024-05-23T22:34:51.038;539697908439489640;346736;384285;293553;-1232;
2024-05-23T22:34:51.056;539697908457641746;346954;384618;293795;-1257;
2024-05-23T22:34:51.074;539697908475793852;347233;384927;294005;-1231;
2024-05-23T22:34:51.092;539697908493945958;347386;385165;294141;-1261;
2024-05-23T22:34:51.110;539697908512098064;347618;385426;294350;-1229;
2024-05-23T22:34:51.129;539697908530250170;347773;385671;294468;-1220;
2024-05-23T22:34:51.147;539697908548402276;347742;385618;294495;-1212;
2024-05-23T22:34:51.165;539697908566554382;347291;385186;294155;-1237;
2024-05-23T22:34:51.183;539697908584706488;346574;384426;293570;-1251;
2024-05-23T22:34:51.201;539697908602858594;345649;383451;292730;-1271;
2024-05-23T22:34:51.219;539697908621010700;344584;382165;291817;-1261;
2024-05-23T22:34:51.237;539697908639162806;343551;380941;290991;-1258;
2024-05-23T22:34:51.256;539697908657314912;342641;379864;290202;-1212;
2024-05-23T22:34:51.274;539697908675467018;341997;379034;289613;-1219;
2024-05-23T22:34:51.292;539697908693619124;341514;378532;289207;-1268;
2024-05-23T22:34:51.310;539697908711771230;341291;378219;288964;-1268;
2024-05-23T22:34:51.328;539697908729923336;341267;378156;288944;-1295;
2024-05-23T22:34:51.346;539697908748075442;341451;378300;289049;-1268;
2024-05-23T22:34:51.365;539697908766227548;341706;378651;289248;-1215;
2024-05-23T22:34:51.383;539697908784379654;342041;379038;289511;-1217;
2024-05-23T22:34:51.401;539697908802531760;342370;379430;289795;-1299;
2024-05-23T22:34:51.419;539697908820683866;342812;379958;290175;-1215;
2024-05-23T22:34:51.437;539697908838835972;343126;380365;290468;-1293;
2024-05-23T22:34:51.455;539697908856988078;343462;380711;290691;-1267;
2024-05-23T22:34:51.473;539697908875140184;343778;381095;290970;-1205;
2024-05-23T22:34:51.492;539697908893292290;343956;381329;291106;-1268;
2024-05-23T22:34:51.510;539697908911444396;344131;381509;291300;-1284;
2024-05-23T22:34:51.528;539697908929596502;344243;381616;291309;-1274;
2024-05-23T22:34:51.546;539697908947748608;344434;381799;291476;-1250;
2024-05-23T22:34:51.564;539697908965900714;344431;381864;291532;-1283;
2024-05-23T22:34:51.582;539697908984052820;344495;381955;291556;-1300;
2024-05-23T22:34:51.601;539697909002204926;344601;382058;291603;-1304;
2024-05-23T22:34:51.619;539697909020357032;344700;382193;291732;-1268;
2024-05-23T22:34:51.637;539697909038508316;344802;382346;291846;-1260;
2024-05-23T22:34:51.655;539697909056659574;344932;382431;291937;-1268;
2024-05-23T22:34:51.673;539697909074810832;345057;382601;292025;-1268;
2024-05-23T22:34:51.691;539697909092962090;345203;382756;292107;-1294;
2024-05-23T22:34:51.709;539697909111113348;345336;382998;292232;-1300;
2024-05-23T22:34:51.728;539697909129264606;345541;383193;292367;-1241;
2024-05-23T22:34:51.746;539697909147415864;345725;383484;292575;-1228;
2024-05-23T22:34:51.764;539697909165567122;345934;383628;292729;-1290;
2024-05-23T22:34:51.782;539697909183718380;346107;383961;292898;-1260;
2024-05-23T22:34:51.800;539697909201869638;346370;384200;293106;-1260;
2024-05-23T22:34:51.818;539697909220020896;346593;384459;293304;-1302;
2024-05-23T22:34:51.836;539697909238172154;346874;384833;293523;-1272;
2024-05-23T22:34:51.855;539697909256323412;347086;385063;293614;-1240;
2024-05-23T22:34:51.873;539697909274474670;347318;385295;293812;-1235;
2024-05-23T22:34:51.891;539697909292625928;347482;385584;294005;-1288;
2024-05-23T22:34:51.909;539697909310777186;347723;385841;294277;-1228;
2024-05-23T22:34:51.927;539697909328928444;347918;385989;294337;-1282;
2024-05-23T22:34:51.945;539697909347079702;347824;385955;294314;-1306;
2024-05-23T22:34:51.964;539697909365230960;347341;385538;293971;-1310;
2024-05-23T22:34:51.982;539697909383382218;346660;384672;293331;-1309;
2024-05-23T22:34:52.000;539697909401533476;345706;383625;292579;-1251;
2024-05-23T22:34:52.018;539697909419684734;344748;382501;291763;-1276;
2024-05-23T22:34:52.036;539697909437835992;343800;381271;290945;-1283;
2024-05-23T22:34:52.054;539697909455987250;342913;380278;290181;-1257;
2024-05-23T22:34:52.072;539697909474138508;342317;379476;289671;-1285;
2024-05-23T22:34:52.091;539697909492289766;341848;378937;289296;-1289;
2024-05-23T22:34:52.109;539697909510441024;341643;378737;289146;-1241;
2024-05-23T22:34:52.127;539697909528592282;341686;378678;289127;-1271;
2024-05-23T22:34:52.145;539697909546743540;341807;378744;289261;-1250;
2024-05-23T22:34:52.163;539697909564894798;342047;379024;289425;-1265;
2024-05-23T22:34:52.181;539697909583046056;342402;379407;289682;-1301;
2024-05-23T22:34:52.200;539697909601197314;342799;379894;290033;-1236;
2024-05-23T22:34:52.218;539697909619348572;343235;380348;290363;-1278;
2024-05-23T22:34:52.236;539697909637499830;343534;380773;290656;-1270;
2024-05-23T22:34:52.254;539697909655651088;343922;381085;290938;-1282;
2024-05-23T22:34:52.272;539697909673802346;344092;381393;291108;-1286;
2024-05-23T22:34:52.290;539697909691955267;344313;381612;291260;-1276;
2024-05-23T22:34:52.308;539697909710108176;344445;381835;291420;-1267;
2024-05-23T22:34:52.327;539697909728261085;344539;381911;291489;-1249;
2024-05-23T22:34:52.345;539697909746413994;344640;382044;291541;-1296;
2024-05-23T22:34:52.363;539697909764566903;344789;382074;291608;-1308;
2024-05-23T22:34:52.381;539697909782719812;344888;382251;291662;-1265;
2024-05-23T22:34:52.399;539697909800872721;344992;382331;291777;-1207;
2024-05-23T22:34:52.417;539697909819025630;345040;382417;291811;-1242;
2024-05-23T22:34:52.435;539697909837178539;345138;382475;291898;-1248;
2024-05-23T22:34:52.454;539697909855331448;345232;382647;292058;-1273;
2024-05-23T22:34:52.472;539697909873484357;345364;382717;292104;-1270;
2024-05-23T22:34:52.490;539697909891637266;345508;382953;292284;-1248;
2024-05-23T22:34:52.508;539697909909790175;345700;383106;292419;-1284;
2024-05-23T22:34:52.526;539697909927943084;345863;383346;292540;-1237;
2024-05-23T22:34:52.544;539697909946095993;346025;383579;292763;-1228;
2024-05-23T22:34:52.563;539697909964248902;346245;383758;292894;-1267;
2024-05-23T22:34:52.581;539697909982401811;346510;384002;293084;-1270;
2024-05-23T22:34:52.599;539697910000554720;346721;384281;293319;-1275;
2024-05-23T22:34:52.617;539697910018707629;346914;384507;293432;-1285;
2024-05-23T22:34:52.635;539697910036860538;347158;384720;293565;-1316;
2024-05-23T22:34:52.653;539697910055013447;347277;384874;293694;-1279;
2024-05-23T22:34:52.671;539697910073166356;347462;385015;293820;-1308;
2024-05-23T22:34:52.690;539697910091319265;347424;385070;293878;-1249;
2024-05-23T22:34:52.708;539697910109472174;347073;384676;293562;-1299;
2024-05-23T22:34:52.726;539697910127625083;346431;383816;292980;-1269;
2024-05-23T22:34:52.744;539697910145777992;345523;382770;292289;-1274;
2024-05-23T22:34:52.762;539697910163930901;344483;381474;291393;-1214;
2024-05-23T22:34:52.780;539697910182083810;343383;380208;290474;-1210;
2024-05-23T22:34:52.799;539697910200236719;342435;379106;289696;-1245;
2024-05-23T22:34:52.817;539697910218389628;341684;378057;289113;-1272;
2024-05-23T22:34:52.835;539697910236542537;341199;377433;288649;-1269;
2024-05-23T22:34:52.853;539697910254695446;340922;376985;288409;-1240;
2024-05-23T22:34:52.871;539697910272848355;340874;376819;288277;-1305;
2024-05-23T22:34:52.889;539697910291001264;340988;376847;288400;-1278;
2024-05-23T22:34:52.907;539697910309154173;341259;377136;288614;-1258;
2024-05-23T22:34:52.926;539697910327307082;341565;377450;288816;-1276;
2024-05-23T22:34:52.944;539697910345459991;341927;377897;289130;-1296;
2024-05-23T22:34:52.962;539697910363612900;342297;378338;289475;-1292;
2024-05-23T22:34:52.980;539697910381765829;342667;378748;289762;-1331;
2024-05-23T22:34:52.998;539697910399918738;343030;379118;290090;-1304;
2024-05-23T22:34:53.016;539697910418071647;343319;379461;290303;-1233;
2024-05-23T22:34:53.035;539697910436224556;343470;379650;290430;-1335;
2024-05-23T22:34:53.053;539697910454377465;343665;379850;290656;-1307;
2024-05-23T22:34:53.071;539697910472530374;343722;379984;290746;-1287;
2024-05-23T22:34:53.089;539697910490683283;343855;380147;290845;-1293;
2024-05-23T22:34:53.107;539697910508836192;343915;380190;290858;-1256;
2024-05-23T22:34:53.125;539697910526989101;343989;380241;290936;-1290;
2024-05-23T22:34:53.143;539697910545142010;344095;380290;291013;-1235;
2024-05-23T22:34:53.162;539697910563294919;344191;380396;291064;-1229;
2024-05-23T22:34:53.180;539697910581447828;344315;380504;291196;-1292;
2024-05-23T22:34:53.198;539697910599600737;344377;380565;291298;-1255;
2024-05-23T22:34:53.216;539697910617753646;344526;380734;291352;-1284;
2024-05-23T22:34:53.234;539697910635906555;344664;380878;291525;-1260;
2024-05-23T22:34:53.252;539697910654059464;344784;381082;291626;-1283;
2024-05-23T22:34:53.271;539697910672212373;345040;381304;291854;-1275;
2024-05-23T22:34:53.289;539697910690365282;345230;381590;291987;-1290;
2024-05-23T22:34:53.307;539697910708518191;345445;381724;292123;-1309;
2024-05-23T22:34:53.325;539697910726671100;345676;381997;292321;-1231;
2024-05-23T22:34:53.343;539697910744824009;345833;382161;292424;-1300;
2024-05-23T22:34:53.361;539697910762976918;346073;382398;292763;-1265;
2024-05-23T22:34:53.379;539697910781129827;346266;382633;292838;-1273;
2024-05-23T22:34:53.398;539697910799282736;346439;382812;293034;-1272;
2024-05-23T22:34:53.416;539697910817435645;346512;382846;293026;-1266;
2024-05-23T22:34:53.434;539697910835588554;346221;382603;292831;-1301;
2024-05-23T22:34:53.452;539697910853741463;345734;381888;292424;-1283;
2024-05-23T22:34:53.470;539697910871894372;344834;380749;291645;-1290;
2024-05-23T22:34:53.488;539697910890047281;343817;379596;290937;-1256;
2024-05-23T22:34:53.507;539697910908200190;342744;378300;290070;-1259;
2024-05-23T22:34:53.525;539697910926353099;341732;377006;289214;-1312;
2024-05-23T22:34:53.543;539697910944506008;341071;376067;288652;-1231;
2024-05-23T22:34:53.561;539697910962658917;340579;375313;288162;-1277;
2024-05-23T22:34:53.579;539697910980811826;340241;374851;287851;-1239;
2024-05-23T22:34:53.597;539697910998964735;340072;374616;287779;-1261;
2024-05-23T22:34:53.615;539697911017117644;340281;374689;287845;-1292;
2024-05-23T22:34:53.634;539697911035270553;340499;374906;288012;-1273;
2024-05-23T22:34:53.652;539697911053423462;340778;375258;288250;-1299;
2024-05-23T22:34:53.670;539697911071575821;341164;375686;288576;-1290;
2024-05-23T22:34:53.688;539697911089728168;341568;376153;288893;-1285;
2024-05-23T22:34:53.706;539697911107880515;341960;376592;289256;-1250;
2024-05-23T22:34:53.724;539697911126032862;342317;376973;289590;-1245;
2024-05-23T22:34:53.742;539697911144185209;342583;377300;289740;-1312;
2024-05-23T22:34:53.761;539697911162337556;342847;377616;289968;-1236;
2024-05-23T22:34:53.779;539697911180489903;343020;377790;290049;-1269;
2024-05-23T22:34:53.797;539697911198642250;343136;377864;290245;-1234;
2024-05-23T22:34:53.815;539697911216794597;343225;377963;290310;-1271;
2024-05-23T22:34:53.833;539697911234946944;343295;378075;290441;-1217;
2024-05-23T22:34:53.851;539697911253099291;343376;378167;290489;-1248;
2024-05-23T22:34:53.870;539697911271251638;343466;378225;290509;-1254;
2024-05-23T22:34:53.888;539697911289403985;343566;378289;290625;-1243;
2024-05-23T22:34:53.906;539697911307556332;343669;378425;290739;-1267;
2024-05-23T22:34:53.924;539697911325708679;343805;378557;290734;-1254;
2024-05-23T22:34:53.942;539697911343861026;343960;378599;290859;-1251;
2024-05-23T22:34:53.960;539697911362013373;344096;378781;291101;-1273;
2024-05-23T22:34:53.978;539697911380165720;344173;378885;291161;-1274;
2024-05-23T22:34:53.997;539697911398318067;344345;379120;291348;-1294;
2024-05-23T22:34:54.015;539697911416470414;344600;379297;291520;-1295;
2024-05-23T22:34:54.033;539697911434622761;344837;379584;291650;-1221;
2024-05-23T22:34:54.051;539697911452775108;345022;379790;291820;-1296;
2024-05-23T22:34:54.069;539697911470927455;345197;380023;291960;-1270;
2024-05-23T22:34:54.087;539697911489079802;345462;380331;292123;-1222;
2024-05-23T22:34:54.106;539697911507232149;345721;380505;292359;-1271;
2024-05-23T22:34:54.124;539697911525384496;345942;380794;292556;-1283;
2024-05-23T22:34:54.142;539697911543536843;346116;380973;292732;-1256;
2024-05-23T22:34:54.160;539697911561689190;346053;380914;292707;-1311;
2024-05-23T22:34:54.178;539697911579841537;345767;380502;292403;-1294;
2024-05-23T22:34:54.196;539697911597993884;345017;379642;291828;-1301;
2024-05-23T22:34:54.214;539697911616146231;344077;378503;291099;-1257;
2024-05-23T22:34:54.233;539697911634298578;343100;377223;290276;-1244;
2024-05-23T22:34:54.251;539697911652450925;342094;375887;289418;-1231;
2024-05-23T22:34:54.269;539697911670603272;341207;374744;288731;-1286;
2024-05-23T22:34:54.287;539697911688755619;340559;373871;288128;-1310;
2024-05-23T22:34:54.305;539697911706907966;340103;373236;287701;-1284;
2024-05-23T22:34:54.323;539697911725060313;339944;372953;287534;-1205;
2024-05-23T22:34:54.342;539697911743212660;339946;372906;287561;-1253;
2024-05-23T22:34:54.360;539697911761364558;340084;373000;287719;-1293;
2024-05-23T22:34:54.378;539697911779516429;340410;373317;287904;-1224;
2024-05-23T22:34:54.396;539697911797668300;340677;373703;288208;-1309;
2024-05-23T22:34:54.414;539697911815820171;341065;374150;288507;-1294;
2024-05-23T22:34:54.432;539697911833972042;341455;374534;288865;-1292;
2024-05-23T22:34:54.450;539697911852123913;341778;374937;289104;-1329;
2024-05-23T22:34:54.469;539697911870275784;342103;375262;289353;-1226;
2024-05-23T22:34:54.487;539697911888427655;342288;375535;289587;-1316;
2024-05-23T22:34:54.505;539697911906579526;342457;375767;289748;-1269;
2024-05-23T22:34:54.523;539697911924731397;342585;375780;289751;-1267;
2024-05-23T22:34:54.541;539697911942883268;342647;375935;289858;-1345;
2024-05-23T22:34:54.559;539697911961035139;342757;375962;289936;-1237;
2024-05-23T22:34:54.577;539697911979187010;342778;375984;289978;-1276;
2024-05-23T22:34:54.596;539697911997338881;342845;376052;290101;-1274;
2024-05-23T22:34:54.614;539697912015490752;342889;376028;290091;-1288;
2024-05-23T22:34:54.632;539697912033642623;343003;376119;290184;-1260;
2024-05-23T22:34:54.650;539697912051794494;343107;376276;290181;-1250;
2024-05-23T22:34:54.668;539697912069946365;343207;376384;290323;-1321;
2024-05-23T22:34:54.686;539697912088098236;343280;376494;290394;-1283;
2024-05-23T22:34:54.705;539697912106250107;343443;376656;290486;-1330;
2024-05-23T22:34:54.723;539697912124401978;343627;376795;290690;-1326;
2024-05-23T22:34:54.741;539697912142553849;343796;376981;290813;-1321;
2024-05-23T22:34:54.759;539697912160705720;344015;377247;291006;-1300;
2024-05-23T22:34:54.777;539697912178857591;344211;377490;291145;-1301;
2024-05-23T22:34:54.795;539697912197009462;344443;377727;291342;-1280;
2024-05-23T22:34:54.813;539697912215161333;344612;377927;291482;-1240;
2024-05-23T22:34:54.832;539697912233313204;344811;378181;291633;-1284;
2024-05-23T22:34:54.850;539697912251465075;344965;378343;291726;-1291;
2024-05-23T22:34:54.868;539697912269616946;344905;378241;291683;-1282;
2024-05-23T22:34:54.886;539697912287768817;344454;377822;291360;-1297;
2024-05-23T22:34:54.904;539697912305920688;343713;376890;290721;-1236;
2024-05-23T22:34:54.922;539697912324072559;342713;375673;289900;-1262;
2024-05-23T22:34:54.941;539697912342224430;341691;374328;289119;-1299;
2024-05-23T22:34:54.959;539697912360376301;340689;373096;288258;-1257;
2024-05-23T22:34:54.977;539697912378528172;339888;371974;287586;-1270;
2024-05-23T22:34:54.995;539697912396680043;339281;371226;287039;-1328;
2024-05-23T22:34:55.013;539697912414831914;338889;370685;286745;-1237;
2024-05-23T22:34:55.031;539697912432983785;338704;370467;286613;-1241;
2024-05-23T22:34:55.049;539697912451135656;338711;370427;286559;-1227;
2024-05-23T22:34:55.068;539697912469288268;338918;370602;286761;-1234;
2024-05-23T22:34:55.086;539697912487440843;339224;370929;286945;-1237;
2024-05-23T22:34:55.104;539697912505593418;339578;371376;287325;-1245;
2024-05-23T22:34:55.122;539697912523745993;339995;371860;287577;-1284;
2024-05-23T22:34:55.140;539697912541898568;340341;372325;287906;-1242;
2024-05-23T22:34:55.158;539697912560051143;340670;372696;288195;-1248;
2024-05-23T22:34:55.177;539697912578203718;340886;373031;288407;-1273;
2024-05-23T22:34:55.195;539697912596356293;341123;373356;288678;-1267;
2024-05-23T22:34:55.213;539697912614508868;341303;373508;288804;-1218;
2024-05-23T22:34:55.231;539697912632661443;341322;373672;288914;-1240;
2024-05-23T22:34:55.249;539697912650814018;341466;373723;288931;-1274;
2024-05-23T22:34:55.267;539697912668966593;341560;373831;288981;-1241;
2024-05-23T22:34:55.285;539697912687119168;341558;373888;289017;-1205;
2024-05-23T22:34:55.304;539697912705271743;341636;373925;289051;-1268;
2024-05-23T22:34:55.322;539697912723424318;341676;374046;289172;-1240;
2024-05-23T22:34:55.340;539697912741576893;341773;374024;289177;-1249;
2024-05-23T22:34:55.358;539697912759729468;341859;374218;289331;-1279;
2024-05-23T22:34:55.376;539697912777882043;341993;374297;289368;-1233;
2024-05-23T22:34:55.394;539697912796034618;342053;374407;289491;-1234;
2024-05-23T22:34:55.413;539697912814187193;342158;374570;289556;-1253;
2024-05-23T22:34:55.431;539697912832339768;342372;374765;289714;-1269;
2024-05-23T22:34:55.449;539697912850492343;342587;375007;289885;-1268;
2024-05-23T22:34:55.467;539697912868644918;342732;375183;289980;-1262;
2024-05-23T22:34:55.485;539697912886797493;342916;375382;290160;-1293;
2024-05-23T22:34:55.503;539697912904950068;343133;375630;290323;-1220;
2024-05-23T22:34:55.521;539697912923102643;343309;375908;290469;-1262;
2024-05-23T22:34:55.540;539697912941255218;343473;376057;290588;-1266;
2024-05-23T22:34:55.558;539697912959407793;343659;376257;290721;-1261;
2024-05-23T22:34:55.576;539697912977560368;343577;376181;290690;-1269;
2024-05-23T22:34:55.594;539697912995712943;343118;375678;290332;-1279;
2024-05-23T22:34:55.612;539697913013865518;342320;374802;289714;-1251;
2024-05-23T22:34:55.630;539697913032018093;341278;373585;288853;-1263;
2024-05-23T22:34:55.648;539697913050170668;340100;372142;287865;-1268;
2024-05-23T22:34:55.667;539697913068323243;339029;370781;286924;-1273;
2024-05-23T22:34:55.685;539697913086475818;337969;369593;286168;-1252;
2024-05-23T22:34:55.703;539697913104628393;337261;368618;285564;-1258;
2024-05-23T22:34:55.721;539697913122780968;336635;367939;285133;-1305;
2024-05-23T22:34:55.739;539697913140933543;336415;367536;284946;-1283;
2024-05-23T22:34:55.757;539697913159086118;336313;367468;284915;-1271;
2024-05-23T22:34:55.776;539697913177238998;336410;367602;284971;-1308;
2024-05-23T22:34:55.794;539697913195391847;336673;367976;285195;-1271;
2024-05-23T22:34:55.812;539697913213544696;336995;368354;285531;-1259;
2024-05-23T22:34:55.830;539697913231697545;337435;368846;285815;-1288;
2024-05-23T22:34:55.848;539697913249850394;337800;369291;286118;-1300;
2024-05-23T22:34:55.866;539697913268003243;338190;369748;286428;-1290;
2024-05-23T22:34:55.884;539697913286156092;338509;370112;286692;-1297;
2024-05-23T22:34:55.903;539697913304308941;338733;370492;286947;-1326;
2024-05-23T22:34:55.921;539697913322461790;338897;370798;287100;-1267;
2024-05-23T22:34:55.939;539697913340614639;339108;370916;287257;-1223;
2024-05-23T22:34:55.957;539697913358767488;339111;371064;287268;-1316;
2024-05-23T22:34:55.975;539697913376920337;339259;371246;287377;-1275;
2024-05-23T22:34:55.993;539697913395073186;339312;371303;287404;-1299;
2024-05-23T22:34:56.012;539697913413226035;339341;371340;287455;-1313;
2024-05-23T22:34:56.030;539697913431378884;339442;371429;287538;-1280;
2024-05-23T22:34:56.048;539697913449531733;339494;371521;287606;-1265;
2024-05-23T22:34:56.066;539697913467684582;339617;371713;287677;-1293;
2024-05-23T22:34:56.084;539697913485837431;339740;371867;287813;-1287;
2024-05-23T22:34:56.102;539697913503990280;339876;372039;287946;-1287;
2024-05-23T22:34:56.120;539697913522143129;340058;372297;288153;-1271;
2024-05-23T22:34:56.139;539697913540295978;340215;372534;288256;-1273;
2024-05-23T22:34:56.157;539697913558448827;340386;372755;288357;-1255;
2024-05-23T22:34:56.175;539697913576601676;340573;373024;288543;-1271;
2024-05-23T22:34:56.193;539697913594754525;340845;373310;288778;-1221;
2024-05-23T22:34:56.211;539697913612907374;341085;373626;288987;-1241;
2024-05-23T22:34:56.229;539697913631060223;341275;373938;289127;-1302;
2024-05-23T22:34:56.248;539697913649213072;341465;374276;289383;-1222;
2024-05-23T22:34:56.266;539697913667365921;341654;374498;289504;-1237;
2024-05-23T22:34:56.284;539697913685518770;341935;374785;289690;-1154;
2024-05-23T22:34:56.302;539697913703671619;342150;375013;289881;-1279;
2024-05-23T22:34:56.320;539697913721824468;342298;375221;290003;-1293;
2024-05-23T22:34:56.338;539697913739977317;342199;375179;289999;-1275;
2024-05-23T22:34:56.356;539697913758130166;341942;374906;289748;-1232;
2024-05-23T22:34:56.375;539697913776283015;341140;374136;289168;-1228;
2024-05-23T22:34:56.393;539697913794435864;340170;373027;288391;-1246;
2024-05-23T22:34:56.411;539697913812588713;339061;371711;287473;-1221;
2024-05-23T22:34:56.429;539697913830741562;337879;370307;286486;-1221;
2024-05-23T22:34:56.447;539697913848894411;336825;369079;285669;-1242;
2024-05-23T22:34:56.465;539697913867047260;335977;368116;285027;-1258;
2024-05-23T22:34:56.484;539697913885200248;335382;367443;284581;-1192;
2024-05-23T22:34:56.502;539697913903353220;334991;367124;284293;-1231;
2024-05-23T22:34:56.520;539697913921506192;334962;366977;284190;-1260;
2024-05-23T22:34:56.538;539697913939659164;334992;367109;284297;-1265;
2024-05-23T22:34:56.556;539697913957812136;335336;367431;284473;-1206;
2024-05-23T22:34:56.574;539697913975965108;335679;367833;284817;-1222;
2024-05-23T22:34:56.592;539697913994118080;336087;368336;285112;-1232;
2024-05-23T22:34:56.611;539697914012271052;336553;368940;285477;-1234;
2024-05-23T22:34:56.629;539697914030424024;336855;369448;285870;-1292;
2024-05-23T22:34:56.647;539697914048576996;337217;369875;286141;-1269;
2024-05-23T22:34:56.665;539697914066729968;337535;370270;286353;-1288;
2024-05-23T22:34:56.683;539697914084882940;337798;370597;286567;-1250;
2024-05-23T22:34:56.701;539697914103035912;337933;370824;286738;-1256;
2024-05-23T22:34:56.720;539697914121188884;338012;371076;286829;-1279;
2024-05-23T22:34:56.738;539697914139341856;338221;371149;286925;-1229;
2024-05-23T22:34:56.756;539697914157494828;338220;371243;286981;-1271;
2024-05-23T22:34:56.774;539697914175647800;338326;371479;287111;-1260;
2024-05-23T22:34:56.792;539697914193800772;338358;371630;287162;-1273;
2024-05-23T22:34:56.810;539697914211953744;338434;371760;287224;-1250;
2024-05-23T22:34:56.828;539697914230106716;338554;371919;287289;-1322;
2024-05-23T22:34:56.847;539697914248259688;338682;372151;287491;-1214;
2024-05-23T22:34:56.865;539697914266412660;338849;372381;287596;-1248;
2024-05-23T22:34:56.883;539697914284565632;339112;372629;287730;-1227;
2024-05-23T22:34:56.901;539697914302718604;339306;372847;287959;-1204;
2024-05-23T22:34:56.919;539697914320871576;339447;373122;288152;-1249;
2024-05-23T22:34:56.937;539697914339024548;339720;373478;288354;-1245;
2024-05-23T22:34:56.955;539697914357177520;339920;373800;288545;-1293;
2024-05-23T22:34:56.974;539697914375330492;340169;374093;288734;-1259;
2024-05-23T22:34:56.992;539697914393483464;340388;374392;288881;-1289;
2024-05-23T22:34:57.010;539697914411636436;340677;374786;289149;-1246;
2024-05-23T22:34:57.028;539697914429789408;340861;375044;289232;-1289;
2024-05-23T22:34:57.046;539697914447942380;341132;375380;289457;-1271;
2024-05-23T22:34:57.064;539697914466095352;341433;375734;289660;-1258;
2024-05-23T22:34:57.083;539697914484248324;341623;376014;289844;-1277;
2024-05-23T22:34:57.101;539697914502401296;341867;376322;290073;-1268;
2024-05-23T22:34:57.119;539697914520554268;342002;376485;290133;-1301;
2024-05-23T22:34:57.137;539697914538707240;341975;376435;290165;-1292;
2024-05-23T22:34:57.155;539697914556859580;341577;376080;289850;-1268;
2024-05-23T22:34:57.173;539697914575011904;340857;375276;289245;-1225;
2024-05-23T22:34:57.191;539697914593164228;339850;374237;288416;-1244;
2024-05-23T22:34:57.210;539697914611316552;338721;372969;287509;-1312;
2024-05-23T22:34:57.228;539697914629468876;337748;371916;286724;-1257;
2024-05-23T22:34:57.246;539697914647621200;336858;370921;285980;-1280;
2024-05-23T22:34:57.264;539697914665773524;336229;370085;285409;-1331;
2024-05-23T22:34:57.282;539697914683925848;335791;369711;285092;-1274;
2024-05-23T22:34:57.300;539697914702078172;335624;369486;284879;-1290;
2024-05-23T22:34:57.319;539697914720230496;335675;369553;284900;-1314;
2024-05-23T22:34:57.337;539697914738382820;335851;369769;285066;-1311;
2024-05-23T22:34:57.355;539697914756535144;336200;370206;285394;-1258;
2024-05-23T22:34:57.373;539697914774687468;336568;370719;285732;-1237;
2024-05-23T22:34:57.391;539697914792839792;337064;371320;286101;-1269;
2024-05-23T22:34:57.409;539697914810992116;337520;371851;286412;-1300;
2024-05-23T22:34:57.427;539697914829144440;337907;372432;286729;-1234;
2024-05-23T22:34:57.446;539697914847296764;338352;372967;287119;-1239;
2024-05-23T22:34:57.464;539697914865449088;338635;373333;287385;-1265;
2024-05-23T22:34:57.482;539697914883601412;338871;373577;287512;-1319;
2024-05-23T22:34:57.500;539697914901753736;339080;373828;287771;-1255;
2024-05-23T22:34:57.518;539697914919906060;339281;374107;287916;-1276;
2024-05-23T22:34:57.536;539697914938058384;339465;374320;288025;-1254;
2024-05-23T22:34:57.555;539697914956210708;339549;374475;288086;-1317;
2024-05-23T22:34:57.573;539697914974363032;339669;374699;288163;-1299;
2024-05-23T22:34:57.591;539697914992515356;339898;374904;288299;-1307;
2024-05-23T22:34:57.609;539697915010667680;340036;375158;288434;-1280;
2024-05-23T22:34:57.627;539697915028820004;340126;375299;288572;-1282;
2024-05-23T22:34:57.645;539697915046972328;340342;375613;288700;-1296;
2024-05-23T22:34:57.663;539697915065124652;340574;375802;288840;-1265;
2024-05-23T22:34:57.682;539697915083276976;340794;376167;289084;-1292;
2024-05-23T22:34:57.700;539697915101429300;341096;376532;289300;-1307;
2024-05-23T22:34:57.718;539697915119581624;341257;376825;289522;-1263;
2024-05-23T22:34:57.736;539697915137733948;341615;377214;289709;-1249;
2024-05-23T22:34:57.754;539697915155886272;341865;377608;289899;-1243;
2024-05-23T22:34:57.772;539697915174038596;342120;377939;290125;-1269;
2024-05-23T22:34:57.791;539697915192190776;342401;378233;290340;-1342;
2024-05-23T22:34:57.809;539697915210342925;342707;378644;290568;-1251;
2024-05-23T22:34:57.827;539697915228495074;342959;379018;290763;-1312;
2024-05-23T22:34:57.845;539697915246647223;343221;379357;291032;-1299;
2024-05-23T22:34:57.863;539697915264799372;343545;379642;291239;-1288;
2024-05-23T22:34:57.881;539697915282951521;343753;380003;291437;-1276;
2024-05-23T22:34:57.899;539697915301103670;343956;380196;291586;-1263;
2024-05-23T22:34:57.918;539697915319255819;343832;380196;291537;-1269;
2024-05-23T22:34:57.936;539697915337407968;343542;379777;291231;-1258;
2024-05-23T22:34:57.954;539697915355560117;342898;379114;290677;-1283;
2024-05-23T22:34:57.972;539697915373712266;342121;378161;289994;-1272;
2024-05-23T22:34:57.990;539697915391864415;341132;377188;289145;-1265;
2024-05-23T22:34:58.008;539697915410016564;340312;376212;288412;-1282;
2024-05-23T22:34:58.026;539697915428168713;339676;375424;287854;-1307;
2024-05-23T22:34:58.045;539697915446320862;339151;374818;287411;-1303;
2024-05-23T22:34:58.063;539697915464473011;338943;374488;287121;-1273;
2024-05-23T22:34:58.081;539697915482625160;338818;374322;287038;-1255;
2024-05-23T22:34:58.099;539697915500777309;338920;374499;287121;-1235;
2024-05-23T22:34:58.117;539697915518929458;339185;374824;287307;-1277;
2024-05-23T22:34:58.135;539697915537081607;339577;375280;287557;-1273;
2024-05-23T22:34:58.154;539697915555233756;340069;375823;287914;-1261;
2024-05-23T22:34:58.172;539697915573385905;340492;376338;288318;-1276;
2024-05-23T22:34:58.190;539697915591538054;340932;376931;288667;-1285;
2024-05-23T22:34:58.208;539697915609690203;341345;377444;288955;-1303;
2024-05-23T22:34:58.226;539697915627842352;341768;377850;289308;-1290;
2024-05-23T22:34:58.244;539697915645994501;342053;378254;289570;-1313;
2024-05-23T22:34:58.262;539697915664146650;342366;378594;289774;-1291;
2024-05-23T22:34:58.281;539697915682298799;342561;378880;289961;-1237;
2024-05-23T22:34:58.299;539697915700450948;342764;379153;290134;-1241;
2024-05-23T22:34:58.317;539697915718603097;342982;379507;290246;-1268;
2024-05-23T22:34:58.335;539697915736755246;343135;379620;290380;-1277;
2024-05-23T22:34:58.353;539697915754907395;343361;379866;290559;-1215;
2024-05-23T22:34:58.371;539697915773059544;343451;380075;290627;-1273;
2024-05-23T22:34:58.390;539697915791211693;343631;380307;290721;-1293;
2024-05-23T22:34:58.408;539697915809363842;343831;380573;290907;-1284;
2024-05-23T22:34:58.426;539697915827516648;344112;380837;291061;-1254;
2024-05-23T22:34:58.444;539697915845669432;344331;381134;291298;-1301;
2024-05-23T22:34:58.462;539697915863822216;344551;381434;291469;-1330;
2024-05-23T22:34:58.480;539697915881975000;344863;381781;291694;-1256;
2024-05-23T22:34:58.498;539697915900127784;345140;382102;291917;-1274;
2024-05-23T22:34:58.517;539697915918280568;345398;382401;292072;-1285;
2024-05-23T22:34:58.535;539697915936433352;345721;382770;292324;-1269;
2024-05-23T22:34:58.553;539697915954586136;346040;383108;292566;-1235;
2024-05-23T22:34:58.571;539697915972738920;346317;383499;292751;-1295;
2024-05-23T22:34:58.589;539697915990891704;346610;383877;293001;-1316;
2024-05-23T22:34:58.607;539697916009044488;346821;384181;293167;-1345;
2024-05-23T22:34:58.626;539697916027197272;346877;384170;293138;-1365;
2024-05-23T22:34:58.644;539697916045350056;346549;383898;292865;-1292;
2024-05-23T22:34:58.662;539697916063502840;346062;383297;292447;-1296;
2024-05-23T22:34:58.680;539697916081655624;345348;382566;291846;-1314;
2024-05-23T22:34:58.698;539697916099808408;344623;381728;291173;-1248;
2024-05-23T22:34:58.716;539697916117961192;343990;380984;290564;-1242;
2024-05-23T22:34:58.734;539697916136113976;343457;380299;290082;-1260;
2024-05-23T22:34:58.753;539697916154266760;343049;379911;289786;-1277;
2024-05-23T22:34:58.771;539697916172419544;342939;379694;289613;-1339;
2024-05-23T22:34:58.789;539697916190572328;342961;379733;289614;-1285;
2024-05-23T22:34:58.807;539697916208725112;343220;379921;289777;-1250;
2024-05-23T22:34:58.825;539697916226877896;343482;380179;289917;-1306;
2024-05-23T22:34:58.843;539697916245030680;343929;380616;290211;-1268;
2024-05-23T22:34:58.861;539697916263183464;344290;381061;290503;-1271;
2024-05-23T22:34:58.880;539697916281336248;344689;381729;290904;-1309;
2024-05-23T22:34:58.898;539697916299489032;345055;382154;291214;-1312;
2024-05-23T22:34:58.916;539697916317641816;345509;382600;291555;-1273;
2024-05-23T22:34:58.934;539697916335794600;345850;382997;291810;-1244;
2024-05-23T22:34:58.952;539697916353947384;346139;383305;292103;-1291;
2024-05-23T22:34:58.970;539697916372100168;346326;383580;292216;-1273;
2024-05-23T22:34:58.989;539697916390252952;346505;383761;292394;-1297;
2024-05-23T22:34:59.007;539697916408405736;346673;384043;292576;-1252;
2024-05-23T22:34:59.025;539697916426558520;346880;384184;292653;-1276;
2024-05-23T22:34:59.043;539697916444711304;347051;384421;292766;-1252;
2024-05-23T22:34:59.061;539697916462864088;347302;384654;292905;-1209;
2024-05-23T22:34:59.079;539697916481016472;347345;384778;293018;-1290;
2024-05-23T22:34:59.097;539697916499168825;347543;384972;293146;-1222;
2024-05-23T22:34:59.116;539697916517321178;347746;385190;293323;-1212;
2024-05-23T22:34:59.134;539697916535473531;347947;385416;293433;-1285;
2024-05-23T22:34:59.152;539697916553625884;348143;385659;293613;-1255;
2024-05-23T22:34:59.170;539697916571778237;348314;385878;293694;-1263;
2024-05-23T22:34:59.188;539697916589930590;348618;386168;293956;-1276;
2024-05-23T22:34:59.206;539697916608082943;348873;386391;294092;-1297;
2024-05-23T22:34:59.225;539697916626235296;349155;386747;294335;-1287;
2024-05-23T22:34:59.243;539697916644387649;349386;387013;294539;-1276;
2024-05-23T22:34:59.261;539697916662540002;349615;387267;294675;-1370;
2024-05-23T22:34:59.279;539697916680692355;349769;387519;294844;-1324;
2024-05-23T22:34:59.297;539697916698844708;349699;387455;294865;-1280;
2024-05-23T22:34:59.315;539697916716997061;349399;387050;294505;-1282;
2024-05-23T22:34:59.333;539697916735149414;348799;386381;294025;-1232;
2024-05-23T22:34:59.352;539697916753301767;347995;385435;293282;-1248;
2024-05-23T22:34:59.370;539697916771454120;347233;384525;292619;-1323;
2024-05-23T22:34:59.388;539697916789606473;346600;383756;292033;-1242;
2024-05-23T22:34:59.406;539697916807758826;346051;383101;291561;-1240;
2024-05-23T22:34:59.424;539697916825911179;345691;382566;291075;-1318;
2024-05-23T22:34:59.442;539697916844063532;345456;382333;290978;-1288;
2024-05-23T22:34:59.461;539697916862215885;345474;382239;290923;-1289;
2024-05-23T22:34:59.479;539697916880368238;345660;382462;291049;-1270;
2024-05-23T22:34:59.497;539697916898520591;345932;382768;291263;-1253;
2024-05-23T22:34:59.515;539697916916672944;346319;383224;291565;-1252;
2024-05-23T22:34:59.533;539697916934825297;346688;383638;291896;-1255;
2024-05-23T22:34:59.551;539697916952977650;347142;384118;292192;-1210;
2024-05-23T22:34:59.569;539697916971130003;347552;384547;292623;-1254;
2024-05-23T22:34:59.588;539697916989282356;347900;384937;292852;-1246;
2024-05-23T22:34:59.606;539697917007434709;348146;385302;293172;-1249;
2024-05-23T22:34:59.624;539697917025587062;348409;385523;293311;-1266;
2024-05-23T22:34:59.642;539697917043739415;348621;385754;293480;-1228;
2024-05-23T22:34:59.660;539697917061891768;348818;385937;293614;-1268;
2024-05-23T22:34:59.678;539697917080044121;348960;386119;293693;-1280;
2024-05-23T22:34:59.697;539697917098196474;349068;386240;293828;-1235;
2024-05-23T22:34:59.715;539697917116348827;349206;386420;293930;-1224;
2024-05-23T22:34:59.733;539697917134501180;349346;386552;294033;-1231;
2024-05-23T22:34:59.751;539697917152653302;349483;386722;294159;-1233;
2024-05-23T22:34:59.769;539697917170805408;349621;386835;294228;-1248;
2024-05-23T22:34:59.787;539697917188957514;349791;387070;294437;-1245;
2024-05-23T22:34:59.805;539697917207109620;349912;387233;294564;-1245;
2024-05-23T22:34:59.824;539697917225261726;350159;387392;294706;-1258;
2024-05-23T22:34:59.842;539697917243413832;350389;387622;294853;-1206;
2024-05-23T22:34:59.860;539697917261565938;350518;387878;295036;-1233;
2024-05-23T22:34:59.878;539697917279718044;350760;388179;295198;-1215;
2024-05-23T22:34:59.896;539697917297870150;351034;388394;295383;-1211;
2024-05-23T22:34:59.914;539697917316022256;351235;388540;295528;-1240;
2024-05-23T22:34:59.932;539697917334174362;351540;388856;295758;-1235;
2024-05-23T22:34:59.951;539697917352326468;351724;389083;295969;-1239;
2024-05-23T22:34:59.969;539697917370478574;351905;389325;296096;-1263;
2024-05-23T22:34:59.987;539697917388630680;351924;389381;296117;-1263;
2024-05-23T22:35:00.005;539697917406782786;351684;389124;295986;-1228;
2024-05-23T22:35:00.023;539697917424934892;351125;388455;295463;-1246;
2024-05-23T22:35:00.041;539697917443086998;350347;387507;294765;-1239;
2024-05-23T22:35:00.060;539697917461239104;349429;386418;293989;-1216;
2024-05-23T22:35:00.078;539697917479391210;348497;385319;293283;-1235;
2024-05-23T22:35:00.096;539697917497543316;347777;384341;292561;-1252;
2024-05-23T22:35:00.114;539697917515695422;347172;383572;292078;-1219;
2024-05-23T22:35:00.132;539697917533847528;346832;383084;291755;-1250;
2024-05-23T22:35:00.150;539697917551999634;346622;382789;291577;-1152;
2024-05-23T22:35:00.168;539697917570151740;346581;382724;291585;-1269;
2024-05-23T22:35:00.187;539697917588303846;346728;382842;291619;-1300;
2024-05-23T22:35:00.205;539697917606455952;347019;382988;291827;-1236;
2024-05-23T22:35:00.223;539697917624608058;347432;383455;292202;-1234;
2024-05-23T22:35:00.241;539697917642760164;347817;384009;292514;-1229;
2024-05-23T22:35:00.259;539697917660912270;348195;384440;292887;-1191;
2024-05-23T22:35:00.277;539697917679064376;348529;384836;293143;-1261;
2024-05-23T22:35:00.296;539697917697216482;348932;385234;293400;-1249;
2024-05-23T22:35:00.314;539697917715368588;349137;385502;293659;-1283;
2024-05-23T22:35:00.332;539697917733520694;349400;385824;293948;-1256;
2024-05-23T22:35:00.350;539697917751672800;349596;386008;294064;-1250;
2024-05-23T22:35:00.368;539697917769824906;349758;386221;294183;-1274;
2024-05-23T22:35:00.386;539697917787977012;349864;386327;294248;-1243;
2024-05-23T22:35:00.404;539697917806129118;349975;386444;294403;-1231;
2024-05-23T22:35:00.423;539697917824281026;350148;386593;294461;-1296;
2024-05-23T22:35:00.441;539697917842432926;350184;386668;294610;-1267;
2024-05-23T22:35:00.459;539697917860584826;350311;386846;294662;-1263;
2024-05-23T22:35:00.477;539697917878736726;350472;386931;294773;-1303;
2024-05-23T22:35:00.495;539697917896888626;350618;387045;294872;-1301;
2024-05-23T22:35:00.513;539697917915040526;350839;387268;295053;-1256;
2024-05-23T22:35:00.532;539697917933192426;350901;387435;295141;-1292;
2024-05-23T22:35:00.550;539697917951344326;351150;387662;295391;-1191;
2024-05-23T22:35:00.568;539697917969496226;351374;387896;295578;-1235;
2024-05-23T22:35:00.586;539697917987648126;351642;388190;295764;-1270;
2024-05-23T22:35:00.604;539697918005800026;351820;388350;295940;-1216;
2024-05-23T22:35:00.622;539697918023951926;351996;388582;296100;-1282;
2024-05-23T22:35:00.640;539697918042103826;352249;388899;296297;-1291;
2024-05-23T22:35:00.659;539697918060255726;352533;389147;296536;-1311;
2024-05-23T22:35:00.677;539697918078407626;352747;389364;296695;-1297;
2024-05-23T22:35:00.695;539697918096559526;352880;389644;296890;-1299;
2024-05-23T22:35:00.713;539697918114711426;353046;389761;296984;-1311;
2024-05-23T22:35:00.731;539697918132863326;352968;389733;296941;-1266;
2024-05-23T22:35:00.749;539697918151015226;352573;389153;296492;-1313;
2024-05-23T22:35:00.767;539697918169167126;351849;388397;295954;-1325;
2024-05-23T22:35:00.786;539697918187319026;350969;387280;295257;-1268;
2024-05-23T22:35:00.804;539697918205470926;349965;386019;294390;-1310;
2024-05-23T22:35:00.822;539697918223622826;349090;384888;293702;-1248;
2024-05-23T22:35:00.840;539697918241774726;348341;383934;293061;-1242;
2024-05-23T22:35:00.858;539697918259926626;347774;383121;292585;-1282;
2024-05-23T22:35:00.876;539697918278078526;347360;382718;292304;-1300;
2024-05-23T22:35:00.895;539697918296230426;347305;382473;292240;-1218;
2024-05-23T22:35:00.913;539697918314382326;347341;382474;292208;-1306;
2024-05-23T22:35:00.931;539697918332534226;347550;382678;292358;-1323;
2024-05-23T22:35:00.949;539697918350686126;347840;383028;292650;-1354;
2024-05-23T22:35:00.967;539697918368838026;348285;383471;292972;-1304;
2024-05-23T22:35:00.985;539697918386989926;348682;384036;293355;-1266;
2024-05-23T22:35:01.003;539697918405141826;349138;384494;293621;-1216;
2024-05-23T22:35:01.022;539697918423293726;349481;384872;293872;-1259;
2024-05-23T22:35:01.040;539697918441445626;349707;385242;294206;-1261;
2024-05-23T22:35:01.058;539697918459597526;350057;385532;294485;-1200;
2024-05-23T22:35:01.076;539697918477749426;350191;385785;294631;-1215;
