Phone timestamp;sensor timestamp [ns];channel 0;channel 1;channel 2;ambient
2024-05-24T23:33:35.038;539787833019210770;305964;331190;250410;-1319;
2024-05-24T23:33:35.056;539787833037368834;306037;331263;250449;-1376;
2024-05-24T23:33:35.074;539787833055526898;306109;331332;250495;-1289;
2024-05-24T23:33:35.092;539787833073684962;306191;331500;250508;-1348;
2024-05-24T23:33:35.110;539787833091843026;306203;331552;250592;-1340;
2024-05-24T23:33:35.128;539787833110001090;306259;331548;250590;-1385;
2024-05-24T23:33:35.146;539787833128159154;306229;331582;250580;-1388;
2024-05-24T23:33:35.165;539787833146317218;306266;331578;250597;-1343;
2024-05-24T23:33:35.183;539787833164475282;306071;331450;250507;-1378;
2024-05-24T23:33:35.201;539787833182633346;305975;331274;250423;-1397;
2024-05-24T23:33:35.219;539787833200791410;305852;331190;250389;-1324;
2024-05-24T23:33:35.237;539787833218949474;305666;331074;250302;-1363;
2024-05-24T23:33:35.255;539787833237107538;305589;330936;250181;-1365;
2024-05-24T23:33:35.274;539787833255265602;305573;330915;250208;-1339;
2024-05-24T23:33:35.292;539787833273423666;305518;330853;250187;-1330;
2024-05-24T23:33:35.310;539787833291581730;305580;330955;250251;-1362;
2024-05-24T23:33:35.328;539787833309739794;305568;331053;250245;-1372;
2024-05-24T23:33:35.346;539787833327897858;305662;331152;250342;-1335;
2024-05-24T23:33:35.364;539787833346055922;305795;331229;250388;-1434;
2024-05-24T23:33:35.383;539787833364213986;305927;331354;250480;-1343;
2024-05-24T23:33:35.401;539787833382372050;306024;331468;250564;-1382;
2024-05-24T23:33:35.419;539787833400530114;306164;331579;250586;-1398;
2024-05-24T23:33:35.437;539787833418688178;306241;331687;250708;-1340;
2024-05-24T23:33:35.455;539787833436846242;306357;331756;250771;-1360;
2024-05-24T23:33:35.473;539787833455004306;306486;331910;250861;-1338;
2024-05-24T23:33:35.491;539787833473162370;306479;331853;250837;-1379;
2024-05-24T23:33:35.510;539787833491320434;306510;331899;250913;-1347;
2024-05-24T23:33:35.528;539787833509478498;306549;331971;250919;-1348;
2024-05-24T23:33:35.546;539787833527636562;306633;332094;251031;-1291;
2024-05-24T23:33:35.564;539787833545794626;306657;332140;250990;-1382;
2024-05-24T23:33:35.582;539787833563952690;306699;332133;251023;-1390;
2024-05-24T23:33:35.600;539787833582110754;306739;332244;251020;-1387;
2024-05-24T23:33:35.619;539787833600268818;306710;332271;251012;-1409;
2024-05-24T23:33:35.637;539787833618426882;306807;332276;251102;-1402;
2024-05-24T23:33:35.655;539787833636584946;306914;332420;251147;-1385;
2024-05-24T23:33:35.673;539787833654743010;306978;332429;251098;-1380;
2024-05-24T23:33:35.691;539787833672901074;306990;332534;251220;-1402;
2024-05-24T23:33:35.709;539787833691059138;307145;332625;251311;-1338;
2024-05-24T23:33:35.728;539787833709217202;307171;332673;251313;-1353;
2024-05-24T23:33:35.746;539787833727375266;307244;332755;251333;-1375;
2024-05-24T23:33:35.764;539787833745533330;307242;332805;251452;-1358;
2024-05-24T23:33:35.782;539787833763691394;307371;332865;251461;-1357;
2024-05-24T23:33:35.800;539787833781849486;307534;333040;251643;-1322;
2024-05-24T23:33:35.818;539787833800007550;307498;333009;251622;-1321;
2024-05-24T23:33:35.836;539787833818165614;307493;333045;251558;-1339;
2024-05-24T23:33:35.855;539787833836323678;307496;332935;251558;-1352;
2024-05-24T23:33:35.873;539787833854481742;307336;332802;251430;-1420;
2024-05-24T23:33:35.891;539787833872639806;307261;332775;251456;-1334;
2024-05-24T23:33:35.909;539787833890797870;307127;332727;251364;-1356;
2024-05-24T23:33:35.927;539787833908955934;307030;332580;251271;-1379;
2024-05-24T23:33:35.945;539787833927113998;307001;332595;251300;-1364;
2024-05-24T23:33:35.964;539787833945272062;306951;332488;251268;-1335;
2024-05-24T23:33:35.982;539787833963430126;306956;332510;251198;-1341;
2024-05-24T23:33:36.000;539787833981588190;307022;332531;251222;-1377;
2024-05-24T23:33:36.018;539787833999746254;307151;332708;251356;-1268;
2024-05-24T23:33:36.036;539787834017904318;307166;332746;251362;-1377;
2024-05-24T23:33:36.054;539787834036062382;307346;332897;251481;-1308;
2024-05-24T23:33:36.073;539787834054220446;307470;332996;251529;-1362;
2024-05-24T23:33:36.091;539787834072378510;307523;333113;251596;-1383;
2024-05-24T23:33:36.109;539787834090536574;307625;333253;251706;-1402;
2024-05-24T23:33:36.127;539787834108694638;307725;333258;251715;-1389;
2024-05-24T23:33:36.145;539787834126852702;307811;333431;251774;-1406;
2024-05-24T23:33:36.163;539787834145010766;307909;333413;251801;-1316;
2024-05-24T23:33:36.181;539787834163168830;307981;333523;251862;-1358;
2024-05-24T23:33:36.200;539787834181326894;308030;333626;251941;-1373;
2024-05-24T23:33:36.218;539787834199484958;308022;333610;251950;-1338;
2024-05-24T23:33:36.236;539787834217643022;308104;333672;251980;-1358;
2024-05-24T23:33:36.254;539787834235801086;308129;333706;252016;-1338;
2024-05-24T23:33:36.272;539787834253959150;308175;333737;252068;-1343;
2024-05-24T23:33:36.290;539787834272117214;308269;333847;252065;-1309;
2024-05-24T23:33:36.309;539787834290275278;308336;333876;252107;-1374;
2024-05-24T23:33:36.327;539787834308433342;308326;333871;252095;-1404;
2024-05-24T23:33:36.345;539787834326591406;308439;333978;252163;-1337;
2024-05-24T23:33:36.363;539787834344749470;308462;334086;252170;-1344;
2024-05-24T23:33:36.381;539787834362907534;308556;334199;252223;-1354;
2024-05-24T23:33:36.399;539787834381065598;308678;334204;252306;-1363;
2024-05-24T23:33:36.418;539787834399223662;308742;334362;252434;-1300;
2024-05-24T23:33:36.436;539787834417381726;308848;334435;252516;-1330;
2024-05-24T23:33:36.454;539787834435539790;308880;334485;252513;-1340;
2024-05-24T23:33:36.472;539787834453697854;308924;334515;252540;-1352;
2024-05-24T23:33:36.490;539787834471855918;308951;334519;252517;-1338;
2024-05-24T23:33:36.508;539787834490013982;308955;334524;252564;-1300;
2024-05-24T23:33:36.526;539787834508172046;308855;334410;252500;-1333;
2024-05-24T23:33:36.545;539787834526330110;308759;334346;252379;-1321;
2024-05-24T23:33:36.563;539787834544486798;308689;334241;252343;-1355;
2024-05-24T23:33:36.581;539787834562643482;308618;334198;252279;-1352;
2024-05-24T23:33:36.599;539787834580800166;308535;334160;252240;-1350;
2024-05-24T23:33:36.617;539787834598956850;308507;334115;252187;-1370;
2024-05-24T23:33:36.635;539787834617113534;308577;334093;252240;-1333;
2024-05-24T23:33:36.654;539787834635270218;308527;334180;252203;-1348;
2024-05-24T23:33:36.672;539787834653426902;308605;334210;252269;-1364;
2024-05-24T23:33:36.690;539787834671583586;308651;334251;252293;-1355;
2024-05-24T23:33:36.708;539787834689740270;308763;334359;252332;-1351;
2024-05-24T23:33:36.726;539787834707896954;308833;334418;252372;-1397;
2024-05-24T23:33:36.744;539787834726053638;308978;334544;252492;-1379;
2024-05-24T23:33:36.762;539787834744210322;309068;334613;252520;-1370;
2024-05-24T23:33:36.781;539787834762367006;309146;334713;252562;-1382;
2024-05-24T23:33:36.799;539787834780523690;309119;334757;252666;-1329;
2024-05-24T23:33:36.817;539787834798680374;309240;334777;252647;-1357;
2024-05-24T23:33:36.835;539787834816837058;309269;334822;252683;-1333;
2024-05-24T23:33:36.853;539787834834993742;309291;334859;252714;-1339;
2024-05-24T23:33:36.871;539787834853150426;309314;334870;252649;-1348;
2024-05-24T23:33:36.890;539787834871307110;309378;334945;252742;-1316;
2024-05-24T23:33:36.908;539787834889463794;309356;334922;252697;-1356;
2024-05-24T23:33:36.926;539787834907620478;309437;334968;252737;-1337;
2024-05-24T23:33:36.944;539787834925777162;309434;334961;252791;-1316;
2024-05-24T23:33:36.962;539787834943933846;309482;335007;252809;-1321;
2024-05-24T23:33:36.980;539787834962090530;309595;335008;252840;-1330;
2024-05-24T23:33:36.999;539787834980247214;309594;335097;252881;-1363;
2024-05-24T23:33:37.017;539787834998403898;309618;335148;252917;-1329;
2024-05-24T23:33:37.035;539787835016560582;309657;335215;252898;-1293;
2024-05-24T23:33:37.053;539787835034717266;309735;335276;252988;-1320;
2024-05-24T23:33:37.071;539787835052873950;309779;335304;253038;-1283;
2024-05-24T23:33:37.089;539787835071030634;309842;335354;253020;-1331;
2024-05-24T23:33:37.107;539787835089187318;309890;335363;253032;-1345;
2024-05-24T23:33:37.126;539787835107344002;309843;335368;252974;-1353;
2024-05-24T23:33:37.144;539787835125500686;309782;335285;252938;-1324;
2024-05-24T23:33:37.162;539787835143657370;309639;335182;252875;-1306;
2024-05-24T23:33:37.180;539787835161814054;309528;335030;252812;-1305;
2024-05-24T23:33:37.198;539787835179970738;309399;334876;252624;-1337;
2024-05-24T23:33:37.216;539787835198127422;309204;334759;252632;-1380;
2024-05-24T23:33:37.235;539787835216284106;309229;334712;252560;-1360;
2024-05-24T23:33:37.253;539787835234440790;309220;334546;252554;-1370;
2024-05-24T23:33:37.271;539787835252597474;309202;334559;252513;-1351;
2024-05-24T23:33:37.289;539787835270754158;309244;334671;252543;-1335;
2024-05-24T23:33:37.307;539787835288910842;309277;334740;252537;-1312;
2024-05-24T23:33:37.325;539787835307067526;309372;334763;252605;-1344;
2024-05-24T23:33:37.344;539787835325224639;309433;334847;252663;-1346;
2024-05-24T23:33:37.362;539787835343381722;309527;334953;252720;-1334;
2024-05-24T23:33:37.380;539787835361538805;309650;335098;252806;-1317;
2024-05-24T23:33:37.398;539787835379695888;309743;335112;252803;-1406;
2024-05-24T23:33:37.416;539787835397852971;309852;335176;252862;-1350;
2024-05-24T23:33:37.434;539787835416010054;309822;335172;252830;-1376;
2024-05-24T23:33:37.452;539787835434167137;309877;335271;252938;-1346;
2024-05-24T23:33:37.471;539787835452324220;309909;335251;252970;-1321;
2024-05-24T23:33:37.489;539787835470481303;309892;335282;252893;-1330;
2024-05-24T23:33:37.507;539787835488638386;309999;335338;253003;-1337;
2024-05-24T23:33:37.525;539787835506795469;309964;335322;252974;-1377;
2024-05-24T23:33:37.543;539787835524952552;309998;335331;253021;-1356;
2024-05-24T23:33:37.561;539787835543109635;310065;335356;253060;-1306;
2024-05-24T23:33:37.580;539787835561266718;310054;335415;253058;-1345;
2024-05-24T23:33:37.598;539787835579423801;310119;335446;253043;-1360;
2024-05-24T23:33:37.616;539787835597580884;310130;335445;253092;-1317;
2024-05-24T23:33:37.634;539787835615737967;310170;335458;253109;-1350;
2024-05-24T23:33:37.652;539787835633895050;310249;335537;253120;-1352;
2024-05-24T23:33:37.670;539787835652052133;310330;335705;253162;-1343;
2024-05-24T23:33:37.688;539787835670209216;310389;335708;253296;-1323;
2024-05-24T23:33:37.707;539787835688366299;310447;335729;253241;-1330;
2024-05-24T23:33:37.725;539787835706523382;310441;335795;253352;-1379;
2024-05-24T23:33:37.743;539787835724680465;310550;335831;253405;-1357;
2024-05-24T23:33:37.761;539787835742837548;310527;335834;253389;-1284;
2024-05-24T23:33:37.779;539787835760994631;310352;335622;253300;-1302;
2024-05-24T23:33:37.797;539787835779151714;310193;335523;253213;-1343;
2024-05-24T23:33:37.816;539787835797308797;310079;335313;253014;-1358;
2024-05-24T23:33:37.834;539787835815465880;309943;335129;252936;-1355;
2024-05-24T23:33:37.852;539787835833622963;309723;334891;252735;-1419;
2024-05-24T23:33:37.870;539787835851780046;309724;334865;252704;-1379;
2024-05-24T23:33:37.888;539787835869937129;309637;334709;252642;-1450;
2024-05-24T23:33:37.906;539787835888094212;309576;334660;252674;-1474;
2024-05-24T23:33:37.925;539787835906251295;309590;334668;252652;-1372;
2024-05-24T23:33:37.943;539787835924408378;309725;334754;252705;-1377;
2024-05-24T23:33:37.961;539787835942565461;309801;334807;252689;-1412;
2024-05-24T23:33:37.979;539787835960722544;309929;334942;252810;-1353;
2024-05-24T23:33:37.997;539787835978879627;309980;335042;252871;-1374;
2024-05-24T23:33:38.015;539787835997036710;310107;335121;252932;-1329;
2024-05-24T23:33:38.033;539787836015193793;310163;335096;252907;-1413;
2024-05-24T23:33:38.052;539787836033350876;310153;335264;252953;-1436;
2024-05-24T23:33:38.070;539787836051507959;310209;335286;252979;-1357;
2024-05-24T23:33:38.088;539787836069665042;310259;335283;253060;-1331;
2024-05-24T23:33:38.106;539787836087822054;310356;335304;253084;-1391;
2024-05-24T23:33:38.124;539787836105979036;310316;335270;253029;-1325;
2024-05-24T23:33:38.142;539787836124136018;310313;335314;253077;-1295;
2024-05-24T23:33:38.161;539787836142293000;310304;335306;253032;-1335;
2024-05-24T23:33:38.179;539787836160449982;310270;335248;253054;-1335;
2024-05-24T23:33:38.197;539787836178606964;310312;335254;253077;-1364;
2024-05-24T23:33:38.215;539787836196763946;310338;335346;253105;-1321;
2024-05-24T23:33:38.233;539787836214920928;310329;335331;253037;-1306;
2024-05-24T23:33:38.251;539787836233077910;310337;335364;253120;-1318;
2024-05-24T23:33:38.270;539787836251234892;310386;335339;253132;-1353;
2024-05-24T23:33:38.288;539787836269391874;310401;335337;253088;-1357;
2024-05-24T23:33:38.306;539787836287548856;310442;335381;253171;-1300;
2024-05-24T23:33:38.324;539787836305705838;310457;335363;253132;-1303;
2024-05-24T23:33:38.342;539787836323862820;310515;335432;253200;-1311;
2024-05-24T23:33:38.360;539787836342019802;310479;335459;253213;-1348;
2024-05-24T23:33:38.378;539787836360176784;310616;335505;253190;-1364;
2024-05-24T23:33:38.397;539787836378333766;310664;335578;253293;-1314;
2024-05-24T23:33:38.415;539787836396490748;310640;335637;253357;-1305;
2024-05-24T23:33:38.433;539787836414647730;310676;335539;253335;-1336;
2024-05-24T23:33:38.451;539787836432804712;310534;335388;253265;-1370;
2024-05-24T23:33:38.469;539787836450961694;310415;335198;253122;-1339;
2024-05-24T23:33:38.487;539787836469118676;310205;335042;252931;-1326;
2024-05-24T23:33:38.506;539787836487275658;309951;334759;252811;-1321;
2024-05-24T23:33:38.524;539787836505432640;309694;334449;252594;-1336;
2024-05-24T23:33:38.542;539787836523589622;309460;334222;252467;-1323;
2024-05-24T23:33:38.560;539787836541746604;309220;333932;252272;-1377;
2024-05-24T23:33:38.578;539787836559903586;309159;333752;252286;-1330;
2024-05-24T23:33:38.596;539787836578060568;309027;333609;252111;-1402;
2024-05-24T23:33:38.615;539787836596217550;309115;333610;252102;-1397;
2024-05-24T23:33:38.633;539787836614374532;309097;333635;252105;-1350;
2024-05-24T23:33:38.651;539787836632531514;309125;333694;252168;-1343;
2024-05-24T23:33:38.669;539787836650688496;309200;333678;252169;-1381;
2024-05-24T23:33:38.687;539787836668845478;309287;333763;252272;-1374;
2024-05-24T23:33:38.705;539787836687002460;309322;333823;252364;-1379;
2024-05-24T23:33:38.723;539787836705159442;309403;333921;252398;-1394;
2024-05-24T23:33:38.742;539787836723316424;309527;333967;252354;-1319;
2024-05-24T23:33:38.760;539787836741473406;309477;333931;252390;-1375;
2024-05-24T23:33:38.778;539787836759630388;309556;333945;252446;-1328;
2024-05-24T23:33:38.796;539787836777787370;309474;333923;252391;-1400;
2024-05-24T23:33:38.814;539787836795944352;309437;333919;252377;-1313;
2024-05-24T23:33:38.832;539787836814101334;309366;333852;252315;-1363;
2024-05-24T23:33:38.851;539787836832258316;309390;333790;252293;-1355;
2024-05-24T23:33:38.869;539787836850415298;309300;333778;252315;-1368;
2024-05-24T23:33:38.887;539787836868572280;309271;333757;252243;-1362;
2024-05-24T23:33:38.905;539787836886729262;309252;333716;252230;-1398;
2024-05-24T23:33:38.923;539787836904886244;309272;333713;252255;-1352;
2024-05-24T23:33:38.941;539787836923043577;309288;333683;252239;-1351;
2024-05-24T23:33:38.959;539787836941200878;309347;333705;252282;-1396;
2024-05-24T23:33:38.978;539787836959358179;309404;333760;252296;-1365;
2024-05-24T23:33:38.996;539787836977515480;309435;333749;252301;-1321;
2024-05-24T23:33:39.014;539787836995672781;309483;333786;252417;-1375;
2024-05-24T23:33:39.032;539787837013830082;309470;333815;252314;-1396;
2024-05-24T23:33:39.050;539787837031987383;309542;333865;252448;-1345;
2024-05-24T23:33:39.068;539787837050144684;309526;333848;252371;-1350;
2024-05-24T23:33:39.087;539787837068301985;309595;333923;252439;-1277;
2024-05-24T23:33:39.105;539787837086459286;309641;334003;252450;-1284;
2024-05-24T23:33:39.123;539787837104616587;309628;333982;252450;-1355;
2024-05-24T23:33:39.141;539787837122773888;309673;334010;252453;-1334;
2024-05-24T23:33:39.159;539787837140931189;309677;334033;252551;-1331;
2024-05-24T23:33:39.177;539787837159088490;309695;334039;252597;-1324;
2024-05-24T23:33:39.196;539787837177245791;309646;334047;252542;-1347;
2024-05-24T23:33:39.214;539787837195403092;309564;333972;252527;-1337;
2024-05-24T23:33:39.232;539787837213560393;309332;333695;252328;-1350;
2024-05-24T23:33:39.250;539787837231717694;309117;333398;252146;-1336;
2024-05-24T23:33:39.268;539787837249874995;308801;333016;251965;-1344;
2024-05-24T23:33:39.286;539787837268032296;308463;332657;251662;-1338;
2024-05-24T23:33:39.304;539787837286189597;308161;332259;251433;-1343;
2024-05-24T23:33:39.323;539787837304346898;307914;331994;251293;-1362;
2024-05-24T23:33:39.341;539787837322504199;307822;331789;251194;-1286;
2024-05-24T23:33:39.359;539787837340661500;307580;331637;251075;-1283;
2024-05-24T23:33:39.377;539787837358818801;307544;331582;251111;-1323;
2024-05-24T23:33:39.395;539787837376976102;307621;331527;251026;-1359;
2024-05-24T23:33:39.413;539787837395133403;307589;331569;251026;-1406;
2024-05-24T23:33:39.432;539787837413290704;307667;331727;251127;-1316;
2024-05-24T23:33:39.450;539787837431448005;307759;331823;251204;-1310;
2024-05-24T23:33:39.468;539787837449605306;307860;331933;251252;-1345;
2024-05-24T23:33:39.486;539787837467762607;307940;331944;251294;-1399;
2024-05-24T23:33:39.504;539787837485919908;307932;331969;251300;-1305;
2024-05-24T23:33:39.522;539787837504077209;307928;331895;251266;-1379;
2024-05-24T23:33:39.541;539787837522234510;307993;331982;251344;-1344;
2024-05-24T23:33:39.559;539787837540391811;307982;331926;251349;-1363;
2024-05-24T23:33:39.577;539787837558549112;307936;331989;251376;-1337;
2024-05-24T23:33:39.595;539787837576706413;307882;331906;251337;-1351;
2024-05-24T23:33:39.613;539787837594863714;307825;331958;251298;-1378;
2024-05-24T23:33:39.631;539787837613021015;307803;331862;251298;-1325;
2024-05-24T23:33:39.649;539787837631178316;307812;331838;251299;-1403;
2024-05-24T23:33:39.668;539787837649335617;307776;331817;251196;-1342;
2024-05-24T23:33:39.686;539787837667492918;307819;331764;251218;-1336;
2024-05-24T23:33:39.704;539787837685649712;307774;331763;251246;-1373;
2024-05-24T23:33:39.722;539787837703806500;307752;331744;251243;-1393;
2024-05-24T23:33:39.740;539787837721963288;307763;331791;251252;-1363;
2024-05-24T23:33:39.758;539787837740120076;307808;331850;251307;-1341;
2024-05-24T23:33:39.777;539787837758276864;307861;331857;251289;-1303;
2024-05-24T23:33:39.795;539787837776433652;307929;331878;251347;-1376;
2024-05-24T23:33:39.813;539787837794590440;307928;331995;251387;-1340;
2024-05-24T23:33:39.831;539787837812747228;308037;332043;251424;-1372;
2024-05-24T23:33:39.849;539787837830904016;308053;332077;251445;-1399;
2024-05-24T23:33:39.867;539787837849060804;308048;332114;251493;-1362;
2024-05-24T23:33:39.886;539787837867217592;308109;332108;251502;-1376;
2024-05-24T23:33:39.904;539787837885374380;308139;332232;251576;-1360;
2024-05-24T23:33:39.922;539787837903531168;308160;332299;251573;-1393;
2024-05-24T23:33:39.940;539787837921687956;308191;332298;251575;-1461;
2024-05-24T23:33:39.958;539787837939844744;308206;332280;251594;-1405;
2024-05-24T23:33:39.976;539787837958001532;308213;332330;251709;-1414;
2024-05-24T23:33:39.994;539787837976158320;308244;332305;251707;-1357;
2024-05-24T23:33:40.013;539787837994315108;308359;332370;251664;-1358;
2024-05-24T23:33:40.031;539787838012471896;308263;332369;251617;-1317;
2024-05-24T23:33:40.049;539787838030628684;308109;332192;251540;-1374;
2024-05-24T23:33:40.067;539787838048785472;307829;331857;251395;-1354;
2024-05-24T23:33:40.085;539787838066942260;307557;331546;251277;-1331;
2024-05-24T23:33:40.103;539787838085099048;307218;331197;250952;-1368;
2024-05-24T23:33:40.122;539787838103255836;306968;330878;250791;-1351;
2024-05-24T23:33:40.140;539787838121412624;306559;330566;250602;-1391;
2024-05-24T23:33:40.158;539787838139569412;306376;330369;250462;-1386;
2024-05-24T23:33:40.176;539787838157726200;306229;330187;250424;-1402;
2024-05-24T23:33:40.194;539787838175882988;306164;330121;250313;-1409;
2024-05-24T23:33:40.212;539787838194039776;306129;330077;250268;-1420;
2024-05-24T23:33:40.230;539787838212196564;306212;330255;250359;-1361;
2024-05-24T23:33:40.249;539787838230353352;306367;330360;250435;-1309;
2024-05-24T23:33:40.267;539787838248510140;306489;330500;250542;-1353;
2024-05-24T23:33:40.285;539787838266666928;306537;330617;250629;-1371;
2024-05-24T23:33:40.303;539787838284823716;306611;330740;250666;-1295;
2024-05-24T23:33:40.321;539787838302980504;306671;330779;250714;-1346;
2024-05-24T23:33:40.339;539787838321137292;306690;330770;250759;-1342;
2024-05-24T23:33:40.358;539787838339294080;306672;330847;250796;-1371;
2024-05-24T23:33:40.376;539787838357450868;306692;330871;250829;-1337;
2024-05-24T23:33:40.394;539787838375607656;306678;330829;250717;-1406;
2024-05-24T23:33:40.412;539787838393764444;306683;330836;250744;-1347;
2024-05-24T23:33:40.430;539787838411921232;306594;330793;250699;-1395;
2024-05-24T23:33:40.448;539787838430078020;306668;330835;250780;-1386;
2024-05-24T23:33:40.467;539787838448234808;306616;330776;250760;-1399;
2024-05-24T23:33:40.485;539787838466391596;306625;330817;250760;-1387;
2024-05-24T23:33:40.503;539787838484547573;306565;330777;250804;-1348;
2024-05-24T23:33:40.521;539787838502703530;306592;330876;250832;-1354;
2024-05-24T23:33:40.539;539787838520859487;306602;330868;250870;-1329;
2024-05-24T23:33:40.557;539787838539015444;306611;330966;250847;-1325;
2024-05-24T23:33:40.575;539787838557171401;306605;330951;250877;-1346;
2024-05-24T23:33:40.594;539787838575327358;306708;330995;250896;-1321;
2024-05-24T23:33:40.612;539787838593483315;306750;331007;250924;-1385;
2024-05-24T23:33:40.630;539787838611639272;306860;331168;251016;-1331;
2024-05-24T23:33:40.648;539787838629795229;306862;331143;251042;-1368;
2024-05-24T23:33:40.666;539787838647951186;306947;331305;251057;-1350;
2024-05-24T23:33:40.684;539787838666107143;306963;331346;251099;-1327;
2024-05-24T23:33:40.703;539787838684263100;307079;331439;251212;-1302;
2024-05-24T23:33:40.721;539787838702419057;307090;331476;251194;-1276;
2024-05-24T23:33:40.739;539787838720575014;307048;331528;251232;-1317;
2024-05-24T23:33:40.757;539787838738730971;307100;331606;251247;-1364;
2024-05-24T23:33:40.775;539787838756886928;307145;331618;251303;-1310;
2024-05-24T23:33:40.793;539787838775042885;307206;331680;251343;-1324;
2024-05-24T23:33:40.811;539787838793198842;307232;331798;251351;-1327;
2024-05-24T23:33:40.830;539787838811354799;307286;331831;251411;-1304;
2024-05-24T23:33:40.848;539787838829510756;307359;331828;251383;-1278;
2024-05-24T23:33:40.866;539787838847666713;307241;331764;251336;-1335;
2024-05-24T23:33:40.884;539787838865822670;307094;331501;251265;-1309;
2024-05-24T23:33:40.902;539787838883978627;306825;331348;251136;-1356;
2024-05-24T23:33:40.920;539787838902134584;306550;331046;250936;-1309;
2024-05-24T23:33:40.939;539787838920290541;306245;330744;250742;-1318;
2024-05-24T23:33:40.957;539787838938446498;305957;330471;250565;-1334;
2024-05-24T23:33:40.975;539787838956602455;305719;330279;250410;-1307;
2024-05-24T23:33:40.993;539787838974758412;305508;330122;250247;-1344;
2024-05-24T23:33:41.011;539787838992914369;305409;330059;250142;-1329;
2024-05-24T23:33:41.029;539787839011070326;305329;330076;250146;-1341;
2024-05-24T23:33:41.048;539787839029226283;305401;330102;250189;-1383;
2024-05-24T23:33:41.066;539787839047382240;305459;330108;250190;-1371;
2024-05-24T23:33:41.084;539787839065538197;305609;330322;250321;-1318;
2024-05-24T23:33:41.102;539787839083694154;305725;330446;250406;-1335;
2024-05-24T23:33:41.120;539787839101850111;305917;330660;250507;-1324;
2024-05-24T23:33:41.138;539787839120006068;306009;330712;250591;-1310;
2024-05-24T23:33:41.156;539787839138162025;306076;330835;250616;-1346;
2024-05-24T23:33:41.175;539787839156317982;306229;330980;250684;-1358;
2024-05-24T23:33:41.193;539787839174473939;306256;331022;250788;-1413;
2024-05-24T23:33:41.211;539787839192629896;306284;331093;250825;-1351;
2024-05-24T23:33:41.229;539787839210785853;306347;331127;250870;-1323;
2024-05-24T23:33:41.247;539787839228941810;306365;331142;250841;-1346;
2024-05-24T23:33:41.265;539787839247097955;306352;331192;250845;-1338;
2024-05-24T23:33:41.284;539787839265254094;306419;331293;250899;-1308;
2024-05-24T23:33:41.302;539787839283410233;306445;331341;250965;-1319;
2024-05-24T23:33:41.320;539787839301566372;306465;331361;251007;-1330;
2024-05-24T23:33:41.338;539787839319722511;306480;331394;250967;-1348;
2024-05-24T23:33:41.356;539787839337878650;306622;331450;251029;-1324;
2024-05-24T23:33:41.374;539787839356034789;306676;331618;251126;-1283;
2024-05-24T23:33:41.392;539787839374190928;306677;331690;251094;-1377;
2024-05-24T23:33:41.411;539787839392347067;306800;331721;251115;-1353;
2024-05-24T23:33:41.429;539787839410503206;306874;331826;251222;-1381;
2024-05-24T23:33:41.447;539787839428659345;306922;331954;251307;-1350;
2024-05-24T23:33:41.465;539787839446815484;307064;332094;251434;-1287;
2024-05-24T23:33:41.483;539787839464971623;307179;332139;251442;-1391;
2024-05-24T23:33:41.501;539787839483127762;307238;332259;251555;-1396;
2024-05-24T23:33:41.520;539787839501283901;307309;332361;251554;-1340;
2024-05-24T23:33:41.538;539787839519440040;307432;332490;251605;-1318;
2024-05-24T23:33:41.556;539787839537596179;307523;332578;251728;-1299;
2024-05-24T23:33:41.574;539787839555752318;307520;332698;251765;-1358;
2024-05-24T23:33:41.592;539787839573908457;307725;332802;251818;-1284;
2024-05-24T23:33:41.610;539787839592064596;307724;332876;251900;-1304;
2024-05-24T23:33:41.629;539787839610220735;307877;332926;251929;-1244;
2024-05-24T23:33:41.647;539787839628376874;307904;333016;251969;-1368;
2024-05-24T23:33:41.665;539787839646533013;308023;333089;252061;-1331;
2024-05-24T23:33:41.683;539787839664689152;308044;333220;252100;-1313;
2024-05-24T23:33:41.701;539787839682845291;308041;333337;252157;-1277;
2024-05-24T23:33:41.719;539787839701001430;308119;333375;252127;-1311;
2024-05-24T23:33:41.737;539787839719157569;308161;333377;252163;-1365;
2024-05-24T23:33:41.756;539787839737313708;308143;333398;252204;-1345;
2024-05-24T23:33:41.774;539787839755469847;308114;333347;252092;-1346;
2024-05-24T23:33:41.792;539787839773625986;308002;333176;252004;-1335;
2024-05-24T23:33:41.810;539787839791782125;307720;332954;251904;-1294;
2024-05-24T23:33:41.828;539787839809938264;307444;332684;251686;-1333;
2024-05-24T23:33:41.846;539787839828094403;307200;332517;251543;-1284;
2024-05-24T23:33:41.865;539787839846250542;306946;332318;251394;-1312;
2024-05-24T23:33:41.883;539787839864406681;306897;332183;251335;-1329;
2024-05-24T23:33:41.901;539787839882562820;306835;332083;251263;-1316;
2024-05-24T23:33:41.919;539787839900718959;306787;332118;251201;-1364;
2024-05-24T23:33:41.937;539787839918875098;306818;332126;251246;-1271;
2024-05-24T23:33:41.955;539787839937031237;306861;332226;251320;-1322;
2024-05-24T23:33:41.973;539787839955187376;306948;332320;251398;-1339;
2024-05-24T23:33:41.992;539787839973343515;307115;332456;251379;-1339;
2024-05-24T23:33:42.010;539787839991499654;307233;332675;251504;-1374;
2024-05-24T23:33:42.028;539787840009657153;307389;332791;251624;-1310;
2024-05-24T23:33:42.046;539787840027814636;307545;332909;251693;-1368;
2024-05-24T23:33:42.064;539787840045972119;307562;332986;251713;-1318;
2024-05-24T23:33:42.082;539787840064129602;307671;333098;251781;-1339;
2024-05-24T23:33:42.101;539787840082287085;307725;333149;251843;-1322;
2024-05-24T23:33:42.119;539787840100444568;307762;333202;251868;-1392;
2024-05-24T23:33:42.137;539787840118602051;307830;333216;251895;-1397;
2024-05-24T23:33:42.155;539787840136759534;307918;333285;251925;-1356;
2024-05-24T23:33:42.173;539787840154917017;307889;333363;251946;-1296;
2024-05-24T23:33:42.191;539787840173074500;307985;333386;251988;-1383;
2024-05-24T23:33:42.210;539787840191231983;307964;333427;252030;-1372;
2024-05-24T23:33:42.228;539787840209389466;308024;333487;252042;-1348;
2024-05-24T23:33:42.246;539787840227546949;308104;333602;252071;-1395;
2024-05-24T23:33:42.264;539787840245704432;308193;333643;252117;-1419;
2024-05-24T23:33:42.282;539787840263861915;308241;333791;252220;-1285;
2024-05-24T23:33:42.300;539787840282019398;308343;333830;252261;-1314;
2024-05-24T23:33:42.318;539787840300176881;308397;333951;252252;-1347;
2024-05-24T23:33:42.337;539787840318334364;308461;334067;252383;-1353;
2024-05-24T23:33:42.355;539787840336491847;308524;334153;252450;-1337;
2024-05-24T23:33:42.373;539787840354649330;308635;334246;252456;-1331;
2024-05-24T23:33:42.391;539787840372806813;308795;334309;252548;-1295;
2024-05-24T23:33:42.409;539787840390964296;308882;334445;252607;-1342;
2024-05-24T23:33:42.427;539787840409121779;309042;334567;252717;-1342;
2024-05-24T23:33:42.446;539787840427279262;309084;334588;252742;-1357;
2024-05-24T23:33:42.464;539787840445436745;309094;334744;252800;-1382;
2024-05-24T23:33:42.482;539787840463594228;309278;334829;252859;-1340;
2024-05-24T23:33:42.500;539787840481751711;309286;334879;252963;-1364;
2024-05-24T23:33:42.518;539787840499909194;309379;335012;253005;-1345;
2024-05-24T23:33:42.536;539787840518066677;309447;335060;253066;-1308;
2024-05-24T23:33:42.555;539787840536224160;309498;335113;253103;-1331;
2024-05-24T23:33:42.573;539787840554381643;309578;335248;253148;-1369;
2024-05-24T23:33:42.591;539787840572539126;309644;335265;253123;-1323;
2024-05-24T23:33:42.609;539787840590696609;309705;335384;253205;-1329;
2024-05-24T23:33:42.627;539787840608854092;309846;335519;253224;-1331;
2024-05-24T23:33:42.645;539787840627011575;309807;335549;253301;-1363;
2024-05-24T23:33:42.663;539787840645169058;309877;335583;253316;-1314;
2024-05-24T23:33:42.682;539787840663326541;309897;335596;253389;-1333;
2024-05-24T23:33:42.700;539787840681484024;309856;335603;253330;-1327;
2024-05-24T23:33:42.718;539787840699641507;309722;335472;253259;-1390;
2024-05-24T23:33:42.736;539787840717798990;309588;335337;253157;-1338;
2024-05-24T23:33:42.754;539787840735956473;309438;335101;252968;-1390;
2024-05-24T23:33:42.772;539787840754113956;309191;334959;252900;-1338;
2024-05-24T23:33:42.791;539787840772270417;309091;334806;252791;-1289;
2024-05-24T23:33:42.809;539787840790426846;308889;334654;252686;-1302;
2024-05-24T23:33:42.827;539787840808583275;308871;334661;252652;-1354;
2024-05-24T23:33:42.845;539787840826739704;308801;334573;252595;-1379;
2024-05-24T23:33:42.863;539787840844896133;308834;334661;252716;-1359;
2024-05-24T23:33:42.881;539787840863052562;308937;334664;252721;-1331;
2024-05-24T23:33:42.899;539787840881208991;308997;334766;252738;-1372;
2024-05-24T23:33:42.918;539787840899365420;309138;334847;252786;-1301;
2024-05-24T23:33:42.936;539787840917521849;309180;334928;252859;-1422;
2024-05-24T23:33:42.954;539787840935678278;309356;335053;252867;-1324;
2024-05-24T23:33:42.972;539787840953834707;309457;335226;252966;-1314;
2024-05-24T23:33:42.990;539787840971991136;309519;335261;253048;-1355;
2024-05-24T23:33:43.008;539787840990147565;309571;335290;253039;-1316;
2024-05-24T23:33:43.027;539787841008303994;309614;335394;253109;-1328;
2024-05-24T23:33:43.045;539787841026460423;309638;335441;253137;-1362;
2024-05-24T23:33:43.063;539787841044616852;309687;335440;253174;-1372;
2024-05-24T23:33:43.081;539787841062773281;309667;335456;253163;-1346;
2024-05-24T23:33:43.099;539787841080929710;309744;335530;253184;-1357;
2024-05-24T23:33:43.117;539787841099086139;309852;335541;253221;-1383;
2024-05-24T23:33:43.136;539787841117242568;309811;335580;253209;-1327;
2024-05-24T23:33:43.154;539787841135398997;309893;335631;253292;-1325;
2024-05-24T23:33:43.172;539787841153555426;309900;335666;253282;-1347;
2024-05-24T23:33:43.190;539787841171711855;310051;335835;253406;-1302;
2024-05-24T23:33:43.208;539787841189868284;310022;335867;253336;-1350;
2024-05-24T23:33:43.226;539787841208024713;310139;335929;253456;-1372;
2024-05-24T23:33:43.244;539787841226181142;310242;336115;253541;-1330;
2024-05-24T23:33:43.263;539787841244337571;310324;336225;253579;-1312;
2024-05-24T23:33:43.281;539787841262494000;310394;336271;253659;-1321;
2024-05-24T23:33:43.299;539787841280650429;310472;336373;253757;-1326;
2024-05-24T23:33:43.317;539787841298806858;310585;336477;253763;-1378;
2024-05-24T23:33:43.335;539787841316963287;310668;336518;253839;-1327;
2024-05-24T23:33:43.353;539787841335119716;310760;336623;253895;-1392;
2024-05-24T23:33:43.372;539787841353276145;310892;336731;253963;-1373;
2024-05-24T23:33:43.390;539787841371432574;310975;336838;254018;-1397;
2024-05-24T23:33:43.408;539787841389589003;311069;336907;254037;-1346;
2024-05-24T23:33:43.426;539787841407745432;311092;337029;254104;-1345;
2024-05-24T23:33:43.444;539787841425901861;311200;337063;254155;-1354;
2024-05-24T23:33:43.462;539787841444058290;311260;337124;254214;-1380;
2024-05-24T23:33:43.481;539787841462214719;311328;337198;254250;-1356;
2024-05-24T23:33:43.499;539787841480371148;311428;337328;254300;-1341;
2024-05-24T23:33:43.517;539787841498527577;311518;337428;254341;-1309;
2024-05-24T23:33:43.535;539787841516684006;311554;337442;254370;-1363;
2024-05-24T23:33:43.553;539787841534841771;311536;337511;254379;-1334;
2024-05-24T23:33:43.571;539787841552999508;311554;337536;254363;-1354;
2024-05-24T23:33:43.589;539787841571157245;311551;337471;254412;-1301;
2024-05-24T23:33:43.608;539787841589314982;311532;337391;254360;-1361;
2024-05-24T23:33:43.626;539787841607472719;311402;337314;254303;-1334;
2024-05-24T23:33:43.644;539787841625630456;311252;337095;254204;-1330;
2024-05-24T23:33:43.662;539787841643788193;311096;336890;254084;-1312;
2024-05-24T23:33:43.680;539787841661945930;310883;336666;253855;-1376;
2024-05-24T23:33:43.698;539787841680103667;310761;336447;253788;-1344;
2024-05-24T23:33:43.717;539787841698261404;310564;336327;253715;-1382;
2024-05-24T23:33:43.735;539787841716419141;310591;336330;253658;-1306;
2024-05-24T23:33:43.753;539787841734576878;310585;336315;253626;-1355;
2024-05-24T23:33:43.771;539787841752734615;310525;336278;253638;-1341;
2024-05-24T23:33:43.789;539787841770892352;310554;336330;253631;-1346;
2024-05-24T23:33:43.807;539787841789050089;310732;336427;253670;-1359;
2024-05-24T23:33:43.825;539787841807207826;310850;336566;253789;-1340;
2024-05-24T23:33:43.844;539787841825365563;310930;336623;253773;-1353;
2024-05-24T23:33:43.862;539787841843523300;311023;336739;253847;-1364;
2024-05-24T23:33:43.880;539787841861681037;311094;336833;253908;-1376;
2024-05-24T23:33:43.898;539787841879838774;311189;337003;254045;-1327;
2024-05-24T23:33:43.916;539787841897996511;311181;337042;254045;-1314;
2024-05-24T23:33:43.934;539787841916154248;311272;337080;254103;-1356;
2024-05-24T23:33:43.953;539787841934311985;311333;337115;254168;-1318;
2024-05-24T23:33:43.971;539787841952469722;311331;337094;254159;-1325;
2024-05-24T23:33:43.989;539787841970627459;311374;337177;254143;-1330;
2024-05-24T23:33:44.007;539787841988785196;311364;337207;254116;-1379;
2024-05-24T23:33:44.025;539787842006942933;311395;337182;254146;-1340;
2024-05-24T23:33:44.043;539787842025100670;311522;337264;254145;-1318;
2024-05-24T23:33:44.062;539787842043258407;311479;337245;254180;-1305;
2024-05-24T23:33:44.080;539787842061416144;311557;337267;254190;-1352;
2024-05-24T23:33:44.098;539787842079573881;311601;337332;254237;-1353;
2024-05-24T23:33:44.116;539787842097731618;311631;337361;254236;-1335;
2024-05-24T23:33:44.134;539787842115889355;311635;337460;254290;-1324;
2024-05-24T23:33:44.152;539787842134047092;311752;337511;254269;-1309;
2024-05-24T23:33:44.170;539787842152204829;311846;337578;254375;-1294;
2024-05-24T23:33:44.189;539787842170362566;311873;337611;254375;-1364;
2024-05-24T23:33:44.207;539787842188520303;311943;337740;254404;-1309;
2024-05-24T23:33:44.225;539787842206678040;312027;337846;254549;-1383;
2024-05-24T23:33:44.243;539787842224835777;312152;337838;254518;-1365;
2024-05-24T23:33:44.261;539787842242993514;312180;337936;254615;-1360;
2024-05-24T23:33:44.279;539787842261151251;312290;337981;254620;-1303;
2024-05-24T23:33:44.298;539787842279308988;312294;338039;254632;-1386;
2024-05-24T23:33:44.316;539787842297465549;312398;338104;254706;-1389;
2024-05-24T23:33:44.334;539787842315622094;312526;338264;254806;-1341;
2024-05-24T23:33:44.352;539787842333778639;312545;338284;254805;-1397;
2024-05-24T23:33:44.370;539787842351935184;312650;338333;254835;-1353;
2024-05-24T23:33:44.388;539787842370091729;312680;338428;254874;-1357;
2024-05-24T23:33:44.407;539787842388248274;312767;338414;254882;-1415;
2024-05-24T23:33:44.425;539787842406404819;312755;338441;254936;-1343;
2024-05-24T23:33:44.443;539787842424561364;312798;338528;254943;-1422;
2024-05-24T23:33:44.461;539787842442717909;312859;338590;254953;-1407;
2024-05-24T23:33:44.479;539787842460874454;312901;338617;254938;-1345;
2024-05-24T23:33:44.497;539787842479030999;312876;338617;254933;-1344;
2024-05-24T23:33:44.515;539787842497187544;312826;338502;254894;-1304;
2024-05-24T23:33:44.534;539787842515344089;312692;338345;254814;-1338;
2024-05-24T23:33:44.552;539787842533500634;312501;338171;254652;-1348;
2024-05-24T23:33:44.570;539787842551657179;312363;337975;254534;-1353;
2024-05-24T23:33:44.588;539787842569813724;312110;337595;254358;-1394;
2024-05-24T23:33:44.606;539787842587970269;311982;337435;254248;-1354;
2024-05-24T23:33:44.624;539787842606126814;311780;337252;254077;-1373;
2024-05-24T23:33:44.643;539787842624283359;311646;337120;253982;-1330;
2024-05-24T23:33:44.661;539787842642439904;311591;336976;253858;-1370;
2024-05-24T23:33:44.679;539787842660596449;311569;337009;253912;-1387;
2024-05-24T23:33:44.697;539787842678752994;311603;337028;253869;-1386;
2024-05-24T23:33:44.715;539787842696909539;311626;337048;253860;-1368;
2024-05-24T23:33:44.733;539787842715066084;311718;337161;253954;-1375;
2024-05-24T23:33:44.752;539787842733222629;311840;337302;254007;-1352;
2024-05-24T23:33:44.770;539787842751379174;311946;337396;253997;-1353;
2024-05-24T23:33:44.788;539787842769535719;312018;337424;254126;-1399;
2024-05-24T23:33:44.806;539787842787692264;312091;337524;254267;-1330;
2024-05-24T23:33:44.824;539787842805848809;312115;337558;254220;-1363;
2024-05-24T23:33:44.842;539787842824005354;312216;337560;254224;-1331;
2024-05-24T23:33:44.860;539787842842161899;312176;337527;254193;-1342;
2024-05-24T23:33:44.879;539787842860318444;312231;337566;254218;-1342;
2024-05-24T23:33:44.897;539787842878474989;312303;337603;254220;-1355;
2024-05-24T23:33:44.915;539787842896631534;312247;337572;254176;-1382;
2024-05-24T23:33:44.933;539787842914788079;312270;337637;254246;-1337;
2024-05-24T23:33:44.951;539787842932944624;312319;337592;254266;-1280;
2024-05-24T23:33:44.969;539787842951101169;312326;337660;254268;-1314;
2024-05-24T23:33:44.988;539787842969257714;312368;337698;254284;-1321;
2024-05-24T23:33:45.006;539787842987414259;312394;337713;254319;-1336;
2024-05-24T23:33:45.024;539787843005570804;312405;337737;254341;-1364;
2024-05-24T23:33:45.042;539787843023727349;312450;337750;254345;-1339;
2024-05-24T23:33:45.060;539787843041883894;312485;337845;254342;-1296;
2024-05-24T23:33:45.078;539787843060040439;312611;337926;254379;-1331;
2024-05-24T23:33:45.096;539787843078196984;312647;338027;254386;-1334;
2024-05-24T23:33:45.115;539787843096352869;312741;338051;254475;-1358;
2024-05-24T23:33:45.133;539787843114508720;312818;338139;254484;-1295;
2024-05-24T23:33:45.151;539787843132664571;312824;338167;254533;-1300;
2024-05-24T23:33:45.169;539787843150820422;312880;338195;254577;-1324;
2024-05-24T23:33:45.187;539787843168976273;312914;338300;254638;-1376;
2024-05-24T23:33:45.205;539787843187132124;313020;338316;254675;-1337;
2024-05-24T23:33:45.224;539787843205287975;313072;338374;254672;-1290;
2024-05-24T23:33:45.242;539787843223443826;313138;338403;254676;-1278;
2024-05-24T23:33:45.260;539787843241599677;313149;338451;254659;-1328;
2024-05-24T23:33:45.278;539787843259755528;313191;338530;254684;-1342;
2024-05-24T23:33:45.296;539787843277911379;313239;338531;254754;-1351;
2024-05-24T23:33:45.314;539787843296067230;313259;338530;254767;-1327;
2024-05-24T23:33:45.333;539787843314223081;313341;338593;254803;-1371;
2024-05-24T23:33:45.351;539787843332378932;313392;338679;254821;-1313;
2024-05-24T23:33:45.369;539787843350534783;313376;338673;254789;-1327;
2024-05-24T23:33:45.387;539787843368690634;313418;338704;254873;-1344;
2024-05-24T23:33:45.405;539787843386846485;313435;338741;254871;-1328;
2024-05-24T23:33:45.423;539787843405002336;313370;338674;254843;-1357;
2024-05-24T23:33:45.441;539787843423158187;313237;338506;254737;-1339;
2024-05-24T23:33:45.460;539787843441314038;313116;338311;254631;-1311;
2024-05-24T23:33:45.478;539787843459469889;312844;338057;254359;-1392;
2024-05-24T23:33:45.496;539787843477625740;312597;337772;254140;-1391;
2024-05-24T23:33:45.514;539787843495781591;312390;337462;253988;-1374;
2024-05-24T23:33:45.532;539787843513937442;312117;337097;253780;-1381;
2024-05-24T23:33:45.550;539787843532093293;311940;336910;253639;-1334;
2024-05-24T23:33:45.569;539787843550249144;311819;336741;253570;-1306;
2024-05-24T23:33:45.587;539787843568404995;311657;336575;253418;-1331;
2024-05-24T23:33:45.605;539787843586560846;311604;336532;253435;-1328;
2024-05-24T23:33:45.623;539787843604716697;311580;336511;253375;-1370;
2024-05-24T23:33:45.641;539787843622872548;311719;336534;253427;-1392;
2024-05-24T23:33:45.659;539787843641028399;311708;336592;253378;-1406;
2024-05-24T23:33:45.677;539787843659184250;311871;336717;253521;-1346;
2024-05-24T23:33:45.696;539787843677340101;311908;336861;253612;-1327;
2024-05-24T23:33:45.714;539787843695495952;312010;336910;253608;-1371;
2024-05-24T23:33:45.732;539787843713651803;312034;336992;253666;-1326;
2024-05-24T23:33:45.750;539787843731807654;312068;336998;253673;-1327;
2024-05-24T23:33:45.768;539787843749963505;312107;337010;253729;-1301;
2024-05-24T23:33:45.786;539787843768119356;312170;337012;253709;-1297;
2024-05-24T23:33:45.805;539787843786275207;312173;336998;253690;-1290;
2024-05-24T23:33:45.823;539787843804431058;312192;336947;253690;-1313;
2024-05-24T23:33:45.841;539787843822586909;312137;336893;253654;-1339;
2024-05-24T23:33:45.859;539787843840742760;312198;336910;253679;-1362;
2024-05-24T23:33:45.877;539787843858898611;312203;336904;253641;-1346;
2024-05-24T23:33:45.895;539787843877054462;312125;336918;253632;-1374;
2024-05-24T23:33:45.913;539787843895210390;312154;336910;253612;-1333;
2024-05-24T23:33:45.932;539787843913366292;312180;336942;253643;-1407;
2024-05-24T23:33:45.950;539787843931522194;312116;336934;253596;-1352;
2024-05-24T23:33:45.968;539787843949678096;312216;337012;253591;-1316;
2024-05-24T23:33:45.986;539787843967833998;312275;336991;253683;-1343;
2024-05-24T23:33:46.004;539787843985989900;312334;337056;253719;-1362;
2024-05-24T23:33:46.022;539787844004145802;312357;337128;253796;-1389;
2024-05-24T23:33:46.041;539787844022301704;312465;337197;253809;-1319;
2024-05-24T23:33:46.059;539787844040457606;312538;337249;253824;-1360;
2024-05-24T23:33:46.077;539787844058613508;312573;337299;253898;-1354;
2024-05-24T23:33:46.095;539787844076769410;312623;337332;253901;-1383;
2024-05-24T23:33:46.113;539787844094925312;312734;337447;253929;-1316;
2024-05-24T23:33:46.131;539787844113081214;312755;337504;253937;-1343;
2024-05-24T23:33:46.150;539787844131237116;312835;337559;253987;-1364;
2024-05-24T23:33:46.168;539787844149393018;312892;337611;254040;-1351;
2024-05-24T23:33:46.186;539787844167548920;312886;337579;254043;-1398;
2024-05-24T23:33:46.204;539787844185704822;312962;337729;254150;-1334;
2024-05-24T23:33:46.222;539787844203860724;313002;337789;254174;-1335;
2024-05-24T23:33:46.240;539787844222016626;313030;337781;254200;-1350;
2024-05-24T23:33:46.258;539787844240172528;313081;337757;254198;-1323;
2024-05-24T23:33:46.277;539787844258328430;313169;337776;254210;-1331;
2024-05-24T23:33:46.295;539787844276484332;313159;337867;254267;-1303;
2024-05-24T23:33:46.313;539787844294640234;313213;337923;254268;-1294;
2024-05-24T23:33:46.331;539787844312796136;313120;337885;254228;-1360;
2024-05-24T23:33:46.349;539787844330952038;312986;337828;254136;-1360;
2024-05-24T23:33:46.367;539787844349107940;312882;337572;254034;-1370;
2024-05-24T23:33:46.386;539787844367263842;312663;337299;253859;-1402;
2024-05-24T23:33:46.404;539787844385419744;312378;337006;253648;-1383;
2024-05-24T23:33:46.422;539787844403575646;312065;336652;253375;-1344;
2024-05-24T23:33:46.440;539787844421731548;311822;336271;253193;-1360;
2024-05-24T23:33:46.458;539787844439887450;311473;335952;252945;-1352;
2024-05-24T23:33:46.476;539787844458043352;311360;335731;252853;-1319;
2024-05-24T23:33:46.494;539787844476199254;311093;335561;252708;-1317;
2024-05-24T23:33:46.513;539787844494355156;311064;335404;252675;-1307;
2024-05-24T23:33:46.531;539787844512511058;310972;335346;252681;-1355;
2024-05-24T23:33:46.549;539787844530666960;310981;335324;252674;-1335;
2024-05-24T23:33:46.567;539787844548822862;311052;335353;252683;-1350;
2024-05-24T23:33:46.585;539787844566978764;311074;335469;252658;-1345;
2024-05-24T23:33:46.603;539787844585134666;311132;335589;252759;-1347;
2024-05-24T23:33:46.622;539787844603290568;311208;335661;252871;-1359;
2024-05-24T23:33:46.640;539787844621446470;311217;335630;252910;-1346;
2024-05-24T23:33:46.658;539787844639602609;311222;335643;252879;-1355;
2024-05-24T23:33:46.676;539787844657758738;311207;335647;252959;-1381;
2024-05-24T23:33:46.694;539787844675914867;311187;335615;252868;-1351;
2024-05-24T23:33:46.712;539787844694070996;311198;335591;252856;-1300;
2024-05-24T23:33:46.731;539787844712227125;311197;335476;252812;-1357;
2024-05-24T23:33:46.749;539787844730383254;311086;335429;252763;-1395;
2024-05-24T23:33:46.767;539787844748539383;311097;335433;252821;-1358;
2024-05-24T23:33:46.785;539787844766695512;311090;335388;252738;-1364;
2024-05-24T23:33:46.803;539787844784851641;311059;335357;252742;-1363;
2024-05-24T23:33:46.821;539787844803007770;311028;335310;252726;-1347;
2024-05-24T23:33:46.839;539787844821163899;311008;335327;252696;-1357;
2024-05-24T23:33:46.858;539787844839320028;311056;335326;252752;-1357;
2024-05-24T23:33:46.876;539787844857476157;311006;335268;252720;-1407;
2024-05-24T23:33:46.894;539787844875632286;311075;335343;252749;-1363;
2024-05-24T23:33:46.912;539787844893788415;311132;335370;252790;-1382;
2024-05-24T23:33:46.930;539787844911944544;311154;335401;252817;-1404;
2024-05-24T23:33:46.948;539787844930100673;311177;335535;252845;-1371;
2024-05-24T23:33:46.967;539787844948256802;311263;335479;252961;-1325;
2024-05-24T23:33:46.985;539787844966412931;311272;335538;252956;-1348;
2024-05-24T23:33:47.003;539787844984569060;311326;335568;252939;-1370;
2024-05-24T23:33:47.021;539787845002725189;311367;335608;253028;-1352;
2024-05-24T23:33:47.039;539787845020881318;311436;335672;253088;-1343;
2024-05-24T23:33:47.057;539787845039037447;311430;335726;253129;-1342;
2024-05-24T23:33:47.075;539787845057193576;311446;335833;253151;-1317;
2024-05-24T23:33:47.094;539787845075349705;311527;335812;253127;-1405;
2024-05-24T23:33:47.112;539787845093505834;311604;335855;253193;-1376;
2024-05-24T23:33:47.130;539787845111661963;311584;335854;253146;-1345;
2024-05-24T23:33:47.148;539787845129818092;311604;335907;253203;-1371;
2024-05-24T23:33:47.166;539787845147974221;311627;335951;253209;-1380;
2024-05-24T23:33:47.184;539787845166130350;311624;335943;253199;-1380;
2024-05-24T23:33:47.203;539787845184286479;311580;335800;253124;-1405;
2024-05-24T23:33:47.221;539787845202442608;311472;335639;253066;-1361;
2024-05-24T23:33:47.239;539787845220598737;311230;335422;253016;-1375;
2024-05-24T23:33:47.257;539787845238754866;310886;335037;252708;-1347;
2024-05-24T23:33:47.275;539787845256910995;310543;334713;252501;-1359;
2024-05-24T23:33:47.293;539787845275067124;310217;334305;252303;-1356;
2024-05-24T23:33:47.312;539787845293223253;309817;333932;252032;-1364;
2024-05-24T23:33:47.330;539787845311379382;309531;333663;251879;-1444;
2024-05-24T23:33:47.348;539787845329535511;309247;333342;251690;-1406;
2024-05-24T23:33:47.366;539787845347691640;309189;333238;251656;-1374;
2024-05-24T23:33:47.384;539787845365847769;309116;333091;251566;-1342;
2024-05-24T23:33:47.402;539787845384003898;309076;333084;251540;-1344;
2024-05-24T23:33:47.420;539787845402160027;309151;333104;251646;-1359;
2024-05-24T23:33:47.439;539787845420316156;309183;333205;251645;-1356;
2024-05-24T23:33:47.457;539787845438472166;309258;333266;251761;-1375;
2024-05-24T23:33:47.475;539787845456628156;309282;333378;251769;-1424;
2024-05-24T23:33:47.493;539787845474784146;309375;333500;251838;-1307;
2024-05-24T23:33:47.511;539787845492940136;309425;333517;251870;-1381;
2024-05-24T23:33:47.529;539787845511096126;309371;333463;251810;-1474;
2024-05-24T23:33:47.548;539787845529252116;309406;333528;251844;-1446;
2024-05-24T23:33:47.566;539787845547408106;309375;333537;251887;-1388;
2024-05-24T23:33:47.584;539787845565564096;309351;333449;251872;-1353;
2024-05-24T23:33:47.602;539787845583720086;309281;333444;251860;-1392;
2024-05-24T23:33:47.620;539787845601876076;309274;333387;251871;-1355;
2024-05-24T23:33:47.638;539787845620032066;309249;333356;251800;-1392;
2024-05-24T23:33:47.656;539787845638188056;309245;333337;251770;-1345;
2024-05-24T23:33:47.675;539787845656344046;309185;333373;251819;-1376;
2024-05-24T23:33:47.693;539787845674500036;309124;333328;251813;-1386;
2024-05-24T23:33:47.711;539787845692656026;309181;333270;251802;-1362;
2024-05-24T23:33:47.729;539787845710812016;309123;333253;251784;-1408;
2024-05-24T23:33:47.747;539787845728968006;309152;333284;251822;-1342;
2024-05-24T23:33:47.765;539787845747123996;309113;333365;251851;-1392;
2024-05-24T23:33:47.784;539787845765279986;309164;333368;251854;-1371;
2024-05-24T23:33:47.802;539787845783435976;309300;333416;251904;-1397;
2024-05-24T23:33:47.820;539787845801591966;309323;333461;251968;-1351;
2024-05-24T23:33:47.838;539787845819747956;309347;333503;251986;-1320;
2024-05-24T23:33:47.856;539787845837903946;309335;333542;252005;-1356;
2024-05-24T23:33:47.874;539787845856059936;309357;333577;252079;-1358;
2024-05-24T23:33:47.893;539787845874215926;309363;333623;252043;-1346;
2024-05-24T23:33:47.911;539787845892371916;309379;333671;252092;-1378;
2024-05-24T23:33:47.929;539787845910527906;309416;333722;252151;-1359;
2024-05-24T23:33:47.947;539787845928683896;309485;333722;252139;-1386;
2024-05-24T23:33:47.965;539787845946839886;309542;333725;252207;-1374;
2024-05-24T23:33:47.983;539787845964995876;309532;333842;252213;-1345;
2024-05-24T23:33:48.001;539787845983151866;309594;333853;252209;-1413;
2024-05-24T23:33:48.020;539787846001307856;309553;333834;252266;-1399;
2024-05-24T23:33:48.038;539787846019463846;309530;333842;252247;-1361;
2024-05-24T23:33:48.056;539787846037619836;309488;333757;252198;-1399;
2024-05-24T23:33:48.074;539787846055775826;309180;333532;252068;-1372;
2024-05-24T23:33:48.092;539787846073931816;308926;333249;251905;-1399;
2024-05-24T23:33:48.110;539787846092087806;308592;332870;251718;-1390;
2024-05-24T23:33:48.129;539787846110243796;308213;332419;251474;-1328;
2024-05-24T23:33:48.147;539787846128399786;307816;332076;251187;-1325;
2024-05-24T23:33:48.165;539787846146555776;307468;331689;250932;-1413;
2024-05-24T23:33:48.183;539787846164711766;307275;331431;250774;-1381;
2024-05-24T23:33:48.201;539787846182867756;307036;331184;250677;-1379;
2024-05-24T23:33:48.219;539787846201023746;306895;331111;250638;-1353;
2024-05-24T23:33:48.237;539787846219179736;306822;331033;250597;-1403;
2024-05-24T23:33:48.256;539787846237337019;306811;331059;250621;-1410;
2024-05-24T23:33:48.274;539787846255494284;306901;331173;250694;-1402;
2024-05-24T23:33:48.292;539787846273651549;306935;331247;250733;-1417;
2024-05-24T23:33:48.310;539787846291808814;307096;331339;250852;-1407;
2024-05-24T23:33:48.328;539787846309966079;307143;331439;250927;-1407;
2024-05-24T23:33:48.346;539787846328123344;307199;331449;250894;-1410;
2024-05-24T23:33:48.365;539787846346280609;307309;331569;251007;-1325;
2024-05-24T23:33:48.383;539787846364437874;307285;331580;251041;-1375;
2024-05-24T23:33:48.401;539787846382595139;307272;331596;251065;-1327;
2024-05-24T23:33:48.419;539787846400752404;307272;331609;251002;-1402;
2024-05-24T23:33:48.437;539787846418909669;307244;331604;250991;-1348;
2024-05-24T23:33:48.455;539787846437066934;307242;331569;251021;-1335;
2024-05-24T23:33:48.474;539787846455224199;307173;331576;250982;-1383;
2024-05-24T23:33:48.492;539787846473381464;307138;331544;250987;-1375;
2024-05-24T23:33:48.510;539787846491538729;307128;331486;250957;-1389;
2024-05-24T23:33:48.528;539787846509695994;307168;331510;250996;-1334;
2024-05-24T23:33:48.546;539787846527853259;307143;331459;251003;-1370;
2024-05-24T23:33:48.564;539787846546010524;307180;331475;250965;-1347;
2024-05-24T23:33:48.582;539787846564167789;307144;331507;251105;-1328;
2024-05-24T23:33:48.601;539787846582325054;307193;331526;251035;-1353;
2024-05-24T23:33:48.619;539787846600482319;307283;331647;251142;-1357;
2024-05-24T23:33:48.637;539787846618639584;307352;331665;251137;-1355;
2024-05-24T23:33:48.655;539787846636796849;307359;331797;251219;-1375;
2024-05-24T23:33:48.673;539787846654954114;307374;331814;251263;-1403;
2024-05-24T23:33:48.691;539787846673111379;307467;331827;251280;-1404;
2024-05-24T23:33:48.710;539787846691268644;307504;331884;251347;-1400;
2024-05-24T23:33:48.728;539787846709425909;307466;331989;251419;-1310;
2024-05-24T23:33:48.746;539787846727583174;307537;332016;251418;-1333;
2024-05-24T23:33:48.764;539787846745740439;307615;332075;251434;-1293;
2024-05-24T23:33:48.782;539787846763897704;307647;332127;251467;-1351;
2024-05-24T23:33:48.800;539787846782054969;307630;332196;251563;-1351;
2024-05-24T23:33:48.819;539787846800212234;307679;332149;251506;-1331;
2024-05-24T23:33:48.837;539787846818369499;307756;332265;251571;-1372;
2024-05-24T23:33:48.855;539787846836526764;307793;332250;251639;-1422;
2024-05-24T23:33:48.873;539787846854684029;307758;332344;251662;-1394;
2024-05-24T23:33:48.891;539787846872841294;307691;332263;251566;-1377;
2024-05-24T23:33:48.909;539787846890998559;307543;332075;251527;-1329;
2024-05-24T23:33:48.927;539787846909155824;307266;331820;251378;-1346;
2024-05-24T23:33:48.946;539787846927313089;306965;331460;251219;-1361;
2024-05-24T23:33:48.964;539787846945470354;306665;331073;250902;-1394;
2024-05-24T23:33:48.982;539787846963627619;306310;330689;250721;-1386;
2024-05-24T23:33:49.000;539787846981784884;306010;330396;250520;-1347;
2024-05-24T23:33:49.018;539787846999940930;305824;330197;250379;-1347;
2024-05-24T23:33:49.036;539787847018096935;305621;329958;250247;-1374;
2024-05-24T23:33:49.055;539787847036252940;305527;329877;250156;-1340;
2024-05-24T23:33:49.073;539787847054408945;305496;329808;250187;-1365;
2024-05-24T23:33:49.091;539787847072564950;305495;329821;250240;-1389;
2024-05-24T23:33:49.109;539787847090720955;305559;329935;250253;-1371;
2024-05-24T23:33:49.127;539787847108876960;305671;330069;250355;-1370;
2024-05-24T23:33:49.145;539787847127032965;305737;330212;250417;-1346;
2024-05-24T23:33:49.163;539787847145188970;305834;330241;250500;-1328;
2024-05-24T23:33:49.182;539787847163344975;305973;330386;250560;-1345;
2024-05-24T23:33:49.200;539787847181500980;305989;330439;250568;-1321;
2024-05-24T23:33:49.218;539787847199656985;306068;330524;250659;-1323;
2024-05-24T23:33:49.236;539787847217812990;306072;330571;250635;-1330;
2024-05-24T23:33:49.254;539787847235968995;306082;330604;250685;-1324;
2024-05-24T23:33:49.272;539787847254125000;306051;330555;250692;-1347;
2024-05-24T23:33:49.291;539787847272281005;306012;330498;250604;-1348;
2024-05-24T23:33:49.309;539787847290437010;305956;330510;250592;-1312;
2024-05-24T23:33:49.327;539787847308593015;306029;330511;250635;-1305;
2024-05-24T23:33:49.345;539787847326749020;305984;330449;250607;-1353;
2024-05-24T23:33:49.363;539787847344905025;305926;330440;250592;-1343;
2024-05-24T23:33:49.381;539787847363061030;305930;330396;250617;-1340;
2024-05-24T23:33:49.400;539787847381217035;305902;330383;250586;-1335;
2024-05-24T23:33:49.418;539787847399373040;305893;330370;250479;-1375;
2024-05-24T23:33:49.436;539787847417529045;305923;330456;250593;-1353;
2024-05-24T23:33:49.454;539787847435685050;305949;330437;250616;-1386;
2024-05-24T23:33:49.472;539787847453841055;305959;330554;250614;-1334;
2024-05-24T23:33:49.490;539787847471997060;305971;330570;250629;-1369;
2024-05-24T23:33:49.508;539787847490153065;306022;330607;250687;-1313;
2024-05-24T23:33:49.527;539787847508309070;305953;330522;250658;-1343;
2024-05-24T23:33:49.545;539787847526465075;305926;330491;250611;-1327;
2024-05-24T23:33:49.563;539787847544621080;305804;330360;250538;-1387;
2024-05-24T23:33:49.581;539787847562777085;305687;330327;250513;-1323;
2024-05-24T23:33:49.599;539787847580933090;305540;330137;250363;-1353;
2024-05-24T23:33:49.617;539787847599089095;305427;330018;250308;-1386;
2024-05-24T23:33:49.636;539787847617245100;305220;329876;250180;-1323;
2024-05-24T23:33:49.654;539787847635401105;305070;329679;250019;-1378;
2024-05-24T23:33:49.672;539787847653557110;305000;329588;249967;-1362;
2024-05-24T23:33:49.690;539787847671713115;304851;329481;249928;-1389;
2024-05-24T23:33:49.708;539787847689869120;304779;329368;249898;-1337;
2024-05-24T23:33:49.726;539787847708025125;304659;329355;249805;-1350;
2024-05-24T23:33:49.744;539787847726181130;304568;329230;249738;-1404;
2024-05-24T23:33:49.763;539787847744337135;304455;329118;249689;-1364;
2024-05-24T23:33:49.781;539787847762493140;304176;328896;249498;-1346;
2024-05-24T23:33:49.799;539787847780649145;303928;328636;249331;-1350;
2024-05-24T23:33:49.817;539787847798805150;303564;328313;249130;-1338;
2024-05-24T23:33:49.835;539787847816961346;303178;327995;248877;-1397;
2024-05-24T23:33:49.853;539787847835117535;302884;327664;248627;-1339;
2024-05-24T23:33:49.872;539787847853273724;302625;327382;248492;-1362;
2024-05-24T23:33:49.890;539787847871429913;302373;327145;248333;-1373;
2024-05-24T23:33:49.908;539787847889586102;302189;326993;248286;-1337;
2024-05-24T23:33:49.926;539787847907742291;302086;327019;248161;-1322;
2024-05-24T23:33:49.944;539787847925898480;302140;326988;248203;-1338;
2024-05-24T23:33:49.962;539787847944054669;302166;327107;248244;-1385;
2024-05-24T23:33:49.981;539787847962210858;302462;327372;248435;-1310;
2024-05-24T23:33:49.999;539787847980367047;302898;327748;248707;-1348;
2024-05-24T23:33:50.017;539787847998523236;303381;328277;249055;-1307;
2024-05-24T23:33:50.035;539787848016679425;303732;328682;249321;-1321;
2024-05-24T23:33:50.053;539787848034835614;303987;328903;249363;-1334;
2024-05-24T23:33:50.071;539787848052991803;303953;329104;249409;-1357;
2024-05-24T23:33:50.089;539787848071147992;303918;329065;249345;-1365;
2024-05-24T23:33:50.108;539787848089304181;303831;329091;249322;-1392;
2024-05-24T23:33:50.126;539787848107460370;303821;329101;249270;-1351;
2024-05-24T23:33:50.144;539787848125616559;303717;329061;249201;-1356;
2024-05-24T23:33:50.162;539787848143772748;303807;329071;249292;-1288;
2024-05-24T23:33:50.180;539787848161928937;303912;329140;249343;-1321;
2024-05-24T23:33:50.198;539787848180085126;304059;329338;249373;-1387;
2024-05-24T23:33:50.217;539787848198241315;304251;329534;249431;-1404;
2024-05-24T23:33:50.235;539787848216397504;304392;329701;249532;-1398;
2024-05-24T23:33:50.253;539787848234553693;304560;329980;249741;-1386;
2024-05-24T23:33:50.271;539787848252709882;304744;330155;249832;-1356;
2024-05-24T23:33:50.289;539787848270866071;304867;330312;249841;-1397;
2024-05-24T23:33:50.307;539787848289022260;304943;330536;249990;-1397;
2024-05-24T23:33:50.325;539787848307178449;305092;330737;250039;-1341;
2024-05-24T23:33:50.344;539787848325334638;305170;330905;250139;-1347;
2024-05-24T23:33:50.362;539787848343490827;305265;330989;250145;-1364;
2024-05-24T23:33:50.380;539787848361647016;305295;331026;250156;-1348;
2024-05-24T23:33:50.398;539787848379803205;305121;330885;249957;-1386;
2024-05-24T23:33:50.416;539787848397959394;304947;330803;249796;-1361;
2024-05-24T23:33:50.434;539787848416115583;304773;330596;249713;-1351;
2024-05-24T23:33:50.453;539787848434271772;304612;330438;249618;-1320;
2024-05-24T23:33:50.471;539787848452427961;304434;330353;249579;-1345;
2024-05-24T23:33:50.489;539787848470584150;304237;330115;249441;-1440;
2024-05-24T23:33:50.507;539787848488740291;304145;329950;249409;-1351;
2024-05-24T23:33:50.525;539787848506896402;303993;329816;249307;-1333;
2024-05-24T23:33:50.543;539787848525052513;303844;329650;249256;-1369;
2024-05-24T23:33:50.561;539787848543208624;303715;329518;249240;-1385;
2024-05-24T23:33:50.580;539787848561364735;303663;329438;249206;-1354;
2024-05-24T23:33:50.598;539787848579520846;303504;329196;249224;-1385;
2024-05-24T23:33:50.616;539787848597676957;303415;328936;249129;-1427;
2024-05-24T23:33:50.634;539787848615833068;303141;328556;249000;-1391;
2024-05-24T23:33:50.652;539787848633989179;302929;328192;248878;-1360;
2024-05-24T23:33:50.670;539787848652145290;302754;327811;248774;-1371;
2024-05-24T23:33:50.689;539787848670301401;302579;327676;248711;-1403;
2024-05-24T23:33:50.707;539787848688457512;302525;327648;248637;-1373;
2024-05-24T23:33:50.725;539787848706613623;302457;327778;248623;-1375;
2024-05-24T23:33:50.743;539787848724769734;302587;328050;248732;-1335;
2024-05-24T23:33:50.761;539787848742925845;303030;328669;249135;-1372;
2024-05-24T23:33:50.779;539787848761081956;303989;329704;249867;-1398;
2024-05-24T23:33:50.798;539787848779238067;305443;331160;250898;-1388;
2024-05-24T23:33:50.816;539787848797394178;306890;332594;251958;-1383;
2024-05-24T23:33:50.834;539787848815550289;308733;334431;253341;-1377;
2024-05-24T23:33:50.852;539787848833706400;311182;336806;255138;-1348;
2024-05-24T23:33:50.870;539787848851862511;313889;339539;257175;-1365;
2024-05-24T23:33:50.888;539787848870018622;316577;342359;259166;-1353;
2024-05-24T23:33:50.906;539787848888174733;319117;344989;260962;-1416;
2024-05-24T23:33:50.925;539787848906330844;321386;347385;262581;-1356;
2024-05-24T23:33:50.943;539787848924486955;323267;349280;263860;-1355;
2024-05-24T23:33:50.961;539787848942643066;324705;350858;264810;-1333;
2024-05-24T23:33:50.979;539787848960799177;325994;352215;265698;-1352;
2024-05-24T23:33:50.997;539787848978955288;327298;353620;266687;-1285;
2024-05-24T23:33:51.015;539787848997111399;328789;355227;267752;-1295;
2024-05-24T23:33:51.034;539787849015267510;330284;356838;268834;-1321;
2024-05-24T23:33:51.052;539787849033423621;331804;358423;269892;-1327;
2024-05-24T23:33:51.070;539787849051579732;333357;360012;271025;-1375;
2024-05-24T23:33:51.088;539787849069735771;334755;361521;272017;-1356;
2024-05-24T23:33:51.106;539787849087891776;335983;362829;272861;-1340;
2024-05-24T23:33:51.124;539787849106047781;337108;364004;273634;-1331;
2024-05-24T23:33:51.142;539787849124203786;338068;365037;274248;-1338;
2024-05-24T23:33:51.161;539787849142359791;339145;366119;275119;-1322;
2024-05-24T23:33:51.179;539787849160515796;340365;367323;275961;-1369;
2024-05-24T23:33:51.197;539787849178671801;341207;368374;276585;-1386;
2024-05-24T23:33:51.215;539787849196827806;341852;369044;276998;-1346;
2024-05-24T23:33:51.233;539787849214983811;342376;369543;277343;-1339;
2024-05-24T23:33:51.251;539787849233139816;342931;369989;277690;-1378;
2024-05-24T23:33:51.270;539787849251295821;343512;370635;277990;-1360;
2024-05-24T23:33:51.288;539787849269451826;344140;371362;278450;-1336;
2024-05-24T23:33:51.306;539787849287607831;344708;371895;278793;-1334;
2024-05-24T23:33:51.324;539787849305763836;345124;372244;279186;-1282;
2024-05-24T23:33:51.342;539787849323919841;345567;372555;279386;-1338;
2024-05-24T23:33:51.360;539787849342075846;345850;372775;279544;-1296;
2024-05-24T23:33:51.379;539787849360231851;345905;372893;279638;-1357;
2024-05-24T23:33:51.397;539787849378387856;345967;372862;279632;-1381;
2024-05-24T23:33:51.415;539787849396543861;346064;372978;279714;-1343;
2024-05-24T23:33:51.433;539787849414699866;346084;372972;279724;-1360;
2024-05-24T23:33:51.451;539787849432855871;346083;372933;279623;-1385;
2024-05-24T23:33:51.469;539787849451011876;346075;372850;279594;-1361;
2024-05-24T23:33:51.487;539787849469167881;346093;372762;279500;-1312;
2024-05-24T23:33:51.506;539787849487323886;346150;372792;279552;-1297;
2024-05-24T23:33:51.524;539787849505479891;346177;372827;279548;-1342;
2024-05-24T23:33:51.542;539787849523635896;346362;372996;279611;-1350;
2024-05-24T23:33:51.560;539787849541791901;346663;373257;279805;-1317;
2024-05-24T23:33:51.578;539787849559947906;347000;373644;280120;-1333;
2024-05-24T23:33:51.596;539787849578103911;347558;374190;280495;-1371;
2024-05-24T23:33:51.615;539787849596259916;348037;374729;280846;-1392;
2024-05-24T23:33:51.633;539787849614415921;348641;375347;281237;-1359;
2024-05-24T23:33:51.651;539787849632571926;349104;375857;281563;-1414;
2024-05-24T23:33:51.669;539787849650727931;349589;376301;281917;-1327;
2024-05-24T23:33:51.687;539787849668883936;349925;376770;282155;-1330;
2024-05-24T23:33:51.705;539787849687039941;350347;377090;282401;-1343;
2024-05-24T23:33:51.723;539787849705195946;350611;377447;282628;-1347;
2024-05-24T23:33:51.742;539787849723351923;350980;377741;282834;-1326;
2024-05-24T23:33:51.760;539787849741507880;351325;378072;283022;-1335;
2024-05-24T23:33:51.778;539787849759663837;351575;378386;283175;-1380;
2024-05-24T23:33:51.796;539787849777819794;351806;378585;283295;-1352;
2024-05-24T23:33:51.814;539787849795975751;351965;378744;283405;-1446;
2024-05-24T23:33:51.832;539787849814131708;352172;378963;283506;-1405;
2024-05-24T23:33:51.851;539787849832287665;352464;379121;283699;-1351;
2024-05-24T23:33:51.869;539787849850443622;352668;379381;283899;-1404;
2024-05-24T23:33:51.887;539787849868599579;352915;379609;283981;-1347;
2024-05-24T23:33:51.905;539787849886755536;353072;379834;284061;-1345;
2024-05-24T23:33:51.923;539787849904911493;353304;380011;284220;-1352;
2024-05-24T23:33:51.941;539787849923067450;353504;380244;284384;-1345;
2024-05-24T23:33:51.960;539787849941223407;353751;380466;284525;-1382;
2024-05-24T23:33:51.978;539787849959379364;354006;380635;284600;-1369;
2024-05-24T23:33:51.996;539787849977535321;354126;380838;284794;-1412;
2024-05-24T23:33:52.014;539787849995691278;354384;381003;284847;-1389;
2024-05-24T23:33:52.032;539787850013847235;354583;381215;285005;-1346;
2024-05-24T23:33:52.050;539787850032003192;354741;381330;285106;-1352;
2024-05-24T23:33:52.068;539787850050159149;354908;381521;285203;-1353;
2024-05-24T23:33:52.087;539787850068315106;355026;381606;285298;-1373;
2024-05-24T23:33:52.105;539787850086471063;355138;381706;285325;-1368;
2024-05-24T23:33:52.123;539787850104627020;355130;381608;285262;-1347;
2024-05-24T23:33:52.141;539787850122782977;354994;381452;285177;-1413;
2024-05-24T23:33:52.159;539787850140938934;354879;381355;284999;-1375;
2024-05-24T23:33:52.177;539787850159094891;354723;381044;284903;-1368;
2024-05-24T23:33:52.196;539787850177250848;354517;380850;284677;-1376;
2024-05-24T23:33:52.214;539787850195406805;354405;380582;284476;-1372;
2024-05-24T23:33:52.232;539787850213562762;354237;380449;284361;-1338;
2024-05-24T23:33:52.250;539787850231718719;354149;380272;284232;-1403;
2024-05-24T23:33:52.268;539787850249874676;354111;380206;284195;-1357;
2024-05-24T23:33:52.286;539787850268030633;354146;380161;284125;-1389;
2024-05-24T23:33:52.304;539787850286186590;354141;380178;284103;-1410;
2024-05-24T23:33:52.323;539787850304342547;354238;380174;284163;-1343;
2024-05-24T23:33:52.341;539787850322498504;354344;380290;284252;-1406;
2024-05-24T23:33:52.359;539787850340654461;354428;380391;284284;-1375;
2024-05-24T23:33:52.377;539787850358810418;354561;380491;284332;-1340;
2024-05-24T23:33:52.395;539787850376966375;354611;380549;284336;-1330;
2024-05-24T23:33:52.413;539787850395122332;354726;380630;284376;-1393;
2024-05-24T23:33:52.432;539787850413278289;354818;380654;284407;-1421;
2024-05-24T23:33:52.450;539787850431434246;354852;380720;284434;-1360;
2024-05-24T23:33:52.468;539787850449590203;354876;380687;284425;-1405;
2024-05-24T23:33:52.486;539787850467746160;354924;380732;284449;-1355;
2024-05-24T23:33:52.504;539787850485902848;354892;380658;284426;-1398;
2024-05-24T23:33:52.522;539787850504059532;354932;380719;284455;-1372;
2024-05-24T23:33:52.541;539787850522216216;354953;380727;284420;-1409;
2024-05-24T23:33:52.559;539787850540372900;355009;380727;284416;-1405;
2024-05-24T23:33:52.577;539787850558529584;355025;380810;284500;-1356;
2024-05-24T23:33:52.595;539787850576686268;355158;380944;284542;-1322;
2024-05-24T23:33:52.613;539787850594842952;355181;380958;284541;-1341;
2024-05-24T23:33:52.631;539787850612999636;355280;381037;284623;-1335;
2024-05-24T23:33:52.649;539787850631156320;355378;381099;284614;-1372;
2024-05-24T23:33:52.668;539787850649313004;355486;381112;284659;-1425;
2024-05-24T23:33:52.686;539787850667469688;355505;381220;284692;-1344;
2024-05-24T23:33:52.704;539787850685626372;355601;381330;284702;-1328;
2024-05-24T23:33:52.722;539787850703783056;355697;381406;284795;-1361;
2024-05-24T23:33:52.740;539787850721939740;355744;381480;284848;-1364;
2024-05-24T23:33:52.758;539787850740096424;355835;381575;284886;-1398;
2024-05-24T23:33:52.777;539787850758253108;355975;381604;284941;-1376;
2024-05-24T23:33:52.795;539787850776409792;356062;381715;285002;-1369;
2024-05-24T23:33:52.813;539787850794566476;356158;381836;285056;-1376;
2024-05-24T23:33:52.831;539787850812723160;356194;381804;285105;-1381;
2024-05-24T23:33:52.849;539787850830879844;356226;381848;285150;-1354;
2024-05-24T23:33:52.867;539787850849036528;356103;381705;285073;-1415;
2024-05-24T23:33:52.885;539787850867193212;355944;381555;284887;-1403;
2024-05-24T23:33:52.904;539787850885349896;355674;381242;284742;-1347;
2024-05-24T23:33:52.922;539787850903506580;355454;380929;284457;-1310;
2024-05-24T23:33:52.940;539787850921663264;355213;380548;284259;-1335;
2024-05-24T23:33:52.958;539787850939819948;354897;380195;283990;-1358;
2024-05-24T23:33:52.976;539787850957976632;354649;379948;283788;-1321;
2024-05-24T23:33:52.994;539787850976133316;354430;379763;283612;-1329;
2024-05-24T23:33:53.013;539787850994290000;354272;379603;283479;-1393;
2024-05-24T23:33:53.031;539787851012446684;354189;379456;283433;-1395;
2024-05-24T23:33:53.049;539787851030603368;354268;379517;283469;-1386;
2024-05-24T23:33:53.067;539787851048760052;354269;379517;283457;-1390;
2024-05-24T23:33:53.085;539787851066916736;354336;379578;283455;-1375;
2024-05-24T23:33:53.103;539787851085073420;354402;379678;283522;-1404;
2024-05-24T23:33:53.122;539787851103230104;354505;379797;283570;-1405;
2024-05-24T23:33:53.140;539787851121386788;354549;379837;283623;-1386;
2024-05-24T23:33:53.158;539787851139543472;354616;379953;283725;-1350;
2024-05-24T23:33:53.176;539787851157700156;354621;379901;283687;-1374;
2024-05-24T23:33:53.194;539787851175856840;354659;379925;283702;-1382;
2024-05-24T23:33:53.212;539787851194013524;354664;379988;283737;-1365;
2024-05-24T23:33:53.230;539787851212170208;354623;379934;283608;-1399;
2024-05-24T23:33:53.249;539787851230326892;354579;379909;283658;-1362;
2024-05-24T23:33:53.267;539787851248483580;354549;379856;283593;-1389;
2024-05-24T23:33:53.285;539787851266640264;354538;379879;283621;-1390;
2024-05-24T23:33:53.303;539787851284796948;354558;379851;283608;-1364;
2024-05-24T23:33:53.321;539787851302953632;354531;379830;283552;-1416;
2024-05-24T23:33:53.339;539787851321110316;354533;379807;283546;-1445;
2024-05-24T23:33:53.358;539787851339267000;354528;379853;283555;-1409;
2024-05-24T23:33:53.376;539787851357423684;354585;379840;283619;-1375;
2024-05-24T23:33:53.394;539787851375580368;354590;379840;283620;-1350;
2024-05-24T23:33:53.412;539787851393737052;354641;379852;283624;-1377;
2024-05-24T23:33:53.430;539787851411893736;354670;379972;283654;-1339;
2024-05-24T23:33:53.448;539787851430050420;354693;379996;283631;-1340;
2024-05-24T23:33:53.466;539787851448207104;354713;379989;283673;-1374;
2024-05-24T23:33:53.485;539787851466363788;354766;380063;283710;-1363;
2024-05-24T23:33:53.503;539787851484520472;354785;380085;283769;-1363;
2024-05-24T23:33:53.521;539787851502677156;354737;380057;283781;-1421;
2024-05-24T23:33:53.539;539787851520833840;354789;380195;283828;-1355;
2024-05-24T23:33:53.557;539787851538990524;354852;380120;283858;-1369;
2024-05-24T23:33:53.575;539787851557147208;354920;380172;283866;-1343;
2024-05-24T23:33:53.594;539787851575303892;354883;380194;283835;-1348;
2024-05-24T23:33:53.612;539787851593460576;354893;380129;283818;-1354;
2024-05-24T23:33:53.630;539787851611617260;354637;380012;283698;-1308;
2024-05-24T23:33:53.648;539787851629773944;354407;379612;283454;-1363;
2024-05-24T23:33:53.666;539787851647930628;353942;379168;283149;-1364;
2024-05-24T23:33:53.684;539787851666087312;353474;378730;282892;-1333;
2024-05-24T23:33:53.703;539787851684243996;353063;378212;282455;-1347;
2024-05-24T23:33:53.721;539787851702400680;352649;377723;282215;-1361;
2024-05-24T23:33:53.739;539787851720557364;352274;377295;281851;-1379;
2024-05-24T23:33:53.757;539787851738714048;351916;376993;281639;-1357;
2024-05-24T23:33:53.775;539787851756870732;351620;376703;281437;-1318;
2024-05-24T23:33:53.793;539787851775027416;351457;376523;281360;-1319;
2024-05-24T23:33:53.811;539787851793184100;351391;376434;281282;-1321;
2024-05-24T23:33:53.830;539787851811340784;351380;376343;281210;-1322;
2024-05-24T23:33:53.848;539787851829497468;351341;376390;281244;-1312;
2024-05-24T23:33:53.866;539787851847654152;351374;376455;281312;-1336;
2024-05-24T23:33:53.884;539787851865810836;351378;376464;281249;-1372;
2024-05-24T23:33:53.902;539787851883967520;351360;376476;281283;-1280;
2024-05-24T23:33:53.920;539787851902124248;351408;376527;281297;-1296;
2024-05-24T23:33:53.939;539787851920280971;351408;376537;281309;-1320;
2024-05-24T23:33:53.957;539787851938437694;351255;376441;281224;-1390;
2024-05-24T23:33:53.975;539787851956594417;351197;376347;281214;-1348;
2024-05-24T23:33:53.993;539787851974751140;351138;376230;281170;-1328;
2024-05-24T23:33:54.011;539787851992907863;351048;376121;281042;-1339;
2024-05-24T23:33:54.029;539787852011064586;350942;376052;281010;-1330;
2024-05-24T23:33:54.048;539787852029221309;350823;375979;280960;-1365;
2024-05-24T23:33:54.066;539787852047378032;350751;375839;280871;-1348;
2024-05-24T23:33:54.084;539787852065534755;350683;375866;280781;-1324;
2024-05-24T23:33:54.102;539787852083691478;350634;375854;280751;-1334;
2024-05-24T23:33:54.120;539787852101848201;350587;375798;280772;-1373;
2024-05-24T23:33:54.138;539787852120004924;350537;375730;280730;-1379;
2024-05-24T23:33:54.156;539787852138161647;350541;375785;280778;-1318;
2024-05-24T23:33:54.175;539787852156318370;350561;375724;280761;-1358;
2024-05-24T23:33:54.193;539787852174475093;350505;375769;280748;-1374;
2024-05-24T23:33:54.211;539787852192631816;350525;375753;280752;-1363;
2024-05-24T23:33:54.229;539787852210788539;350538;375711;280706;-1325;
2024-05-24T23:33:54.247;539787852228945262;350542;375754;280737;-1377;
2024-05-24T23:33:54.265;539787852247101985;350534;375722;280736;-1358;
2024-05-24T23:33:54.284;539787852265258708;350482;375761;280772;-1368;
2024-05-24T23:33:54.302;539787852283415431;350518;375722;280761;-1329;
2024-05-24T23:33:54.320;539787852301572154;350538;375728;280766;-1318;
2024-05-24T23:33:54.338;539787852319728877;350444;375765;280773;-1350;
2024-05-24T23:33:54.356;539787852337885600;350517;375743;280754;-1285;
2024-05-24T23:33:54.374;539787852356042323;350466;375711;280727;-1295;
2024-05-24T23:33:54.392;539787852374199046;350436;375695;280716;-1314;
2024-05-24T23:33:54.411;539787852392355769;350391;375631;280705;-1303;
2024-05-24T23:33:54.429;539787852410512492;350197;375504;280587;-1342;
2024-05-24T23:33:54.447;539787852428669215;349935;375170;280375;-1369;
2024-05-24T23:33:54.465;539787852446825938;349509;374702;280093;-1350;
2024-05-24T23:33:54.483;539787852464982661;348935;374073;279638;-1360;
2024-05-24T23:33:54.501;539787852483139384;348342;373461;279232;-1373;
2024-05-24T23:33:54.520;539787852501296107;347693;372703;278763;-1362;
2024-05-24T23:33:54.538;539787852519452830;347111;372110;278374;-1353;
2024-05-24T23:33:54.556;539787852537609553;346481;371554;277933;-1353;
2024-05-24T23:33:54.574;539787852555766276;346099;371096;277638;-1357;
2024-05-24T23:33:54.592;539787852573922999;345726;370745;277377;-1388;
2024-05-24T23:33:54.610;539787852592079722;345478;370478;277175;-1427;
2024-05-24T23:33:54.629;539787852610236408;345419;370407;277157;-1347;
2024-05-24T23:33:54.647;539787852628393054;345368;370399;277147;-1354;
2024-05-24T23:33:54.665;539787852646549700;345306;370333;277098;-1381;
2024-05-24T23:33:54.683;539787852664706346;345351;370296;277073;-1334;
2024-05-24T23:33:54.701;539787852682862992;345382;370350;277101;-1341;
2024-05-24T23:33:54.719;539787852701019638;345351;370382;277150;-1321;
2024-05-24T23:33:54.737;539787852719176284;345266;370388;277153;-1299;
2024-05-24T23:33:54.756;539787852737332930;345186;370326;276999;-1301;
2024-05-24T23:33:54.774;539787852755489576;345136;370194;276985;-1324;
2024-05-24T23:33:54.792;539787852773646222;345006;370128;276962;-1355;
2024-05-24T23:33:54.810;539787852791802868;344876;370007;276813;-1360;
2024-05-24T23:33:54.828;539787852809959514;344742;369911;276753;-1338;
2024-05-24T23:33:54.846;539787852828116160;344579;369657;276655;-1313;
2024-05-24T23:33:54.865;539787852846272806;344435;369573;276529;-1383;
2024-05-24T23:33:54.883;539787852864429452;344372;369414;276439;-1365;
2024-05-24T23:33:54.901;539787852882586098;344205;369271;276340;-1382;
2024-05-24T23:33:54.919;539787852900742744;344066;369233;276287;-1382;
2024-05-24T23:33:54.937;539787852918899390;344026;369196;276298;-1347;
2024-05-24T23:33:54.955;539787852937056036;343951;369131;276261;-1330;
2024-05-24T23:33:54.974;539787852955212682;343887;369048;276200;-1358;
2024-05-24T23:33:54.992;539787852973369328;343840;369036;276200;-1368;
2024-05-24T23:33:55.010;539787852991525974;343749;369050;276180;-1348;
2024-05-24T23:33:55.028;539787853009682620;343766;369021;276162;-1280;
2024-05-24T23:33:55.046;539787853027839266;343730;368911;276127;-1323;
2024-05-24T23:33:55.064;539787853045995912;343698;368903;276101;-1347;
2024-05-24T23:33:55.082;539787853064152558;343682;368904;276041;-1373;
2024-05-24T23:33:55.101;539787853082309204;343681;368875;276124;-1414;
2024-05-24T23:33:55.119;539787853100465850;343636;368883;276137;-1338;
2024-05-24T23:33:55.137;539787853118622496;343577;368850;276084;-1364;
2024-05-24T23:33:55.155;539787853136779142;343503;368824;276090;-1374;
2024-05-24T23:33:55.173;539787853154935788;343466;368797;276071;-1413;
2024-05-24T23:33:55.191;539787853173092434;343496;368782;276059;-1329;
2024-05-24T23:33:55.210;539787853191249080;343411;368720;276020;-1348;
2024-05-24T23:33:55.228;539787853209405726;343411;368681;276013;-1375;
2024-05-24T23:33:55.246;539787853227562372;343416;368674;276032;-1376;
2024-05-24T23:33:55.264;539787853245719018;343326;368640;276016;-1353;
2024-05-24T23:33:55.282;539787853263875664;343318;368573;275981;-1388;
2024-05-24T23:33:55.300;539787853282032310;343312;368662;276012;-1324;
2024-05-24T23:33:55.318;539787853300188956;343223;368616;275964;-1314;
2024-05-24T23:33:55.337;539787853318345602;343237;368612;275990;-1371;
2024-05-24T23:33:55.355;539787853336502248;343167;368484;275936;-1354;
2024-05-24T23:33:55.373;539787853354659640;342987;368299;275841;-1329;
2024-05-24T23:33:55.391;539787853372817025;342560;367935;275616;-1381;
2024-05-24T23:33:55.409;539787853390974410;342103;367367;275229;-1388;
2024-05-24T23:33:55.427;539787853409131795;341516;366713;274801;-1306;
2024-05-24T23:33:55.446;539787853427289180;340698;365872;274263;-1317;
2024-05-24T23:33:55.464;539787853445446565;339925;365185;273792;-1339;
2024-05-24T23:33:55.482;539787853463603950;339264;364493;273287;-1338;
2024-05-24T23:33:55.500;539787853481761335;338633;363773;272800;-1376;
2024-05-24T23:33:55.518;539787853499918720;338028;363282;272441;-1392;
2024-05-24T23:33:55.536;539787853518076105;337660;362868;272230;-1348;
2024-05-24T23:33:55.555;539787853536233490;337468;362654;272056;-1318;
2024-05-24T23:33:55.573;539787853554390875;337337;362455;271916;-1369;
2024-05-24T23:33:55.591;539787853572548260;337172;362422;271865;-1351;
2024-05-24T23:33:55.609;539787853590705645;337127;362460;271911;-1356;
2024-05-24T23:33:55.627;539787853608863030;337133;362517;271902;-1444;
2024-05-24T23:33:55.645;539787853627020415;337213;362635;271939;-1357;
2024-05-24T23:33:55.663;539787853645177800;337203;362614;271972;-1325;
2024-05-24T23:33:55.682;539787853663335185;337206;362549;271895;-1413;
2024-05-24T23:33:55.700;539787853681492570;337114;362500;271954;-1348;
2024-05-24T23:33:55.718;539787853699649955;337065;362514;271929;-1333;
2024-05-24T23:33:55.736;539787853717807340;336923;362348;271858;-1344;
2024-05-24T23:33:55.754;539787853735964725;336767;362176;271712;-1337;
2024-05-24T23:33:55.772;539787853754122110;336613;362026;271662;-1372;
2024-05-24T23:33:55.791;539787853772279495;336463;361936;271606;-1352;
2024-05-24T23:33:55.809;539787853790436880;336261;361777;271440;-1346;
2024-05-24T23:33:55.827;539787853808594265;336102;361631;271397;-1305;
2024-05-24T23:33:55.845;539787853826751650;336033;361475;271298;-1340;
2024-05-24T23:33:55.863;539787853844909035;335987;361404;271280;-1329;
2024-05-24T23:33:55.881;539787853863066420;335860;361300;271225;-1354;
2024-05-24T23:33:55.900;539787853881223805;335748;361245;271134;-1414;
2024-05-24T23:33:55.918;539787853899381190;335723;361267;271167;-1364;
2024-05-24T23:33:55.936;539787853917538575;335719;361162;271114;-1339;
2024-05-24T23:33:55.954;539787853935695960;335666;361125;271098;-1348;
2024-05-24T23:33:55.972;539787853953853345;335694;361155;271118;-1302;
2024-05-24T23:33:55.990;539787853972010730;335581;361105;271068;-1342;
2024-05-24T23:33:56.008;539787853990168115;335626;361103;271098;-1337;
2024-05-24T23:33:56.027;539787854008325500;335627;361053;271085;-1353;
2024-05-24T23:33:56.045;539787854026482133;335579;361048;271074;-1334;
2024-05-24T23:33:56.063;539787854044638736;335531;361029;271082;-1358;
2024-05-24T23:33:56.081;539787854062795339;335473;361034;271138;-1316;
2024-05-24T23:33:56.099;539787854080951942;335469;361023;271107;-1355;
2024-05-24T23:33:56.117;539787854099108545;335460;360994;271077;-1374;
2024-05-24T23:33:56.136;539787854117265148;335482;361006;271079;-1338;
2024-05-24T23:33:56.154;539787854135421751;335465;360985;271011;-1353;
2024-05-24T23:33:56.172;539787854153578354;335442;360975;271084;-1372;
2024-05-24T23:33:56.190;539787854171734957;335442;361015;271113;-1345;
2024-05-24T23:33:56.208;539787854189891560;335417;360975;271125;-1341;
2024-05-24T23:33:56.226;539787854208048163;335449;360997;271116;-1330;
2024-05-24T23:33:56.244;539787854226204766;335417;360995;271165;-1318;
2024-05-24T23:33:56.263;539787854244361369;335393;360917;271170;-1348;
2024-05-24T23:33:56.281;539787854262517972;335404;360947;271164;-1345;
2024-05-24T23:33:56.299;539787854280674575;335384;360940;271144;-1321;
2024-05-24T23:33:56.317;539787854298831178;335402;360987;271153;-1326;
2024-05-24T23:33:56.335;539787854316987781;335409;361029;271237;-1369;
2024-05-24T23:33:56.353;539787854335144384;335354;360927;271164;-1386;
2024-05-24T23:33:56.372;539787854353300987;335234;360799;271147;-1363;
2024-05-24T23:33:56.390;539787854371457590;334960;360521;270974;-1333;
2024-05-24T23:33:56.408;539787854389614193;334523;360074;270633;-1305;
2024-05-24T23:33:56.426;539787854407770796;333867;359371;270188;-1370;
2024-05-24T23:33:56.444;539787854425927399;333220;358693;269785;-1319;
2024-05-24T23:33:56.462;539787854444084002;332497;358008;269206;-1350;
2024-05-24T23:33:56.481;539787854462240605;331771;357342;268816;-1280;
2024-05-24T23:33:56.499;539787854480397208;331265;356774;268518;-1320;
2024-05-24T23:33:56.517;539787854498553811;330818;356362;268210;-1309;
2024-05-24T23:33:56.535;539787854516710414;330539;356031;267984;-1265;
2024-05-24T23:33:56.553;539787854534867017;330262;355784;267803;-1340;
2024-05-24T23:33:56.571;539787854553023620;330223;355787;267787;-1293;
2024-05-24T23:33:56.589;539787854571180223;330168;355802;267828;-1309;
2024-05-24T23:33:56.608;539787854589336826;330216;355859;267809;-1347;
2024-05-24T23:33:56.626;539787854607493429;330291;355961;267902;-1287;
2024-05-24T23:33:56.644;539787854625650032;330365;355982;267976;-1319;
2024-05-24T23:33:56.662;539787854643806635;330507;356101;268024;-1355;
2024-05-24T23:33:56.680;539787854661963238;330463;356139;268054;-1395;
2024-05-24T23:33:56.698;539787854680119841;330464;356101;268048;-1324;
2024-05-24T23:33:56.717;539787854698276444;330498;356139;268125;-1365;
2024-05-24T23:33:56.735;539787854716433350;330452;356029;268164;-1321;
2024-05-24T23:33:56.753;539787854734590224;330288;355970;268039;-1343;
2024-05-24T23:33:56.771;539787854752747098;330162;355857;267924;-1304;
2024-05-24T23:33:56.789;539787854770903972;330052;355721;267843;-1379;
2024-05-24T23:33:56.807;539787854789060846;329958;355646;267821;-1410;
2024-05-24T23:33:56.826;539787854807217720;329852;355572;267754;-1375;
2024-05-24T23:33:56.844;539787854825374594;329882;355470;267828;-1326;
2024-05-24T23:33:56.862;539787854843531468;329754;355453;267757;-1370;
2024-05-24T23:33:56.880;539787854861688342;329758;355464;267755;-1397;
2024-05-24T23:33:56.898;539787854879845216;329711;355476;267744;-1380;
2024-05-24T23:33:56.916;539787854898002090;329789;355551;267791;-1341;
2024-05-24T23:33:56.934;539787854916158964;329798;355519;267843;-1292;
2024-05-24T23:33:56.953;539787854934315838;329863;355568;267895;-1333;
2024-05-24T23:33:56.971;539787854952472712;329828;355605;267924;-1291;
2024-05-24T23:33:56.989;539787854970629586;329930;355672;267920;-1294;
2024-05-24T23:33:57.007;539787854988786460;329940;355663;267894;-1369;
2024-05-24T23:33:57.025;539787855006943334;329914;355665;267946;-1385;
2024-05-24T23:33:57.043;539787855025100208;329938;355719;268058;-1323;
2024-05-24T23:33:57.062;539787855043257082;329975;355757;268087;-1342;
2024-05-24T23:33:57.080;539787855061413956;330034;355867;268090;-1309;
2024-05-24T23:33:57.098;539787855079570830;330097;355869;268149;-1292;
2024-05-24T23:33:57.116;539787855097727704;330159;355909;268198;-1310;
2024-05-24T23:33:57.134;539787855115884578;330227;355968;268251;-1318;
2024-05-24T23:33:57.152;539787855134041452;330170;356012;268283;-1375;
2024-05-24T23:33:57.170;539787855152198326;330249;356067;268356;-1358;
2024-05-24T23:33:57.189;539787855170355200;330247;356022;268304;-1368;
2024-05-24T23:33:57.207;539787855188512074;330330;356072;268416;-1325;
2024-05-24T23:33:57.225;539787855206668948;330384;356207;268493;-1362;
2024-05-24T23:33:57.243;539787855224825822;330389;356227;268521;-1386;
2024-05-24T23:33:57.261;539787855242982696;330470;356294;268521;-1326;
2024-05-24T23:33:57.279;539787855261139570;330531;356309;268575;-1330;
2024-05-24T23:33:57.298;539787855279296444;330579;356426;268640;-1303;
2024-05-24T23:33:57.316;539787855297453318;330648;356418;268667;-1377;
2024-05-24T23:33:57.334;539787855315610192;330606;356357;268647;-1356;
2024-05-24T23:33:57.352;539787855333767066;330392;356214;268522;-1288;
2024-05-24T23:33:57.370;539787855351923940;329984;355824;268247;-1339;
2024-05-24T23:33:57.388;539787855370080814;329498;355248;267953;-1314;
2024-05-24T23:33:57.407;539787855388237688;328976;354739;267570;-1370;
2024-05-24T23:33:57.425;539787855406394562;328346;354107;267158;-1359;
2024-05-24T23:33:57.443;539787855424551436;327663;353398;266748;-1395;
2024-05-24T23:33:57.461;539787855442709356;327142;352855;266366;-1342;
2024-05-24T23:33:57.479;539787855460867275;326791;352447;266100;-1329;
2024-05-24T23:33:57.497;539787855479025194;326493;352214;265962;-1328;
2024-05-24T23:33:57.515;539787855497183113;326313;351988;265804;-1314;
2024-05-24T23:33:57.534;539787855515341032;326176;351871;265735;-1314;
2024-05-24T23:33:57.552;539787855533498951;326206;351926;265743;-1370;
2024-05-24T23:33:57.570;539787855551656870;326334;351980;265882;-1266;
2024-05-24T23:33:57.588;539787855569814789;326460;352180;265994;-1305;
2024-05-24T23:33:57.606;539787855587972708;326640;352327;266081;-1324;
2024-05-24T23:33:57.624;539787855606130627;326732;352534;266233;-1309;
2024-05-24T23:33:57.643;539787855624288546;326926;352670;266252;-1304;
2024-05-24T23:33:57.661;539787855642446465;326977;352702;266377;-1361;
2024-05-24T23:33:57.679;539787855660604384;327010;352736;266386;-1375;
2024-05-24T23:33:57.697;539787855678762303;327078;352734;266404;-1286;
2024-05-24T23:33:57.715;539787855696920222;327082;352756;266398;-1310;
2024-05-24T23:33:57.733;539787855715078141;327015;352704;266315;-1371;
2024-05-24T23:33:57.752;539787855733236060;326993;352651;266410;-1337;
2024-05-24T23:33:57.770;539787855751393979;326910;352622;266376;-1342;
2024-05-24T23:33:57.788;539787855769551898;326919;352583;266353;-1328;
2024-05-24T23:33:57.806;539787855787709817;326893;352585;266393;-1278;
2024-05-24T23:33:57.824;539787855805867736;326890;352604;266397;-1311;
2024-05-24T23:33:57.842;539787855824025655;326919;352640;266430;-1321;
2024-05-24T23:33:57.860;539787855842183574;326961;352685;266416;-1309;
2024-05-24T23:33:57.879;539787855860341493;327054;352737;266473;-1336;
2024-05-24T23:33:57.897;539787855878499412;327068;352745;266496;-1357;
2024-05-24T23:33:57.915;539787855896657331;327200;352862;266578;-1289;
2024-05-24T23:33:57.933;539787855914815250;327242;352884;266653;-1325;
2024-05-24T23:33:57.951;539787855932973169;327316;353041;266707;-1335;
2024-05-24T23:33:57.969;539787855951131088;327385;353081;266716;-1318;
2024-05-24T23:33:57.988;539787855969289007;327500;353180;266802;-1285;
2024-05-24T23:33:58.006;539787855987446926;327525;353180;266868;-1340;
2024-05-24T23:33:58.024;539787856005604845;327660;353331;266964;-1270;
2024-05-24T23:33:58.042;539787856023762764;327725;353393;267041;-1291;
2024-05-24T23:33:58.060;539787856041920683;327805;353483;267040;-1377;
2024-05-24T23:33:58.078;539787856060078602;327798;353661;267148;-1329;
2024-05-24T23:33:58.097;539787856078236521;327970;353757;267220;-1386;
2024-05-24T23:33:58.115;539787856096394440;328010;353763;267234;-1406;
2024-05-24T23:33:58.133;539787856114552359;328169;353901;267364;-1337;
2024-05-24T23:33:58.151;539787856132710278;328245;354017;267378;-1347;
2024-05-24T23:33:58.169;539787856150868197;328289;354073;267423;-1373;
2024-05-24T23:33:58.187;539787856169026116;328389;354136;267520;-1358;
2024-05-24T23:33:58.205;539787856187184035;328499;354232;267574;-1397;
2024-05-24T23:33:58.224;539787856205341818;328643;354386;267701;-1376;
2024-05-24T23:33:58.242;539787856223499574;328709;354436;267803;-1375;
2024-05-24T23:33:58.260;539787856241657330;328817;354588;267898;-1337;
2024-05-24T23:33:58.278;539787856259815086;328858;354658;267899;-1362;
2024-05-24T23:33:58.296;539787856277972842;329020;354774;267992;-1359;
2024-05-24T23:33:58.314;539787856296130598;329113;354894;268056;-1355;
2024-05-24T23:33:58.333;539787856314288354;329191;354987;268151;-1293;
2024-05-24T23:33:58.351;539787856332446110;329259;354993;268198;-1350;
2024-05-24T23:33:58.369;539787856350603866;329154;354954;268169;-1359;
2024-05-24T23:33:58.387;539787856368761622;328979;354645;268002;-1393;
2024-05-24T23:33:58.405;539787856386919378;328626;354285;267790;-1340;
2024-05-24T23:33:58.423;539787856405077134;328218;353817;267438;-1280;
2024-05-24T23:33:58.442;539787856423234890;327641;353185;267067;-1316;
2024-05-24T23:33:58.460;539787856441392646;327089;352623;266693;-1357;
2024-05-24T23:33:58.478;539787856459550402;326667;352206;266415;-1304;
2024-05-24T23:33:58.496;539787856477708158;326316;351715;266146;-1309;
2024-05-24T23:33:58.514;539787856495865914;326078;351467;265973;-1303;
2024-05-24T23:33:58.532;539787856514023670;325903;351255;265830;-1396;
2024-05-24T23:33:58.550;539787856532181426;325901;351231;265819;-1377;
2024-05-24T23:33:58.569;539787856550339182;325869;351252;265768;-1376;
2024-05-24T23:33:58.587;539787856568496938;326037;351359;265872;-1351;
2024-05-24T23:33:58.605;539787856586654694;326173;351551;265993;-1361;
2024-05-24T23:33:58.623;539787856604812450;326327;351705;266152;-1357;
2024-05-24T23:33:58.641;539787856622970206;326480;351885;266192;-1333;
2024-05-24T23:33:58.659;539787856641127962;326655;352013;266366;-1339;
2024-05-24T23:33:58.678;539787856659285718;326801;352112;266472;-1352;
2024-05-24T23:33:58.696;539787856677443474;326897;352234;266546;-1329;
2024-05-24T23:33:58.714;539787856695601230;326990;352350;266599;-1302;
2024-05-24T23:33:58.732;539787856713758986;327010;352367;266582;-1375;
2024-05-24T23:33:58.750;539787856731916742;327041;352401;266624;-1346;
2024-05-24T23:33:58.768;539787856750074498;327118;352358;266638;-1327;
2024-05-24T23:33:58.787;539787856768232254;327055;352430;266638;-1338;
2024-05-24T23:33:58.805;539787856786390010;327107;352391;266609;-1335;
2024-05-24T23:33:58.823;539787856804547766;327064;352487;266637;-1311;
2024-05-24T23:33:58.841;539787856822705522;327145;352479;266671;-1335;
2024-05-24T23:33:58.859;539787856840863278;327174;352454;266642;-1360;
2024-05-24T23:33:58.877;539787856859021034;327165;352508;266659;-1360;
2024-05-24T23:33:58.895;539787856877177454;327306;352552;266768;-1391;
2024-05-24T23:33:58.914;539787856895333864;327371;352615;266875;-1377;
2024-05-24T23:33:58.932;539787856913490274;327475;352699;266889;-1325;
2024-05-24T23:33:58.950;539787856931646684;327620;352768;266983;-1344;
2024-05-24T23:33:58.968;539787856949803094;327657;352912;267028;-1325;
2024-05-24T23:33:58.986;539787856967959504;327728;353057;267106;-1314;
2024-05-24T23:33:59.004;539787856986115914;327930;353145;267188;-1328;
2024-05-24T23:33:59.023;539787857004272324;328041;353231;267288;-1325;
2024-05-24T23:33:59.041;539787857022428734;328111;353309;267293;-1372;
2024-05-24T23:33:59.059;539787857040585144;328314;353464;267437;-1318;
2024-05-24T23:33:59.077;539787857058741554;328353;353560;267475;-1409;
2024-05-24T23:33:59.095;539787857076897964;328484;353669;267566;-1331;
2024-05-24T23:33:59.113;539787857095054374;328643;353814;267702;-1316;
2024-05-24T23:33:59.132;539787857113210784;328761;353879;267729;-1277;
2024-05-24T23:33:59.150;539787857131367194;328858;354030;267813;-1321;
2024-05-24T23:33:59.168;539787857149523604;328959;354102;267912;-1359;
2024-05-24T23:33:59.186;539787857167680014;329042;354141;267940;-1363;
2024-05-24T23:33:59.204;539787857185836424;329191;354336;268060;-1339;
2024-05-24T23:33:59.222;539787857203992834;329251;354396;268139;-1361;
2024-05-24T23:33:59.240;539787857222149244;329414;354537;268215;-1311;
2024-05-24T23:33:59.259;539787857240305654;329454;354586;268231;-1386;
2024-05-24T23:33:59.277;539787857258462064;329591;354737;268335;-1387;
2024-05-24T23:33:59.295;539787857276618474;329715;354896;268354;-1358;
2024-05-24T23:33:59.313;539787857294774884;329763;354986;268454;-1378;
2024-05-24T23:33:59.331;539787857312931294;329943;355049;268538;-1302;
2024-05-24T23:33:59.349;539787857331087704;330065;355166;268615;-1306;
2024-05-24T23:33:59.368;539787857349244114;330160;355261;268702;-1316;
2024-05-24T23:33:59.386;539787857367400524;330205;355311;268778;-1277;
2024-05-24T23:33:59.404;539787857385556934;330059;355184;268652;-1405;
2024-05-24T23:33:59.422;539787857403713344;329847;354905;268461;-1363;
2024-05-24T23:33:59.440;539787857421869754;329531;354500;268200;-1369;
2024-05-24T23:33:59.458;539787857440026164;329088;353988;267910;-1389;
2024-05-24T23:33:59.476;539787857458182574;328706;353466;267593;-1336;
2024-05-24T23:33:59.495;539787857476338984;328296;353013;267268;-1351;
2024-05-24T23:33:59.513;539787857494495394;327930;352583;267007;-1352;
2024-05-24T23:33:59.531;539787857512651804;327636;352262;266840;-1336;
2024-05-24T23:33:59.549;539787857530808214;327586;352122;266707;-1334;
2024-05-24T23:33:59.567;539787857548964624;327502;352074;266659;-1339;
2024-05-24T23:33:59.585;539787857567121034;327518;351977;266622;-1312;
2024-05-24T23:33:59.604;539787857585277443;327657;352053;266675;-1333;
2024-05-24T23:33:59.622;539787857603433836;327812;352295;266752;-1378;
2024-05-24T23:33:59.640;539787857621590229;327930;352422;266891;-1370;
2024-05-24T23:33:59.658;539787857639746622;328125;352630;267012;-1329;
2024-05-24T23:33:59.676;539787857657903015;328235;352769;267075;-1339;
2024-05-24T23:33:59.694;539787857676059408;328458;352950;267187;-1322;
2024-05-24T23:33:59.713;539787857694215801;328602;352994;267237;-1345;
2024-05-24T23:33:59.731;539787857712372194;328657;353133;267348;-1346;
2024-05-24T23:33:59.749;539787857730528587;328630;353046;267308;-1377;
2024-05-24T23:33:59.767;539787857748684980;328738;353166;267328;-1390;
2024-05-24T23:33:59.785;539787857766841373;328675;353101;267284;-1374;
2024-05-24T23:33:59.803;539787857784997766;328728;353094;267224;-1363;
2024-05-24T23:33:59.821;539787857803154159;328719;353123;267301;-1373;
2024-05-24T23:33:59.840;539787857821310552;328752;353085;267347;-1348;
2024-05-24T23:33:59.858;539787857839466945;328801;353094;267363;-1400;
2024-05-24T23:33:59.876;539787857857623338;328826;353095;267349;-1378;
2024-05-24T23:33:59.894;539787857875779731;328831;353078;267331;-1377;
2024-05-24T23:33:59.912;539787857893936124;328908;353196;267387;-1394;
2024-05-24T23:33:59.930;539787857912092517;329000;353221;267415;-1411;
2024-05-24T23:33:59.949;539787857930248910;329043;353291;267421;-1407;
2024-05-24T23:33:59.967;539787857948405303;329149;353385;267543;-1348;
2024-05-24T23:33:59.985;539787857966561696;329232;353453;267604;-1379;
2024-05-24T23:34:00.003;539787857984718089;329306;353490;267608;-1393;
2024-05-24T23:34:00.021;539787858002874482;329398;353622;267674;-1359;
2024-05-24T23:34:00.039;539787858021030875;329489;353678;267714;-1300;
2024-05-24T23:34:00.057;539787858039187268;329620;353770;267768;-1300;
2024-05-24T23:34:00.076;539787858057343661;329635;353805;267851;-1379;
2024-05-24T23:34:00.094;539787858075500054;329778;353971;267904;-1320;
2024-05-24T23:34:00.112;539787858093656447;329833;353958;267894;-1329;
2024-05-24T23:34:00.130;539787858111812840;329969;354100;267962;-1334;
2024-05-24T23:34:00.148;539787858129969233;330009;354112;268011;-1377;
2024-05-24T23:34:00.166;539787858148125626;330087;354152;268128;-1377;
2024-05-24T23:34:00.185;539787858166282019;330179;354271;268140;-1323;
2024-05-24T23:34:00.203;539787858184438412;330273;354316;268144;-1354;
2024-05-24T23:34:00.221;539787858202594805;330355;354433;268225;-1324;
2024-05-24T23:34:00.239;539787858220751198;330375;354398;268206;-1355;
2024-05-24T23:34:00.257;539787858238907591;330464;354501;268258;-1362;
2024-05-24T23:34:00.275;539787858257063984;330588;354528;268333;-1357;
2024-05-24T23:34:00.294;539787858275220377;330640;354646;268363;-1394;
2024-05-24T23:34:00.312;539787858293376770;330689;354750;268417;-1408;
2024-05-24T23:34:00.330;539787858311533163;330768;354738;268438;-1368;
2024-05-24T23:34:00.348;539787858329689556;330861;354855;268552;-1359;
2024-05-24T23:34:00.366;539787858347848228;330837;354823;268444;-1397;
2024-05-24T23:34:00.384;539787858366006863;330865;354811;268509;-1362;
2024-05-24T23:34:00.402;539787858384165498;330780;354538;268362;-1404;
2024-05-24T23:34:00.421;539787858402324133;330455;354260;268117;-1359;
2024-05-24T23:34:00.439;539787858420482768;330061;353788;267840;-1399;
2024-05-24T23:34:00.457;539787858438641403;329702;353355;267566;-1345;
2024-05-24T23:34:00.475;539787858456800038;329310;352888;267227;-1419;
2024-05-24T23:34:00.493;539787858474958673;329004;352540;267014;-1354;
2024-05-24T23:34:00.511;539787858493117308;328739;352135;266725;-1343;
2024-05-24T23:34:00.530;539787858511275943;328480;351858;266513;-1381;
2024-05-24T23:34:00.548;539787858529434578;328382;351744;266485;-1362;
2024-05-24T23:34:00.566;539787858547593213;328299;351681;266334;-1354;
2024-05-24T23:34:00.584;539787858565751848;328313;351696;266323;-1394;
2024-05-24T23:34:00.602;539787858583910483;328430;351786;266450;-1321;
2024-05-24T23:34:00.620;539787858602069118;328592;351921;266534;-1287;
2024-05-24T23:34:00.639;539787858620227753;328669;352078;266627;-1343;
2024-05-24T23:34:00.657;539787858638386388;328808;352191;266677;-1372;
2024-05-24T23:34:00.675;539787858656545023;328893;352281;266681;-1359;
2024-05-24T23:34:00.693;539787858674703658;329001;352401;266779;-1316;
2024-05-24T23:34:00.711;539787858692862293;329071;352430;266821;-1326;
2024-05-24T23:34:00.729;539787858711020928;329165;352498;266853;-1336;
2024-05-24T23:34:00.747;539787858729179563;329173;352506;266806;-1369;
2024-05-24T23:34:00.766;539787858747338198;329234;352486;266850;-1368;
2024-05-24T23:34:00.784;539787858765496833;329184;352420;266784;-1352;
2024-05-24T23:34:00.802;539787858783655468;329172;352410;266759;-1334;
2024-05-24T23:34:00.820;539787858801814103;329150;352363;266758;-1304;
2024-05-24T23:34:00.838;539787858819972738;329146;352372;266790;-1312;
2024-05-24T23:34:00.856;539787858838131373;329143;352308;266691;-1323;
2024-05-24T23:34:00.875;539787858856290008;329118;352273;266691;-1328;
2024-05-24T23:34:00.893;539787858874448643;329173;352384;266724;-1328;
2024-05-24T23:34:00.911;539787858892607278;329193;352392;266681;-1334;
2024-05-24T23:34:00.929;539787858910765913;329241;352486;266726;-1345;
2024-05-24T23:34:00.947;539787858928924548;329262;352382;266764;-1369;
2024-05-24T23:34:00.965;539787858947083183;329387;352484;266785;-1348;
2024-05-24T23:34:00.984;539787858965241818;329371;352458;266782;-1326;
2024-05-24T23:34:01.002;539787858983400453;329437;352564;266870;-1324;
2024-05-24T23:34:01.020;539787859001559088;329413;352592;266814;-1358;
2024-05-24T23:34:01.038;539787859019717723;329495;352626;266848;-1386;
2024-05-24T23:34:01.056;539787859037876358;329551;352608;266879;-1419;
2024-05-24T23:34:01.074;539787859056034993;329557;352741;266948;-1392;
2024-05-24T23:34:01.092;539787859074193628;329623;352799;266974;-1386;
2024-05-24T23:34:01.111;539787859092352263;329722;352792;266976;-1322;
2024-05-24T23:34:01.129;539787859110510898;329795;352881;267033;-1353;
2024-05-24T23:34:01.147;539787859128668388;329827;352915;267042;-1373;
2024-05-24T23:34:01.165;539787859146825854;329875;352965;267081;-1378;
2024-05-24T23:34:01.183;539787859164983320;329920;353021;267128;-1372;
2024-05-24T23:34:01.201;539787859183140786;330035;353010;267143;-1334;
2024-05-24T23:34:01.220;539787859201298252;330002;353057;267160;-1355;
2024-05-24T23:34:01.238;539787859219455718;330078;353091;267213;-1329;
2024-05-24T23:34:01.256;539787859237613184;330095;353129;267196;-1391;
2024-05-24T23:34:01.274;539787859255770650;330118;353091;267156;-1405;
2024-05-24T23:34:01.292;539787859273928116;330077;353162;267210;-1390;
2024-05-24T23:34:01.310;539787859292085582;329981;353025;267099;-1350;
2024-05-24T23:34:01.329;539787859310243048;329751;352780;266938;-1326;
2024-05-24T23:34:01.347;539787859328400514;329472;352354;266708;-1355;
2024-05-24T23:34:01.365;539787859346557980;329051;351910;266372;-1350;
2024-05-24T23:34:01.383;539787859364715446;328569;351316;265910;-1365;
2024-05-24T23:34:01.401;539787859382872912;328109;350807;265571;-1373;
2024-05-24T23:34:01.419;539787859401030378;327689;350332;265319;-1306;
2024-05-24T23:34:01.437;539787859419187844;327453;350030;265090;-1275;
2024-05-24T23:34:01.456;539787859437345310;327100;349754;264858;-1356;
2024-05-24T23:34:01.474;539787859455502776;327014;349553;264692;-1379;
2024-05-24T23:34:01.492;539787859473660242;326942;349498;264694;-1338;
2024-05-24T23:34:01.510;539787859491817708;326957;349494;264612;-1306;
2024-05-24T23:34:01.528;539787859509975174;327046;349562;264709;-1322;
2024-05-24T23:34:01.546;539787859528132640;327143;349668;264746;-1313;
2024-05-24T23:34:01.565;539787859546290106;327169;349739;264767;-1409;
2024-05-24T23:34:01.583;539787859564447572;327327;349884;264895;-1312;
2024-05-24T23:34:01.601;539787859582605038;327367;349973;264931;-1341;
2024-05-24T23:34:01.619;539787859600762504;327441;350042;265021;-1296;
2024-05-24T23:34:01.637;539787859618919970;327395;350021;264955;-1344;
2024-05-24T23:34:01.655;539787859637077436;327453;350035;264959;-1348;
2024-05-24T23:34:01.674;539787859655234902;327395;350004;264868;-1327;
2024-05-24T23:34:01.692;539787859673392368;327317;349947;264827;-1419;
2024-05-24T23:34:01.710;539787859691549834;327300;349900;264798;-1353;
2024-05-24T23:34:01.728;539787859709707300;327279;349851;264743;-1303;
2024-05-24T23:34:01.746;539787859727864766;327181;349733;264711;-1287;
2024-05-24T23:34:01.764;539787859746022232;327147;349710;264693;-1360;
2024-05-24T23:34:01.782;539787859764179698;327103;349645;264645;-1336;
2024-05-24T23:34:01.801;539787859782337164;327081;349588;264650;-1307;
2024-05-24T23:34:01.819;539787859800494630;327014;349556;264605;-1338;
2024-05-24T23:34:01.837;539787859818652096;327036;349539;264591;-1323;
2024-05-24T23:34:01.855;539787859836808023;326992;349572;264555;-1328;
2024-05-24T23:34:01.873;539787859854963944;327039;349591;264506;-1335;
2024-05-24T23:34:01.891;539787859873119865;327036;349536;264526;-1319;
2024-05-24T23:34:01.910;539787859891275786;327048;349624;264542;-1329;
2024-05-24T23:34:01.928;539787859909431707;327045;349526;264525;-1414;
2024-05-24T23:34:01.946;539787859927587628;327026;349621;264586;-1376;
2024-05-24T23:34:01.964;539787859945743549;327020;349686;264546;-1360;
2024-05-24T23:34:01.982;539787859963899470;327095;349727;264612;-1389;
2024-05-24T23:34:02.000;539787859982055391;327158;349736;264654;-1376;
2024-05-24T23:34:02.019;539787860000211312;327188;349750;264640;-1321;
2024-05-24T23:34:02.037;539787860018367233;327284;349791;264734;-1323;
2024-05-24T23:34:02.055;539787860036523154;327259;349798;264676;-1323;
2024-05-24T23:34:02.073;539787860054679075;327222;349804;264633;-1361;
2024-05-24T23:34:02.091;539787860072834996;327238;349841;264667;-1291;
2024-05-24T23:34:02.109;539787860090990917;327271;349841;264687;-1364;
2024-05-24T23:34:02.127;539787860109146838;327284;349826;264669;-1321;
2024-05-24T23:34:02.146;539787860127302759;327301;349737;264739;-1319;
2024-05-24T23:34:02.164;539787860145458680;327335;349827;264729;-1372;
2024-05-24T23:34:02.182;539787860163614601;327358;349868;264751;-1338;
2024-05-24T23:34:02.200;539787860181770522;327208;349787;264693;-1373;
2024-05-24T23:34:02.218;539787860199926443;327072;349553;264569;-1326;
2024-05-24T23:34:02.236;539787860218082364;326791;349293;264391;-1321;
2024-05-24T23:34:02.255;539787860236238285;326424;348900;264069;-1361;
2024-05-24T23:34:02.273;539787860254394206;325991;348351;263703;-1362;
2024-05-24T23:34:02.291;539787860272550127;325461;347792;263201;-1362;
2024-05-24T23:34:02.309;539787860290706048;324990;347245;262892;-1386;
2024-05-24T23:34:02.327;539787860308861969;324532;346687;262521;-1329;
2024-05-24T23:34:02.345;539787860327017890;324209;346416;262260;-1373;
2024-05-24T23:34:02.363;539787860345173811;323899;346064;262064;-1404;
2024-05-24T23:34:02.382;539787860363329732;323728;345862;261910;-1363;
2024-05-24T23:34:02.400;539787860381485653;323614;345781;261835;-1361;
2024-05-24T23:34:02.418;539787860399641574;323603;345793;261810;-1376;
2024-05-24T23:34:02.436;539787860417797495;323659;345845;261853;-1376;
2024-05-24T23:34:02.454;539787860435953416;323673;345900;261860;-1377;
2024-05-24T23:34:02.472;539787860454109337;323769;346032;261955;-1372;
2024-05-24T23:34:02.491;539787860472265258;323773;346123;262021;-1347;
2024-05-24T23:34:02.509;539787860490421179;323869;346171;261980;-1416;
2024-05-24T23:34:02.527;539787860508577100;323928;346184;262020;-1386;
2024-05-24T23:34:02.545;539787860526733021;323934;346192;262013;-1370;
2024-05-24T23:34:02.563;539787860544888942;323834;346134;261988;-1350;
2024-05-24T23:34:02.581;539787860563045858;323789;346100;261977;-1362;
2024-05-24T23:34:02.599;539787860581202742;323737;346048;261852;-1374;
2024-05-24T23:34:02.618;539787860599359626;323644;345934;261812;-1303;
2024-05-24T23:34:02.636;539787860617516510;323451;345815;261675;-1387;
2024-05-24T23:34:02.654;539787860635673394;323393;345750;261679;-1397;
2024-05-24T23:34:02.672;539787860653830278;323313;345623;261619;-1404;
2024-05-24T23:34:02.690;539787860671987162;323268;345624;261579;-1372;
2024-05-24T23:34:02.708;539787860690144046;323242;345584;261520;-1355;
2024-05-24T23:34:02.727;539787860708300930;323227;345491;261471;-1361;
2024-05-24T23:34:02.745;539787860726457814;323167;345409;261499;-1322;
2024-05-24T23:34:02.763;539787860744614698;323133;345474;261466;-1348;
2024-05-24T23:34:02.781;539787860762771582;323126;345473;261428;-1321;
2024-05-24T23:34:02.799;539787860780928466;323170;345528;261461;-1357;
2024-05-24T23:34:02.817;539787860799085350;323129;345440;261429;-1360;
2024-05-24T23:34:02.836;539787860817242234;323166;345484;261423;-1334;
2024-05-24T23:34:02.854;539787860835399118;323137;345372;261370;-1427;
2024-05-24T23:34:02.872;539787860853556002;323097;345420;261470;-1395;
2024-05-24T23:34:02.890;539787860871712886;323108;345420;261487;-1383;
2024-05-24T23:34:02.908;539787860889869770;323106;345490;261485;-1377;
2024-05-24T23:34:02.926;539787860908026654;323125;345500;261495;-1355;
2024-05-24T23:34:02.944;539787860926183538;323098;345499;261483;-1314;
2024-05-24T23:34:02.963;539787860944340422;323109;345493;261524;-1274;
2024-05-24T23:34:02.981;539787860962497306;323123;345498;261503;-1319;
2024-05-24T23:34:02.999;539787860980654190;323097;345491;261528;-1284;
2024-05-24T23:34:03.017;539787860998811074;323008;345492;261479;-1361;
2024-05-24T23:34:03.035;539787861016967958;323105;345484;261548;-1294;
2024-05-24T23:34:03.053;539787861035124842;323117;345456;261516;-1321;
2024-05-24T23:34:03.072;539787861053281726;323004;345411;261414;-1328;
2024-05-24T23:34:03.090;539787861071438610;322902;345281;261305;-1419;
2024-05-24T23:34:03.108;539787861089595494;322666;345046;261152;-1306;
2024-05-24T23:34:03.126;539787861107752378;322308;344670;260948;-1375;
2024-05-24T23:34:03.144;539787861125909262;321838;344136;260557;-1340;
2024-05-24T23:34:03.162;539787861144066146;321224;343560;260176;-1317;
2024-05-24T23:34:03.181;539787861162223030;320732;343072;259780;-1268;
2024-05-24T23:34:03.199;539787861180379914;320237;342457;259404;-1277;
2024-05-24T23:34:03.217;539787861198536798;319705;341938;259015;-1351;
2024-05-24T23:34:03.235;539787861216693682;319404;341700;258795;-1342;
2024-05-24T23:34:03.253;539787861234850566;319130;341442;258613;-1323;
2024-05-24T23:34:03.271;539787861253005732;318981;341272;258449;-1342;
2024-05-24T23:34:03.289;539787861271160890;318940;341225;258450;-1363;
2024-05-24T23:34:03.308;539787861289316048;318881;341218;258439;-1324;
2024-05-24T23:34:03.326;539787861307471206;318904;341247;258466;-1297;
2024-05-24T23:34:03.344;539787861325626364;318986;341384;258544;-1283;
2024-05-24T23:34:03.362;539787861343781522;318968;341422;258605;-1319;
2024-05-24T23:34:03.380;539787861361936680;319109;341587;258685;-1312;
2024-05-24T23:34:03.398;539787861380091838;319163;341628;258647;-1309;
2024-05-24T23:34:03.417;539787861398246996;319129;341630;258689;-1312;
2024-05-24T23:34:03.435;539787861416402154;319010;341543;258597;-1369;
2024-05-24T23:34:03.453;539787861434557312;319010;341433;258548;-1364;
2024-05-24T23:34:03.471;539787861452712470;318879;341357;258466;-1362;
2024-05-24T23:34:03.489;539787861470867628;318775;341276;258362;-1313;
2024-05-24T23:34:03.507;539787861489022786;318646;341167;258289;-1343;
2024-05-24T23:34:03.525;539787861507177944;318568;341077;258321;-1318;
2024-05-24T23:34:03.544;539787861525333102;318505;340949;258236;-1320;
2024-05-24T23:34:03.562;539787861543488260;318357;340874;258131;-1394;
2024-05-24T23:34:03.580;539787861561643418;318254;340803;258038;-1344;
2024-05-24T23:34:03.598;539787861579798576;318223;340728;257989;-1364;
2024-05-24T23:34:03.616;539787861597953734;318151;340646;257959;-1363;
2024-05-24T23:34:03.634;539787861616108892;318151;340751;258003;-1323;
2024-05-24T23:34:03.653;539787861634264050;318105;340642;257944;-1347;
2024-05-24T23:34:03.671;539787861652419208;318045;340597;257921;-1319;
2024-05-24T23:34:03.689;539787861670574366;318010;340544;257981;-1341;
2024-05-24T23:34:03.707;539787861688729524;318045;340599;257981;-1330;
2024-05-24T23:34:03.725;539787861706884682;318052;340593;257959;-1356;
2024-05-24T23:34:03.743;539787861725039840;318002;340626;257975;-1334;
2024-05-24T23:34:03.761;539787861743194998;318041;340591;257985;-1324;
2024-05-24T23:34:03.780;539787861761350156;317953;340578;257943;-1344;
2024-05-24T23:34:03.798;539787861779505314;317946;340615;257974;-1342;
2024-05-24T23:34:03.816;539787861797660472;317917;340541;257935;-1334;
2024-05-24T23:34:03.834;539787861815815630;317869;340597;257911;-1343;
2024-05-24T23:34:03.852;539787861833970788;317940;340539;257899;-1308;
2024-05-24T23:34:03.870;539787861852125946;317835;340407;257871;-1310;
2024-05-24T23:34:03.889;539787861870281104;317783;340457;257844;-1304;
2024-05-24T23:34:03.907;539787861888436262;317749;340453;257844;-1335;
2024-05-24T23:34:03.925;539787861906591420;317495;340228;257690;-1308;
2024-05-24T23:34:03.943;539787861924746578;317239;339862;257451;-1287;
2024-05-24T23:34:03.961;539787861942901736;316723;339370;257143;-1351;
2024-05-24T23:34:03.979;539787861961056894;316155;338709;256720;-1325;
2024-05-24T23:34:03.998;539787861979212600;315576;338103;256291;-1285;
2024-05-24T23:34:04.016;539787861997368306;314940;337451;255814;-1390;
2024-05-24T23:34:04.034;539787862015524012;314372;336963;255469;-1357;
2024-05-24T23:34:04.052;539787862033679718;313973;336532;255165;-1343;
2024-05-24T23:34:04.070;539787862051835424;313553;336115;254875;-1310;
2024-05-24T23:34:04.088;539787862069991130;313330;336001;254803;-1310;
2024-05-24T23:34:04.106;539787862088146836;313126;335849;254679;-1400;
2024-05-24T23:34:04.125;539787862106302542;313153;335902;254717;-1373;
2024-05-24T23:34:04.143;539787862124458248;313188;335834;254671;-1376;
2024-05-24T23:34:04.161;539787862142613954;313260;335977;254756;-1352;
2024-05-24T23:34:04.179;539787862160769660;313345;336095;254775;-1341;
2024-05-24T23:34:04.197;539787862178925366;313451;336169;254835;-1404;
2024-05-24T23:34:04.215;539787862197081072;313515;336299;254916;-1360;
2024-05-24T23:34:04.234;539787862215236778;313568;336305;254992;-1361;
2024-05-24T23:34:04.252;539787862233392484;313503;336385;254918;-1385;
2024-05-24T23:34:04.270;539787862251548190;313463;336384;254887;-1337;
2024-05-24T23:34:04.288;539787862269703896;313413;336280;254877;-1319;
2024-05-24T23:34:04.306;539787862287859602;313369;336203;254824;-1292;
2024-05-24T23:34:04.324;539787862306015308;313273;336095;254751;-1317;
2024-05-24T23:34:04.342;539787862324171014;313090;336049;254654;-1330;
2024-05-24T23:34:04.361;539787862342326720;313012;335951;254641;-1347;
2024-05-24T23:34:04.379;539787862360482426;313032;335944;254613;-1303;
2024-05-24T23:34:04.397;539787862378638132;312973;335792;254587;-1363;
2024-05-24T23:34:04.415;539787862396793838;312894;335814;254600;-1311;
2024-05-24T23:34:04.433;539787862414949544;312809;335772;254570;-1312;
2024-05-24T23:34:04.451;539787862433105250;312848;335781;254616;-1276;
2024-05-24T23:34:04.470;539787862451260956;312793;335745;254579;-1301;
2024-05-24T23:34:04.488;539787862469416662;312840;335795;254555;-1329;
2024-05-24T23:34:04.506;539787862487572368;312807;335800;254575;-1271;
2024-05-24T23:34:04.524;539787862505728074;312852;335781;254584;-1375;
2024-05-24T23:34:04.542;539787862523883780;312892;335895;254677;-1390;
2024-05-24T23:34:04.560;539787862542039486;312977;335896;254727;-1324;
2024-05-24T23:34:04.578;539787862560195192;312894;336041;254757;-1356;
2024-05-24T23:34:04.597;539787862578350898;312938;336026;254756;-1368;
2024-05-24T23:34:04.615;539787862596506604;312991;336144;254831;-1313;
2024-05-24T23:34:04.633;539787862614662310;313013;336179;254803;-1339;
2024-05-24T23:34:04.651;539787862632818016;313007;336140;254836;-1374;
2024-05-24T23:34:04.669;539787862650973722;313082;336212;254849;-1328;
2024-05-24T23:34:04.687;539787862669129428;313068;336263;254874;-1375;
2024-05-24T23:34:04.706;539787862687286116;313088;336233;254874;-1340;
2024-05-24T23:34:04.724;539787862705442800;313084;336212;254837;-1323;
2024-05-24T23:34:04.742;539787862723599484;312954;336097;254789;-1390;
2024-05-24T23:34:04.760;539787862741756168;312633;335843;254648;-1351;
2024-05-24T23:34:04.778;539787862759912852;312243;335354;254358;-1372;
2024-05-24T23:34:04.796;539787862778069536;311710;334831;253985;-1321;
2024-05-24T23:34:04.815;539787862796226220;311071;334239;253576;-1336;
2024-05-24T23:34:04.833;539787862814382904;310470;333641;253165;-1393;
2024-05-24T23:34:04.851;539787862832539588;309929;333162;252788;-1319;
2024-05-24T23:34:04.869;539787862850696272;309452;332707;252528;-1326;
2024-05-24T23:34:04.887;539787862868852956;309113;332343;252309;-1328;
2024-05-24T23:34:04.905;539787862887009640;308861;332138;252119;-1362;
2024-05-24T23:34:04.923;539787862905166324;308794;332043;252059;-1297;
2024-05-24T23:34:04.942;539787862923323008;308746;332089;252103;-1376;
2024-05-24T23:34:04.960;539787862941479692;308817;332226;252091;-1296;
2024-05-24T23:34:04.978;539787862959636376;308892;332258;252174;-1387;
2024-05-24T23:34:04.996;539787862977793060;309053;332415;252304;-1307;
2024-05-24T23:34:05.014;539787862995949744;309135;332509;252392;-1350;
2024-05-24T23:34:05.032;539787863014106428;309248;332698;252510;-1370;
2024-05-24T23:34:05.051;539787863032263112;309374;332788;252550;-1304;
2024-05-24T23:34:05.069;539787863050419796;309357;332818;252577;-1378;
2024-05-24T23:34:05.087;539787863068576480;309385;332808;252583;-1351;
2024-05-24T23:34:05.105;539787863086733164;309341;332795;252539;-1342;
2024-05-24T23:34:05.123;539787863104889848;309321;332758;252531;-1403;
2024-05-24T23:34:05.141;539787863123046532;309187;332680;252464;-1386;
2024-05-24T23:34:05.159;539787863141203216;309167;332651;252480;-1328;
2024-05-24T23:34:05.178;539787863159359900;309114;332635;252453;-1329;
2024-05-24T23:34:05.196;539787863177516584;309166;332592;252481;-1342;
2024-05-24T23:34:05.214;539787863195673268;308976;332557;252416;-1334;
2024-05-24T23:34:05.232;539787863213829952;308979;332524;252433;-1340;
2024-05-24T23:34:05.250;539787863231986636;309001;332553;252419;-1296;
