Phone timestamp;sensor timestamp [ns];channel 0;channel 1;channel 2;ambient
2024-05-24T23:21:09.959;539787087928338259;284827;308534;230386;-1306;
2024-05-24T23:21:09.977;539787087946490294;284922;308628;230470;-1319;
2024-05-24T23:21:09.995;539787087964642329;285082;308741;230540;-1306;
2024-05-24T23:21:10.013;539787087982794364;285158;308903;230612;-1319;
2024-05-24T23:21:10.031;539787088000946399;285159;308854;230687;-1317;
2024-05-24T23:21:10.049;539787088019098434;285201;309004;230686;-1318;
2024-05-24T23:21:10.067;539787088037250469;285252;308991;230749;-1271;
2024-05-24T23:21:10.086;539787088055402504;285299;308959;230743;-1273;
2024-05-24T23:21:10.104;539787088073554539;285238;308952;230739;-1261;
2024-05-24T23:21:10.122;539787088091706574;285246;308948;230778;-1276;
2024-05-24T23:21:10.140;539787088109858609;285186;308917;230750;-1288;
2024-05-24T23:21:10.158;539787088128010644;285233;308921;230772;-1260;
2024-05-24T23:21:10.176;539787088146162679;285210;308908;230881;-1256;
2024-05-24T23:21:10.194;539787088164314714;285237;308899;230891;-1237;
2024-05-24T23:21:10.213;539787088182466749;285218;308955;230930;-1290;
2024-05-24T23:21:10.231;539787088200618784;285319;308952;230951;-1294;
2024-05-24T23:21:10.249;539787088218770819;285340;308961;230946;-1334;
2024-05-24T23:21:10.267;539787088236922854;285378;308994;231070;-1325;
2024-05-24T23:21:10.285;539787088255074889;285408;309027;231092;-1306;
2024-05-24T23:21:10.303;539787088273226924;285476;309128;231130;-1364;
2024-05-24T23:21:10.322;539787088291378959;285524;309136;231170;-1368;
2024-05-24T23:21:10.340;539787088309530994;285592;309242;231279;-1300;
2024-05-24T23:21:10.358;539787088327683029;285571;309314;231335;-1331;
2024-05-24T23:21:10.376;539787088345835064;285741;309424;231397;-1265;
2024-05-24T23:21:10.394;539787088363987099;285702;309465;231459;-1304;
2024-05-24T23:21:10.412;539787088382139134;285792;309560;231514;-1338;
2024-05-24T23:21:10.430;539787088400291169;285843;309614;231587;-1340;
2024-05-24T23:21:10.449;539787088418443204;285914;309591;231619;-1337;
2024-05-24T23:21:10.467;539787088436595239;285870;309566;231565;-1303;
2024-05-24T23:21:10.485;539787088454747274;285733;309388;231562;-1324;
2024-05-24T23:21:10.503;539787088472899309;285428;309093;231419;-1317;
2024-05-24T23:21:10.521;539787088491051344;285077;308687;231220;-1293;
2024-05-24T23:21:10.539;539787088509203379;284729;308220;230985;-1319;
2024-05-24T23:21:10.558;539787088527355414;284365;307829;230779;-1289;
2024-05-24T23:21:10.576;539787088545507449;283978;307375;230609;-1294;
2024-05-24T23:21:10.594;539787088563659484;283705;307033;230408;-1268;
2024-05-24T23:21:10.612;539787088581811519;283520;306821;230361;-1277;
2024-05-24T23:21:10.630;539787088599963554;283420;306675;230330;-1274;
2024-05-24T23:21:10.648;539787088618115589;283332;306608;230298;-1324;
2024-05-24T23:21:10.666;539787088636267624;283435;306673;230362;-1276;
2024-05-24T23:21:10.685;539787088654419659;283479;306725;230424;-1345;
2024-05-24T23:21:10.703;539787088672571694;283658;306961;230557;-1293;
2024-05-24T23:21:10.721;539787088690723746;283828;307053;230652;-1295;
2024-05-24T23:21:10.739;539787088708875781;283924;307185;230827;-1319;
2024-05-24T23:21:10.757;539787088727027816;284009;307314;230791;-1338;
2024-05-24T23:21:10.775;539787088745179851;284067;307391;230933;-1304;
2024-05-24T23:21:10.793;539787088763331886;284057;307452;230909;-1280;
2024-05-24T23:21:10.812;539787088781483921;284036;307425;230931;-1328;
2024-05-24T23:21:10.830;539787088799635956;284046;307422;230994;-1336;
2024-05-24T23:21:10.848;539787088817787991;284046;307404;231000;-1271;
2024-05-24T23:21:10.866;539787088835940026;284042;307330;231041;-1263;
2024-05-24T23:21:10.884;539787088854092061;283999;307317;231013;-1289;
2024-05-24T23:21:10.902;539787088872244096;283981;307305;231033;-1246;
2024-05-24T23:21:10.921;539787088890396131;283926;307240;231111;-1261;
2024-05-24T23:21:10.939;539787088908548166;283914;307265;231158;-1312;
2024-05-24T23:21:10.957;539787088926700201;283866;307188;231096;-1294;
2024-05-24T23:21:10.975;539787088944852236;283834;307147;231096;-1310;
2024-05-24T23:21:10.993;539787088963004271;283868;307210;231152;-1284;
2024-05-24T23:21:11.011;539787088981156306;283892;307222;231190;-1306;
2024-05-24T23:21:11.029;539787088999308341;283905;307240;231200;-1333;
2024-05-24T23:21:11.048;539787089017460376;283943;307254;231277;-1253;
2024-05-24T23:21:11.066;539787089035612411;283921;307312;231314;-1302;
2024-05-24T23:21:11.084;539787089053764446;283990;307367;231334;-1275;
2024-05-24T23:21:11.102;539787089071916481;283976;307402;231378;-1293;
2024-05-24T23:21:11.120;539787089090068516;283972;307412;231450;-1310;
2024-05-24T23:21:11.138;539787089108220551;284019;307493;231458;-1355;
2024-05-24T23:21:11.157;539787089126372586;284042;307468;231500;-1321;
2024-05-24T23:21:11.175;539787089144524621;284164;307564;231607;-1299;
2024-05-24T23:21:11.193;539787089162676656;284117;307507;231606;-1350;
2024-05-24T23:21:11.211;539787089180828691;284053;307536;231635;-1307;
2024-05-24T23:21:11.229;539787089198980726;283950;307371;231530;-1307;
2024-05-24T23:21:11.247;539787089217132761;283618;307057;231377;-1299;
2024-05-24T23:21:11.265;539787089235284796;283298;306606;231175;-1335;
2024-05-24T23:21:11.284;539787089253436831;282858;306138;230994;-1297;
2024-05-24T23:21:11.302;539787089271588866;282411;305643;230727;-1321;
2024-05-24T23:21:11.320;539787089289740901;281983;305179;230511;-1326;
2024-05-24T23:21:11.338;539787089307892936;281610;304790;230349;-1321;
2024-05-24T23:21:11.356;539787089326044971;281357;304455;230184;-1289;
2024-05-24T23:21:11.374;539787089344197006;281181;304323;230165;-1313;
2024-05-24T23:21:11.393;539787089362349041;281127;304249;230096;-1270;
2024-05-24T23:21:11.411;539787089380501076;281028;304188;230193;-1376;
2024-05-24T23:21:11.429;539787089398653111;281166;304285;230255;-1305;
2024-05-24T23:21:11.447;539787089416805146;281288;304402;230287;-1325;
2024-05-24T23:21:11.465;539787089434957181;281395;304565;230436;-1249;
2024-05-24T23:21:11.483;539787089453109216;281542;304685;230463;-1270;
2024-05-24T23:21:11.501;539787089471262332;281540;304753;230538;-1304;
2024-05-24T23:21:11.520;539787089489415444;281555;304830;230577;-1275;
2024-05-24T23:21:11.538;539787089507568556;281567;304857;230637;-1330;
2024-05-24T23:21:11.556;539787089525721668;281606;304893;230646;-1352;
2024-05-24T23:21:11.574;539787089543874780;281601;304904;230658;-1301;
2024-05-24T23:21:11.592;539787089562027892;281511;304835;230698;-1268;
2024-05-24T23:21:11.610;539787089580181004;281458;304809;230713;-1218;
2024-05-24T23:21:11.628;539787089598334116;281386;304745;230676;-1300;
2024-05-24T23:21:11.647;539787089616487228;281343;304683;230663;-1288;
2024-05-24T23:21:11.665;539787089634640340;281357;304655;230660;-1303;
2024-05-24T23:21:11.683;539787089652793452;281261;304621;230705;-1271;
2024-05-24T23:21:11.701;539787089670946564;281250;304647;230788;-1294;
2024-05-24T23:21:11.719;539787089689099676;281227;304652;230759;-1301;
2024-05-24T23:21:11.737;539787089707252788;281177;304574;230734;-1354;
2024-05-24T23:21:11.756;539787089725405900;281228;304613;230848;-1331;
2024-05-24T23:21:11.774;539787089743559012;281285;304664;230789;-1319;
2024-05-24T23:21:11.792;539787089761712124;281259;304711;230868;-1307;
2024-05-24T23:21:11.810;539787089779865236;281315;304765;230927;-1276;
2024-05-24T23:21:11.828;539787089798018348;281305;304781;230950;-1317;
2024-05-24T23:21:11.846;539787089816171460;281319;304885;230984;-1330;
2024-05-24T23:21:11.864;539787089834324572;281315;304928;231052;-1285;
2024-05-24T23:21:11.883;539787089852477684;281341;304944;231089;-1305;
2024-05-24T23:21:11.901;539787089870630796;281354;304964;231114;-1342;
2024-05-24T23:21:11.919;539787089888783908;281456;305027;231126;-1311;
2024-05-24T23:21:11.937;539787089906937020;281464;305058;231113;-1327;
2024-05-24T23:21:11.955;539787089925090132;281328;305000;231158;-1286;
2024-05-24T23:21:11.973;539787089943243244;281232;304842;231020;-1350;
2024-05-24T23:21:11.992;539787089961396356;280958;304575;230948;-1320;
2024-05-24T23:21:12.010;539787089979549468;280531;304198;230787;-1347;
2024-05-24T23:21:12.028;539787089997702580;280080;303689;230532;-1313;
2024-05-24T23:21:12.046;539787090015855692;279630;303219;230313;-1252;
2024-05-24T23:21:12.064;539787090034008804;279215;302673;230049;-1358;
2024-05-24T23:21:12.082;539787090052161916;278804;302279;229856;-1329;
2024-05-24T23:21:12.100;539787090070315028;278508;301966;229750;-1344;
2024-05-24T23:21:12.119;539787090088468140;278238;301778;229619;-1351;
2024-05-24T23:21:12.137;539787090106621252;278162;301742;229590;-1301;
2024-05-24T23:21:12.155;539787090124774364;278125;301652;229555;-1314;
2024-05-24T23:21:12.173;539787090142927476;278163;301717;229625;-1330;
2024-05-24T23:21:12.191;539787090161080588;278293;301877;229759;-1257;
2024-05-24T23:21:12.209;539787090179233700;278317;302072;229816;-1326;
2024-05-24T23:21:12.228;539787090197386812;278518;302159;229918;-1318;
2024-05-24T23:21:12.246;539787090215539924;278557;302218;229992;-1294;
2024-05-24T23:21:12.264;539787090233693036;278617;302403;230048;-1301;
2024-05-24T23:21:12.282;539787090251846148;278634;302415;230054;-1316;
2024-05-24T23:21:12.300;539787090269999031;278639;302488;230081;-1288;
2024-05-24T23:21:12.318;539787090288151900;278551;302413;230171;-1301;
2024-05-24T23:21:12.336;539787090306304769;278539;302381;230164;-1280;
2024-05-24T23:21:12.355;539787090324457638;278490;302398;230113;-1338;
2024-05-24T23:21:12.373;539787090342610507;278428;302335;230082;-1295;
2024-05-24T23:21:12.391;539787090360763376;278337;302296;230072;-1313;
2024-05-24T23:21:12.409;539787090378916245;278317;302250;230080;-1351;
2024-05-24T23:21:12.427;539787090397069114;278261;302264;230119;-1276;
2024-05-24T23:21:12.445;539787090415221983;278247;302330;230111;-1299;
2024-05-24T23:21:12.464;539787090433374852;278192;302264;230093;-1336;
2024-05-24T23:21:12.482;539787090451527721;278214;302287;230146;-1329;
2024-05-24T23:21:12.500;539787090469680590;278249;302275;230164;-1312;
2024-05-24T23:21:12.518;539787090487833459;278229;302288;230179;-1307;
2024-05-24T23:21:12.536;539787090505986328;278297;302310;230252;-1306;
2024-05-24T23:21:12.554;539787090524139197;278285;302447;230231;-1331;
2024-05-24T23:21:12.572;539787090542292066;278245;302402;230191;-1323;
2024-05-24T23:21:12.591;539787090560444935;278265;302495;230269;-1311;
2024-05-24T23:21:12.609;539787090578597804;278324;302554;230385;-1295;
2024-05-24T23:21:12.627;539787090596750673;278338;302591;230380;-1244;
2024-05-24T23:21:12.645;539787090614903542;278377;302605;230447;-1311;
2024-05-24T23:21:12.663;539787090633056411;278415;302640;230481;-1270;
2024-05-24T23:21:12.681;539787090651209280;278414;302654;230504;-1316;
2024-05-24T23:21:12.700;539787090669362149;278388;302730;230506;-1306;
2024-05-24T23:21:12.718;539787090687515018;278414;302799;230578;-1326;
2024-05-24T23:21:12.736;539787090705667887;278399;302796;230552;-1305;
2024-05-24T23:21:12.754;539787090723820756;278285;302709;230588;-1370;
2024-05-24T23:21:12.772;539787090741973625;278123;302455;230433;-1374;
2024-05-24T23:21:12.790;539787090760126494;277678;302109;230201;-1338;
2024-05-24T23:21:12.808;539787090778279363;277222;301673;229943;-1301;
2024-05-24T23:21:12.827;539787090796432232;276728;301176;229747;-1295;
2024-05-24T23:21:12.845;539787090814585101;276212;300741;229384;-1325;
2024-05-24T23:21:12.863;539787090832737970;275843;300294;229220;-1290;
2024-05-24T23:21:12.881;539787090850890839;275505;299980;229021;-1278;
2024-05-24T23:21:12.899;539787090869043708;275288;299816;228978;-1286;
2024-05-24T23:21:12.917;539787090887196577;275126;299693;228910;-1328;
2024-05-24T23:21:12.936;539787090905349446;275206;299691;228924;-1351;
2024-05-24T23:21:12.954;539787090923502315;275223;299812;228934;-1340;
2024-05-24T23:21:12.972;539787090941655184;275295;299878;229006;-1321;
2024-05-24T23:21:12.990;539787090959808053;275373;299999;229055;-1308;
2024-05-24T23:21:13.008;539787090977960922;275462;300193;229163;-1336;
2024-05-24T23:21:13.026;539787090996113868;275607;300393;229264;-1274;
2024-05-24T23:21:13.044;539787091014266790;275748;300472;229405;-1258;
2024-05-24T23:21:13.063;539787091032419712;275781;300582;229431;-1290;
2024-05-24T23:21:13.081;539787091050572634;275819;300602;229443;-1335;
2024-05-24T23:21:13.099;539787091068725556;275796;300629;229453;-1313;
2024-05-24T23:21:13.117;539787091086878478;275794;300650;229470;-1302;
2024-05-24T23:21:13.135;539787091105031400;275714;300613;229429;-1325;
2024-05-24T23:21:13.153;539787091123184322;275683;300638;229425;-1321;
2024-05-24T23:21:13.171;539787091141337244;275668;300601;229450;-1325;
2024-05-24T23:21:13.190;539787091159490166;275647;300639;229462;-1291;
2024-05-24T23:21:13.208;539787091177643088;275596;300625;229427;-1296;
2024-05-24T23:21:13.226;539787091195796010;275610;300645;229435;-1279;
2024-05-24T23:21:13.244;539787091213948932;275572;300706;229496;-1316;
2024-05-24T23:21:13.262;539787091232101854;275664;300736;229466;-1278;
2024-05-24T23:21:13.280;539787091250254776;275604;300786;229511;-1316;
2024-05-24T23:21:13.299;539787091268407698;275684;300847;229549;-1324;
2024-05-24T23:21:13.317;539787091286560620;275718;300867;229593;-1291;
2024-05-24T23:21:13.335;539787091304713542;275751;300927;229605;-1317;
2024-05-24T23:21:13.353;539787091322866464;275779;300971;229647;-1304;
2024-05-24T23:21:13.371;539787091341019386;275772;301018;229669;-1293;
2024-05-24T23:21:13.389;539787091359172308;275819;301096;229693;-1311;
2024-05-24T23:21:13.407;539787091377325230;275841;301182;229738;-1325;
2024-05-24T23:21:13.426;539787091395478152;275886;301287;229763;-1371;
2024-05-24T23:21:13.444;539787091413631074;275971;301300;229837;-1292;
2024-05-24T23:21:13.462;539787091431783996;275951;301316;229792;-1311;
2024-05-24T23:21:13.480;539787091449936918;276026;301472;229890;-1286;
2024-05-24T23:21:13.498;539787091468089840;276066;301520;229990;-1278;
2024-05-24T23:21:13.516;539787091486242762;276154;301567;229974;-1314;
2024-05-24T23:21:13.535;539787091504395684;276226;301657;230099;-1276;
2024-05-24T23:21:13.553;539787091522548606;276173;301623;230056;-1321;
2024-05-24T23:21:13.571;539787091540701528;276110;301562;230022;-1355;
2024-05-24T23:21:13.589;539787091558854450;275955;301478;229953;-1277;
2024-05-24T23:21:13.607;539787091577007372;275745;301192;229778;-1318;
2024-05-24T23:21:13.625;539787091595160294;275354;300850;229530;-1312;
2024-05-24T23:21:13.643;539787091613313216;274956;300566;229394;-1322;
2024-05-24T23:21:13.662;539787091631466138;274638;300188;229125;-1285;
2024-05-24T23:21:13.680;539787091649619060;274279;299854;228987;-1269;
2024-05-24T23:21:13.698;539787091667771982;274014;299576;228740;-1324;
2024-05-24T23:21:13.716;539787091685924904;273862;299446;228660;-1287;
2024-05-24T23:21:13.734;539787091704077826;273808;299365;228575;-1316;
2024-05-24T23:21:13.752;539787091722230748;273746;299331;228563;-1308;
2024-05-24T23:21:13.771;539787091740383670;273796;299419;228587;-1330;
2024-05-24T23:21:13.789;539787091758536592;273925;299646;228719;-1324;
2024-05-24T23:21:13.807;539787091776689538;274069;299723;228771;-1352;
2024-05-24T23:21:13.825;539787091794842460;274217;299953;228851;-1345;
2024-05-24T23:21:13.843;539787091812995382;274396;300150;228973;-1255;
2024-05-24T23:21:13.861;539787091831148304;274548;300279;229036;-1306;
2024-05-24T23:21:13.879;539787091849301226;274612;300407;229118;-1317;
2024-05-24T23:21:13.898;539787091867454148;274693;300488;229136;-1326;
2024-05-24T23:21:13.916;539787091885607070;274775;300515;229151;-1294;
2024-05-24T23:21:13.934;539787091903759992;274716;300532;229123;-1288;
2024-05-24T23:21:13.952;539787091921912914;274762;300545;229140;-1291;
2024-05-24T23:21:13.970;539787091940065836;274709;300528;229053;-1355;
2024-05-24T23:21:13.988;539787091958218758;274702;300563;229072;-1310;
2024-05-24T23:21:14.007;539787091976371680;274683;300577;229127;-1288;
2024-05-24T23:21:14.025;539787091994524602;274680;300559;229175;-1304;
2024-05-24T23:21:14.043;539787092012677524;274694;300625;229125;-1252;
2024-05-24T23:21:14.061;539787092030830446;274691;300670;229126;-1286;
2024-05-24T23:21:14.079;539787092048983368;274665;300644;229112;-1279;
2024-05-24T23:21:14.097;539787092067136290;274752;300754;229172;-1306;
2024-05-24T23:21:14.115;539787092085289212;274820;300789;229198;-1294;
2024-05-24T23:21:14.134;539787092103442134;274865;300906;229154;-1261;
2024-05-24T23:21:14.152;539787092121595056;274887;300945;229169;-1337;
2024-05-24T23:21:14.170;539787092139747978;274966;300883;229212;-1329;
2024-05-24T23:21:14.188;539787092157900900;275049;301017;229274;-1301;
2024-05-24T23:21:14.206;539787092176053822;275112;301157;229396;-1319;
2024-05-24T23:21:14.224;539787092194206744;275121;301156;229388;-1340;
2024-05-24T23:21:14.243;539787092212359666;275237;301272;229441;-1270;
2024-05-24T23:21:14.261;539787092230512588;275231;301280;229409;-1316;
2024-05-24T23:21:14.279;539787092248665510;275280;301289;229469;-1323;
2024-05-24T23:21:14.297;539787092266818432;275362;301488;229521;-1266;
2024-05-24T23:21:14.315;539787092284971354;275373;301464;229517;-1276;
2024-05-24T23:21:14.333;539787092303124276;275468;301533;229514;-1290;
2024-05-24T23:21:14.351;539787092321277198;275458;301628;229491;-1279;
2024-05-24T23:21:14.370;539787092339430120;275418;301593;229548;-1308;
2024-05-24T23:21:14.388;539787092357583042;275343;301441;229416;-1344;
2024-05-24T23:21:14.406;539787092375735964;275167;301321;229313;-1346;
2024-05-24T23:21:14.424;539787092393888886;274869;301029;229064;-1381;
2024-05-24T23:21:14.442;539787092412041808;274590;300603;228873;-1378;
2024-05-24T23:21:14.460;539787092430194730;274205;300258;228607;-1359;
2024-05-24T23:21:14.479;539787092448347652;273962;300054;228430;-1342;
2024-05-24T23:21:14.497;539787092466500574;273815;299850;228245;-1337;
2024-05-24T23:21:14.515;539787092484653496;273654;299678;228138;-1360;
2024-05-24T23:21:14.533;539787092502806418;273599;299610;228067;-1328;
2024-05-24T23:21:14.551;539787092520959340;273560;299651;228037;-1326;
2024-05-24T23:21:14.569;539787092539112262;273640;299721;228041;-1319;
2024-05-24T23:21:14.587;539787092557266658;273728;299820;228081;-1343;
2024-05-24T23:21:14.606;539787092575421016;273914;299952;228157;-1261;
2024-05-24T23:21:14.624;539787092593575374;274088;300154;228210;-1328;
2024-05-24T23:21:14.642;539787092611729732;274208;300309;228274;-1353;
2024-05-24T23:21:14.660;539787092629884090;274296;300389;228333;-1382;
2024-05-24T23:21:14.678;539787092648038448;274395;300531;228435;-1408;
2024-05-24T23:21:14.696;539787092666192806;274541;300665;228472;-1322;
2024-05-24T23:21:14.715;539787092684347164;274530;300753;228493;-1329;
2024-05-24T23:21:14.733;539787092702501522;274572;300739;228516;-1314;
2024-05-24T23:21:14.751;539787092720655880;274611;300766;228491;-1339;
2024-05-24T23:21:14.769;539787092738810238;274657;300782;228493;-1323;
2024-05-24T23:21:14.787;539787092756964596;274689;300847;228501;-1313;
2024-05-24T23:21:14.805;539787092775118954;274690;300842;228472;-1361;
2024-05-24T23:21:14.823;539787092793273312;274771;300867;228509;-1341;
2024-05-24T23:21:14.842;539787092811427670;274757;300880;228474;-1337;
2024-05-24T23:21:14.860;539787092829582028;274864;300905;228496;-1318;
2024-05-24T23:21:14.878;539787092847736386;274900;301027;228508;-1307;
2024-05-24T23:21:14.896;539787092865890744;274980;301126;228501;-1292;
2024-05-24T23:21:14.914;539787092884045102;275090;301142;228552;-1320;
2024-05-24T23:21:14.932;539787092902199460;275100;301132;228528;-1339;
2024-05-24T23:21:14.951;539787092920353818;275190;301257;228581;-1305;
2024-05-24T23:21:14.969;539787092938508176;275298;301301;228608;-1291;
2024-05-24T23:21:14.987;539787092956662534;275306;301376;228634;-1311;
2024-05-24T23:21:15.005;539787092974816892;275395;301467;228689;-1296;
2024-05-24T23:21:15.023;539787092992971250;275493;301537;228747;-1356;
2024-05-24T23:21:15.041;539787093011125608;275589;301608;228776;-1293;
2024-05-24T23:21:15.059;539787093029279966;275605;301667;228767;-1299;
2024-05-24T23:21:15.078;539787093047434324;275733;301824;228815;-1325;
2024-05-24T23:21:15.096;539787093065588682;275828;301912;228947;-1364;
2024-05-24T23:21:15.114;539787093083743040;275837;301979;228871;-1305;
2024-05-24T23:21:15.132;539787093101897398;275898;302044;228983;-1254;
2024-05-24T23:21:15.150;539787093120051756;275942;302095;228959;-1272;
2024-05-24T23:21:15.168;539787093138206114;275905;301995;228884;-1335;
2024-05-24T23:21:15.187;539787093156360472;275817;301920;228754;-1262;
2024-05-24T23:21:15.205;539787093174514830;275657;301690;228630;-1302;
2024-05-24T23:21:15.223;539787093192669188;275372;301335;228372;-1320;
2024-05-24T23:21:15.241;539787093210823546;275124;301050;228133;-1351;
2024-05-24T23:21:15.259;539787093228977904;274905;300804;227932;-1348;
2024-05-24T23:21:15.277;539787093247132262;274730;300528;227700;-1320;
2024-05-24T23:21:15.295;539787093265286620;274591;300331;227517;-1333;
2024-05-24T23:21:15.314;539787093283440978;274566;300258;227411;-1309;
2024-05-24T23:21:15.332;539787093301595336;274550;300248;227412;-1296;
2024-05-24T23:21:15.350;539787093319747565;274590;300253;227399;-1292;
2024-05-24T23:21:15.368;539787093337899780;274699;300387;227423;-1283;
2024-05-24T23:21:15.386;539787093356051995;274872;300540;227480;-1255;
2024-05-24T23:21:15.404;539787093374204210;275006;300671;227566;-1287;
2024-05-24T23:21:15.423;539787093392356425;275149;300859;227687;-1275;
2024-05-24T23:21:15.441;539787093410508640;275318;300927;227757;-1268;
2024-05-24T23:21:15.459;539787093428660855;275477;301090;227833;-1320;
2024-05-24T23:21:15.477;539787093446813070;275503;301250;227852;-1293;
2024-05-24T23:21:15.495;539787093464965285;275620;301381;227894;-1335;
2024-05-24T23:21:15.513;539787093483117500;275774;301433;227993;-1268;
2024-05-24T23:21:15.531;539787093501269715;275762;301393;227961;-1295;
2024-05-24T23:21:15.550;539787093519421930;275854;301450;227934;-1313;
2024-05-24T23:21:15.568;539787093537574145;275918;301540;227981;-1292;
2024-05-24T23:21:15.586;539787093555726360;275953;301497;227946;-1374;
2024-05-24T23:21:15.604;539787093573878575;275998;301556;227951;-1323;
2024-05-24T23:21:15.622;539787093592030790;276020;301642;227990;-1322;
2024-05-24T23:21:15.640;539787093610183005;276144;301687;227995;-1303;
2024-05-24T23:21:15.658;539787093628335220;276253;301733;228002;-1296;
2024-05-24T23:21:15.677;539787093646487435;276262;301763;228009;-1324;
2024-05-24T23:21:15.695;539787093664639650;276337;301866;228061;-1316;
2024-05-24T23:21:15.713;539787093682791865;276413;301952;228071;-1287;
2024-05-24T23:21:15.731;539787093700944080;276497;302003;228070;-1329;
2024-05-24T23:21:15.749;539787093719096295;276541;302160;228144;-1322;
2024-05-24T23:21:15.767;539787093737248510;276699;302206;228214;-1353;
2024-05-24T23:21:15.786;539787093755400725;276720;302308;228191;-1361;
2024-05-24T23:21:15.804;539787093773552940;276814;302393;228293;-1288;
2024-05-24T23:21:15.822;539787093791705155;276977;302432;228298;-1295;
2024-05-24T23:21:15.840;539787093809857370;277023;302527;228339;-1326;
2024-05-24T23:21:15.858;539787093828009585;277153;302627;228405;-1317;
2024-05-24T23:21:15.876;539787093846161800;277212;302706;228412;-1311;
2024-05-24T23:21:15.894;539787093864314015;277309;302791;228436;-1263;
2024-05-24T23:21:15.913;539787093882466230;277440;302904;228503;-1303;
2024-05-24T23:21:15.931;539787093900618445;277448;302931;228532;-1313;
2024-05-24T23:21:15.949;539787093918770660;277437;302903;228528;-1339;
2024-05-24T23:21:15.967;539787093936922875;277374;302782;228423;-1347;
2024-05-24T23:21:15.985;539787093955075090;277208;302546;228242;-1318;
2024-05-24T23:21:16.003;539787093973227305;277064;302275;228037;-1346;
2024-05-24T23:21:16.022;539787093991379520;276869;302059;227842;-1303;
2024-05-24T23:21:16.040;539787094009531735;276613;301712;227592;-1333;
2024-05-24T23:21:16.058;539787094027683950;276433;301477;227447;-1347;
2024-05-24T23:21:16.076;539787094045836165;276312;301234;227228;-1345;
2024-05-24T23:21:16.094;539787094063988380;276235;301125;227068;-1330;
2024-05-24T23:21:16.112;539787094082139156;276291;301096;227026;-1289;
2024-05-24T23:21:16.130;539787094100289918;276347;301108;227007;-1320;
2024-05-24T23:21:16.149;539787094118440680;276458;301173;227047;-1299;
2024-05-24T23:21:16.167;539787094136591442;276588;301275;227103;-1329;
2024-05-24T23:21:16.185;539787094154742204;276665;301437;227226;-1270;
2024-05-24T23:21:16.203;539787094172892966;276791;301503;227274;-1331;
2024-05-24T23:21:16.221;539787094191043728;276918;301726;227324;-1267;
2024-05-24T23:21:16.239;539787094209194490;277005;301820;227368;-1338;
2024-05-24T23:21:16.258;539787094227345252;277135;301933;227488;-1316;
2024-05-24T23:21:16.276;539787094245496014;277234;302065;227523;-1313;
2024-05-24T23:21:16.294;539787094263646776;277305;302120;227538;-1321;
2024-05-24T23:21:16.312;539787094281797538;277375;302094;227575;-1326;
2024-05-24T23:21:16.330;539787094299948300;277441;302169;227584;-1325;
2024-05-24T23:21:16.348;539787094318099062;277548;302190;227662;-1285;
2024-05-24T23:21:16.366;539787094336249824;277623;302289;227616;-1306;
2024-05-24T23:21:16.385;539787094354400586;277668;302255;227628;-1351;
2024-05-24T23:21:16.403;539787094372551348;277713;302305;227619;-1372;
2024-05-24T23:21:16.421;539787094390702110;277740;302305;227633;-1353;
2024-05-24T23:21:16.439;539787094408852872;277840;302375;227683;-1308;
2024-05-24T23:21:16.457;539787094427003634;277909;302490;227688;-1280;
2024-05-24T23:21:16.475;539787094445154396;278026;302564;227803;-1284;
2024-05-24T23:21:16.493;539787094463305158;278029;302598;227793;-1267;
2024-05-24T23:21:16.512;539787094481455920;278113;302660;227827;-1295;
2024-05-24T23:21:16.530;539787094499606682;278211;302784;227837;-1273;
2024-05-24T23:21:16.548;539787094517757444;278310;302910;227910;-1324;
2024-05-24T23:21:16.566;539787094535908206;278359;302944;227931;-1311;
2024-05-24T23:21:16.584;539787094554058968;278461;303071;227941;-1314;
2024-05-24T23:21:16.602;539787094572209730;278549;303146;227956;-1324;
2024-05-24T23:21:16.621;539787094590360492;278696;303271;228110;-1280;
2024-05-24T23:21:16.639;539787094608511254;278779;303325;228162;-1336;
2024-05-24T23:21:16.657;539787094626662016;278872;303437;228198;-1301;
2024-05-24T23:21:16.675;539787094644812778;278954;303439;228298;-1278;
2024-05-24T23:21:16.693;539787094662963540;278979;303620;228347;-1351;
2024-05-24T23:21:16.711;539787094681114302;279148;303706;228367;-1311;
2024-05-24T23:21:16.729;539787094699265064;279076;303689;228398;-1293;
2024-05-24T23:21:16.748;539787094717415826;278959;303502;228210;-1330;
2024-05-24T23:21:16.766;539787094735566588;278790;303263;227979;-1393;
2024-05-24T23:21:16.784;539787094753717350;278625;302915;227723;-1357;
2024-05-24T23:21:16.802;539787094771868112;278515;302728;227623;-1322;
2024-05-24T23:21:16.820;539787094790018874;278375;302461;227428;-1341;
2024-05-24T23:21:16.838;539787094808169636;278230;302222;227274;-1320;
2024-05-24T23:21:16.856;539787094826320398;278181;302050;227162;-1321;
2024-05-24T23:21:16.875;539787094844474694;278204;302087;227136;-1289;
2024-05-24T23:21:16.893;539787094862628980;278244;302074;227133;-1286;
2024-05-24T23:21:16.911;539787094880783266;278255;302102;227122;-1348;
2024-05-24T23:21:16.929;539787094898937552;278334;302207;227154;-1353;
2024-05-24T23:21:16.947;539787094917091838;278472;302348;227301;-1271;
2024-05-24T23:21:16.965;539787094935246124;278617;302499;227392;-1274;
2024-05-24T23:21:16.984;539787094953400410;278822;302611;227494;-1290;
2024-05-24T23:21:17.002;539787094971554696;278914;302671;227529;-1297;
2024-05-24T23:21:17.020;539787094989708982;279015;302856;227635;-1323;
2024-05-24T23:21:17.038;539787095007863268;279126;302933;227656;-1304;
2024-05-24T23:21:17.056;539787095026017554;279145;302965;227712;-1270;
2024-05-24T23:21:17.074;539787095044171840;279222;302996;227763;-1288;
2024-05-24T23:21:17.092;539787095062326126;279297;303026;227785;-1292;
2024-05-24T23:21:17.111;539787095080480412;279323;303073;227812;-1306;
2024-05-24T23:21:17.129;539787095098634698;279354;303141;227842;-1319;
2024-05-24T23:21:17.147;539787095116788984;279338;303127;227753;-1328;
2024-05-24T23:21:17.165;539787095134943270;279459;303152;227799;-1253;
2024-05-24T23:21:17.183;539787095153097556;279436;303157;227807;-1322;
2024-05-24T23:21:17.201;539787095171251842;279513;303208;227872;-1370;
2024-05-24T23:21:17.220;539787095189406128;279590;303227;227907;-1303;
2024-05-24T23:21:17.238;539787095207560414;279656;303313;227978;-1260;
2024-05-24T23:21:17.256;539787095225714700;279711;303382;227987;-1299;
2024-05-24T23:21:17.274;539787095243868986;279762;303409;228038;-1309;
2024-05-24T23:21:17.292;539787095262023272;279770;303515;228060;-1305;
2024-05-24T23:21:17.310;539787095280177558;279920;303618;228132;-1309;
2024-05-24T23:21:17.328;539787095298331844;280052;303697;228161;-1310;
2024-05-24T23:21:17.347;539787095316486130;280067;303754;228123;-1329;
2024-05-24T23:21:17.365;539787095334640416;280225;303862;228259;-1320;
2024-05-24T23:21:17.383;539787095352794702;280299;303947;228281;-1337;
2024-05-24T23:21:17.401;539787095370948988;280414;304060;228366;-1282;
2024-05-24T23:21:17.419;539787095389103274;280447;304133;228460;-1250;
2024-05-24T23:21:17.437;539787095407257560;280500;304181;228473;-1275;
2024-05-24T23:21:17.456;539787095425411846;280543;304205;228518;-1316;
2024-05-24T23:21:17.474;539787095443566132;280617;304264;228572;-1311;
2024-05-24T23:21:17.492;539787095461720418;280535;304098;228495;-1285;
2024-05-24T23:21:17.510;539787095479874704;280392;303974;228461;-1272;
2024-05-24T23:21:17.528;539787095498028990;280161;303720;228127;-1287;
2024-05-24T23:21:17.546;539787095516183276;280006;303395;228044;-1284;
2024-05-24T23:21:17.564;539787095534337562;279813;303044;227753;-1318;
2024-05-24T23:21:17.583;539787095552491848;279716;302816;227666;-1320;
2024-05-24T23:21:17.601;539787095570646134;279544;302642;227477;-1377;
2024-05-24T23:21:17.619;539787095588800420;279472;302486;227359;-1385;
2024-05-24T23:21:17.637;539787095606954064;279491;302505;227404;-1327;
2024-05-24T23:21:17.655;539787095625107696;279553;302479;227415;-1304;
2024-05-24T23:21:17.673;539787095643261328;279614;302577;227473;-1303;
2024-05-24T23:21:17.692;539787095661414960;279608;302583;227437;-1291;
2024-05-24T23:21:17.710;539787095679568592;279730;302730;227565;-1364;
2024-05-24T23:21:17.728;539787095697722224;279851;302829;227607;-1329;
2024-05-24T23:21:17.746;539787095715875856;279968;302922;227725;-1305;
2024-05-24T23:21:17.764;539787095734029488;279971;303031;227791;-1309;
2024-05-24T23:21:17.782;539787095752183120;280082;303136;227805;-1364;
2024-05-24T23:21:17.800;539787095770336752;280119;303163;227837;-1359;
2024-05-24T23:21:17.819;539787095788490384;280186;303144;227920;-1306;
2024-05-24T23:21:17.837;539787095806644016;280164;303230;227949;-1337;
2024-05-24T23:21:17.855;539787095824797648;280264;303230;228007;-1284;
2024-05-24T23:21:17.873;539787095842951280;280272;303210;227998;-1347;
2024-05-24T23:21:17.891;539787095861104912;280317;303223;228035;-1339;
2024-05-24T23:21:17.909;539787095879258544;280360;303323;228038;-1351;
2024-05-24T23:21:17.928;539787095897412176;280359;303289;228004;-1296;
2024-05-24T23:21:17.946;539787095915565808;280420;303377;228130;-1267;
2024-05-24T23:21:17.964;539787095933719440;280498;303459;228193;-1305;
2024-05-24T23:21:17.982;539787095951873072;280504;303437;228199;-1295;
2024-05-24T23:21:18.000;539787095970026704;280675;303538;228232;-1280;
2024-05-24T23:21:18.018;539787095988180336;280693;303570;228303;-1255;
2024-05-24T23:21:18.036;539787096006333968;280748;303680;228337;-1263;
2024-05-24T23:21:18.055;539787096024487600;280777;303732;228373;-1301;
2024-05-24T23:21:18.073;539787096042641232;280876;303825;228439;-1285;
2024-05-24T23:21:18.091;539787096060794864;280927;303828;228432;-1294;
2024-05-24T23:21:18.109;539787096078948496;281026;303969;228536;-1308;
2024-05-24T23:21:18.127;539787096097102128;281112;304054;228605;-1261;
2024-05-24T23:21:18.145;539787096115255760;281193;304150;228669;-1262;
2024-05-24T23:21:18.164;539787096133409392;281230;304254;228736;-1290;
2024-05-24T23:21:18.182;539787096151563024;281324;304299;228747;-1285;
2024-05-24T23:21:18.200;539787096169716656;281305;304204;228794;-1319;
2024-05-24T23:21:18.218;539787096187870288;281196;304051;228696;-1288;
2024-05-24T23:21:18.236;539787096206023920;280938;303807;228520;-1292;
2024-05-24T23:21:18.254;539787096224177552;280718;303484;228311;-1316;
2024-05-24T23:21:18.272;539787096242331184;280498;303245;228146;-1262;
2024-05-24T23:21:18.291;539787096260484816;280188;302803;227901;-1236;
2024-05-24T23:21:18.309;539787096278638448;279962;302494;227731;-1341;
2024-05-24T23:21:18.327;539787096296792080;279877;302334;227649;-1364;
2024-05-24T23:21:18.345;539787096314945712;279787;302152;227540;-1357;
2024-05-24T23:21:18.363;539787096333099344;279757;302125;227570;-1317;
2024-05-24T23:21:18.381;539787096351252976;279729;302083;227602;-1317;
2024-05-24T23:21:18.400;539787096369406620;279768;302137;227659;-1290;
2024-05-24T23:21:18.418;539787096387560252;279876;302315;227757;-1320;
2024-05-24T23:21:18.436;539787096405713884;279978;302387;227807;-1340;
2024-05-24T23:21:18.454;539787096423867516;280067;302498;227881;-1325;
2024-05-24T23:21:18.472;539787096442021148;280192;302586;227914;-1303;
2024-05-24T23:21:18.490;539787096460174780;280264;302647;228000;-1318;
2024-05-24T23:21:18.508;539787096478328412;280266;302725;228077;-1244;
2024-05-24T23:21:18.527;539787096496482044;280244;302789;228054;-1262;
2024-05-24T23:21:18.545;539787096514635676;280334;302829;228146;-1272;
2024-05-24T23:21:18.563;539787096532789308;280305;302754;228157;-1275;
2024-05-24T23:21:18.581;539787096550942940;280326;302763;228168;-1319;
2024-05-24T23:21:18.599;539787096569096572;280358;302812;228202;-1309;
2024-05-24T23:21:18.617;539787096587250204;280325;302799;228205;-1322;
2024-05-24T23:21:18.636;539787096605403836;280347;302842;228201;-1282;
2024-05-24T23:21:18.654;539787096623557468;280435;302850;228272;-1278;
2024-05-24T23:21:18.672;539787096641711100;280399;302845;228299;-1215;
2024-05-24T23:21:18.690;539787096659864732;280430;302850;228389;-1307;
2024-05-24T23:21:18.708;539787096678018364;280422;302891;228333;-1321;
2024-05-24T23:21:18.726;539787096696171996;280460;302982;228384;-1255;
2024-05-24T23:21:18.744;539787096714325628;280543;302972;228406;-1284;
2024-05-24T23:21:18.763;539787096732479260;280556;303062;228492;-1263;
2024-05-24T23:21:18.781;539787096750632892;280615;303099;228454;-1310;
2024-05-24T23:21:18.799;539787096768786524;280629;303155;228560;-1330;
2024-05-24T23:21:18.817;539787096786940156;280661;303222;228637;-1333;
2024-05-24T23:21:18.835;539787096805093788;280730;303308;228706;-1342;
2024-05-24T23:21:18.853;539787096823247420;280826;303376;228731;-1287;
2024-05-24T23:21:18.872;539787096841401052;280901;303410;228856;-1296;
2024-05-24T23:21:18.890;539787096859554684;280907;303481;228896;-1291;
2024-05-24T23:21:18.908;539787096877708316;280954;303477;228941;-1273;
2024-05-24T23:21:18.926;539787096895861948;280931;303518;228956;-1343;
2024-05-24T23:21:18.944;539787096914015580;280788;303323;228908;-1252;
2024-05-24T23:21:18.962;539787096932169212;280560;303085;228712;-1313;
2024-05-24T23:21:18.980;539787096950322844;280286;302731;228511;-1305;
2024-05-24T23:21:18.999;539787096968476476;279976;302376;228367;-1275;
2024-05-24T23:21:19.017;539787096986630108;279641;302042;228212;-1270;
2024-05-24T23:21:19.035;539787097004783740;279424;301778;228053;-1240;
2024-05-24T23:21:19.053;539787097022937372;279171;301382;227867;-1260;
2024-05-24T23:21:19.071;539787097041091004;278955;301183;227730;-1319;
2024-05-24T23:21:19.089;539787097059244636;278926;301136;227728;-1322;
2024-05-24T23:21:19.108;539787097077398268;278893;301173;227759;-1282;
2024-05-24T23:21:19.126;539787097095551900;278924;301232;227782;-1280;
2024-05-24T23:21:19.144;539787097113705532;279007;301331;227877;-1296;
2024-05-24T23:21:19.162;539787097131859164;279096;301411;227921;-1327;
2024-05-24T23:21:19.180;539787097150012808;279198;301620;228077;-1355;
2024-05-24T23:21:19.198;539787097168166440;279361;301740;228237;-1277;
2024-05-24T23:21:19.216;539787097186320072;279456;301858;228273;-1291;
2024-05-24T23:21:19.235;539787097204473704;279484;301923;228351;-1291;
2024-05-24T23:21:19.253;539787097222627336;279515;301974;228390;-1322;
2024-05-24T23:21:19.271;539787097240780968;279535;302006;228416;-1316;
2024-05-24T23:21:19.289;539787097258934600;279583;301980;228427;-1312;
2024-05-24T23:21:19.307;539787097277088232;279563;302036;228480;-1292;
2024-05-24T23:21:19.325;539787097295241864;279555;302041;228495;-1313;
2024-05-24T23:21:19.344;539787097313395496;279583;302076;228580;-1273;
2024-05-24T23:21:19.362;539787097331549128;279573;302046;228532;-1289;
2024-05-24T23:21:19.380;539787097349702760;279521;302098;228537;-1297;
2024-05-24T23:21:19.398;539787097367856392;279570;302106;228603;-1288;
2024-05-24T23:21:19.416;539787097386010024;279643;302246;228702;-1208;
2024-05-24T23:21:19.434;539787097404163656;279686;302267;228753;-1244;
2024-05-24T23:21:19.452;539787097422317288;279711;302344;228836;-1288;
2024-05-24T23:21:19.471;539787097440470920;279808;302377;228874;-1317;
2024-05-24T23:21:19.489;539787097458624552;279884;302437;228946;-1235;
2024-05-24T23:21:19.507;539787097476778184;279900;302481;228935;-1311;
2024-05-24T23:21:19.525;539787097494931816;279958;302651;229065;-1243;
2024-05-24T23:21:19.543;539787097513085448;280055;302703;229138;-1307;
2024-05-24T23:21:19.561;539787097531239080;280135;302804;229224;-1292;
2024-05-24T23:21:19.580;539787097549392712;280127;302893;229256;-1252;
2024-05-24T23:21:19.598;539787097567546344;280220;302998;229281;-1283;
2024-05-24T23:21:19.616;539787097585699976;280227;303024;229327;-1253;
2024-05-24T23:21:19.634;539787097603853608;280286;303087;229383;-1240;
2024-05-24T23:21:19.652;539787097622007240;280333;303084;229436;-1272;
2024-05-24T23:21:19.670;539787097640160872;280311;303121;229450;-1262;
2024-05-24T23:21:19.688;539787097658314504;280150;302972;229424;-1306;
2024-05-24T23:21:19.707;539787097676468136;279904;302782;229317;-1261;
2024-05-24T23:21:19.725;539787097694621768;279673;302451;229172;-1294;
2024-05-24T23:21:19.743;539787097712775400;279308;302072;228942;-1296;
2024-05-24T23:21:19.761;539787097730929032;278865;301659;228693;-1348;
2024-05-24T23:21:19.779;539787097749082664;278659;301381;228618;-1261;
2024-05-24T23:21:19.797;539787097767236296;278403;301097;228495;-1287;
2024-05-24T23:21:19.816;539787097785389928;278187;300956;228426;-1282;
2024-05-24T23:21:19.834;539787097803543560;278091;300893;228390;-1305;
2024-05-24T23:21:19.852;539787097821697192;278033;300815;228385;-1293;
2024-05-24T23:21:19.870;539787097839850824;278094;300890;228450;-1337;
2024-05-24T23:21:19.888;539787097858004456;278211;301051;228547;-1302;
2024-05-24T23:21:19.906;539787097876158088;278342;301208;228641;-1289;
2024-05-24T23:21:19.924;539787097894311720;278468;301340;228729;-1284;
2024-05-24T23:21:19.943;539787097912463901;278610;301482;228856;-1321;
2024-05-24T23:21:19.961;539787097930616080;278682;301651;228904;-1345;
2024-05-24T23:21:19.979;539787097948768259;278799;301765;228988;-1274;
2024-05-24T23:21:19.997;539787097966920438;278789;301813;229047;-1310;
2024-05-24T23:21:20.015;539787097985072617;278804;301872;229118;-1273;
2024-05-24T23:21:20.033;539787098003224796;278842;301961;229075;-1339;
2024-05-24T23:21:20.052;539787098021376975;278833;301962;229219;-1318;
2024-05-24T23:21:20.070;539787098039529154;278832;301959;229247;-1336;
2024-05-24T23:21:20.088;539787098057681333;278874;302019;229309;-1277;
2024-05-24T23:21:20.106;539787098075833512;278901;302002;229303;-1295;
2024-05-24T23:21:20.124;539787098093985691;278950;302048;229401;-1289;
2024-05-24T23:21:20.142;539787098112137870;279009;302154;229449;-1268;
2024-05-24T23:21:20.160;539787098130290049;278983;302201;229413;-1330;
2024-05-24T23:21:20.179;539787098148442228;279069;302350;229546;-1269;
2024-05-24T23:21:20.197;539787098166594407;279125;302376;229614;-1289;
2024-05-24T23:21:20.215;539787098184746586;279202;302499;229661;-1290;
2024-05-24T23:21:20.233;539787098202898765;279225;302598;229731;-1317;
2024-05-24T23:21:20.251;539787098221050944;279322;302695;229806;-1296;
2024-05-24T23:21:20.269;539787098239203123;279398;302880;229876;-1267;
2024-05-24T23:21:20.288;539787098257355302;279443;302956;229981;-1242;
2024-05-24T23:21:20.306;539787098275507481;279573;303095;230037;-1311;
2024-05-24T23:21:20.324;539787098293659660;279686;303225;230160;-1290;
2024-05-24T23:21:20.342;539787098311811839;279708;303239;230168;-1258;
2024-05-24T23:21:20.360;539787098329964018;279812;303372;230248;-1284;
2024-05-24T23:21:20.378;539787098348116197;279932;303473;230373;-1305;
2024-05-24T23:21:20.396;539787098366268376;279941;303598;230446;-1305;
2024-05-24T23:21:20.415;539787098384420555;280058;303671;230503;-1305;
2024-05-24T23:21:20.433;539787098402572734;280085;303743;230519;-1272;
2024-05-24T23:21:20.451;539787098420724913;280086;303741;230558;-1316;
2024-05-24T23:21:20.469;539787098438877092;279931;303625;230481;-1274;
2024-05-24T23:21:20.487;539787098457029271;279667;303437;230383;-1271;
2024-05-24T23:21:20.505;539787098475181450;279428;303172;230272;-1297;
2024-05-24T23:21:20.523;539787098493333629;279038;302734;230095;-1331;
2024-05-24T23:21:20.542;539787098511485808;278822;302516;229932;-1278;
2024-05-24T23:21:20.560;539787098529637987;278452;302213;229746;-1305;
2024-05-24T23:21:20.578;539787098547790166;278345;302002;229649;-1316;
2024-05-24T23:21:20.596;539787098565942345;278221;301896;229676;-1312;
2024-05-24T23:21:20.614;539787098584094524;278175;301847;229623;-1295;
2024-05-24T23:21:20.632;539787098602246703;278157;301901;229647;-1283;
2024-05-24T23:21:20.651;539787098620398882;278206;301981;229782;-1282;
2024-05-24T23:21:20.669;539787098638551061;278371;302133;229871;-1308;
2024-05-24T23:21:20.687;539787098656703240;278487;302268;229897;-1299;
2024-05-24T23:21:20.705;539787098674856173;278622;302545;229994;-1343;
2024-05-24T23:21:20.723;539787098693009078;278671;302657;230098;-1365;
2024-05-24T23:21:20.741;539787098711161983;278799;302789;230161;-1351;
2024-05-24T23:21:20.759;539787098729314888;278943;302929;230247;-1301;
2024-05-24T23:21:20.778;539787098747467793;279009;303045;230395;-1293;
2024-05-24T23:21:20.796;539787098765620698;279029;303111;230402;-1272;
2024-05-24T23:21:20.814;539787098783773603;279132;303096;230377;-1326;
2024-05-24T23:21:20.832;539787098801926508;279173;303192;230421;-1318;
2024-05-24T23:21:20.850;539787098820079413;279166;303245;230455;-1300;
2024-05-24T23:21:20.868;539787098838232318;279163;303286;230543;-1270;
2024-05-24T23:21:20.887;539787098856385223;279181;303365;230572;-1250;
2024-05-24T23:21:20.905;539787098874538128;279199;303385;230660;-1252;
2024-05-24T23:21:20.923;539787098892691033;279338;303503;230742;-1250;
2024-05-24T23:21:20.941;539787098910843938;279376;303498;230755;-1311;
2024-05-24T23:21:20.959;539787098928996843;279404;303562;230747;-1338;
2024-05-24T23:21:20.977;539787098947149748;279485;303761;230808;-1291;
2024-05-24T23:21:20.995;539787098965302653;279492;303859;230855;-1333;
2024-05-24T23:21:21.014;539787098983455558;279596;303949;230986;-1303;
2024-05-24T23:21:21.032;539787099001608463;279673;304066;231082;-1291;
2024-05-24T23:21:21.050;539787099019761368;279825;304210;231116;-1292;
2024-05-24T23:21:21.068;539787099037914273;279911;304296;231237;-1295;
2024-05-24T23:21:21.086;539787099056067178;280004;304368;231272;-1322;
2024-05-24T23:21:21.104;539787099074220083;280082;304543;231307;-1336;
2024-05-24T23:21:21.123;539787099092372988;280137;304647;231439;-1284;
2024-05-24T23:21:21.141;539787099110525893;280239;304748;231490;-1288;
2024-05-24T23:21:21.159;539787099128678798;280330;304870;231534;-1321;
2024-05-24T23:21:21.177;539787099146831703;280403;304987;231640;-1250;
2024-05-24T23:21:21.195;539787099164984608;280477;305065;231668;-1290;
2024-05-24T23:21:21.213;539787099183137513;280432;305091;231748;-1276;
2024-05-24T23:21:21.231;539787099201290418;280431;305073;231757;-1275;
2024-05-24T23:21:21.250;539787099219443323;280295;304923;231675;-1283;
2024-05-24T23:21:21.268;539787099237596228;280057;304712;231606;-1267;
2024-05-24T23:21:21.286;539787099255749133;279749;304426;231385;-1279;
2024-05-24T23:21:21.304;539787099273902038;279515;304099;231235;-1255;
2024-05-24T23:21:21.322;539787099292054943;279221;303717;231065;-1297;
2024-05-24T23:21:21.340;539787099310207848;278938;303470;230873;-1254;
2024-05-24T23:21:21.359;539787099328360753;278729;303343;230734;-1305;
2024-05-24T23:21:21.377;539787099346513658;278654;303190;230674;-1307;
2024-05-24T23:21:21.395;539787099364666563;278592;303214;230740;-1291;
2024-05-24T23:21:21.413;539787099382819468;278571;303140;230692;-1343;
2024-05-24T23:21:21.431;539787099400972373;278592;303289;230702;-1323;
2024-05-24T23:21:21.449;539787099419125278;278774;303515;230855;-1296;
2024-05-24T23:21:21.467;539787099437278211;278918;303679;231009;-1288;
2024-05-24T23:21:21.486;539787099455431116;279055;303770;231098;-1291;
2024-05-24T23:21:21.504;539787099473584021;279196;303940;231156;-1308;
2024-05-24T23:21:21.522;539787099491736926;279323;304095;231211;-1304;
2024-05-24T23:21:21.540;539787099509889831;279457;304188;231277;-1260;
2024-05-24T23:21:21.558;539787099528042736;279514;304272;231299;-1274;
2024-05-24T23:21:21.576;539787099546195641;279591;304427;231386;-1257;
2024-05-24T23:21:21.595;539787099564348546;279709;304431;231381;-1283;
2024-05-24T23:21:21.613;539787099582501451;279734;304510;231454;-1251;
2024-05-24T23:21:21.631;539787099600654356;279758;304626;231512;-1273;
2024-05-24T23:21:21.649;539787099618807261;279848;304631;231560;-1293;
2024-05-24T23:21:21.667;539787099636960166;279877;304685;231580;-1269;
2024-05-24T23:21:21.685;539787099655113071;279921;304712;231653;-1301;
2024-05-24T23:21:21.703;539787099673265976;279981;304804;231679;-1263;
2024-05-24T23:21:21.722;539787099691418881;280007;304926;231757;-1305;
2024-05-24T23:21:21.740;539787099709571786;280139;304996;231780;-1303;
2024-05-24T23:21:21.758;539787099727724691;280248;305120;231873;-1294;
2024-05-24T23:21:21.776;539787099745877596;280351;305255;231890;-1225;
2024-05-24T23:21:21.794;539787099764030501;280428;305418;231964;-1302;
2024-05-24T23:21:21.812;539787099782183406;280521;305484;232023;-1343;
2024-05-24T23:21:21.830;539787099800336311;280645;305582;232112;-1278;
2024-05-24T23:21:21.849;539787099818489216;280739;305744;232225;-1273;
2024-05-24T23:21:21.867;539787099836642121;280871;305858;232255;-1293;
2024-05-24T23:21:21.885;539787099854795026;280990;306010;232346;-1287;
2024-05-24T23:21:21.903;539787099872947931;281186;306163;232439;-1285;
2024-05-24T23:21:21.921;539787099891100836;281204;306317;232446;-1278;
2024-05-24T23:21:21.939;539787099909253741;281319;306354;232605;-1343;
2024-05-24T23:21:21.958;539787099927406646;281400;306461;232651;-1268;
2024-05-24T23:21:21.976;539787099945559551;281508;306639;232719;-1257;
2024-05-24T23:21:21.994;539787099963712456;281648;306700;232769;-1243;
2024-05-24T23:21:22.012;539787099981865361;281721;306805;232794;-1241;
2024-05-24T23:21:22.030;539787100000018266;281743;306864;232777;-1259;
2024-05-24T23:21:22.048;539787100018171171;281686;306791;232823;-1291;
2024-05-24T23:21:22.066;539787100036324076;281510;306553;232725;-1337;
2024-05-24T23:21:22.085;539787100054476981;281330;306360;232596;-1274;
2024-05-24T23:21:22.103;539787100072629886;281023;306096;232363;-1291;
2024-05-24T23:21:22.121;539787100090782791;280756;305774;232147;-1336;
2024-05-24T23:21:22.139;539787100108935696;280570;305594;232018;-1299;
2024-05-24T23:21:22.157;539787100127088601;280342;305371;231865;-1326;
2024-05-24T23:21:22.175;539787100145241506;280274;305217;231763;-1287;
2024-05-24T23:21:22.194;539787100163394411;280230;305173;231760;-1301;
2024-05-24T23:21:22.212;539787100181547316;280193;305246;231781;-1292;
2024-05-24T23:21:22.230;539787100199700249;280340;305364;231826;-1289;
2024-05-24T23:21:22.248;539787100217853154;280373;305489;231920;-1300;
2024-05-24T23:21:22.266;539787100236006059;280481;305568;231931;-1270;
2024-05-24T23:21:22.284;539787100254158964;280663;305782;232058;-1287;
2024-05-24T23:21:22.302;539787100272311869;280827;305950;232198;-1269;
2024-05-24T23:21:22.321;539787100290464774;281051;306120;232303;-1302;
2024-05-24T23:21:22.339;539787100308617679;281125;306238;232309;-1324;
2024-05-24T23:21:22.357;539787100326770584;281256;306384;232387;-1335;
2024-05-24T23:21:22.375;539787100344923489;281374;306440;232421;-1347;
2024-05-24T23:21:22.393;539787100363076394;281418;306580;232513;-1276;
2024-05-24T23:21:22.411;539787100381229299;281506;306658;232519;-1287;
2024-05-24T23:21:22.430;539787100399382204;281567;306742;232540;-1235;
2024-05-24T23:21:22.448;539787100417535109;281633;306822;232602;-1275;
2024-05-24T23:21:22.466;539787100435688014;281701;306857;232605;-1316;
2024-05-24T23:21:22.484;539787100453840919;281805;306913;232659;-1333;
2024-05-24T23:21:22.502;539787100471993824;281931;306985;232763;-1253;
2024-05-24T23:21:22.520;539787100490146729;281980;307077;232716;-1325;
2024-05-24T23:21:22.538;539787100508299634;282065;307218;232890;-1300;
2024-05-24T23:21:22.557;539787100526452539;282132;307333;232856;-1314;
2024-05-24T23:21:22.575;539787100544605444;282242;307461;232942;-1336;
2024-05-24T23:21:22.593;539787100562758349;282395;307553;233013;-1328;
2024-05-24T23:21:22.611;539787100580911254;282499;307658;233169;-1339;
2024-05-24T23:21:22.629;539787100599064159;282651;307794;233184;-1317;
2024-05-24T23:21:22.647;539787100617217064;282727;307886;233176;-1261;
2024-05-24T23:21:22.666;539787100635369969;282875;308055;233295;-1259;
2024-05-24T23:21:22.684;539787100653522874;282941;308178;233375;-1352;
2024-05-24T23:21:22.702;539787100671675779;283109;308287;233365;-1259;
2024-05-24T23:21:22.720;539787100689828684;283164;308397;233427;-1280;
2024-05-24T23:21:22.738;539787100707981589;283307;308535;233558;-1288;
2024-05-24T23:21:22.756;539787100726134494;283397;308637;233599;-1307;
2024-05-24T23:21:22.774;539787100744287399;283538;308725;233701;-1248;
2024-05-24T23:21:22.793;539787100762440304;283679;308868;233752;-1305;
2024-05-24T23:21:22.811;539787100780593209;283777;308908;233758;-1354;
2024-05-24T23:21:22.829;539787100798746114;283868;309064;233812;-1319;
2024-05-24T23:21:22.847;539787100816899019;283899;309104;233900;-1284;
2024-05-24T23:21:22.865;539787100835051924;283998;309234;233906;-1303;
2024-05-24T23:21:22.883;539787100853204829;283995;309302;233970;-1309;
2024-05-24T23:21:22.902;539787100871357734;284062;309304;233945;-1233;
2024-05-24T23:21:22.920;539787100889510639;284105;309244;234020;-1241;
2024-05-24T23:21:22.938;539787100907663544;283935;309076;233804;-1251;
2024-05-24T23:21:22.956;539787100925816449;283673;308767;233622;-1237;
2024-05-24T23:21:22.974;539787100943969354;283400;308534;233474;-1302;
2024-05-24T23:21:22.992;539787100962121541;283087;308197;233218;-1295;
2024-05-24T23:21:23.010;539787100980273720;282915;307944;233024;-1267;
2024-05-24T23:21:23.029;539787100998425899;282742;307717;232845;-1370;
2024-05-24T23:21:23.047;539787101016578078;282655;307546;232707;-1338;
2024-05-24T23:21:23.065;539787101034730257;282574;307451;232628;-1371;
2024-05-24T23:21:23.083;539787101052882436;282569;307476;232624;-1275;
2024-05-24T23:21:23.101;539787101071034615;282660;307525;232712;-1278;
2024-05-24T23:21:23.119;539787101089186794;282747;307624;232737;-1245;
2024-05-24T23:21:23.138;539787101107338973;282863;307771;232793;-1294;
2024-05-24T23:21:23.156;539787101125491152;283038;307945;232853;-1244;
2024-05-24T23:21:23.174;539787101143643331;283224;308080;232951;-1305;
2024-05-24T23:21:23.192;539787101161795510;283397;308209;233059;-1307;
2024-05-24T23:21:23.210;539787101179947689;283486;308375;233080;-1310;
2024-05-24T23:21:23.228;539787101198099868;283640;308518;233159;-1322;
2024-05-24T23:21:23.246;539787101216252047;283780;308669;233240;-1308;
2024-05-24T23:21:23.265;539787101234404226;283843;308717;233205;-1260;
2024-05-24T23:21:23.283;539787101252556405;283927;308766;233303;-1280;
2024-05-24T23:21:23.301;539787101270708584;283982;308817;233326;-1271;
2024-05-24T23:21:23.319;539787101288860763;284067;308886;233327;-1320;
2024-05-24T23:21:23.337;539787101307012942;284146;308971;233381;-1294;
2024-05-24T23:21:23.355;539787101325165121;284200;309050;233377;-1355;
2024-05-24T23:21:23.373;539787101343317300;284242;309161;233458;-1361;
2024-05-24T23:21:23.392;539787101361469479;284376;309229;233417;-1362;
2024-05-24T23:21:23.410;539787101379621658;284520;309333;233504;-1295;
2024-05-24T23:21:23.428;539787101397773837;284653;309394;233570;-1258;
2024-05-24T23:21:23.446;539787101415926016;284692;309516;233620;-1311;
2024-05-24T23:21:23.464;539787101434078195;284792;309646;233640;-1321;
2024-05-24T23:21:23.482;539787101452230374;284876;309791;233718;-1267;
2024-05-24T23:21:23.501;539787101470382553;285022;309875;233770;-1378;
2024-05-24T23:21:23.519;539787101488534732;285138;309960;233845;-1293;
2024-05-24T23:21:23.537;539787101506686911;285260;310063;233923;-1309;
2024-05-24T23:21:23.555;539787101524839090;285385;310210;234007;-1304;
2024-05-24T23:21:23.573;539787101542991269;285501;310321;234046;-1276;
2024-05-24T23:21:23.591;539787101561143448;285624;310449;234159;-1250;
2024-05-24T23:21:23.609;539787101579295627;285791;310566;234152;-1260;
2024-05-24T23:21:23.628;539787101597447806;285827;310664;234216;-1285;
2024-05-24T23:21:23.646;539787101615599985;285989;310738;234286;-1295;
2024-05-24T23:21:23.664;539787101633752164;286039;310885;234344;-1320;
2024-05-24T23:21:23.682;539787101651904343;286179;310950;234426;-1335;
2024-05-24T23:21:23.700;539787101670056522;286301;311084;234497;-1323;
2024-05-24T23:21:23.718;539787101688208701;286369;311165;234494;-1273;
2024-05-24T23:21:23.737;539787101706360880;286476;311199;234496;-1297;
2024-05-24T23:21:23.755;539787101724514524;286479;311235;234548;-1340;
2024-05-24T23:21:23.773;539787101742668156;286515;311318;234573;-1312;
2024-05-24T23:21:23.791;539787101760821788;286633;311415;234616;-1331;
2024-05-24T23:21:23.809;539787101778975420;286759;311522;234726;-1306;
2024-05-24T23:21:23.827;539787101797129052;286805;311516;234672;-1282;
2024-05-24T23:21:23.845;539787101815282684;286645;311395;234629;-1292;
2024-05-24T23:21:23.864;539787101833436316;286586;311202;234522;-1268;
2024-05-24T23:21:23.882;539787101851589948;286343;310917;234306;-1305;
2024-05-24T23:21:23.900;539787101869743580;286074;310554;234097;-1300;
2024-05-24T23:21:23.918;539787101887897212;285822;310281;233867;-1252;
2024-05-24T23:21:23.936;539787101906050844;285517;309899;233595;-1254;
2024-05-24T23:21:23.954;539787101924204476;285387;309670;233433;-1273;
2024-05-24T23:21:23.973;539787101942358108;285323;309573;233249;-1273;
2024-05-24T23:21:23.991;539787101960511740;285293;309480;233199;-1263;
2024-05-24T23:21:24.009;539787101978665372;285256;309499;233097;-1329;
2024-05-24T23:21:24.027;539787101996819004;285383;309523;233147;-1280;
2024-05-24T23:21:24.045;539787102014972636;285452;309623;233233;-1253;
2024-05-24T23:21:24.063;539787102033126268;285577;309777;233349;-1239;
2024-05-24T23:21:24.081;539787102051279900;285734;309936;233400;-1232;
2024-05-24T23:21:24.100;539787102069433532;285952;310094;233491;-1259;
2024-05-24T23:21:24.118;539787102087587164;286066;310240;233562;-1284;
2024-05-24T23:21:24.136;539787102105740796;286203;310323;233580;-1327;
2024-05-24T23:21:24.154;539787102123894428;286339;310460;233681;-1256;
2024-05-24T23:21:24.172;539787102142048060;286464;310619;233777;-1240;
2024-05-24T23:21:24.190;539787102160201692;286555;310681;233835;-1270;
2024-05-24T23:21:24.209;539787102178355324;286604;310717;233893;-1273;
2024-05-24T23:21:24.227;539787102196508956;286668;310815;233873;-1300;
2024-05-24T23:21:24.245;539787102214662588;286731;310870;233875;-1285;
2024-05-24T23:21:24.263;539787102232816220;286862;310967;233971;-1223;
2024-05-24T23:21:24.281;539787102250969852;286936;311006;233943;-1338;
2024-05-24T23:21:24.299;539787102269123484;287021;311072;233963;-1314;
2024-05-24T23:21:24.317;539787102287277116;287167;311171;234030;-1288;
2024-05-24T23:21:24.336;539787102305430748;287216;311289;234095;-1286;
2024-05-24T23:21:24.354;539787102323584380;287360;311374;234140;-1300;
2024-05-24T23:21:24.372;539787102341738012;287447;311425;234182;-1294;
2024-05-24T23:21:24.390;539787102359891644;287579;311633;234265;-1300;
2024-05-24T23:21:24.408;539787102378045276;287678;311724;234405;-1280;
2024-05-24T23:21:24.426;539787102396198908;287845;311898;234441;-1311;
2024-05-24T23:21:24.445;539787102414352540;287952;311964;234445;-1286;
2024-05-24T23:21:24.463;539787102432506172;288047;312111;234552;-1272;
2024-05-24T23:21:24.481;539787102450659804;288206;312202;234643;-1294;
2024-05-24T23:21:24.499;539787102468813436;288366;312354;234681;-1255;
2024-05-24T23:21:24.517;539787102486967239;288451;312440;234771;-1276;
2024-05-24T23:21:24.535;539787102505121016;288606;312602;234824;-1232;
2024-05-24T23:21:24.553;539787102523274793;288666;312676;234888;-1307;
2024-05-24T23:21:24.572;539787102541428570;288762;312770;234937;-1242;
2024-05-24T23:21:24.590;539787102559582347;288862;312868;234981;-1269;
2024-05-24T23:21:24.608;539787102577736124;288976;312967;235059;-1236;
2024-05-24T23:21:24.626;539787102595889901;289067;313066;235053;-1261;
2024-05-24T23:21:24.644;539787102614043678;289097;313094;235127;-1326;
2024-05-24T23:21:24.662;539787102632197455;289183;313166;235161;-1344;
2024-05-24T23:21:24.681;539787102650351232;289245;313231;235193;-1308;
2024-05-24T23:21:24.699;539787102668505009;289330;313353;235228;-1317;
2024-05-24T23:21:24.717;539787102686658786;289342;313307;235202;-1337;
2024-05-24T23:21:24.735;539787102704812563;289452;313419;235257;-1278;
2024-05-24T23:21:24.753;539787102722966340;289393;313274;235247;-1318;
2024-05-24T23:21:24.771;539787102741120117;289271;313124;235088;-1290;
2024-05-24T23:21:24.789;539787102759273894;289104;312903;234955;-1248;
2024-05-24T23:21:24.808;539787102777427671;288776;312573;234671;-1296;
2024-05-24T23:21:24.826;539787102795581448;288540;312223;234453;-1272;
2024-05-24T23:21:24.844;539787102813735225;288242;311882;234162;-1243;
2024-05-24T23:21:24.862;539787102831889002;288015;311462;233920;-1317;
2024-05-24T23:21:24.880;539787102850042779;287865;311299;233759;-1321;
2024-05-24T23:21:24.898;539787102868196556;287751;311061;233609;-1297;
2024-05-24T23:21:24.917;539787102886350333;287749;311078;233681;-1214;
2024-05-24T23:21:24.935;539787102904504110;287788;311069;233602;-1348;
2024-05-24T23:21:24.953;539787102922657887;287765;311072;233561;-1319;
2024-05-24T23:21:24.971;539787102940811664;287912;311178;233666;-1311;
2024-05-24T23:21:24.989;539787102958965441;288039;311261;233684;-1392;
2024-05-24T23:21:25.007;539787102977119218;288174;311442;233829;-1356;
2024-05-24T23:21:25.025;539787102995272995;288275;311545;233884;-1369;
2024-05-24T23:21:25.044;539787103013426772;288449;311720;233938;-1306;
2024-05-24T23:21:25.062;539787103031580549;288552;311744;234026;-1301;
2024-05-24T23:21:25.080;539787103049734326;288659;311917;234085;-1291;
2024-05-24T23:21:25.098;539787103067888103;288701;311911;234101;-1344;
2024-05-24T23:21:25.116;539787103086041880;288722;311982;234098;-1291;
2024-05-24T23:21:25.134;539787103104195657;288762;311980;234122;-1339;
2024-05-24T23:21:25.153;539787103122349434;288817;311932;234120;-1303;
2024-05-24T23:21:25.171;539787103140503211;288853;312028;234107;-1311;
2024-05-24T23:21:25.189;539787103158656988;288941;312022;234108;-1296;
2024-05-24T23:21:25.207;539787103176810765;288930;312125;234166;-1295;
2024-05-24T23:21:25.225;539787103194964542;289009;312138;234201;-1276;
2024-05-24T23:21:25.243;539787103213118319;289007;312158;234211;-1317;
2024-05-24T23:21:25.261;539787103231272096;289073;312148;234193;-1293;
2024-05-24T23:21:25.280;539787103249426564;289209;312281;234264;-1331;
2024-05-24T23:21:25.298;539787103267581012;289340;312347;234274;-1293;
2024-05-24T23:21:25.316;539787103285735460;289402;312440;234361;-1254;
2024-05-24T23:21:25.334;539787103303889908;289451;312482;234400;-1265;
2024-05-24T23:21:25.352;539787103322044356;289540;312572;234450;-1291;
2024-05-24T23:21:25.370;539787103340198804;289586;312662;234487;-1333;
2024-05-24T23:21:25.389;539787103358353252;289731;312753;234525;-1339;
2024-05-24T23:21:25.407;539787103376507700;289857;312883;234571;-1317;
2024-05-24T23:21:25.425;539787103394662148;289920;312893;234653;-1350;
2024-05-24T23:21:25.443;539787103412816596;290036;313066;234743;-1306;
2024-05-24T23:21:25.461;539787103430971044;290142;313117;234810;-1268;
2024-05-24T23:21:25.479;539787103449125492;290237;313295;234933;-1365;
2024-05-24T23:21:25.497;539787103467279940;290348;313390;234945;-1278;
2024-05-24T23:21:25.516;539787103485434388;290414;313341;234987;-1333;
2024-05-24T23:21:25.534;539787103503588836;290434;313406;235003;-1302;
2024-05-24T23:21:25.552;539787103521743284;290559;313553;235066;-1289;
2024-05-24T23:21:25.570;539787103539897732;290595;313636;235107;-1290;
2024-05-24T23:21:25.588;539787103558052180;290642;313715;235159;-1287;
2024-05-24T23:21:25.606;539787103576206628;290697;313674;235240;-1250;
2024-05-24T23:21:25.625;539787103594361076;290605;313572;235135;-1325;
2024-05-24T23:21:25.643;539787103612515524;290497;313430;235022;-1323;
2024-05-24T23:21:25.661;539787103630669972;290220;313066;234774;-1294;
2024-05-24T23:21:25.679;539787103648824420;289883;312610;234546;-1273;
2024-05-24T23:21:25.697;539787103666978868;289551;312199;234201;-1283;
2024-05-24T23:21:25.715;539787103685133316;289230;311878;233967;-1273;
2024-05-24T23:21:25.733;539787103703287764;288943;311430;233664;-1345;
2024-05-24T23:21:25.752;539787103721442212;288767;311181;233552;-1305;
2024-05-24T23:21:25.770;539787103739596660;288579;310986;233375;-1319;
2024-05-24T23:21:25.788;539787103757751108;288521;310823;233354;-1257;
2024-05-24T23:21:25.806;539787103775905556;288585;310794;233324;-1270;
2024-05-24T23:21:25.824;539787103794060004;288553;310908;233339;-1261;
2024-05-24T23:21:25.842;539787103812214452;288669;310938;233320;-1307;
2024-05-24T23:21:25.861;539787103830368900;288810;311071;233444;-1249;
2024-05-24T23:21:25.879;539787103848523348;288987;311176;233564;-1296;
2024-05-24T23:21:25.897;539787103866677796;289135;311407;233676;-1249;
2024-05-24T23:21:25.915;539787103884832244;289164;311502;233742;-1240;
2024-05-24T23:21:25.933;539787103902986692;289184;311537;233749;-1303;
2024-05-24T23:21:25.951;539787103921141140;289292;311608;233815;-1287;
2024-05-24T23:21:25.969;539787103939295588;289339;311682;233888;-1324;
2024-05-24T23:21:25.988;539787103957450036;289383;311678;233878;-1271;
2024-05-24T23:21:26.006;539787103975604484;289385;311660;233904;-1325;
2024-05-24T23:21:26.024;539787103993758932;289478;311686;233868;-1260;
2024-05-24T23:21:26.042;539787104011913380;289502;311684;233901;-1309;
2024-05-24T23:21:26.060;539787104030065994;289508;311698;233966;-1263;
2024-05-24T23:21:26.078;539787104048218596;289513;311684;233913;-1335;
2024-05-24T23:21:26.097;539787104066371198;289597;311724;233894;-1323;
2024-05-24T23:21:26.115;539787104084523800;289614;311787;233946;-1307;
2024-05-24T23:21:26.133;539787104102676402;289666;311838;233952;-1291;
2024-05-24T23:21:26.151;539787104120829004;289679;311855;233997;-1318;
2024-05-24T23:21:26.169;539787104138981606;289725;311871;234041;-1328;
2024-05-24T23:21:26.187;539787104157134208;289876;311992;234071;-1288;
2024-05-24T23:21:26.205;539787104175286810;289964;312010;234134;-1272;
2024-05-24T23:21:26.224;539787104193439412;289991;312114;234197;-1251;
2024-05-24T23:21:26.242;539787104211592014;290073;312261;234296;-1269;
2024-05-24T23:21:26.260;539787104229744616;290187;312359;234365;-1270;
2024-05-24T23:21:26.278;539787104247897218;290225;312423;234418;-1316;
2024-05-24T23:21:26.296;539787104266049820;290338;312473;234462;-1237;
2024-05-24T23:21:26.314;539787104284202422;290397;312575;234510;-1288;
2024-05-24T23:21:26.333;539787104302355024;290457;312633;234573;-1272;
2024-05-24T23:21:26.351;539787104320507626;290575;312680;234631;-1295;
2024-05-24T23:21:26.369;539787104338660228;290628;312807;234672;-1245;
2024-05-24T23:21:26.387;539787104356812830;290642;312861;234703;-1277;
2024-05-24T23:21:26.405;539787104374965432;290749;312868;234755;-1310;
2024-05-24T23:21:26.423;539787104393118034;290806;312940;234770;-1325;
2024-05-24T23:21:26.441;539787104411270636;290893;313038;234884;-1305;
2024-05-24T23:21:26.460;539787104429423238;290903;313075;234942;-1309;
2024-05-24T23:21:26.478;539787104447575840;290885;313007;234948;-1268;
2024-05-24T23:21:26.496;539787104465728442;290640;312799;234818;-1311;
2024-05-24T23:21:26.514;539787104483881044;290449;312554;234579;-1277;
2024-05-24T23:21:26.532;539787104502033646;290093;312126;234339;-1240;
2024-05-24T23:21:26.550;539787104520186248;289664;311578;234044;-1341;
2024-05-24T23:21:26.569;539787104538338850;289218;311114;233725;-1328;
2024-05-24T23:21:26.587;539787104556491452;288786;310627;233473;-1341;
2024-05-24T23:21:26.605;539787104574644054;288481;310271;233240;-1311;
2024-05-24T23:21:26.623;539787104592796656;288272;310013;233061;-1246;
2024-05-24T23:21:26.641;539787104610949258;288076;309803;232886;-1341;
2024-05-24T23:21:26.659;539787104629101860;288006;309686;232903;-1318;
2024-05-24T23:21:26.677;539787104647254462;288084;309687;232901;-1293;
2024-05-24T23:21:26.696;539787104665407064;288114;309752;232928;-1300;
2024-05-24T23:21:26.714;539787104683559666;288160;309828;233012;-1302;
2024-05-24T23:21:26.732;539787104701712268;288340;309976;233103;-1339;
2024-05-24T23:21:26.750;539787104719864870;288502;310219;233258;-1346;
2024-05-24T23:21:26.768;539787104738017472;288640;310278;233281;-1337;
2024-05-24T23:21:26.786;539787104756170355;288655;310342;233324;-1370;
2024-05-24T23:21:26.804;539787104774323224;288753;310494;233419;-1294;
2024-05-24T23:21:26.823;539787104792476093;288759;310513;233459;-1309;
2024-05-24T23:21:26.841;539787104810628962;288759;310498;233487;-1341;
2024-05-24T23:21:26.859;539787104828781831;288762;310443;233531;-1318;
2024-05-24T23:21:26.877;539787104846934700;288805;310435;233461;-1311;
2024-05-24T23:21:26.895;539787104865087569;288771;310462;233526;-1335;
2024-05-24T23:21:26.913;539787104883240438;288735;310456;233517;-1359;
2024-05-24T23:21:26.932;539787104901393307;288736;310406;233526;-1334;
2024-05-24T23:21:26.950;539787104919546176;288822;310454;233537;-1274;
2024-05-24T23:21:26.968;539787104937699045;288804;310503;233574;-1294;
2024-05-24T23:21:26.986;539787104955851914;288787;310523;233573;-1299;
2024-05-24T23:21:27.004;539787104974004783;288822;310561;233663;-1299;
2024-05-24T23:21:27.022;539787104992157652;288957;310660;233708;-1330;
2024-05-24T23:21:27.040;539787105010310521;288988;310630;233678;-1347;
2024-05-24T23:21:27.059;539787105028463390;289043;310748;233769;-1341;
2024-05-24T23:21:27.077;539787105046616259;289056;310783;233815;-1356;
2024-05-24T23:21:27.095;539787105064769128;289097;310879;233828;-1362;
2024-05-24T23:21:27.113;539787105082921997;289189;310995;233976;-1310;
2024-05-24T23:21:27.131;539787105101074866;289303;311064;234009;-1329;
2024-05-24T23:21:27.149;539787105119227735;289337;311110;234086;-1304;
2024-05-24T23:21:27.168;539787105137380604;289392;311199;234184;-1272;
2024-05-24T23:21:27.186;539787105155533473;289435;311272;234179;-1288;
2024-05-24T23:21:27.204;539787105173686342;289514;311384;234242;-1257;
2024-05-24T23:21:27.222;539787105191839211;289565;311348;234304;-1291;
2024-05-24T23:21:27.240;539787105209992080;289666;311459;234384;-1265;
2024-05-24T23:21:27.258;539787105228144949;289711;311481;234423;-1325;
2024-05-24T23:21:27.276;539787105246297818;289721;311582;234502;-1287;
2024-05-24T23:21:27.295;539787105264450687;289796;311615;234553;-1269;
2024-05-24T23:21:27.313;539787105282603556;289864;311739;234585;-1291;
2024-05-24T23:21:27.331;539787105300756425;289818;311686;234560;-1305;
2024-05-24T23:21:27.349;539787105318909294;289756;311568;234496;-1295;
2024-05-24T23:21:27.367;539787105337062163;289410;311241;234302;-1348;
2024-05-24T23:21:27.385;539787105355215032;289077;310852;234108;-1279;
2024-05-24T23:21:27.404;539787105373367901;288614;310370;233792;-1251;
2024-05-24T23:21:27.422;539787105391520770;288090;309792;233467;-1291;
2024-05-24T23:21:27.440;539787105409673639;287664;309327;233213;-1327;
2024-05-24T23:21:27.458;539787105427826508;287313;308889;232956;-1280;
2024-05-24T23:21:27.476;539787105445979377;286954;308571;232789;-1277;
2024-05-24T23:21:27.494;539787105464132246;286696;308278;232622;-1364;
2024-05-24T23:21:27.512;539787105482286159;286611;308254;232611;-1263;
2024-05-24T23:21:27.531;539787105500440058;286613;308219;232586;-1269;
2024-05-24T23:21:27.549;539787105518593957;286694;308254;232639;-1283;
2024-05-24T23:21:27.567;539787105536747856;286753;308382;232779;-1284;
2024-05-24T23:21:27.585;539787105554901755;286826;308549;232825;-1322;
2024-05-24T23:21:27.603;539787105573055654;287064;308797;232917;-1302;
2024-05-24T23:21:27.621;539787105591209553;287168;308899;232998;-1294;
2024-05-24T23:21:27.640;539787105609363452;287249;309027;233095;-1293;
2024-05-24T23:21:27.658;539787105627517351;287292;309127;233187;-1239;
2024-05-24T23:21:27.676;539787105645671250;287337;309163;233184;-1263;
2024-05-24T23:21:27.694;539787105663825149;287320;309190;233276;-1305;
2024-05-24T23:21:27.712;539787105681979048;287364;309200;233284;-1242;
2024-05-24T23:21:27.730;539787105700132947;287317;309175;233326;-1276;
2024-05-24T23:21:27.748;539787105718286846;287360;309237;233301;-1253;
2024-05-24T23:21:27.767;539787105736440745;287295;309163;233318;-1297;
2024-05-24T23:21:27.785;539787105754594644;287283;309185;233286;-1287;
2024-05-24T23:21:27.803;539787105772748543;287384;309225;233349;-1222;
2024-05-24T23:21:27.821;539787105790902442;287330;309177;233316;-1265;
2024-05-24T23:21:27.839;539787105809056341;287345;309300;233405;-1275;
2024-05-24T23:21:27.857;539787105827210240;287307;309330;233376;-1322;
2024-05-24T23:21:27.876;539787105845364139;287421;309450;233507;-1328;
2024-05-24T23:21:27.894;539787105863518038;287528;309505;233629;-1249;
2024-05-24T23:21:27.912;539787105881671937;287507;309564;233620;-1297;
2024-05-24T23:21:27.930;539787105899825836;287567;309696;233681;-1346;
2024-05-24T23:21:27.948;539787105917979735;287654;309775;233775;-1319;
2024-05-24T23:21:27.966;539787105936133634;287697;309846;233766;-1371;
2024-05-24T23:21:27.984;539787105954287533;287751;309919;233833;-1338;
2024-05-24T23:21:28.003;539787105972441432;287830;310019;233933;-1325;
2024-05-24T23:21:28.021;539787105990595331;287916;310135;233975;-1331;
2024-05-24T23:21:28.039;539787106008749230;287975;310220;234027;-1346;
2024-05-24T23:21:28.057;539787106026903129;288093;310319;234095;-1279;
2024-05-24T23:21:28.075;539787106045057028;288081;310448;234184;-1282;
2024-05-24T23:21:28.093;539787106063210927;288228;310529;234254;-1263;
2024-05-24T23:21:28.112;539787106081364826;288195;310525;234264;-1331;
2024-05-24T23:21:28.130;539787106099518725;288284;310602;234322;-1301;
2024-05-24T23:21:28.148;539787106117672624;288312;310630;234365;-1328;
2024-05-24T23:21:28.166;539787106135826523;288320;310693;234393;-1287;
2024-05-24T23:21:28.184;539787106153980422;288205;310517;234349;-1317;
2024-05-24T23:21:28.202;539787106172134321;287927;310301;234217;-1335;
2024-05-24T23:21:28.220;539787106190288220;287533;309967;234056;-1330;
2024-05-24T23:21:28.239;539787106208443386;287100;309450;233829;-1313;
2024-05-24T23:21:28.257;539787106226598544;286715;309013;233536;-1273;
2024-05-24T23:21:28.275;539787106244753702;286261;308601;233299;-1292;
2024-05-24T23:21:28.293;539787106262908860;285931;308264;233105;-1236;
2024-05-24T23:21:28.311;539787106281064018;285657;308061;232907;-1250;
2024-05-24T23:21:28.329;539787106299219176;285520;307850;232823;-1307;
2024-05-24T23:21:28.348;539787106317374334;285426;307765;232858;-1313;
2024-05-24T23:21:28.366;539787106335529492;285438;307878;232873;-1352;
2024-05-24T23:21:28.384;539787106353684650;285517;307974;232979;-1283;
2024-05-24T23:21:28.402;539787106371839808;285603;308087;233030;-1324;
2024-05-24T23:21:28.420;539787106389994966;285825;308268;233144;-1319;
2024-05-24T23:21:28.438;539787106408150124;285902;308426;233229;-1292;
2024-05-24T23:21:28.456;539787106426305282;286031;308605;233297;-1306;
2024-05-24T23:21:28.475;539787106444460440;286144;308764;233390;-1246;
2024-05-24T23:21:28.493;539787106462615598;286122;308852;233459;-1258;
2024-05-24T23:21:28.511;539787106480770756;286180;308873;233452;-1268;
2024-05-24T23:21:28.529;539787106498925914;286139;308888;233536;-1307;
2024-05-24T23:21:28.547;539787106517081072;286150;308868;233536;-1265;
2024-05-24T23:21:28.565;539787106535236230;286164;308857;233464;-1290;
2024-05-24T23:21:28.584;539787106553391388;286161;308873;233546;-1248;
2024-05-24T23:21:28.602;539787106571546546;286118;308855;233558;-1306;
2024-05-24T23:21:28.620;539787106589701704;286059;308922;233521;-1359;
2024-05-24T23:21:28.638;539787106607856862;286057;308937;233583;-1275;
2024-05-24T23:21:28.656;539787106626012020;286036;308957;233557;-1325;
2024-05-24T23:21:28.674;539787106644167178;286057;309006;233603;-1294;
2024-05-24T23:21:28.692;539787106662322336;286098;309053;233645;-1285;
2024-05-24T23:21:28.711;539787106680477494;286148;309134;233698;-1303;
2024-05-24T23:21:28.729;539787106698632652;286186;309178;233796;-1250;
2024-05-24T23:21:28.747;539787106716787810;286218;309275;233879;-1284;
2024-05-24T23:21:28.765;539787106734942968;286335;309412;233982;-1263;
2024-05-24T23:21:28.783;539787106753098126;286388;309474;234026;-1297;
2024-05-24T23:21:28.801;539787106771253284;286446;309621;234057;-1233;
2024-05-24T23:21:28.820;539787106789408442;286497;309752;234093;-1312;
2024-05-24T23:21:28.838;539787106807563600;286553;309904;234176;-1258;
2024-05-24T23:21:28.856;539787106825718758;286609;309980;234254;-1250;
2024-05-24T23:21:28.874;539787106843873916;286727;310022;234298;-1283;
2024-05-24T23:21:28.892;539787106862029074;286810;310168;234371;-1276;
2024-05-24T23:21:28.910;539787106880184232;286845;310286;234492;-1302;
2024-05-24T23:21:28.929;539787106898339390;286938;310393;234518;-1259;
2024-05-24T23:21:28.947;539787106916494548;286957;310446;234564;-1304;
2024-05-24T23:21:28.965;539787106934649706;286980;310483;234585;-1262;
2024-05-24T23:21:28.983;539787106952804864;286752;310342;234547;-1270;
2024-05-24T23:21:29.001;539787106970959380;286576;310153;234443;-1287;
2024-05-24T23:21:29.019;539787106989113884;286180;309691;234197;-1292;
2024-05-24T23:21:29.037;539787107007268388;285767;309244;233924;-1267;
2024-05-24T23:21:29.056;539787107025422892;285279;308841;233677;-1307;
2024-05-24T23:21:29.074;539787107043577396;285001;308491;233486;-1323;
2024-05-24T23:21:29.092;539787107061731900;284713;308269;233340;-1330;
2024-05-24T23:21:29.110;539787107079886404;284527;308102;233211;-1266;
2024-05-24T23:21:29.128;539787107098040908;284419;308027;233115;-1319;
2024-05-24T23:21:29.146;539787107116195412;284386;308056;233218;-1279;
2024-05-24T23:21:29.165;539787107134349916;284377;308042;233164;-1286;
2024-05-24T23:21:29.183;539787107152504420;284440;308180;233272;-1309;
2024-05-24T23:21:29.201;539787107170658924;284636;308382;233426;-1310;
2024-05-24T23:21:29.219;539787107188813428;284771;308627;233505;-1323;
2024-05-24T23:21:29.237;539787107206967932;284914;308736;233552;-1291;
2024-05-24T23:21:29.255;539787107225122436;284981;308838;233604;-1284;
2024-05-24T23:21:29.273;539787107243276940;285059;308956;233673;-1274;
2024-05-24T23:21:29.292;539787107261431444;285180;309079;233750;-1254;
2024-05-24T23:21:29.310;539787107279585948;285149;309093;233798;-1269;
2024-05-24T23:21:29.328;539787107297740452;285193;309166;233846;-1363;
2024-05-24T23:21:29.346;539787107315894956;285145;309187;233804;-1352;
2024-05-24T23:21:29.364;539787107334049460;285134;309266;233851;-1361;
2024-05-24T23:21:29.382;539787107352203964;285180;309275;233856;-1305;
2024-05-24T23:21:29.401;539787107370358468;285190;309289;233936;-1308;
2024-05-24T23:21:29.419;539787107388512972;285218;309323;233917;-1320;
2024-05-24T23:21:29.437;539787107406667476;285210;309394;234007;-1306;
2024-05-24T23:21:29.455;539787107424821980;285273;309466;234031;-1312;
2024-05-24T23:21:29.473;539787107442976484;285264;309513;234065;-1289;
2024-05-24T23:21:29.491;539787107461130988;285329;309543;234083;-1331;
2024-05-24T23:21:29.509;539787107479285492;285381;309642;234190;-1288;
2024-05-24T23:21:29.528;539787107497439996;285440;309736;234238;-1284;
2024-05-24T23:21:29.546;539787107515594500;285603;309936;234257;-1280;
2024-05-24T23:21:29.564;539787107533749004;285663;309949;234287;-1299;
2024-05-24T23:21:29.582;539787107551903508;285726;310065;234428;-1344;
2024-05-24T23:21:29.600;539787107570058012;285831;310175;234434;-1280;
2024-05-24T23:21:29.618;539787107588212516;285857;310333;234529;-1313;
2024-05-24T23:21:29.637;539787107606367020;285957;310470;234597;-1339;
2024-05-24T23:21:29.655;539787107624521524;286014;310551;234634;-1328;
2024-05-24T23:21:29.673;539787107642676028;286053;310627;234728;-1399;
2024-05-24T23:21:29.691;539787107660830532;286185;310813;234773;-1364;
2024-05-24T23:21:29.709;539787107678985036;286221;310855;234782;-1350;
2024-05-24T23:21:29.727;539787107697139540;286297;310906;234904;-1276;
2024-05-24T23:21:29.745;539787107715294044;286133;310742;234725;-1348;
2024-05-24T23:21:29.764;539787107733450126;285819;310548;234660;-1306;
2024-05-24T23:21:29.782;539787107751606192;285497;310210;234404;-1302;
2024-05-24T23:21:29.800;539787107769762258;285118;309875;234259;-1299;
2024-05-24T23:21:29.818;539787107787918324;284751;309482;234050;-1336;
2024-05-24T23:21:29.836;539787107806074390;284439;309184;233814;-1302;
2024-05-24T23:21:29.854;539787107824230456;284271;308945;233679;-1313;
2024-05-24T23:21:29.873;539787107842386522;284128;308802;233668;-1290;
2024-05-24T23:21:29.891;539787107860542588;284036;308768;233574;-1278;
2024-05-24T23:21:29.909;539787107878698654;284027;308783;233561;-1321;
2024-05-24T23:21:29.927;539787107896854720;284112;308871;233654;-1304;
2024-05-24T23:21:29.945;539787107915010786;284155;308980;233732;-1306;
2024-05-24T23:21:29.963;539787107933166852;284367;309206;233817;-1282;
2024-05-24T23:21:29.981;539787107951322918;284481;309412;233903;-1244;
2024-05-24T23:21:30.000;539787107969478984;284587;309602;234053;-1229;
2024-05-24T23:21:30.018;539787107987635050;284777;309804;234119;-1271;
2024-05-24T23:21:30.036;539787108005791116;284871;309946;234200;-1259;
2024-05-24T23:21:30.054;539787108023947182;284958;309995;234276;-1314;
2024-05-24T23:21:30.072;539787108042103248;285040;310107;234276;-1306;
2024-05-24T23:21:30.090;539787108060259314;284986;310200;234294;-1295;
2024-05-24T23:21:30.109;539787108078415380;285037;310260;234357;-1310;
2024-05-24T23:21:30.127;539787108096571446;285137;310250;234390;-1285;
2024-05-24T23:21:30.145;539787108114727512;285179;310312;234414;-1285;
2024-05-24T23:21:30.163;539787108132883578;285174;310364;234481;-1301;
2024-05-24T23:21:30.181;539787108151039644;285201;310401;234476;-1288;
2024-05-24T23:21:30.199;539787108169195710;285221;310460;234479;-1301;
2024-05-24T23:21:30.218;539787108187351776;285244;310518;234565;-1292;
2024-05-24T23:21:30.236;539787108205507842;285304;310616;234646;-1293;
2024-05-24T23:21:30.254;539787108223663908;285321;310675;234636;-1325;
2024-05-24T23:21:30.272;539787108241819974;285418;310846;234639;-1314;
2024-05-24T23:21:30.290;539787108259976040;285466;310885;234709;-1330;
2024-05-24T23:21:30.308;539787108278132106;285540;311021;234801;-1311;
2024-05-24T23:21:30.326;539787108296288172;285661;311060;234884;-1351;
2024-05-24T23:21:30.345;539787108314444238;285769;311250;234912;-1324;
2024-05-24T23:21:30.363;539787108332600304;285836;311288;234991;-1330;
2024-05-24T23:21:30.381;539787108350756370;285971;311385;235054;-1312;
2024-05-24T23:21:30.399;539787108368912436;286018;311478;235144;-1274;
2024-05-24T23:21:30.417;539787108387068502;286067;311625;235206;-1305;
2024-05-24T23:21:30.435;539787108405224568;286127;311711;235208;-1309;
2024-05-24T23:21:30.454;539787108423380634;286195;311735;235214;-1319;
2024-05-24T23:21:30.472;539787108441536700;286223;311821;235237;-1314;
2024-05-24T23:21:30.490;539787108459692766;286217;311794;235257;-1311;
2024-05-24T23:21:30.508;539787108477848832;286143;311699;235140;-1309;
2024-05-24T23:21:30.526;539787108496002683;285872;311459;235003;-1322;
2024-05-24T23:21:30.544;539787108514156496;285575;311158;234849;-1271;
2024-05-24T23:21:30.562;539787108532310309;285186;310798;234632;-1301;
2024-05-24T23:21:30.581;539787108550464122;284843;310428;234319;-1313;
2024-05-24T23:21:30.599;539787108568617935;284513;310054;234173;-1308;
2024-05-24T23:21:30.617;539787108586771748;284245;309801;234002;-1310;
2024-05-24T23:21:30.635;539787108604925561;284074;309630;233861;-1314;
2024-05-24T23:21:30.653;539787108623079374;283937;309488;233809;-1340;
2024-05-24T23:21:30.671;539787108641233187;283866;309494;233810;-1336;
2024-05-24T23:21:30.690;539787108659387000;283912;309560;233773;-1340;
2024-05-24T23:21:30.708;539787108677540813;284056;309665;233804;-1339;
2024-05-24T23:21:30.726;539787108695694626;284185;309824;233989;-1294;
2024-05-24T23:21:30.744;539787108713848439;284347;310074;234046;-1330;
2024-05-24T23:21:30.762;539787108732002252;284511;310148;234153;-1286;
2024-05-24T23:21:30.780;539787108750156065;284580;310305;234253;-1287;
2024-05-24T23:21:30.798;539787108768309878;284698;310428;234296;-1308;
2024-05-24T23:21:30.817;539787108786463691;284751;310492;234379;-1311;
2024-05-24T23:21:30.835;539787108804617504;284866;310548;234398;-1342;
2024-05-24T23:21:30.853;539787108822771317;284940;310630;234385;-1277;
2024-05-24T23:21:30.871;539787108840925130;284961;310735;234415;-1343;
2024-05-24T23:21:30.889;539787108859078943;285030;310746;234512;-1284;
2024-05-24T23:21:30.907;539787108877232756;285017;310742;234445;-1322;
2024-05-24T23:21:30.926;539787108895386569;285040;310832;234478;-1291;
2024-05-24T23:21:30.944;539787108913540382;285086;310847;234478;-1340;
2024-05-24T23:21:30.962;539787108931694195;285149;310936;234482;-1307;
2024-05-24T23:21:30.980;539787108949848008;285231;310996;234563;-1277;
2024-05-24T23:21:30.998;539787108968001821;285324;311122;234646;-1316;
2024-05-24T23:21:31.016;539787108986155634;285381;311166;234722;-1267;
2024-05-24T23:21:31.034;539787109004309447;285442;311231;234692;-1313;
2024-05-24T23:21:31.053;539787109022463260;285524;311374;234788;-1294;
2024-05-24T23:21:31.071;539787109040617073;285563;311422;234859;-1259;
2024-05-24T23:21:31.089;539787109058770886;285712;311588;234857;-1292;
2024-05-24T23:21:31.107;539787109076924699;285838;311647;234933;-1323;
2024-05-24T23:21:31.125;539787109095078512;285854;311714;234925;-1324;
2024-05-24T23:21:31.143;539787109113232325;286016;311909;235125;-1313;
2024-05-24T23:21:31.162;539787109131386138;286077;312050;235166;-1344;
2024-05-24T23:21:31.180;539787109149539951;286167;312154;235187;-1376;
2024-05-24T23:21:31.198;539787109167693764;286272;312295;235271;-1303;
2024-05-24T23:21:31.216;539787109185847577;286381;312358;235288;-1302;
2024-05-24T23:21:31.234;539787109204001390;286447;312479;235377;-1321;
2024-05-24T23:21:31.252;539787109222155203;286640;312546;235439;-1320;
2024-05-24T23:21:31.270;539787109240309016;286676;312705;235456;-1339;
2024-05-24T23:21:31.289;539787109258461849;286635;312610;235440;-1343;
2024-05-24T23:21:31.307;539787109276614682;286465;312428;235381;-1292;
2024-05-24T23:21:31.325;539787109294767515;286204;312204;235187;-1318;
2024-05-24T23:21:31.343;539787109312920348;285943;311864;234927;-1309;
2024-05-24T23:21:31.361;539787109331073181;285653;311539;234697;-1285;
2024-05-24T23:21:31.379;539787109349226014;285355;311251;234509;-1376;
2024-05-24T23:21:31.398;539787109367378847;285156;311002;234360;-1277;
2024-05-24T23:21:31.416;539787109385531680;284965;310800;234200;-1295;
2024-05-24T23:21:31.434;539787109403684513;284872;310738;234127;-1294;
2024-05-24T23:21:31.452;539787109421837346;284851;310662;234102;-1306;
2024-05-24T23:21:31.470;539787109439990179;284879;310714;234104;-1328;
2024-05-24T23:21:31.488;539787109458143012;284954;310827;234110;-1335;
2024-05-24T23:21:31.506;539787109476295845;285056;310966;234243;-1341;
2024-05-24T23:21:31.525;539787109494448678;285256;311158;234255;-1337;
2024-05-24T23:21:31.543;539787109512601511;285401;311334;234328;-1303;
2024-05-24T23:21:31.561;539787109530754344;285548;311493;234504;-1316;
2024-05-24T23:21:31.579;539787109548907177;285713;311672;234665;-1313;
2024-05-24T23:21:31.597;539787109567060010;285894;311794;234759;-1275;
2024-05-24T23:21:31.615;539787109585212843;285959;311859;234757;-1268;
2024-05-24T23:21:31.634;539787109603365676;285988;311977;234782;-1337;
2024-05-24T23:21:31.652;539787109621518509;286071;312075;234769;-1331;
2024-05-24T23:21:31.670;539787109639671342;286157;312136;234852;-1289;
2024-05-24T23:21:31.688;539787109657824175;286207;312227;234924;-1304;
2024-05-24T23:21:31.706;539787109675977008;286296;312287;234960;-1280;
2024-05-24T23:21:31.724;539787109694129841;286357;312350;234899;-1370;
2024-05-24T23:21:31.742;539787109712282674;286404;312462;234992;-1304;
2024-05-24T23:21:31.761;539787109730435507;286453;312477;234980;-1375;
2024-05-24T23:21:31.779;539787109748588340;286618;312621;235111;-1326;
2024-05-24T23:21:31.797;539787109766741173;286761;312750;235217;-1331;
2024-05-24T23:21:31.815;539787109784894006;286774;312785;235194;-1371;
2024-05-24T23:21:31.833;539787109803046839;286943;312892;235305;-1364;
2024-05-24T23:21:31.851;539787109821199672;287052;313053;235379;-1312;
2024-05-24T23:21:31.870;539787109839352505;287157;313200;235413;-1279;
2024-05-24T23:21:31.888;539787109857505338;287262;313343;235505;-1294;
2024-05-24T23:21:31.906;539787109875658171;287384;313445;235550;-1310;
2024-05-24T23:21:31.924;539787109893811004;287542;313532;235574;-1321;
2024-05-24T23:21:31.942;539787109911963837;287634;313679;235694;-1277;
2024-05-24T23:21:31.960;539787109930116670;287745;313804;235779;-1259;
2024-05-24T23:21:31.978;539787109948269503;287836;313892;235875;-1286;
2024-05-24T23:21:31.997;539787109966422336;287976;313980;235932;-1233;
2024-05-24T23:21:32.015;539787109984575169;288114;314144;236046;-1263;
2024-05-24T23:21:32.033;539787110002728002;288202;314259;236069;-1283;
2024-05-24T23:21:32.051;539787110020880132;288317;314390;236186;-1273;
2024-05-24T23:21:32.069;539787110039032238;288327;314390;236130;-1300;
2024-05-24T23:21:32.087;539787110057184344;288341;314327;236090;-1297;
2024-05-24T23:21:32.105;539787110075336450;288181;314209;235967;-1258;
2024-05-24T23:21:32.124;539787110093488556;288049;314014;235829;-1268;
2024-05-24T23:21:32.142;539787110111640662;287856;313673;235644;-1272;
2024-05-24T23:21:32.160;539787110129792768;287470;313336;235370;-1244;
2024-05-24T23:21:32.178;539787110147944874;287260;313039;235198;-1212;
2024-05-24T23:21:32.196;539787110166096980;286988;312727;234987;-1246;
2024-05-24T23:21:32.214;539787110184249086;286800;312529;234790;-1246;
2024-05-24T23:21:32.233;539787110202401192;286712;312369;234680;-1325;
2024-05-24T23:21:32.251;539787110220553298;286701;312319;234686;-1245;
2024-05-24T23:21:32.269;539787110238705404;286712;312287;234645;-1310;
2024-05-24T23:21:32.287;539787110256857510;286791;312406;234656;-1317;
2024-05-24T23:21:32.305;539787110275009616;286955;312567;234782;-1234;
2024-05-24T23:21:32.323;539787110293161722;287061;312698;234821;-1259;
2024-05-24T23:21:32.341;539787110311313828;287196;312844;234912;-1262;
2024-05-24T23:21:32.360;539787110329465934;287295;312896;234938;-1223;
2024-05-24T23:21:32.378;539787110347618040;287392;313002;234985;-1290;
2024-05-24T23:21:32.396;539787110365770146;287402;313107;235024;-1261;
2024-05-24T23:21:32.414;539787110383922252;287419;313070;235022;-1295;
2024-05-24T23:21:32.432;539787110402074358;287481;313133;235091;-1253;
2024-05-24T23:21:32.450;539787110420226464;287510;313105;235025;-1276;
2024-05-24T23:21:32.469;539787110438378570;287494;313028;235050;-1292;
2024-05-24T23:21:32.487;539787110456530676;287456;313014;235002;-1285;
2024-05-24T23:21:32.505;539787110474682782;287473;313025;234950;-1267;
2024-05-24T23:21:32.523;539787110492834888;287515;313042;234980;-1249;
2024-05-24T23:21:32.541;539787110510986994;287578;313008;234960;-1268;
2024-05-24T23:21:32.559;539787110529139100;287576;313049;234950;-1265;
2024-05-24T23:21:32.577;539787110547291206;287602;313068;234946;-1239;
2024-05-24T23:21:32.596;539787110565443312;287608;313097;235001;-1299;
2024-05-24T23:21:32.614;539787110583595418;287696;313143;235011;-1275;
2024-05-24T23:21:32.632;539787110601747524;287745;313224;235039;-1285;
2024-05-24T23:21:32.650;539787110619899630;287815;313324;235082;-1273;
2024-05-24T23:21:32.668;539787110638051736;287883;313358;235113;-1353;
2024-05-24T23:21:32.686;539787110656203842;288019;313434;235178;-1310;
2024-05-24T23:21:32.705;539787110674355948;288135;313516;235252;-1273;
2024-05-24T23:21:32.723;539787110692508054;288234;313562;235272;-1274;
2024-05-24T23:21:32.741;539787110710660160;288311;313713;235335;-1320;
2024-05-24T23:21:32.759;539787110728812266;288417;313805;235396;-1328;
2024-05-24T23:21:32.777;539787110746964372;288486;313909;235441;-1301;
2024-05-24T23:21:32.795;539787110765116478;288539;313987;235441;-1308;
2024-05-24T23:21:32.813;539787110783268584;288619;314014;235493;-1288;
2024-05-24T23:21:32.832;539787110801420832;288685;314063;235536;-1274;
2024-05-24T23:21:32.850;539787110819573044;288741;314152;235555;-1260;
2024-05-24T23:21:32.868;539787110837725256;288673;314084;235524;-1275;
2024-05-24T23:21:32.886;539787110855877468;288583;313909;235439;-1270;
2024-05-24T23:21:32.904;539787110874029680;288299;313481;235185;-1287;
2024-05-24T23:21:32.922;539787110892181892;288007;313143;234882;-1288;
2024-05-24T23:21:32.940;539787110910334104;287682;312751;234663;-1288;
2024-05-24T23:21:32.959;539787110928486316;287405;312354;234393;-1291;
2024-05-24T23:21:32.977;539787110946638528;287137;312042;234204;-1362;
2024-05-24T23:21:32.995;539787110964790740;286961;311766;233973;-1338;
2024-05-24T23:21:33.013;539787110982942952;286861;311565;233876;-1302;
2024-05-24T23:21:33.031;539787111001095164;286745;311533;233767;-1301;
2024-05-24T23:21:33.049;539787111019247376;286855;311616;233814;-1311;
2024-05-24T23:21:33.068;539787111037399588;286946;311626;233851;-1266;
2024-05-24T23:21:33.086;539787111055551800;287040;311685;233892;-1300;
2024-05-24T23:21:33.104;539787111073704012;287124;311843;233912;-1342;
2024-05-24T23:21:33.122;539787111091856224;287266;312006;234026;-1288;
2024-05-24T23:21:33.140;539787111110008436;287374;312081;234083;-1297;
2024-05-24T23:21:33.158;539787111128160648;287481;312186;234146;-1341;
2024-05-24T23:21:33.176;539787111146312860;287591;312194;234212;-1309;
2024-05-24T23:21:33.195;539787111164465072;287653;312237;234256;-1319;
2024-05-24T23:21:33.213;539787111182617284;287719;312307;234206;-1326;
2024-05-24T23:21:33.231;539787111200769496;287788;312358;234204;-1318;
2024-05-24T23:21:33.249;539787111218921708;287734;312372;234312;-1323;
2024-05-24T23:21:33.267;539787111237073920;287707;312338;234209;-1314;
2024-05-24T23:21:33.285;539787111255226132;287786;312406;234185;-1285;
2024-05-24T23:21:33.304;539787111273378344;287884;312411;234205;-1309;
2024-05-24T23:21:33.322;539787111291530556;287913;312412;234208;-1334;
2024-05-24T23:21:33.340;539787111309682768;287964;312442;234266;-1336;
2024-05-24T23:21:33.358;539787111327834980;287971;312488;234244;-1372;
2024-05-24T23:21:33.376;539787111345987192;288028;312568;234290;-1343;
2024-05-24T23:21:33.394;539787111364139404;288161;312659;234402;-1302;
2024-05-24T23:21:33.412;539787111382291616;288207;312683;234389;-1351;
2024-05-24T23:21:33.431;539787111400443828;288283;312687;234442;-1314;
2024-05-24T23:21:33.449;539787111418596040;288369;312764;234508;-1294;
2024-05-24T23:21:33.467;539787111436748252;288489;312863;234537;-1278;
2024-05-24T23:21:33.485;539787111454900464;288481;312901;234514;-1327;
2024-05-24T23:21:33.503;539787111473052676;288608;313007;234573;-1331;
2024-05-24T23:21:33.521;539787111491204888;288709;313062;234638;-1248;
2024-05-24T23:21:33.540;539787111509357100;288811;313124;234649;-1300;
2024-05-24T23:21:33.558;539787111527509312;288775;313127;234641;-1390;
2024-05-24T23:21:33.576;539787111545661524;288852;313280;234695;-1345;
2024-05-24T23:21:33.594;539787111563813736;288947;313393;234797;-1312;
2024-05-24T23:21:33.612;539787111581966292;289044;313388;234834;-1266;
2024-05-24T23:21:33.630;539787111600118834;288985;313386;234783;-1302;
2024-05-24T23:21:33.648;539787111618271376;288984;313282;234767;-1276;
2024-05-24T23:21:33.667;539787111636423918;288844;313016;234601;-1317;
2024-05-24T23:21:33.685;539787111654576460;288514;312709;234393;-1310;
2024-05-24T23:21:33.703;539787111672729002;288264;312339;234139;-1284;
2024-05-24T23:21:33.721;539787111690881544;287906;311861;233833;-1346;
2024-05-24T23:21:33.739;539787111709034086;287546;311387;233489;-1346;
2024-05-24T23:21:33.757;539787111727186628;287169;310960;233281;-1305;
2024-05-24T23:21:33.776;539787111745339170;286854;310583;233005;-1350;
2024-05-24T23:21:33.794;539787111763491712;286669;310289;232854;-1326;
2024-05-24T23:21:33.812;539787111781644254;286578;310220;232739;-1300;
2024-05-24T23:21:33.830;539787111799796796;286523;310167;232691;-1350;
2024-05-24T23:21:33.848;539787111817949338;286569;310131;232686;-1300;
2024-05-24T23:21:33.866;539787111836101880;286635;310176;232677;-1340;
2024-05-24T23:21:33.884;539787111854254422;286783;310265;232732;-1294;
2024-05-24T23:21:33.903;539787111872406964;286858;310404;232841;-1282;
2024-05-24T23:21:33.921;539787111890559506;286899;310449;232872;-1321;
2024-05-24T23:21:33.939;539787111908712048;287000;310605;232938;-1320;
2024-05-24T23:21:33.957;539787111926864590;287094;310718;232974;-1326;
2024-05-24T23:21:33.975;539787111945017132;287163;310708;233044;-1275;
2024-05-24T23:21:33.993;539787111963169674;287211;310755;233035;-1283;
2024-05-24T23:21:34.011;539787111981322216;287202;310764;233043;-1312;
2024-05-24T23:21:34.030;539787111999474758;287204;310658;232962;-1338;
2024-05-24T23:21:34.048;539787112017627300;287221;310712;232978;-1309;
2024-05-24T23:21:34.066;539787112035779842;287293;310771;233031;-1326;
2024-05-24T23:21:34.084;539787112053932384;287256;310760;232994;-1286;
2024-05-24T23:21:34.102;539787112072084926;287283;310745;233025;-1339;
2024-05-24T23:21:34.120;539787112090237468;287383;310747;233053;-1320;
2024-05-24T23:21:34.139;539787112108390010;287353;310769;233041;-1280;
2024-05-24T23:21:34.157;539787112126542552;287371;310805;233078;-1335;
2024-05-24T23:21:34.175;539787112144695094;287493;310899;233062;-1231;
2024-05-24T23:21:34.193;539787112162847636;287454;310926;233126;-1246;
2024-05-24T23:21:34.211;539787112181000178;287518;310956;233187;-1301;
2024-05-24T23:21:34.229;539787112199152720;287643;311027;233164;-1313;
2024-05-24T23:21:34.247;539787112217305262;287724;311124;233251;-1278;
2024-05-24T23:21:34.266;539787112235457804;287798;311226;233313;-1268;
2024-05-24T23:21:34.284;539787112253610346;287938;311300;233356;-1303;
2024-05-24T23:21:34.302;539787112271762888;288012;311401;233461;-1302;
2024-05-24T23:21:34.320;539787112289915430;288097;311511;233464;-1284;
2024-05-24T23:21:34.338;539787112308067972;288210;311659;233620;-1268;
2024-05-24T23:21:34.356;539787112326220514;288352;311698;233575;-1276;
2024-05-24T23:21:34.375;539787112344371215;288359;311738;233661;-1286;
2024-05-24T23:21:34.393;539787112362521916;288475;311868;233702;-1321;
2024-05-24T23:21:34.411;539787112380672617;288536;311887;233754;-1283;
2024-05-24T23:21:34.429;539787112398823318;288598;311924;233773;-1236;
2024-05-24T23:21:34.447;539787112416974019;288673;312007;233814;-1232;
2024-05-24T23:21:34.465;539787112435124720;288520;311842;233724;-1282;
2024-05-24T23:21:34.483;539787112453275421;288292;311565;233563;-1318;
2024-05-24T23:21:34.502;539787112471426122;288002;311207;233322;-1323;
2024-05-24T23:21:34.520;539787112489576823;287622;310735;233027;-1305;
2024-05-24T23:21:34.538;539787112507727524;287209;310262;232750;-1302;
2024-05-24T23:21:34.556;539787112525878225;286821;309731;232410;-1270;
2024-05-24T23:21:34.574;539787112544028926;286458;309262;232044;-1333;
2024-05-24T23:21:34.592;539787112562179627;286097;308884;231868;-1322;
2024-05-24T23:21:34.610;539787112580330328;285885;308670;231689;-1297;
2024-05-24T23:21:34.629;539787112598481029;285767;308513;231585;-1284;
2024-05-24T23:21:34.647;539787112616631730;285718;308406;231548;-1282;
2024-05-24T23:21:34.665;539787112634782431;285722;308451;231491;-1293;
2024-05-24T23:21:34.683;539787112652933132;285768;308576;231613;-1268;
2024-05-24T23:21:34.701;539787112671083833;285876;308675;231692;-1285;
2024-05-24T23:21:34.719;539787112689234534;286009;308885;231763;-1289;
2024-05-24T23:21:34.738;539787112707385235;286199;309008;231847;-1318;
2024-05-24T23:21:34.756;539787112725535936;286225;309053;231884;-1318;
2024-05-24T23:21:34.774;539787112743686637;286336;309132;231981;-1273;
2024-05-24T23:21:34.792;539787112761837338;286374;309180;232026;-1283;
2024-05-24T23:21:34.810;539787112779988039;286373;309250;231970;-1319;
2024-05-24T23:21:34.828;539787112798138740;286363;309214;231989;-1326;
2024-05-24T23:21:34.846;539787112816289441;286383;309233;231990;-1254;
2024-05-24T23:21:34.865;539787112834440142;286355;309208;232034;-1266;
2024-05-24T23:21:34.883;539787112852590843;286362;309175;231981;-1252;
2024-05-24T23:21:34.901;539787112870741544;286348;309158;231925;-1282;
2024-05-24T23:21:34.919;539787112888892245;286299;309179;231958;-1294;
2024-05-24T23:21:34.937;539787112907042946;286350;309231;232025;-1226;
2024-05-24T23:21:34.955;539787112925193647;286402;309257;232064;-1255;
2024-05-24T23:21:34.974;539787112943344348;286422;309261;232030;-1287;
2024-05-24T23:21:34.992;539787112961495049;286548;309351;232116;-1257;
2024-05-24T23:21:35.010;539787112979645750;286634;309434;232147;-1294;
2024-05-24T23:21:35.028;539787112997796451;286669;309509;232268;-1274;
2024-05-24T23:21:35.046;539787113015947152;286657;309538;232272;-1308;
2024-05-24T23:21:35.064;539787113034099274;286762;309657;232310;-1257;
2024-05-24T23:21:35.082;539787113052251380;286843;309758;232328;-1288;
2024-05-24T23:21:35.101;539787113070403486;286882;309827;232389;-1299;
2024-05-24T23:21:35.119;539787113088555592;286982;309952;232494;-1323;
2024-05-24T23:21:35.137;539787113106707698;287086;310061;232535;-1306;
2024-05-24T23:21:35.155;539787113124859804;287120;310124;232561;-1275;
2024-05-24T23:21:35.173;539787113143011910;287204;310268;232660;-1329;
2024-05-24T23:21:35.191;539787113161164016;287227;310268;232661;-1313;
2024-05-24T23:21:35.209;539787113179316122;287363;310372;232735;-1279;
2024-05-24T23:21:35.228;539787113197468228;287413;310445;232831;-1263;
2024-05-24T23:21:35.246;539787113215620334;287439;310416;232866;-1311;
2024-05-24T23:21:35.264;539787113233772440;287495;310529;232883;-1294;
2024-05-24T23:21:35.282;539787113251924546;287523;310645;232995;-1284;
2024-05-24T23:21:35.300;539787113270076652;287505;310677;233037;-1300;
2024-05-24T23:21:35.318;539787113288228758;287473;310632;232955;-1282;
2024-05-24T23:21:35.337;539787113306380864;287275;310349;232791;-1297;
2024-05-24T23:21:35.355;539787113324532970;286926;309954;232554;-1279;
2024-05-24T23:21:35.373;539787113342685076;286456;309423;232172;-1294;
2024-05-24T23:21:35.391;539787113360837182;286019;308925;231925;-1276;
2024-05-24T23:21:35.409;539787113378989288;285490;308398;231562;-1284;
2024-05-24T23:21:35.427;539787113397141394;285144;307967;231321;-1256;
2024-05-24T23:21:35.445;539787113415293500;284685;307546;231063;-1242;
2024-05-24T23:21:35.464;539787113433445606;284489;307313;230969;-1341;
2024-05-24T23:21:35.482;539787113451597712;284352;307171;230864;-1292;
2024-05-24T23:21:35.500;539787113469749818;284310;307122;230847;-1275;
2024-05-24T23:21:35.518;539787113487901924;284326;307184;230849;-1293;
2024-05-24T23:21:35.536;539787113506054030;284431;307308;230882;-1270;
2024-05-24T23:21:35.554;539787113524206136;284510;307408;231017;-1294;
2024-05-24T23:21:35.573;539787113542358242;284622;307537;231097;-1286;
2024-05-24T23:21:35.591;539787113560510348;284708;307700;231172;-1333;
2024-05-24T23:21:35.609;539787113578662454;284832;307832;231242;-1344;
2024-05-24T23:21:35.627;539787113596814560;284829;307872;231347;-1324;
2024-05-24T23:21:35.645;539787113614966666;284881;307972;231403;-1258;
2024-05-24T23:21:35.663;539787113633118772;284901;307952;231362;-1287;
2024-05-24T23:21:35.681;539787113651270878;284859;307934;231321;-1265;
2024-05-24T23:21:35.700;539787113669422984;284824;307898;231348;-1280;
2024-05-24T23:21:35.718;539787113687575090;284791;307922;231378;-1265;
2024-05-24T23:21:35.736;539787113705726487;284745;307845;231321;-1304;
2024-05-24T23:21:35.754;539787113723877870;284711;307844;231395;-1314;
2024-05-24T23:21:35.772;539787113742029253;284673;307893;231408;-1260;
2024-05-24T23:21:35.790;539787113760180636;284719;307893;231387;-1217;
2024-05-24T23:21:35.808;539787113778332019;284808;307983;231480;-1187;
2024-05-24T23:21:35.827;539787113796483402;284692;307913;231392;-1300;
2024-05-24T23:21:35.845;539787113814634785;284732;307947;231428;-1274;
2024-05-24T23:21:35.863;539787113832786168;284776;308048;231488;-1276;
2024-05-24T23:21:35.881;539787113850937551;284811;308070;231535;-1321;
2024-05-24T23:21:35.899;539787113869088934;284906;308294;231654;-1237;
2024-05-24T23:21:35.917;539787113887240317;284982;308353;231644;-1300;
2024-05-24T23:21:35.936;539787113905391700;285030;308482;231754;-1267;
2024-05-24T23:21:35.954;539787113923543083;285084;308532;231835;-1260;
2024-05-24T23:21:35.972;539787113941694466;285247;308677;231910;-1220;
2024-05-24T23:21:35.990;539787113959845849;285294;308711;232033;-1210;
2024-05-24T23:21:36.008;539787113977997232;285314;308768;232056;-1271;
2024-05-24T23:21:36.026;539787113996148615;285316;308798;232072;-1279;
2024-05-24T23:21:36.044;539787114014299998;285355;308876;232126;-1240;
2024-05-24T23:21:36.063;539787114032451381;285355;308962;232108;-1275;
2024-05-24T23:21:36.081;539787114050602764;285416;309013;232186;-1285;
2024-05-24T23:21:36.099;539787114068754147;285397;308987;232181;-1284;
2024-05-24T23:21:36.117;539787114086905530;285434;309093;232265;-1222;
2024-05-24T23:21:36.135;539787114105056913;285295;308950;232216;-1279;
2024-05-24T23:21:36.153;539787114123208296;285097;308689;232024;-1218;
2024-05-24T23:21:36.172;539787114141359679;284702;308313;231748;-1271;
2024-05-24T23:21:36.190;539787114159511062;284122;307727;231465;-1288;
2024-05-24T23:21:36.208;539787114177662445;283583;307177;231123;-1319;
2024-05-24T23:21:36.226;539787114195813828;283063;306575;230825;-1309;
2024-05-24T23:21:36.244;539787114213965211;282576;306118;230520;-1274;
2024-05-24T23:21:36.262;539787114232116594;282158;305732;230279;-1311;
2024-05-24T23:21:36.280;539787114250267977;281949;305525;230112;-1243;
2024-05-24T23:21:36.299;539787114268419360;281744;305344;230021;-1276;
2024-05-24T23:21:36.317;539787114286570743;281661;305258;230013;-1288;
2024-05-24T23:21:36.335;539787114304722126;281751;305326;230070;-1241;
2024-05-24T23:21:36.353;539787114322873509;281868;305482;230130;-1303;
2024-05-24T23:21:36.371;539787114341024892;281985;305660;230215;-1285;
2024-05-24T23:21:36.389;539787114359176275;282132;305834;230339;-1289;
2024-05-24T23:21:36.407;539787114377327658;282250;306004;230433;-1302;
2024-05-24T23:21:36.426;539787114395479016;282390;306142;230584;-1271;
2024-05-24T23:21:36.444;539787114413630340;282420;306244;230588;-1309;
2024-05-24T23:21:36.462;539787114431781664;282409;306333;230619;-1317;
2024-05-24T23:21:36.480;539787114449932988;282444;306367;230702;-1244;
2024-05-24T23:21:36.498;539787114468084312;282466;306299;230648;-1250;
2024-05-24T23:21:36.516;539787114486235636;282382;306313;230674;-1303;
2024-05-24T23:21:36.535;539787114504386960;282365;306308;230716;-1287;
2024-05-24T23:21:36.553;539787114522538284;282283;306273;230738;-1314;
2024-05-24T23:21:36.571;539787114540689608;282250;306278;230664;-1268;
2024-05-24T23:21:36.589;539787114558840932;282223;306241;230719;-1322;
2024-05-24T23:21:36.607;539787114576992256;282242;306296;230824;-1263;
2024-05-24T23:21:36.625;539787114595143580;282219;306284;230815;-1265;
2024-05-24T23:21:36.643;539787114613294904;282266;306350;230833;-1312;
2024-05-24T23:21:36.662;539787114631446228;282270;306360;230810;-1277;
2024-05-24T23:21:36.680;539787114649597552;282291;306427;230910;-1335;
2024-05-24T23:21:36.698;539787114667748876;282329;306491;230949;-1351;
2024-05-24T23:21:36.716;539787114685900200;282406;306632;231023;-1344;
2024-05-24T23:21:36.734;539787114704051524;282441;306656;231044;-1338;
2024-05-24T23:21:36.752;539787114722202848;282532;306855;231129;-1312;
2024-05-24T23:21:36.771;539787114740354172;282592;306888;231177;-1287;
2024-05-24T23:21:36.789;539787114758505496;282655;306997;231273;-1305;
2024-05-24T23:21:36.807;539787114776656820;282708;307066;231310;-1260;
2024-05-24T23:21:36.825;539787114794808144;282787;307149;231418;-1289;
2024-05-24T23:21:36.843;539787114812959468;282798;307194;231492;-1296;
2024-05-24T23:21:36.861;539787114831110792;282855;307272;231478;-1304;
2024-05-24T23:21:36.879;539787114849262116;282940;307340;231562;-1240;
2024-05-24T23:21:36.898;539787114867413440;282945;307463;231582;-1291;
2024-05-24T23:21:36.916;539787114885564764;283011;307582;231681;-1228;
2024-05-24T23:21:36.934;539787114903716088;283008;307557;231646;-1305;
2024-05-24T23:21:36.952;539787114921867412;283030;307599;231713;-1319;
2024-05-24T23:21:36.970;539787114940018736;282966;307554;231727;-1341;
2024-05-24T23:21:36.988;539787114958170060;282751;307346;231601;-1293;
2024-05-24T23:21:37.006;539787114976321384;282396;307010;231447;-1314;
2024-05-24T23:21:37.025;539787114994472708;281946;306561;231166;-1303;
2024-05-24T23:21:37.043;539787115012624032;281453;306039;230864;-1342;
2024-05-24T23:21:37.061;539787115030775356;280990;305540;230595;-1311;
2024-05-24T23:21:37.079;539787115048926680;280475;305106;230293;-1331;
2024-05-24T23:21:37.097;539787115067078004;280103;304724;230058;-1341;
2024-05-24T23:21:37.115;539787115085229328;279856;304544;229956;-1307;
2024-05-24T23:21:37.134;539787115103380652;279710;304435;229850;-1262;
2024-05-24T23:21:37.152;539787115121531976;279668;304375;229856;-1282;
2024-05-24T23:21:37.170;539787115139685571;279694;304417;229837;-1290;
2024-05-24T23:21:37.188;539787115157839130;279775;304591;230010;-1270;
2024-05-24T23:21:37.206;539787115175992689;279928;304771;230169;-1336;
2024-05-24T23:21:37.224;539787115194146248;280014;304902;230234;-1336;
2024-05-24T23:21:37.242;539787115212299807;280320;305155;230366;-1309;
2024-05-24T23:21:37.261;539787115230453366;280402;305266;230403;-1352;
2024-05-24T23:21:37.279;539787115248606925;280526;305427;230567;-1302;
2024-05-24T23:21:37.297;539787115266760484;280615;305613;230594;-1297;
2024-05-24T23:21:37.315;539787115284914043;280647;305640;230664;-1334;
2024-05-24T23:21:37.333;539787115303067602;280687;305752;230733;-1317;
2024-05-24T23:21:37.351;539787115321221161;280627;305797;230782;-1307;
2024-05-24T23:21:37.370;539787115339374720;280662;305804;230770;-1318;
2024-05-24T23:21:37.388;539787115357528279;280678;305862;230756;-1345;
2024-05-24T23:21:37.406;539787115375681838;280702;305892;230810;-1344;
2024-05-24T23:21:37.424;539787115393835397;280740;305947;230883;-1324;
2024-05-24T23:21:37.442;539787115411988956;280848;306072;230955;-1277;
2024-05-24T23:21:37.460;539787115430142515;280766;306120;230969;-1295;
2024-05-24T23:21:37.478;539787115448296074;280734;306149;231004;-1390;
2024-05-24T23:21:37.497;539787115466449633;280836;306177;231084;-1310;
2024-05-24T23:21:37.515;539787115484603192;280935;306325;231141;-1337;
2024-05-24T23:21:37.533;539787115502756751;281032;306439;231265;-1322;
2024-05-24T23:21:37.551;539787115520910310;281071;306522;231255;-1327;
2024-05-24T23:21:37.569;539787115539063869;281204;306640;231409;-1312;
2024-05-24T23:21:37.587;539787115557217428;281244;306745;231390;-1331;
2024-05-24T23:21:37.606;539787115575370987;281330;306870;231446;-1344;
2024-05-24T23:21:37.624;539787115593524546;281446;306975;231617;-1320;
2024-05-24T23:21:37.642;539787115611678105;281492;307120;231640;-1424;
2024-05-24T23:21:37.660;539787115629831664;281595;307242;231728;-1336;
2024-05-24T23:21:37.678;539787115647985223;281691;307370;231831;-1296;
2024-05-24T23:21:37.696;539787115666138782;281756;307468;231864;-1318;
2024-05-24T23:21:37.714;539787115684292341;281874;307608;231953;-1363;
2024-05-24T23:21:37.733;539787115702445900;281867;307711;231985;-1379;
2024-05-24T23:21:37.751;539787115720599459;281929;307780;231978;-1397;
2024-05-24T23:21:37.769;539787115738753018;282029;307887;232054;-1372;
2024-05-24T23:21:37.787;539787115756906577;282037;307897;232107;-1362;
2024-05-24T23:21:37.805;539787115775060136;282100;308035;232193;-1319;
2024-05-24T23:21:37.823;539787115793213695;282124;308097;232183;-1380;
2024-05-24T23:21:37.842;539787115811367254;282136;308035;232214;-1387;
2024-05-24T23:21:37.860;539787115829520813;282019;308008;232189;-1327;
2024-05-24T23:21:37.878;539787115847674372;281800;307763;232037;-1355;
2024-05-24T23:21:37.896;539787115865827931;281405;307423;231825;-1342;
2024-05-24T23:21:37.914;539787115883981490;280957;307010;231597;-1348;
2024-05-24T23:21:37.932;539787115902135134;280583;306584;231331;-1304;
2024-05-24T23:21:37.950;539787115920288766;280101;306197;231100;-1357;
2024-05-24T23:21:37.969;539787115938442398;279840;305840;230937;-1357;
2024-05-24T23:21:37.987;539787115956596030;279529;305600;230790;-1334;
2024-05-24T23:21:38.005;539787115974749662;279441;305505;230663;-1347;
2024-05-24T23:21:38.023;539787115992903294;279364;305473;230697;-1372;
2024-05-24T23:21:38.041;539787116011056926;279409;305550;230724;-1391;
2024-05-24T23:21:38.059;539787116029210558;279488;305684;230844;-1326;
2024-05-24T23:21:38.078;539787116047364190;279627;305831;230924;-1292;
2024-05-24T23:21:38.096;539787116065517822;279848;306023;231070;-1341;
2024-05-24T23:21:38.114;539787116083671454;280032;306262;231125;-1325;
2024-05-24T23:21:38.132;539787116101825086;280212;306455;231288;-1342;
2024-05-24T23:21:38.150;539787116119978718;280317;306665;231343;-1363;
2024-05-24T23:21:38.168;539787116138132350;280406;306793;231472;-1359;
2024-05-24T23:21:38.186;539787116156285982;280564;306980;231587;-1350;
2024-05-24T23:21:38.205;539787116174439614;280657;307061;231583;-1377;
2024-05-24T23:21:38.223;539787116192593246;280713;307114;231634;-1331;
2024-05-24T23:21:38.241;539787116210746878;280657;307185;231696;-1355;
2024-05-24T23:21:38.259;539787116228900510;280747;307269;231796;-1284;
2024-05-24T23:21:38.277;539787116247054142;280761;307315;231762;-1304;
2024-05-24T23:21:38.295;539787116265207774;280940;307375;231897;-1307;
2024-05-24T23:21:38.314;539787116283361406;280853;307390;231838;-1313;
2024-05-24T23:21:38.332;539787116301515038;280936;307541;231908;-1316;
2024-05-24T23:21:38.350;539787116319668670;281012;307597;231950;-1295;
2024-05-24T23:21:38.368;539787116337822302;281054;307686;232082;-1340;
2024-05-24T23:21:38.386;539787116355975934;281169;307861;232093;-1303;
2024-05-24T23:21:38.404;539787116374129566;281173;307916;232155;-1372;
2024-05-24T23:21:38.422;539787116392283198;281313;308056;232254;-1286;
2024-05-24T23:21:38.441;539787116410436830;281401;308112;232309;-1322;
2024-05-24T23:21:38.459;539787116428590462;281503;308235;232316;-1323;
2024-05-24T23:21:38.477;539787116446744094;281592;308383;232451;-1360;
2024-05-24T23:21:38.495;539787116464897726;281716;308547;232559;-1336;
2024-05-24T23:21:38.513;539787116483051358;281807;308681;232631;-1314;
2024-05-24T23:21:38.531;539787116501204990;281928;308816;232724;-1314;
2024-05-24T23:21:38.550;539787116519358622;282100;308905;232755;-1309;
2024-05-24T23:21:38.568;539787116537512254;282107;308981;232776;-1345;
2024-05-24T23:21:38.586;539787116555665886;282157;309104;232908;-1282;
2024-05-24T23:21:38.604;539787116573819518;282240;309227;232941;-1316;
2024-05-24T23:21:38.622;539787116591973150;282343;309367;232999;-1337;
2024-05-24T23:21:38.640;539787116610126782;282392;309400;233093;-1409;
2024-05-24T23:21:38.658;539787116628280414;282456;309550;233157;-1331;
2024-05-24T23:21:38.677;539787116646434046;282549;309623;233191;-1306;
2024-05-24T23:21:38.695;539787116664587522;282700;309721;233263;-1344;
2024-05-24T23:21:38.713;539787116682740972;282760;309872;233310;-1365;
2024-05-24T23:21:38.731;539787116700894422;282769;309890;233273;-1375;
2024-05-24T23:21:38.749;539787116719047872;282749;309878;233340;-1342;
2024-05-24T23:21:38.767;539787116737201322;282668;309744;233217;-1314;
2024-05-24T23:21:38.786;539787116755354772;282431;309549;233092;-1386;
2024-05-24T23:21:38.804;539787116773508222;282123;309241;232915;-1351;
2024-05-24T23:21:38.822;539787116791661672;281731;308857;232692;-1364;
2024-05-24T23:21:38.840;539787116809815122;281409;308496;232516;-1306;
2024-05-24T23:21:38.858;539787116827968572;281116;308174;232252;-1365;
2024-05-24T23:21:38.876;539787116846122022;280899;307959;232132;-1304;
2024-05-24T23:21:38.894;539787116864275472;280730;307822;232026;-1320;
2024-05-24T23:21:38.913;539787116882428922;280725;307867;232045;-1346;
2024-05-24T23:21:38.931;539787116900582372;280696;307928;232080;-1300;
2024-05-24T23:21:38.949;539787116918735822;280784;307971;232115;-1330;
2024-05-24T23:21:38.967;539787116936889272;280942;308076;232150;-1326;
2024-05-24T23:21:38.985;539787116955042722;281034;308227;232232;-1340;
2024-05-24T23:21:39.003;539787116973196172;281214;308469;232395;-1343;
2024-05-24T23:21:39.022;539787116991349622;281406;308673;232491;-1340;
2024-05-24T23:21:39.040;539787117009503072;281560;308835;232591;-1353;
2024-05-24T23:21:39.058;539787117027656522;281798;308976;232708;-1290;
2024-05-24T23:21:39.076;539787117045809972;281856;309070;232795;-1322;
2024-05-24T23:21:39.094;539787117063963422;281894;309182;232785;-1311;
2024-05-24T23:21:39.112;539787117082116872;281959;309279;232842;-1336;
2024-05-24T23:21:39.130;539787117100270322;282018;309391;232886;-1375;
2024-05-24T23:21:39.149;539787117118423772;282074;309433;232910;-1284;
2024-05-24T23:21:39.167;539787117136577222;282101;309535;233023;-1294;
2024-05-24T23:21:39.185;539787117154730672;282140;309549;233044;-1358;
2024-05-24T23:21:39.203;539787117172884122;282194;309573;232996;-1389;
2024-05-24T23:21:39.221;539787117191037572;282277;309680;233059;-1376;
2024-05-24T23:21:39.239;539787117209191022;282331;309798;233092;-1346;
2024-05-24T23:21:39.258;539787117227344472;282407;309839;233095;-1293;
2024-05-24T23:21:39.276;539787117245497922;282533;309929;233211;-1324;
2024-05-24T23:21:39.294;539787117263651372;282616;310065;233313;-1327;
2024-05-24T23:21:39.312;539787117281804822;282655;310154;233324;-1376;
2024-05-24T23:21:39.330;539787117299958272;282736;310223;233402;-1361;
2024-05-24T23:21:39.348;539787117318111722;282834;310359;233464;-1355;
2024-05-24T23:21:39.366;539787117336265172;283005;310521;233564;-1386;
2024-05-24T23:21:39.385;539787117354418622;283105;310581;233643;-1345;
2024-05-24T23:21:39.403;539787117372572072;283263;310791;233730;-1361;
2024-05-24T23:21:39.421;539787117390725522;283333;310919;233801;-1299;
2024-05-24T23:21:39.439;539787117408878972;283420;311043;233881;-1360;
2024-05-24T23:21:39.457;539787117427031094;283491;311103;233916;-1371;
2024-05-24T23:21:39.475;539787117445183200;283591;311180;233983;-1361;
2024-05-24T23:21:39.493;539787117463335306;283740;311323;234025;-1295;
2024-05-24T23:21:39.512;539787117481487412;283836;311364;234037;-1338;
2024-05-24T23:21:39.530;539787117499639518;283895;311520;234116;-1341;
2024-05-24T23:21:39.548;539787117517791624;283914;311579;234186;-1371;
2024-05-24T23:21:39.566;539787117535943730;283997;311742;234323;-1303;
2024-05-24T23:21:39.584;539787117554095836;284144;311812;234346;-1330;
2024-05-24T23:21:39.602;539787117572247942;284231;311910;234404;-1338;
2024-05-24T23:21:39.621;539787117590400048;284286;311915;234388;-1342;
2024-05-24T23:21:39.639;539787117608552154;284281;311894;234417;-1320;
2024-05-24T23:21:39.657;539787117626704260;284198;311805;234327;-1312;
2024-05-24T23:21:39.675;539787117644856366;283932;311583;234124;-1363;
2024-05-24T23:21:39.693;539787117663008472;283632;311291;233939;-1324;
2024-05-24T23:21:39.711;539787117681160578;283418;311023;233773;-1342;
2024-05-24T23:21:39.729;539787117699312684;283129;310703;233573;-1339;
2024-05-24T23:21:39.748;539787117717464790;282894;310408;233437;-1340;
2024-05-24T23:21:39.766;539787117735616896;282760;310196;233247;-1350;
2024-05-24T23:21:39.784;539787117753769002;282624;310037;233170;-1333;
2024-05-24T23:21:39.802;539787117771921108;282586;310040;233160;-1386;
2024-05-24T23:21:39.820;539787117790073214;282582;310082;233165;-1318;
2024-05-24T23:21:39.838;539787117808225320;282677;310116;233213;-1362;
2024-05-24T23:21:39.857;539787117826377426;282796;310302;233318;-1316;
2024-05-24T23:21:39.875;539787117844529532;283003;310353;233407;-1395;
2024-05-24T23:21:39.893;539787117862681638;283140;310559;233468;-1351;
2024-05-24T23:21:39.911;539787117880833744;283299;310678;233543;-1296;
2024-05-24T23:21:39.929;539787117898985850;283474;310813;233640;-1334;
2024-05-24T23:21:39.947;539787117917137956;283520;310935;233684;-1325;
2024-05-24T23:21:39.965;539787117935290062;283636;311050;233712;-1307;
2024-05-24T23:21:39.984;539787117953442168;283715;311080;233761;-1353;
2024-05-24T23:21:40.002;539787117971594274;283734;311235;233910;-1293;
2024-05-24T23:21:40.020;539787117989746380;283757;311225;233825;-1287;
2024-05-24T23:21:40.038;539787118007898486;283858;311331;233842;-1326;
2024-05-24T23:21:40.056;539787118026050592;283875;311398;233888;-1338;
2024-05-24T23:21:40.074;539787118044202698;283911;311374;233968;-1336;
2024-05-24T23:21:40.093;539787118062354804;283921;311498;233934;-1296;
2024-05-24T23:21:40.111;539787118080506910;284012;311532;233983;-1316;
2024-05-24T23:21:40.129;539787118098659016;284080;311555;234035;-1308;
2024-05-24T23:21:40.147;539787118116811122;284180;311632;234037;-1316;
2024-05-24T23:21:40.165;539787118134963228;284251;311731;234099;-1336;
