Phone timestamp;sensor timestamp [ns];channel 0;channel 1;channel 2;ambient
2024-05-25T23:01:42.335;539872321047711203;367623;367752;332621;172293;
2024-05-25T23:01:42.353;539872321065862728;367757;367972;332680;172312;
2024-05-25T23:01:42.371;539872321084014253;367976;368159;332761;172318;
2024-05-25T23:01:42.389;539872321102165778;368094;368291;332821;172328;
2024-05-25T23:01:42.407;539872321120317303;368176;368384;332868;172290;
2024-05-25T23:01:42.425;539872321138468828;368246;368459;332890;172316;
2024-05-25T23:01:42.443;539872321156620353;368329;368504;332962;172340;
2024-05-25T23:01:42.462;539872321174771878;368365;368554;333003;172260;
2024-05-25T23:01:42.480;539872321192923403;368431;368622;332994;172294;
2024-05-25T23:01:42.498;539872321211074928;368458;368636;333020;172360;
2024-05-25T23:01:42.516;539872321229226453;368468;368684;333077;172319;
2024-05-25T23:01:42.534;539872321247377978;368518;368707;333017;172308;
2024-05-25T23:01:42.552;539872321265529503;368520;368728;332984;172311;
2024-05-25T23:01:42.570;539872321283681028;368540;368790;333002;172343;
2024-05-25T23:01:42.589;539872321301832553;368610;368807;332996;172316;
2024-05-25T23:01:42.607;539872321319984078;368580;368826;333051;172283;
2024-05-25T23:01:42.625;539872321338135603;368576;368827;333022;172302;
2024-05-25T23:01:42.643;539872321356287128;368486;368704;332965;172349;
2024-05-25T23:01:42.661;539872321374438653;368259;368424;332791;172344;
2024-05-25T23:01:42.679;539872321392590178;367921;368053;332618;172287;
2024-05-25T23:01:42.698;539872321410741703;367760;367884;332594;172315;
2024-05-25T23:01:42.716;539872321428893228;367552;367705;332437;172304;
2024-05-25T23:01:42.734;539872321447044753;367413;367592;332411;172371;
2024-05-25T23:01:42.752;539872321465196278;367426;367505;332384;172337;
2024-05-25T23:01:42.770;539872321483347803;367458;367520;332332;172325;
2024-05-25T23:01:42.788;539872321501499328;367567;367631;332452;172304;
2024-05-25T23:01:42.806;539872321519650853;367650;367804;332502;172270;
2024-05-25T23:01:42.825;539872321537802378;367816;367993;332568;172320;
2024-05-25T23:01:42.843;539872321555953903;367989;368095;332627;172327;
2024-05-25T23:01:42.861;539872321574105428;368165;368273;332764;172373;
2024-05-25T23:01:42.879;539872321592256953;368309;368454;332828;172353;
2024-05-25T23:01:42.897;539872321610408478;368321;368508;332870;172343;
2024-05-25T23:01:42.915;539872321628560003;368455;368579;332899;172331;
2024-05-25T23:01:42.934;539872321646711528;368543;368739;332959;172341;
2024-05-25T23:01:42.952;539872321664863053;368586;368780;332996;172337;
2024-05-25T23:01:42.970;539872321683014578;368680;368858;332992;172283;
2024-05-25T23:01:42.988;539872321701166103;368672;368815;333035;172317;
2024-05-25T23:01:43.006;539872321719317628;368769;368911;333050;172264;
2024-05-25T23:01:43.024;539872321737469153;368744;368908;333063;172297;
2024-05-25T23:01:43.042;539872321755620678;368789;368944;333090;172285;
2024-05-25T23:01:43.061;539872321773772203;368805;368932;333086;172234;
2024-05-25T23:01:43.079;539872321791923728;368816;368916;333111;172342;
2024-05-25T23:01:43.097;539872321810075257;368815;368942;333077;172341;
2024-05-25T23:01:43.115;539872321828226782;368824;368986;333111;172350;
2024-05-25T23:01:43.133;539872321846378307;368815;368928;333057;172378;
2024-05-25T23:01:43.151;539872321864529832;368727;368902;332994;172404;
2024-05-25T23:01:43.169;539872321882681357;368500;368663;332876;172316;
2024-05-25T23:01:43.188;539872321900832882;368342;368436;332810;172356;
2024-05-25T23:01:43.206;539872321918984407;368082;368226;332698;172344;
2024-05-25T23:01:43.224;539872321937135932;367953;367976;332586;172318;
2024-05-25T23:01:43.242;539872321955287457;367776;367889;332505;172278;
2024-05-25T23:01:43.260;539872321973438982;367770;367839;332525;172321;
2024-05-25T23:01:43.278;539872321991590507;367793;367846;332493;172370;
2024-05-25T23:01:43.297;539872322009742032;367905;367887;332570;172340;
2024-05-25T23:01:43.315;539872322027893557;367987;368024;332582;172332;
2024-05-25T23:01:43.333;539872322046045082;368138;368209;332682;172332;
2024-05-25T23:01:43.351;539872322064196607;368253;368373;332708;172327;
2024-05-25T23:01:43.369;539872322082348132;368454;368575;332794;172349;
2024-05-25T23:01:43.387;539872322100499657;368568;368693;332904;172338;
2024-05-25T23:01:43.405;539872322118651182;368729;368861;333011;172349;
2024-05-25T23:01:43.424;539872322136802707;368854;368919;333070;172333;
2024-05-25T23:01:43.442;539872322154954232;369019;369050;333150;172341;
2024-05-25T23:01:43.460;539872322173105757;369025;369121;333225;172309;
2024-05-25T23:01:43.478;539872322191257282;369103;369190;333171;172280;
2024-05-25T23:01:43.496;539872322209408807;369189;369259;333213;172333;
2024-05-25T23:01:43.514;539872322227560332;369201;369375;333234;172317;
2024-05-25T23:01:43.533;539872322245711857;369219;369373;333253;172292;
2024-05-25T23:01:43.551;539872322263863382;369271;369370;333259;172302;
2024-05-25T23:01:43.569;539872322282014907;369340;369449;333232;172312;
2024-05-25T23:01:43.587;539872322300166432;369389;369548;333327;172282;
2024-05-25T23:01:43.605;539872322318317957;369454;369603;333304;172327;
2024-05-25T23:01:43.623;539872322336469482;369446;369591;333354;172352;
2024-05-25T23:01:43.641;539872322354621007;369499;369631;333413;172331;
2024-05-25T23:01:43.660;539872322372772532;369523;369646;333330;172370;
2024-05-25T23:01:43.678;539872322390924057;369477;369560;333336;172335;
2024-05-25T23:01:43.696;539872322409075582;369232;369300;333198;172332;
2024-05-25T23:01:43.714;539872322427227107;368947;369084;333055;172298;
2024-05-25T23:01:43.732;539872322445378632;368745;368879;332943;172320;
2024-05-25T23:01:43.750;539872322463530157;368646;368727;332912;172322;
2024-05-25T23:01:43.768;539872322481681682;368545;368655;332807;172334;
2024-05-25T23:01:43.787;539872322499833207;368498;368589;332780;172339;
2024-05-25T23:01:43.805;539872322517984732;368579;368647;332824;172295;
2024-05-25T23:01:43.823;539872322536136257;368608;368757;332866;172369;
2024-05-25T23:01:43.841;539872322554287782;368812;368830;332961;172341;
2024-05-25T23:01:43.859;539872322572442124;368965;369064;333090;172375;
2024-05-25T23:01:43.877;539872322590596466;369140;369208;333154;172289;
2024-05-25T23:01:43.896;539872322608750808;369262;369361;333230;172315;
2024-05-25T23:01:43.914;539872322626905150;369438;369525;333341;172369;
2024-05-25T23:01:43.932;539872322645059492;369463;369663;333351;172323;
2024-05-25T23:01:43.950;539872322663213834;369528;369697;333395;172329;
2024-05-25T23:01:43.968;539872322681368176;369593;369758;333397;172341;
2024-05-25T23:01:43.986;539872322699522518;369605;369858;333412;172288;
2024-05-25T23:01:44.004;539872322717676860;369754;369902;333524;172336;
2024-05-25T23:01:44.023;539872322735831202;369746;369977;333486;172308;
2024-05-25T23:01:44.041;539872322753985544;369818;369983;333506;172322;
2024-05-25T23:01:44.059;539872322772139886;369783;369984;333503;172307;
2024-05-25T23:01:44.077;539872322790294228;369863;370008;333480;172291;
2024-05-25T23:01:44.095;539872322808448570;369910;370022;333457;172325;
2024-05-25T23:01:44.113;539872322826602912;369893;370064;333583;172283;
2024-05-25T23:01:44.132;539872322844757254;369971;370126;333624;172368;
2024-05-25T23:01:44.150;539872322862911596;369915;370117;333589;172311;
2024-05-25T23:01:44.168;539872322881065938;369945;370154;333608;172345;
2024-05-25T23:01:44.186;539872322899220280;369895;370139;333598;172314;
2024-05-25T23:01:44.204;539872322917374622;369754;369919;333478;172340;
2024-05-25T23:01:44.222;539872322935528964;369481;369635;333364;172297;
2024-05-25T23:01:44.240;539872322953683306;369319;369465;333182;172283;
2024-05-25T23:01:44.259;539872322971837648;369208;369307;333133;172249;
2024-05-25T23:01:44.277;539872322989991990;368995;369207;333077;172302;
2024-05-25T23:01:44.295;539872323008146332;368969;369189;333072;172309;
2024-05-25T23:01:44.313;539872323026300674;369017;369145;333079;172304;
2024-05-25T23:01:44.331;539872323044455016;369058;369266;333102;172315;
2024-05-25T23:01:44.349;539872323062609358;369198;369378;333205;172293;
2024-05-25T23:01:44.368;539872323080763700;369358;369592;333256;172272;
2024-05-25T23:01:44.386;539872323098918042;369526;369751;333375;172288;
2024-05-25T23:01:44.404;539872323117072384;369714;369859;333494;172338;
2024-05-25T23:01:44.422;539872323135226726;369814;370014;333517;172327;
2024-05-25T23:01:44.440;539872323153381068;369860;370134;333510;172326;
2024-05-25T23:01:44.458;539872323171535410;369993;370222;333573;172329;
2024-05-25T23:01:44.476;539872323189689752;370025;370224;333563;172339;
2024-05-25T23:01:44.495;539872323207844094;370150;370376;333661;172317;
2024-05-25T23:01:44.513;539872323225998436;370180;370392;333710;172346;
2024-05-25T23:01:44.531;539872323244152778;370240;370441;333756;172309;
2024-05-25T23:01:44.549;539872323262307120;370223;370498;333759;172326;
2024-05-25T23:01:44.567;539872323280461462;370260;370515;333800;172334;
2024-05-25T23:01:44.585;539872323298615804;370260;370564;333777;172320;
2024-05-25T23:01:44.604;539872323316770146;370308;370547;333761;172328;
2024-05-25T23:01:44.622;539872323334924488;370380;370615;333747;172355;
2024-05-25T23:01:44.640;539872323353077805;370355;370653;333832;172355;
2024-05-25T23:01:44.658;539872323371231110;370363;370665;333824;172333;
2024-05-25T23:01:44.676;539872323389384415;370415;370640;333832;172359;
2024-05-25T23:01:44.694;539872323407537720;370197;370529;333788;172319;
2024-05-25T23:01:44.712;539872323425691025;370000;370392;333698;172363;
2024-05-25T23:01:44.731;539872323443844330;369766;370077;333481;172304;
2024-05-25T23:01:44.749;539872323461997635;369529;369844;333378;172342;
2024-05-25T23:01:44.767;539872323480150940;369304;369609;333259;172344;
2024-05-25T23:01:44.785;539872323498304245;369244;369532;333168;172333;
2024-05-25T23:01:44.803;539872323516457550;369193;369495;333185;172321;
2024-05-25T23:01:44.821;539872323534610855;369280;369546;333223;172359;
2024-05-25T23:01:44.840;539872323552764160;369376;369655;333295;172335;
2024-05-25T23:01:44.858;539872323570917465;369493;369724;333303;172294;
2024-05-25T23:01:44.876;539872323589070770;369654;369956;333419;172304;
2024-05-25T23:01:44.894;539872323607224075;369790;370145;333526;172335;
2024-05-25T23:01:44.912;539872323625377380;370024;370315;333643;172367;
2024-05-25T23:01:44.930;539872323643530685;370165;370440;333737;172390;
2024-05-25T23:01:44.948;539872323661683990;370257;370532;333786;172377;
2024-05-25T23:01:44.967;539872323679837295;370262;370537;333751;172286;
2024-05-25T23:01:44.985;539872323697990600;370307;370619;333834;172349;
2024-05-25T23:01:45.003;539872323716143905;370353;370690;333887;172309;
2024-05-25T23:01:45.021;539872323734297210;370316;370672;333850;172314;
2024-05-25T23:01:45.039;539872323752450515;370324;370684;333844;172246;
2024-05-25T23:01:45.057;539872323770603820;370347;370696;333857;172334;
2024-05-25T23:01:45.076;539872323788757125;370348;370692;333850;172318;
2024-05-25T23:01:45.094;539872323806910430;370327;370600;333837;172338;
2024-05-25T23:01:45.112;539872323825063735;370331;370677;333787;172308;
2024-05-25T23:01:45.130;539872323843217040;370236;370599;333796;172326;
2024-05-25T23:01:45.148;539872323861370345;370241;370616;333780;172336;
2024-05-25T23:01:45.166;539872323879523650;370244;370592;333806;172308;
2024-05-25T23:01:45.184;539872323897676955;370181;370529;333821;172379;
2024-05-25T23:01:45.203;539872323915830260;369964;370301;333698;172276;
2024-05-25T23:01:45.221;539872323933983565;369650;370069;333551;172367;
2024-05-25T23:01:45.239;539872323952136870;369390;369772;333393;172335;
2024-05-25T23:01:45.257;539872323970290175;369144;369519;333200;172284;
2024-05-25T23:01:45.275;539872323988443480;368930;369384;333147;172321;
2024-05-25T23:01:45.293;539872324006596785;368842;369253;333092;172370;
2024-05-25T23:01:45.312;539872324024750090;368871;369233;333051;172325;
2024-05-25T23:01:45.330;539872324042903395;368884;369243;333079;172277;
2024-05-25T23:01:45.348;539872324061056700;369088;369433;333213;172368;
2024-05-25T23:01:45.366;539872324079210005;369179;369604;333252;172351;
2024-05-25T23:01:45.384;539872324097363310;369378;369812;333354;172368;
2024-05-25T23:01:45.402;539872324115514721;369548;369937;333492;172371;
2024-05-25T23:01:45.420;539872324133666100;369684;370107;333562;172299;
2024-05-25T23:01:45.439;539872324151817479;369873;370237;333598;172373;
2024-05-25T23:01:45.457;539872324169968858;369981;370398;333675;172323;
2024-05-25T23:01:45.475;539872324188120237;370092;370461;333738;172345;
2024-05-25T23:01:45.493;539872324206271616;370103;370549;333842;172283;
2024-05-25T23:01:45.511;539872324224422995;370140;370574;333852;172297;
2024-05-25T23:01:45.529;539872324242574374;370224;370625;333882;172322;
2024-05-25T23:01:45.548;539872324260725753;370274;370657;333844;172312;
2024-05-25T23:01:45.566;539872324278877132;370282;370689;333885;172378;
2024-05-25T23:01:45.584;539872324297028511;370312;370727;333808;172303;
2024-05-25T23:01:45.602;539872324315179890;370341;370775;333888;172353;
2024-05-25T23:01:45.620;539872324333331269;370308;370816;333924;172302;
2024-05-25T23:01:45.638;539872324351482648;370326;370876;333975;172327;
2024-05-25T23:01:45.656;539872324369634027;370348;370899;333977;172317;
2024-05-25T23:01:45.675;539872324387785406;370426;370917;333961;172363;
2024-05-25T23:01:45.693;539872324405936785;370352;370828;333942;172328;
2024-05-25T23:01:45.711;539872324424088164;370137;370685;333848;172350;
2024-05-25T23:01:45.729;539872324442239543;369909;370424;333749;172297;
2024-05-25T23:01:45.747;539872324460390922;369680;370156;333601;172319;
2024-05-25T23:01:45.765;539872324478542301;369488;369979;333518;172367;
2024-05-25T23:01:45.783;539872324496693680;369379;369825;333446;172329;
2024-05-25T23:01:45.802;539872324514845059;369310;369762;333449;172316;
2024-05-25T23:01:45.820;539872324532996438;369340;369840;333463;172332;
2024-05-25T23:01:45.838;539872324551147817;369384;369851;333471;172334;
2024-05-25T23:01:45.856;539872324569299196;369539;369953;333556;172283;
2024-05-25T23:01:45.874;539872324587450575;369648;370099;333589;172273;
2024-05-25T23:01:45.892;539872324605601954;369891;370365;333728;172316;
2024-05-25T23:01:45.911;539872324623753333;369954;370447;333796;172284;
2024-05-25T23:01:45.929;539872324641904712;370166;370694;333917;172345;
2024-05-25T23:01:45.947;539872324660056091;370311;370822;333977;172280;
2024-05-25T23:01:45.965;539872324678207470;370455;370936;334028;172309;
2024-05-25T23:01:45.983;539872324696358849;370527;371037;334136;172309;
2024-05-25T23:01:46.001;539872324714510228;370567;371087;334153;172310;
2024-05-25T23:01:46.019;539872324732661607;370662;371161;334192;172295;
2024-05-25T23:01:46.038;539872324750812986;370668;371220;334222;172291;
2024-05-25T23:01:46.056;539872324768964365;370688;371268;334235;172301;
2024-05-25T23:01:46.074;539872324787115744;370736;371257;334251;172322;
2024-05-25T23:01:46.092;539872324805267123;370735;371324;334277;172369;
2024-05-25T23:01:46.110;539872324823418502;370722;371319;334274;172308;
2024-05-25T23:01:46.128;539872324841569881;370755;371365;334272;172354;
2024-05-25T23:01:46.147;539872324859721260;370709;371351;334240;172343;
2024-05-25T23:01:46.165;539872324877872671;370816;371357;334264;172352;
2024-05-25T23:01:46.183;539872324896024050;370851;371361;334289;172353;
2024-05-25T23:01:46.201;539872324914175429;370725;371320;334280;172378;
2024-05-25T23:01:46.219;539872324932326808;370546;371063;334160;172367;
2024-05-25T23:01:46.237;539872324950478187;370295;370824;334020;172324;
2024-05-25T23:01:46.255;539872324968629566;370085;370699;333961;172303;
2024-05-25T23:01:46.274;539872324986780945;369968;370512;333820;172343;
2024-05-25T23:01:46.292;539872325004932324;369769;370347;333799;172338;
2024-05-25T23:01:46.310;539872325023083703;369778;370324;333791;172383;
2024-05-25T23:01:46.328;539872325041235082;369796;370414;333774;172356;
2024-05-25T23:01:46.346;539872325059386461;369935;370461;333854;172358;
2024-05-25T23:01:46.364;539872325077537840;370064;370572;333965;172402;
2024-05-25T23:01:46.382;539872325095689219;370159;370738;334022;172375;
2024-05-25T23:01:46.401;539872325113840598;370410;370949;334121;172306;
2024-05-25T23:01:46.419;539872325131991977;370556;371092;334204;172368;
2024-05-25T23:01:46.437;539872325150143356;370686;371230;334261;172314;
2024-05-25T23:01:46.455;539872325168294735;370772;371286;334302;172340;
2024-05-25T23:01:46.473;539872325186446114;370812;371376;334367;172332;
2024-05-25T23:01:46.491;539872325204597493;370855;371385;334411;172322;
2024-05-25T23:01:46.510;539872325222748872;370873;371434;334419;172348;
2024-05-25T23:01:46.528;539872325240900251;370866;371477;334382;172317;
2024-05-25T23:01:46.546;539872325259051630;370902;371472;334443;172325;
2024-05-25T23:01:46.564;539872325277203009;370911;371452;334427;172343;
2024-05-25T23:01:46.582;539872325295354388;370908;371417;334394;172327;
2024-05-25T23:01:46.600;539872325313505767;370905;371470;334409;172337;
2024-05-25T23:01:46.618;539872325331657146;370939;371490;334384;172303;
2024-05-25T23:01:46.637;539872325349808525;370978;371501;334431;172306;
2024-05-25T23:01:46.655;539872325367959904;370934;371542;334449;172317;
2024-05-25T23:01:46.673;539872325386111283;370932;371536;334431;172358;
2024-05-25T23:01:46.691;539872325404262662;370880;371504;334436;172370;
2024-05-25T23:01:46.709;539872325422414041;370775;371409;334471;172329;
2024-05-25T23:01:46.727;539872325440565420;370586;371204;334316;172351;
2024-05-25T23:01:46.746;539872325458716799;370352;370956;334127;172314;
2024-05-25T23:01:46.764;539872325476868178;370185;370727;334112;172321;
2024-05-25T23:01:46.782;539872325495019557;369985;370542;334045;172301;
2024-05-25T23:01:46.800;539872325513170936;369834;370331;333941;172300;
2024-05-25T23:01:46.818;539872325531322315;369745;370262;333901;172338;
2024-05-25T23:01:46.836;539872325549473694;369773;370313;333955;172343;
2024-05-25T23:01:46.854;539872325567625073;369907;370373;333974;172342;
2024-05-25T23:01:46.873;539872325585776452;369995;370573;334055;172317;
2024-05-25T23:01:46.891;539872325603927831;370142;370761;334156;172329;
2024-05-25T23:01:46.909;539872325622079210;370298;370865;334208;172385;
2024-05-25T23:01:46.927;539872325640230076;370403;371011;334271;172308;
2024-05-25T23:01:46.945;539872325658380910;370538;371132;334384;172339;
2024-05-25T23:01:46.963;539872325676531744;370645;371237;334407;172336;
2024-05-25T23:01:46.981;539872325694682578;370711;371305;334472;172353;
2024-05-25T23:01:47.000;539872325712833412;370672;371393;334513;172312;
2024-05-25T23:01:47.018;539872325730984246;370776;371410;334514;172344;
2024-05-25T23:01:47.036;539872325749135080;370832;371429;334453;172349;
2024-05-25T23:01:47.054;539872325767285914;370797;371470;334481;172323;
2024-05-25T23:01:47.072;539872325785436748;370794;371406;334472;172291;
2024-05-25T23:01:47.090;539872325803587582;370782;371460;334539;172321;
2024-05-25T23:01:47.109;539872325821738416;370790;371471;334486;172328;
2024-05-25T23:01:47.127;539872325839889250;370843;371490;334550;172289;
2024-05-25T23:01:47.145;539872325858040084;370783;371453;334522;172305;
2024-05-25T23:01:47.163;539872325876190918;370800;371471;334538;172314;
2024-05-25T23:01:47.181;539872325894341752;370819;371413;334489;172289;
2024-05-25T23:01:47.199;539872325912492586;370783;371421;334474;172310;
2024-05-25T23:01:47.217;539872325930643420;370578;371187;334381;172353;
2024-05-25T23:01:47.236;539872325948794254;370236;370899;334277;172354;
2024-05-25T23:01:47.254;539872325966945088;370029;370663;334091;172355;
2024-05-25T23:01:47.272;539872325985095922;369725;370336;333960;172374;
2024-05-25T23:01:47.290;539872326003246756;369529;370157;333927;172324;
2024-05-25T23:01:47.308;539872326021397590;369457;370026;333817;172370;
2024-05-25T23:01:47.326;539872326039548424;369418;370053;333822;172326;
2024-05-25T23:01:47.344;539872326057699258;369408;370030;333848;172334;
2024-05-25T23:01:47.363;539872326075850092;369454;370119;333848;172322;
2024-05-25T23:01:47.381;539872326094000926;369624;370252;333943;172369;
2024-05-25T23:01:47.399;539872326112151760;369813;370412;334011;172346;
2024-05-25T23:01:47.417;539872326130302594;369925;370554;333985;172304;
2024-05-25T23:01:47.435;539872326148453428;370025;370702;334108;172291;
2024-05-25T23:01:47.453;539872326166604262;370130;370812;334268;172314;
2024-05-25T23:01:47.472;539872326184755096;370149;370901;334242;172276;
2024-05-25T23:01:47.490;539872326202905930;370265;370951;334342;172316;
2024-05-25T23:01:47.508;539872326221056764;370339;371037;334356;172359;
2024-05-25T23:01:47.526;539872326239207598;370343;370999;334306;172293;
2024-05-25T23:01:47.544;539872326257358432;370370;371050;334384;172303;
2024-05-25T23:01:47.562;539872326275509266;370379;370972;334334;172332;
2024-05-25T23:01:47.580;539872326293660100;370417;371058;334318;172374;
2024-05-25T23:01:47.599;539872326311810934;370352;371017;334343;172387;
2024-05-25T23:01:47.617;539872326329961768;370353;370994;334327;172337;
2024-05-25T23:01:47.635;539872326348112602;370317;371041;334333;172338;
2024-05-25T23:01:47.653;539872326366263436;370360;371002;334352;172316;
2024-05-25T23:01:47.671;539872326384414270;370366;371029;334358;172304;
2024-05-25T23:01:47.689;539872326402565581;370380;371021;334373;172258;
2024-05-25T23:01:47.708;539872326420716888;370195;370942;334286;172316;
2024-05-25T23:01:47.726;539872326438868195;369977;370668;334153;172297;
2024-05-25T23:01:47.744;539872326457019502;369716;370415;334050;172314;
2024-05-25T23:01:47.762;539872326475170809;369413;370157;333907;172345;
2024-05-25T23:01:47.780;539872326493322116;369169;369837;333670;172316;
2024-05-25T23:01:47.798;539872326511473423;368946;369613;333618;172254;
2024-05-25T23:01:47.816;539872326529624730;368891;369558;333563;172290;
2024-05-25T23:01:47.835;539872326547776037;368909;369496;333591;172303;
2024-05-25T23:01:47.853;539872326565927344;368903;369601;333602;172301;
2024-05-25T23:01:47.871;539872326584078651;369061;369718;333672;172332;
2024-05-25T23:01:47.889;539872326602229958;369173;369813;333687;172300;
2024-05-25T23:01:47.907;539872326620381265;369374;369956;333806;172341;
2024-05-25T23:01:47.925;539872326638532572;369462;370117;333873;172302;
2024-05-25T23:01:47.943;539872326656683879;369635;370225;333956;172356;
2024-05-25T23:01:47.962;539872326674835186;369664;370310;333967;172342;
2024-05-25T23:01:47.980;539872326692986493;369730;370360;333999;172360;
2024-05-25T23:01:47.998;539872326711137800;369763;370462;334050;172300;
2024-05-25T23:01:48.016;539872326729289107;369800;370553;334023;172318;
2024-05-25T23:01:48.034;539872326747440414;369810;370547;334077;172290;
2024-05-25T23:01:48.052;539872326765591721;369853;370529;334060;172336;
2024-05-25T23:01:48.071;539872326783743028;369868;370556;334088;172325;
2024-05-25T23:01:48.089;539872326801894335;369853;370546;334081;172316;
2024-05-25T23:01:48.107;539872326820045642;369907;370569;334095;172294;
2024-05-25T23:01:48.125;539872326838196949;369863;370558;334028;172302;
2024-05-25T23:01:48.143;539872326856348256;369903;370563;334104;172348;
2024-05-25T23:01:48.161;539872326874499563;369857;370570;334051;172293;
2024-05-25T23:01:48.179;539872326892650870;369883;370582;334037;172277;
2024-05-25T23:01:48.198;539872326910802177;369829;370561;334041;172312;
2024-05-25T23:01:48.216;539872326928953484;369724;370443;333996;172307;
2024-05-25T23:01:48.234;539872326947104791;369458;370093;333811;172327;
2024-05-25T23:01:48.252;539872326965256098;369168;369836;333704;172323;
2024-05-25T23:01:48.270;539872326983407405;368863;369503;333589;172352;
2024-05-25T23:01:48.288;539872327001558712;368620;369199;333338;172305;
2024-05-25T23:01:48.306;539872327019710019;368521;369109;333312;172355;
2024-05-25T23:01:48.325;539872327037861326;368464;368979;333248;172298;
2024-05-25T23:01:48.343;539872327056012633;368443;369086;333272;172277;
2024-05-25T23:01:48.361;539872327074163940;368558;369119;333302;172312;
2024-05-25T23:01:48.379;539872327092315247;368729;369312;333420;172320;
2024-05-25T23:01:48.397;539872327110466554;368807;369482;333453;172328;
2024-05-25T23:01:48.415;539872327128617861;368955;369580;333566;172335;
2024-05-25T23:01:48.434;539872327146769168;369104;369738;333583;172284;
2024-05-25T23:01:48.452;539872327164921174;369203;369824;333653;172241;
2024-05-25T23:01:48.470;539872327183073174;369273;369946;333712;172314;
2024-05-25T23:01:48.488;539872327201225174;369417;369984;333764;172368;
2024-05-25T23:01:48.506;539872327219377174;369434;370088;333782;172331;
2024-05-25T23:01:48.524;539872327237529174;369365;370008;333732;172344;
2024-05-25T23:01:48.542;539872327255681174;369413;370061;333747;172345;
2024-05-25T23:01:48.561;539872327273833174;369456;370014;333757;172305;
2024-05-25T23:01:48.579;539872327291985174;369413;370002;333740;172307;
2024-05-25T23:01:48.597;539872327310137174;369462;370001;333744;172331;
2024-05-25T23:01:48.615;539872327328289174;369458;369992;333739;172271;
2024-05-25T23:01:48.633;539872327346441174;369462;370003;333726;172350;
2024-05-25T23:01:48.651;539872327364593174;369496;370008;333750;172358;
2024-05-25T23:01:48.670;539872327382745174;369452;370031;333729;172295;
2024-05-25T23:01:48.688;539872327400897174;369435;370017;333736;172306;
2024-05-25T23:01:48.706;539872327419049174;369359;369901;333675;172292;
2024-05-25T23:01:48.724;539872327437201174;369176;369746;333569;172301;
2024-05-25T23:01:48.742;539872327455353174;368937;369420;333414;172328;
2024-05-25T23:01:48.760;539872327473505174;368546;369118;333272;172331;
2024-05-25T23:01:48.778;539872327491657174;368312;368829;333074;172361;
2024-05-25T23:01:48.797;539872327509809174;368177;368684;333031;172318;
2024-05-25T23:01:48.815;539872327527961174;368029;368578;332995;172258;
2024-05-25T23:01:48.833;539872327546113174;368053;368589;333025;172352;
2024-05-25T23:01:48.851;539872327564265174;368108;368554;332993;172323;
2024-05-25T23:01:48.869;539872327582417174;368164;368725;333074;172365;
2024-05-25T23:01:48.887;539872327600569174;368312;368833;333039;172321;
2024-05-25T23:01:48.906;539872327618721174;368494;368959;333198;172281;
2024-05-25T23:01:48.924;539872327636873174;368611;369104;333206;172281;
2024-05-25T23:01:48.942;539872327655025174;368755;369269;333312;172263;
2024-05-25T23:01:48.960;539872327673177174;368864;369296;333411;172258;
2024-05-25T23:01:48.978;539872327691329174;368914;369438;333397;172297;
2024-05-25T23:01:48.996;539872327709481174;369010;369515;333452;172308;
2024-05-25T23:01:49.014;539872327727633174;369032;369513;333412;172306;
2024-05-25T23:01:49.033;539872327745785174;369044;369559;333453;172342;
2024-05-25T23:01:49.051;539872327763937174;369037;369554;333450;172327;
2024-05-25T23:01:49.069;539872327782089174;369018;369525;333472;172335;
2024-05-25T23:01:49.087;539872327800241174;369058;369502;333450;172297;
2024-05-25T23:01:49.105;539872327818393174;369051;369523;333435;172329;
2024-05-25T23:01:49.123;539872327836545174;369034;369484;333422;172309;
2024-05-25T23:01:49.141;539872327854697174;369064;369501;333426;172304;
2024-05-25T23:01:49.160;539872327872849174;369081;369548;333429;172293;
2024-05-25T23:01:49.178;539872327891001174;369096;369571;333422;172315;
2024-05-25T23:01:49.196;539872327909153174;369030;369517;333382;172333;
2024-05-25T23:01:49.214;539872327927305174;368894;369324;333354;172291;
2024-05-25T23:01:49.232;539872327945457237;368662;369052;333203;172369;
2024-05-25T23:01:49.250;539872327963609270;368358;368774;333045;172350;
2024-05-25T23:01:49.269;539872327981761303;368078;368476;332903;172308;
2024-05-25T23:01:49.287;539872327999913336;367931;368270;332773;172337;
2024-05-25T23:01:49.305;539872328018065369;367786;368183;332727;172325;
2024-05-25T23:01:49.323;539872328036217402;367713;368082;332660;172294;
2024-05-25T23:01:49.341;539872328054369435;367820;368180;332769;172335;
2024-05-25T23:01:49.359;539872328072521468;367898;368197;332762;172332;
2024-05-25T23:01:49.377;539872328090673501;368072;368400;332889;172329;
2024-05-25T23:01:49.396;539872328108825534;368178;368545;332932;172335;
2024-05-25T23:01:49.414;539872328126977567;368367;368723;332989;172321;
2024-05-25T23:01:49.432;539872328145129600;368539;368859;333137;172362;
2024-05-25T23:01:49.450;539872328163281633;368683;369005;333190;172323;
2024-05-25T23:01:49.468;539872328181433666;368721;369106;333168;172312;
2024-05-25T23:01:49.486;539872328199585699;368803;369176;333247;172339;
2024-05-25T23:01:49.505;539872328217737732;368910;369242;333277;172342;
2024-05-25T23:01:49.523;539872328235889765;368892;369229;333236;172334;
2024-05-25T23:01:49.541;539872328254041798;368955;369294;333333;172382;
2024-05-25T23:01:49.559;539872328272193831;368936;369256;333323;172354;
2024-05-25T23:01:49.577;539872328290345864;368936;369226;333298;172351;
2024-05-25T23:01:49.595;539872328308497897;368925;369238;333260;172302;
2024-05-25T23:01:49.613;539872328326649930;368901;369306;333256;172256;
2024-05-25T23:01:49.632;539872328344801963;368897;369300;333233;172334;
2024-05-25T23:01:49.650;539872328362953996;368883;369223;333190;172291;
2024-05-25T23:01:49.668;539872328381106029;368932;369273;333269;172351;
2024-05-25T23:01:49.686;539872328399258062;368903;369283;333285;172273;
2024-05-25T23:01:49.704;539872328417410095;368750;369101;333190;172328;
2024-05-25T23:01:49.722;539872328435562128;368518;368789;333038;172343;
2024-05-25T23:01:49.741;539872328453714161;368162;368494;332861;172292;
2024-05-25T23:01:49.759;539872328471866194;367893;368247;332684;172294;
2024-05-25T23:01:49.777;539872328490018227;367716;368008;332574;172293;
2024-05-25T23:01:49.795;539872328508170260;367567;367851;332558;172283;
2024-05-25T23:01:49.813;539872328526322293;367539;367802;332508;172328;
2024-05-25T23:01:49.831;539872328544474326;367493;367755;332477;172306;
2024-05-25T23:01:49.849;539872328562626359;367570;367806;332527;172319;
2024-05-25T23:01:49.868;539872328580778392;367689;367949;332595;172286;
2024-05-25T23:01:49.886;539872328598930425;367885;368159;332685;172356;
2024-05-25T23:01:49.904;539872328617082458;368058;368288;332795;172346;
2024-05-25T23:01:49.922;539872328635234491;368152;368439;332800;172295;
2024-05-25T23:01:49.940;539872328653386524;368306;368598;332934;172311;
2024-05-25T23:01:49.958;539872328671538557;368393;368644;332941;172297;
2024-05-25T23:01:49.976;539872328689690590;368469;368793;333012;172328;
2024-05-25T23:01:49.995;539872328707841888;368543;368814;332963;172304;
2024-05-25T23:01:50.013;539872328725993178;368533;368842;333022;172326;
2024-05-25T23:01:50.031;539872328744144468;368577;368852;333013;172393;
2024-05-25T23:01:50.049;539872328762295758;368598;368870;333027;172342;
2024-05-25T23:01:50.067;539872328780447048;368572;368790;333073;172259;
2024-05-25T23:01:50.085;539872328798598338;368624;368834;333009;172335;
2024-05-25T23:01:50.104;539872328816749628;368616;368859;333035;172324;
2024-05-25T23:01:50.122;539872328834900918;368623;368874;333104;172304;
2024-05-25T23:01:50.140;539872328853052208;368625;368846;333069;172293;
2024-05-25T23:01:50.158;539872328871203498;368669;368887;333105;172358;
2024-05-25T23:01:50.176;539872328889354788;368662;368898;333095;172274;
2024-05-25T23:01:50.194;539872328907506078;368590;368844;333043;172319;
2024-05-25T23:01:50.212;539872328925657368;368330;368603;332879;172269;
2024-05-25T23:01:50.231;539872328943808658;368123;368340;332775;172334;
2024-05-25T23:01:50.249;539872328961959948;367833;368049;332650;172354;
2024-05-25T23:01:50.267;539872328980111238;367540;367804;332509;172305;
2024-05-25T23:01:50.285;539872328998262528;367467;367724;332481;172295;
2024-05-25T23:01:50.303;539872329016413818;367334;367541;332367;172345;
2024-05-25T23:01:50.321;539872329034565108;367292;367578;332388;172310;
2024-05-25T23:01:50.340;539872329052716398;367399;367648;332454;172331;
2024-05-25T23:01:50.358;539872329070867688;367434;367697;332439;172317;
2024-05-25T23:01:50.376;539872329089018978;367616;367879;332559;172343;
2024-05-25T23:01:50.394;539872329107170268;367810;368078;332643;172354;
2024-05-25T23:01:50.412;539872329125321558;367960;368290;332760;172380;
2024-05-25T23:01:50.430;539872329143472848;368133;368389;332824;172345;
2024-05-25T23:01:50.448;539872329161624138;368199;368535;332884;172377;
2024-05-25T23:01:50.467;539872329179775428;368311;368666;332974;172376;
2024-05-25T23:01:50.485;539872329197926718;368373;368713;333009;172379;
2024-05-25T23:01:50.503;539872329216078008;368473;368814;333036;172344;
2024-05-25T23:01:50.521;539872329234229298;368557;368834;333013;172323;
2024-05-25T23:01:50.539;539872329252380588;368537;368879;332981;172276;
2024-05-25T23:01:50.557;539872329270531878;368557;368841;333067;172302;
2024-05-25T23:01:50.575;539872329288683168;368527;368887;333051;172291;
2024-05-25T23:01:50.594;539872329306834458;368587;368968;333109;172327;
2024-05-25T23:01:50.612;539872329324985748;368603;368965;333124;172318;
2024-05-25T23:01:50.630;539872329343137038;368623;368913;333078;172278;
2024-05-25T23:01:50.648;539872329361288328;368602;369006;333071;172371;
2024-05-25T23:01:50.666;539872329379439618;368704;369034;333107;172359;
2024-05-25T23:01:50.684;539872329397590908;368774;369025;333142;172345;
2024-05-25T23:01:50.703;539872329415742198;368682;368989;333122;172353;
2024-05-25T23:01:50.721;539872329433893488;368481;368812;333032;172344;
2024-05-25T23:01:50.739;539872329452044778;368228;368571;332894;172354;
2024-05-25T23:01:50.757;539872329470196068;367956;368313;332753;172357;
2024-05-25T23:01:50.775;539872329488347086;367805;368151;332663;172399;
2024-05-25T23:01:50.793;539872329506498092;367640;368021;332621;172391;
2024-05-25T23:01:50.811;539872329524649098;367607;367936;332604;172310;
2024-05-25T23:01:50.830;539872329542800104;367629;367961;332575;172322;
2024-05-25T23:01:50.848;539872329560951110;367737;368044;332710;172338;
2024-05-25T23:01:50.866;539872329579102116;367872;368200;332744;172342;
2024-05-25T23:01:50.884;539872329597253122;368044;368408;332826;172373;
2024-05-25T23:01:50.902;539872329615404128;368244;368610;332878;172340;
2024-05-25T23:01:50.920;539872329633555134;368475;368771;333019;172319;
2024-05-25T23:01:50.938;539872329651706140;368628;368910;333092;172366;
2024-05-25T23:01:50.957;539872329669857146;368691;369106;333111;172348;
2024-05-25T23:01:50.975;539872329688008152;368792;369186;333159;172355;
2024-05-25T23:01:50.993;539872329706159158;368828;369189;333201;172287;
2024-05-25T23:01:51.011;539872329724310164;368903;369250;333270;172339;
2024-05-25T23:01:51.029;539872329742461170;368956;369417;333350;172265;
2024-05-25T23:01:51.047;539872329760612176;368961;369426;333295;172280;
2024-05-25T23:01:51.066;539872329778763182;369036;369513;333345;172298;
2024-05-25T23:01:51.084;539872329796914188;369034;369518;333336;172320;
2024-05-25T23:01:51.102;539872329815065194;369150;369496;333361;172363;
2024-05-25T23:01:51.120;539872329833216200;369125;369503;333356;172355;
2024-05-25T23:01:51.138;539872329851367206;369140;369529;333381;172268;
2024-05-25T23:01:51.156;539872329869518212;369195;369597;333339;172224;
2024-05-25T23:01:51.174;539872329887669218;369258;369643;333443;172275;
2024-05-25T23:01:51.193;539872329905820224;369250;369602;333421;172285;
2024-05-25T23:01:51.211;539872329923971230;369159;369578;333407;172318;
2024-05-25T23:01:51.229;539872329942122236;369031;369431;333286;172283;
2024-05-25T23:01:51.247;539872329960273242;368777;369221;333170;172285;
2024-05-25T23:01:51.265;539872329978424248;368544;368993;333074;172286;
2024-05-25T23:01:51.283;539872329996575254;368357;368788;332965;172269;
2024-05-25T23:01:51.302;539872330014726260;368298;368694;332897;172315;
2024-05-25T23:01:51.320;539872330032877266;368205;368618;332948;172280;
2024-05-25T23:01:51.338;539872330051028272;368237;368691;332865;172271;
2024-05-25T23:01:51.356;539872330069179278;368289;368783;332904;172324;
2024-05-25T23:01:51.374;539872330087330284;368456;368908;333009;172365;
2024-05-25T23:01:51.392;539872330105481290;368610;369028;333134;172336;
2024-05-25T23:01:51.410;539872330123632296;368735;369183;333215;172382;
2024-05-25T23:01:51.429;539872330141783302;368922;369360;333271;172332;
2024-05-25T23:01:51.447;539872330159934308;369091;369514;333341;172343;
2024-05-25T23:01:51.465;539872330178085314;369257;369627;333403;172327;
2024-05-25T23:01:51.483;539872330196236320;369410;369816;333469;172308;
2024-05-25T23:01:51.501;539872330214387326;369464;369874;333603;172319;
2024-05-25T23:01:51.519;539872330232538332;369518;370003;333613;172349;
2024-05-25T23:01:51.537;539872330250689338;369583;370102;333630;172344;
2024-05-25T23:01:51.556;539872330268842766;369601;370077;333606;172270;
2024-05-25T23:01:51.574;539872330286996180;369725;370142;333732;172321;
2024-05-25T23:01:51.592;539872330305149594;369643;370133;333644;172280;
2024-05-25T23:01:51.610;539872330323303008;369625;370212;333702;172298;
2024-05-25T23:01:51.628;539872330341456422;369710;370243;333743;172326;
2024-05-25T23:01:51.646;539872330359609836;369796;370275;333770;172345;
2024-05-25T23:01:51.665;539872330377763250;369784;370269;333698;172299;
2024-05-25T23:01:51.683;539872330395916664;369899;370411;333867;172332;
2024-05-25T23:01:51.701;539872330414070078;369933;370463;333930;172331;
2024-05-25T23:01:51.719;539872330432223492;369909;370440;333866;172336;
2024-05-25T23:01:51.737;539872330450376906;369798;370346;333836;172306;
2024-05-25T23:01:51.755;539872330468530320;369567;370106;333686;172324;
2024-05-25T23:01:51.773;539872330486683734;369410;369929;333613;172391;
2024-05-25T23:01:51.792;539872330504837148;369205;369693;333463;172356;
2024-05-25T23:01:51.810;539872330522990562;369033;369550;333431;172394;
2024-05-25T23:01:51.828;539872330541143976;368991;369466;333428;172311;
2024-05-25T23:01:51.846;539872330559297390;369037;369551;333423;172375;
2024-05-25T23:01:51.864;539872330577450804;369088;369566;333438;172355;
2024-05-25T23:01:51.882;539872330595604218;369211;369715;333495;172388;
2024-05-25T23:01:51.901;539872330613757632;369371;369877;333642;172363;
2024-05-25T23:01:51.919;539872330631911046;369526;370079;333715;172357;
2024-05-25T23:01:51.937;539872330650064460;369681;370268;333827;172343;
2024-05-25T23:01:51.955;539872330668217874;369830;370379;333892;172284;
2024-05-25T23:01:51.973;539872330686371288;370047;370530;333969;172333;
2024-05-25T23:01:51.991;539872330704524702;370128;370608;334051;172351;
2024-05-25T23:01:52.009;539872330722678116;370189;370771;334120;172401;
2024-05-25T23:01:52.028;539872330740831530;370218;370799;334103;172318;
2024-05-25T23:01:52.046;539872330758984944;370307;370842;334120;172361;
2024-05-25T23:01:52.064;539872330777138358;370322;370901;334108;172300;
2024-05-25T23:01:52.082;539872330795291772;370388;370927;334207;172319;
2024-05-25T23:01:52.100;539872330813445186;370449;370964;334221;172356;
2024-05-25T23:01:52.118;539872330831598600;370489;371066;334264;172385;
2024-05-25T23:01:52.137;539872330849752014;370484;371106;334288;172337;
2024-05-25T23:01:52.155;539872330867905428;370554;371148;334322;172371;
2024-05-25T23:01:52.173;539872330886058842;370555;371144;334301;172287;
2024-05-25T23:01:52.191;539872330904212256;370605;371161;334332;172263;
2024-05-25T23:01:52.209;539872330922365670;370549;371170;334301;172273;
2024-05-25T23:01:52.227;539872330940519084;370611;371178;334299;172306;
2024-05-25T23:01:52.245;539872330958672498;370542;371111;334281;172337;
2024-05-25T23:01:52.264;539872330976825912;370379;371003;334248;172361;
2024-05-25T23:01:52.282;539872330994979326;370157;370746;334132;172375;
2024-05-25T23:01:52.300;539872331013132740;369893;370532;333951;172280;
2024-05-25T23:01:52.318;539872331031285338;369752;370363;333933;172335;
2024-05-25T23:01:52.336;539872331049437905;369636;370236;333848;172273;
2024-05-25T23:01:52.354;539872331067590472;369673;370263;333871;172316;
2024-05-25T23:01:52.373;539872331085743039;369711;370245;333870;172311;
2024-05-25T23:01:52.391;539872331103895606;369840;370416;333945;172390;
2024-05-25T23:01:52.409;539872331122048173;369972;370563;334025;172290;
2024-05-25T23:01:52.427;539872331140200740;370102;370682;334140;172288;
2024-05-25T23:01:52.445;539872331158353307;370313;370890;334204;172304;
2024-05-25T23:01:52.463;539872331176505874;370407;370952;334222;172280;
2024-05-25T23:01:52.481;539872331194658441;370519;371156;334340;172349;
2024-05-25T23:01:52.500;539872331212811008;370593;371190;334417;172310;
2024-05-25T23:01:52.518;539872331230963575;370688;371305;334486;172331;
2024-05-25T23:01:52.536;539872331249116142;370770;371325;334527;172389;
2024-05-25T23:01:52.554;539872331267268709;370832;371433;334545;172417;
2024-05-25T23:01:52.572;539872331285421276;370804;371407;334579;172355;
2024-05-25T23:01:52.590;539872331303573843;370822;371452;334612;172376;
2024-05-25T23:01:52.609;539872331321726410;370800;371528;334518;172333;
2024-05-25T23:01:52.627;539872331339878977;370842;371561;334569;172361;
2024-05-25T23:01:52.645;539872331358031544;370830;371502;334513;172311;
2024-05-25T23:01:52.663;539872331376184111;370910;371557;334603;172360;
2024-05-25T23:01:52.681;539872331394336678;370884;371554;334603;172393;
2024-05-25T23:01:52.699;539872331412489245;370963;371608;334688;172351;
2024-05-25T23:01:52.717;539872331430641812;370990;371664;334710;172358;
2024-05-25T23:01:52.736;539872331448794379;370939;371587;334648;172323;
2024-05-25T23:01:52.754;539872331466946946;370778;371485;334593;172290;
2024-05-25T23:01:52.772;539872331485099513;370598;371240;334482;172337;
2024-05-25T23:01:52.790;539872331503252080;370304;371035;334339;172348;
2024-05-25T23:01:52.808;539872331521404647;370093;370802;334256;172303;
2024-05-25T23:01:52.826;539872331539557214;369997;370650;334153;172308;
2024-05-25T23:01:52.844;539872331557709781;369956;370597;334189;172343;
2024-05-25T23:01:52.863;539872331575862348;369903;370565;334143;172311;
2024-05-25T23:01:52.881;539872331594014915;369998;370672;334164;172326;
2024-05-25T23:01:52.899;539872331612167482;370182;370834;334271;172309;
2024-05-25T23:01:52.917;539872331630320049;370330;371003;334395;172355;
2024-05-25T23:01:52.935;539872331648472616;370473;371155;334427;172302;
2024-05-25T23:01:52.953;539872331666625183;370671;371325;334566;172276;
2024-05-25T23:01:52.972;539872331684777750;370873;371498;334672;172328;
2024-05-25T23:01:52.990;539872331702930317;370981;371628;334771;172289;
2024-05-25T23:01:53.008;539872331721082884;371066;371707;334790;172314;
2024-05-25T23:01:53.026;539872331739235451;371144;371803;334852;172299;
2024-05-25T23:01:53.044;539872331757388018;371216;371899;334865;172349;
2024-05-25T23:01:53.062;539872331775540585;371271;371964;334919;172328;
2024-05-25T23:01:53.080;539872331793693152;371312;371985;334924;172291;
2024-05-25T23:01:53.099;539872331811845540;371370;372103;334994;172312;
2024-05-25T23:01:53.117;539872331829997900;371406;372089;334912;172329;
2024-05-25T23:01:53.135;539872331848150260;371485;372118;334976;172310;
2024-05-25T23:01:53.153;539872331866302620;371532;372243;335071;172355;
2024-05-25T23:01:53.171;539872331884454980;371540;372216;335040;172303;
2024-05-25T23:01:53.189;539872331902607340;371514;372221;335061;172256;
2024-05-25T23:01:53.208;539872331920759700;371567;372244;335097;172269;
2024-05-25T23:01:53.226;539872331938912060;371593;372345;335164;172276;
2024-05-25T23:01:53.244;539872331957064420;371496;372205;335085;172290;
2024-05-25T23:01:53.262;539872331975216780;371303;371915;334914;172282;
2024-05-25T23:01:53.280;539872331993369140;371044;371698;334827;172294;
2024-05-25T23:01:53.298;539872332011521500;370759;371427;334650;172327;
2024-05-25T23:01:53.316;539872332029673860;370641;371320;334589;172300;
2024-05-25T23:01:53.335;539872332047826220;370513;371112;334512;172248;
2024-05-25T23:01:53.353;539872332065978580;370430;371059;334512;172266;
2024-05-25T23:01:53.371;539872332084130940;370461;371087;334537;172306;
2024-05-25T23:01:53.389;539872332102283300;370575;371223;334614;172366;
2024-05-25T23:01:53.407;539872332120435660;370639;371314;334669;172286;
2024-05-25T23:01:53.425;539872332138588020;370817;371529;334729;172322;
2024-05-25T23:01:53.444;539872332156740380;371012;371723;334794;172321;
2024-05-25T23:01:53.462;539872332174892740;371173;371764;334890;172319;
2024-05-25T23:01:53.480;539872332193045100;371233;371875;334938;172305;
2024-05-25T23:01:53.498;539872332211197460;371294;371975;335015;172301;
2024-05-25T23:01:53.516;539872332229349820;371342;372027;335087;172298;
2024-05-25T23:01:53.534;539872332247502180;371467;372120;335132;172299;
2024-05-25T23:01:53.552;539872332265654540;371498;372181;335111;172363;
2024-05-25T23:01:53.571;539872332283806900;371487;372232;335087;172361;
2024-05-25T23:01:53.589;539872332301959260;371486;372206;335070;172307;
2024-05-25T23:01:53.607;539872332320111620;371465;372182;335068;172289;
2024-05-25T23:01:53.625;539872332338263980;371522;372222;335129;172339;
2024-05-25T23:01:53.643;539872332356416340;371489;372254;335167;172350;
2024-05-25T23:01:53.661;539872332374568700;371515;372226;335159;172332;
2024-05-25T23:01:53.680;539872332392721060;371539;372246;335154;172332;
2024-05-25T23:01:53.698;539872332410873420;371521;372193;335104;172268;
2024-05-25T23:01:53.716;539872332429025780;371572;372258;335210;172285;
2024-05-25T23:01:53.734;539872332447178140;371526;372220;335137;172276;
2024-05-25T23:01:53.752;539872332465330500;371308;372025;335005;172320;
2024-05-25T23:01:53.770;539872332483482860;371081;371799;334911;172324;
2024-05-25T23:01:53.788;539872332501635220;370729;371442;334747;172295;
2024-05-25T23:01:53.807;539872332519787580;370486;371202;334639;172358;
2024-05-25T23:01:53.825;539872332537939940;370314;370984;334520;172328;
2024-05-25T23:01:53.843;539872332556092300;370232;370839;334499;172295;
2024-05-25T23:01:53.861;539872332574245026;370159;370846;334469;172310;
2024-05-25T23:01:53.879;539872332592397750;370182;370895;334482;172318;
2024-05-25T23:01:53.897;539872332610550474;370251;370918;334532;172314;
2024-05-25T23:01:53.915;539872332628703198;370409;371094;334596;172400;
2024-05-25T23:01:53.934;539872332646855922;370605;371233;334729;172338;
2024-05-25T23:01:53.952;539872332665008646;370734;371404;334769;172323;
2024-05-25T23:01:53.970;539872332683161370;370868;371555;334875;172331;
2024-05-25T23:01:53.988;539872332701314094;370978;371677;334900;172321;
2024-05-25T23:01:54.006;539872332719466818;371087;371785;334959;172372;
2024-05-25T23:01:54.024;539872332737619542;371134;371925;335052;172318;
2024-05-25T23:01:54.043;539872332755772266;371284;371999;335098;172355;
2024-05-25T23:01:54.061;539872332773924990;371282;372002;335130;172342;
2024-05-25T23:01:54.079;539872332792077714;371257;372001;335122;172312;
2024-05-25T23:01:54.097;539872332810230438;371270;372039;335173;172325;
2024-05-25T23:01:54.115;539872332828383162;371302;372082;335131;172341;
2024-05-25T23:01:54.133;539872332846535886;371255;372061;335095;172274;
2024-05-25T23:01:54.151;539872332864688610;371421;372094;335211;172335;
2024-05-25T23:01:54.170;539872332882841334;371386;372073;335229;172392;
2024-05-25T23:01:54.188;539872332900994058;371351;372051;335142;172327;
2024-05-25T23:01:54.206;539872332919146782;371390;372139;335205;172376;
2024-05-25T23:01:54.224;539872332937299506;371447;372192;335217;172354;
2024-05-25T23:01:54.242;539872332955452230;371379;372111;335175;172338;
2024-05-25T23:01:54.260;539872332973604954;371200;371958;335033;172289;
2024-05-25T23:01:54.279;539872332991757678;370975;371683;334965;172337;
2024-05-25T23:01:54.297;539872333009910402;370660;371394;334793;172287;
2024-05-25T23:01:54.315;539872333028063126;370426;371196;334705;172319;
2024-05-25T23:01:54.333;539872333046215850;370235;370977;334624;172291;
2024-05-25T23:01:54.351;539872333064368574;370110;370861;334549;172309;
2024-05-25T23:01:54.369;539872333082521298;370138;370841;334518;172352;
2024-05-25T23:01:54.387;539872333100674022;370192;370854;334537;172372;
2024-05-25T23:01:54.406;539872333118826746;370276;370924;334613;172386;
2024-05-25T23:01:54.424;539872333136979470;370369;371051;334688;172392;
2024-05-25T23:01:54.442;539872333155132194;370456;371181;334727;172392;
2024-05-25T23:01:54.460;539872333173284918;370643;371351;334766;172359;
2024-05-25T23:01:54.478;539872333191437642;370792;371489;334827;172379;
2024-05-25T23:01:54.496;539872333209590366;370894;371609;334923;172356;
2024-05-25T23:01:54.515;539872333227743090;370975;371734;335024;172376;
2024-05-25T23:01:54.533;539872333245895814;371063;371800;335039;172327;
2024-05-25T23:01:54.551;539872333264048538;371134;371817;335098;172335;
2024-05-25T23:01:54.569;539872333282201262;371077;371884;335120;172373;
2024-05-25T23:01:54.587;539872333300353986;371096;371863;335097;172346;
2024-05-25T23:01:54.605;539872333318506710;371097;371894;335034;172288;
2024-05-25T23:01:54.623;539872333336659662;371121;371935;335129;172311;
2024-05-25T23:01:54.642;539872333354812584;371116;371880;335050;172353;
2024-05-25T23:01:54.660;539872333372965506;371095;371903;335093;172335;
2024-05-25T23:01:54.678;539872333391118428;371116;371966;335087;172414;
2024-05-25T23:01:54.696;539872333409271350;371186;371923;335046;172399;
2024-05-25T23:01:54.714;539872333427424272;371157;371915;335017;172371;
2024-05-25T23:01:54.732;539872333445577194;371158;371945;335064;172284;
2024-05-25T23:01:54.751;539872333463730116;371182;371973;335120;172302;
2024-05-25T23:01:54.769;539872333481883038;371019;371860;335042;172312;
2024-05-25T23:01:54.787;539872333500035960;370808;371590;334917;172281;
2024-05-25T23:01:54.805;539872333518188882;370550;371329;334804;172294;
2024-05-25T23:01:54.823;539872333536341804;370286;371047;334651;172343;
2024-05-25T23:01:54.841;539872333554494726;370071;370870;334542;172301;
2024-05-25T23:01:54.859;539872333572647648;369860;370586;334369;172326;
2024-05-25T23:01:54.878;539872333590800570;369833;370526;334325;172285;
2024-05-25T23:01:54.896;539872333608953492;369793;370536;334362;172302;
2024-05-25T23:01:54.914;539872333627106414;369803;370571;334370;172287;
2024-05-25T23:01:54.932;539872333645259336;369898;370643;334363;172295;
2024-05-25T23:01:54.950;539872333663412258;370045;370780;334483;172287;
2024-05-25T23:01:54.968;539872333681565180;370139;370898;334482;172257;
2024-05-25T23:01:54.987;539872333699718102;370330;371084;334648;172328;
2024-05-25T23:01:55.005;539872333717871024;370381;371182;334734;172316;
2024-05-25T23:01:55.023;539872333736023946;370526;371277;334786;172284;
2024-05-25T23:01:55.041;539872333754176868;370643;371372;334814;172264;
2024-05-25T23:01:55.059;539872333772329790;370619;371409;334692;172247;
2024-05-25T23:01:55.077;539872333790482712;370620;371493;334798;172272;
2024-05-25T23:01:55.095;539872333808635634;370625;371450;334811;172259;
2024-05-25T23:01:55.114;539872333826788556;370622;371528;334837;172331;
2024-05-25T23:01:55.132;539872333844941478;370696;371527;334817;172366;
2024-05-25T23:01:55.150;539872333863094400;370699;371521;334844;172293;
2024-05-25T23:01:55.168;539872333881247322;370642;371470;334807;172257;
2024-05-25T23:01:55.186;539872333899400244;370675;371476;334811;172265;
2024-05-25T23:01:55.204;539872333917553166;370689;371461;334788;172284;
2024-05-25T23:01:55.222;539872333935706088;370679;371494;334826;172257;
2024-05-25T23:01:55.241;539872333953859010;370645;371488;334802;172301;
2024-05-25T23:01:55.259;539872333972011932;370685;371545;334798;172275;
2024-05-25T23:01:55.277;539872333990164854;370696;371515;334809;172335;
2024-05-25T23:01:55.295;539872334008317776;370540;371396;334725;172285;
2024-05-25T23:01:55.313;539872334026470698;370304;371162;334587;172299;
2024-05-25T23:01:55.331;539872334044623620;370061;370880;334480;172322;
2024-05-25T23:01:55.350;539872334062776542;369792;370561;334282;172306;
2024-05-25T23:01:55.368;539872334080929464;369619;370321;334190;172250;
2024-05-25T23:01:55.386;539872334099082386;369512;370244;334090;172372;
2024-05-25T23:01:55.404;539872334117233747;369481;370197;334117;172318;
2024-05-25T23:01:55.422;539872334135385090;369456;370178;334083;172339;
2024-05-25T23:01:55.440;539872334153536433;369506;370270;334081;172265;
2024-05-25T23:01:55.458;539872334171687776;369581;370355;334161;172289;
2024-05-25T23:01:55.477;539872334189839119;369768;370549;334237;172295;
2024-05-25T23:01:55.495;539872334207990462;369943;370692;334344;172287;
2024-05-25T23:01:55.513;539872334226141805;370069;370805;334365;172301;
2024-05-25T23:01:55.531;539872334244293148;370165;370925;334462;172304;
2024-05-25T23:01:55.549;539872334262444491;370339;371075;334536;172290;
2024-05-25T23:01:55.567;539872334280595834;370347;371135;334555;172270;
2024-05-25T23:01:55.586;539872334298747177;370394;371187;334561;172289;
2024-05-25T23:01:55.604;539872334316898520;370423;371233;334634;172345;
2024-05-25T23:01:55.622;539872334335049863;370499;371226;334595;172321;
2024-05-25T23:01:55.640;539872334353201206;370504;371217;334606;172344;
2024-05-25T23:01:55.658;539872334371352549;370558;371216;334651;172349;
2024-05-25T23:01:55.676;539872334389503892;370515;371229;334610;172419;
2024-05-25T23:01:55.694;539872334407655235;370505;371312;334610;172340;
2024-05-25T23:01:55.713;539872334425806578;370468;371289;334634;172325;
2024-05-25T23:01:55.731;539872334443957921;370525;371302;334563;172323;
2024-05-25T23:01:55.749;539872334462109264;370576;371365;334635;172332;
2024-05-25T23:01:55.767;539872334480260607;370680;371374;334626;172339;
2024-05-25T23:01:55.785;539872334498411950;370670;371389;334627;172320;
2024-05-25T23:01:55.803;539872334516563293;370677;371363;334638;172329;
2024-05-25T23:01:55.822;539872334534714636;370431;371153;334508;172236;
2024-05-25T23:01:55.840;539872334552865979;370218;370907;334400;172277;
2024-05-25T23:01:55.858;539872334571017322;369976;370724;334267;172271;
2024-05-25T23:01:55.876;539872334589168665;369745;370506;334122;172278;
2024-05-25T23:01:55.894;539872334607320008;369590;370331;334074;172282;
2024-05-25T23:01:55.912;539872334625471351;369526;370144;334036;172288;
2024-05-25T23:01:55.930;539872334643622694;369501;370081;334020;172352;
2024-05-25T23:01:55.949;539872334661774037;369549;370185;334010;172325;
2024-05-25T23:01:55.967;539872334679925380;369597;370262;333996;172371;
2024-05-25T23:01:55.985;539872334698076723;369763;370452;334084;172343;
2024-05-25T23:01:56.003;539872334716228066;369888;370492;334122;172345;
2024-05-25T23:01:56.021;539872334734379409;370060;370650;334254;172281;
2024-05-25T23:01:56.039;539872334752530752;370214;370787;334298;172345;
2024-05-25T23:01:56.057;539872334770682095;370343;370863;334308;172297;
2024-05-25T23:01:56.076;539872334788833438;370366;370985;334312;172269;
2024-05-25T23:01:56.094;539872334806984781;370449;371027;334387;172346;
2024-05-25T23:01:56.112;539872334825136124;370492;371093;334411;172339;
2024-05-25T23:01:56.130;539872334843287632;370535;371152;334396;172321;
2024-05-25T23:01:56.148;539872334861439135;370548;371129;334386;172324;
2024-05-25T23:01:56.166;539872334879590638;370529;371130;334439;172304;
2024-05-25T23:01:56.185;539872334897742141;370623;371173;334411;172267;
2024-05-25T23:01:56.203;539872334915893644;370555;371080;334390;172268;
2024-05-25T23:01:56.221;539872334934045147;370504;371115;334366;172322;
2024-05-25T23:01:56.239;539872334952196650;370536;371155;334367;172306;
2024-05-25T23:01:56.257;539872334970348153;370564;371221;334425;172307;
2024-05-25T23:01:56.275;539872334988499656;370597;371202;334410;172290;
2024-05-25T23:01:56.293;539872335006651159;370654;371184;334434;172358;
2024-05-25T23:01:56.312;539872335024802662;370599;371198;334392;172367;
2024-05-25T23:01:56.330;539872335042954165;370501;371072;334366;172333;
2024-05-25T23:01:56.348;539872335061105668;370388;370883;334269;172306;
2024-05-25T23:01:56.366;539872335079257171;370161;370617;334090;172282;
2024-05-25T23:01:56.384;539872335097408674;369847;370366;333940;172270;
2024-05-25T23:01:56.402;539872335115560177;369578;370082;333815;172306;
2024-05-25T23:01:56.421;539872335133711680;369481;369870;333683;172312;
2024-05-25T23:01:56.439;539872335151863183;369341;369765;333651;172257;
2024-05-25T23:01:56.457;539872335170014686;369382;369773;333649;172333;
2024-05-25T23:01:56.475;539872335188166189;369432;369768;333633;172326;
2024-05-25T23:01:56.493;539872335206317692;369529;369925;333747;172304;
2024-05-25T23:01:56.511;539872335224469195;369653;370070;333763;172318;
2024-05-25T23:01:56.529;539872335242620698;369806;370268;333827;172355;
2024-05-25T23:01:56.548;539872335260772201;369963;370366;333901;172346;
2024-05-25T23:01:56.566;539872335278923704;370099;370510;334045;172363;
2024-05-25T23:01:56.584;539872335297075207;370205;370569;334071;172314;
2024-05-25T23:01:56.602;539872335315226710;370304;370674;334139;172306;
2024-05-25T23:01:56.620;539872335333378213;370378;370763;334119;172282;
2024-05-25T23:01:56.638;539872335351529716;370396;370871;334188;172335;
2024-05-25T23:01:56.656;539872335369681219;370492;370927;334190;172374;
2024-05-25T23:01:56.675;539872335387832722;370600;370922;334226;172368;
2024-05-25T23:01:56.693;539872335405984225;370597;370885;334237;172352;
2024-05-25T23:01:56.711;539872335424135728;370598;370933;334193;172325;
2024-05-25T23:01:56.729;539872335442287231;370629;370969;334189;172360;
2024-05-25T23:01:56.747;539872335460438734;370607;370973;334240;172335;
2024-05-25T23:01:56.765;539872335478590237;370648;371033;334223;172290;
2024-05-25T23:01:56.784;539872335496741740;370709;371052;334239;172324;
2024-05-25T23:01:56.802;539872335514893243;370676;371100;334213;172394;
2024-05-25T23:01:56.820;539872335533044746;370721;371101;334261;172358;
2024-05-25T23:01:56.838;539872335551196249;370672;371067;334243;172329;
2024-05-25T23:01:56.856;539872335569347752;370529;370891;334126;172352;
2024-05-25T23:01:56.874;539872335587499255;370282;370593;334051;172368;
2024-05-25T23:01:56.892;539872335605650758;370048;370254;333825;172327;
2024-05-25T23:01:56.911;539872335623803482;369715;370001;333681;172300;
2024-05-25T23:01:56.929;539872335641956206;369578;369808;333585;172315;
2024-05-25T23:01:56.947;539872335660108930;369388;369643;333460;172306;
2024-05-25T23:01:56.965;539872335678261654;369353;369576;333452;172282;
2024-05-25T23:01:56.983;539872335696414378;369321;369607;333412;172316;
2024-05-25T23:01:57.001;539872335714567102;369418;369626;333481;172333;
2024-05-25T23:01:57.020;539872335732719826;369527;369688;333497;172322;
2024-05-25T23:01:57.038;539872335750872550;369592;369910;333579;172348;
2024-05-25T23:01:57.056;539872335769025274;369751;369916;333614;172268;
2024-05-25T23:01:57.074;539872335787177998;369872;370061;333631;172276;
2024-05-25T23:01:57.092;539872335805330722;369907;370133;333705;172314;
2024-05-25T23:01:57.110;539872335823483446;370058;370282;333808;172310;
2024-05-25T23:01:57.128;539872335841636170;370133;370380;333856;172337;
2024-05-25T23:01:57.147;539872335859788894;370183;370417;333882;172340;
2024-05-25T23:01:57.165;539872335877941618;370229;370464;333866;172337;
2024-05-25T23:01:57.183;539872335896094342;370253;370472;333868;172326;
2024-05-25T23:01:57.201;539872335914247066;370250;370452;333883;172318;
2024-05-25T23:01:57.219;539872335932399790;370237;370470;333854;172308;
2024-05-25T23:01:57.237;539872335950552514;370246;370466;333794;172318;
2024-05-25T23:01:57.255;539872335968705238;370168;370401;333772;172317;
2024-05-25T23:01:57.274;539872335986857962;370215;370414;333788;172315;
2024-05-25T23:01:57.292;539872336005010686;370288;370423;333824;172323;
2024-05-25T23:01:57.310;539872336023163410;370261;370365;333797;172350;
2024-05-25T23:01:57.328;539872336041316134;370284;370435;333852;172350;
2024-05-25T23:01:57.346;539872336059468858;370248;370395;333824;172318;
2024-05-25T23:01:57.364;539872336077621582;370161;370275;333785;172355;
2024-05-25T23:01:57.383;539872336095774306;369909;370060;333633;172333;
2024-05-25T23:01:57.401;539872336113927030;369655;369781;333474;172315;
2024-05-25T23:01:57.419;539872336132079754;369397;369519;333356;172335;
2024-05-25T23:01:57.437;539872336150232478;369175;369246;333150;172277;
2024-05-25T23:01:57.455;539872336168385202;368995;369150;333147;172290;
2024-05-25T23:01:57.473;539872336186537926;368970;369021;333074;172323;
2024-05-25T23:01:57.491;539872336204690650;368989;368989;333074;172291;
2024-05-25T23:01:57.510;539872336222843374;369006;368969;333091;172257;
2024-05-25T23:01:57.528;539872336240996098;369127;369116;333136;172286;
2024-05-25T23:01:57.546;539872336259148822;369266;369296;333209;172320;
2024-05-25T23:01:57.564;539872336277301546;369392;369539;333268;172312;
2024-05-25T23:01:57.582;539872336295454270;369632;369751;333430;172340;
2024-05-25T23:01:57.600;539872336313606994;369740;369852;333526;172333;
2024-05-25T23:01:57.619;539872336331759718;369885;369990;333593;172295;
2024-05-25T23:01:57.637;539872336349912442;369976;370048;333594;172269;
2024-05-25T23:01:57.655;539872336368065166;370076;370180;333631;172314;
2024-05-25T23:01:57.673;539872336386217568;370159;370292;333684;172329;
2024-05-25T23:01:57.691;539872336404369958;370156;370280;333728;172316;
2024-05-25T23:01:57.709;539872336422522348;370212;370377;333762;172371;
2024-05-25T23:01:57.727;539872336440674738;370290;370287;333754;172289;
2024-05-25T23:01:57.746;539872336458827128;370296;370307;333752;172299;
2024-05-25T23:01:57.764;539872336476979518;370343;370368;333793;172314;
2024-05-25T23:01:57.782;539872336495131908;370318;370386;333714;172287;
2024-05-25T23:01:57.800;539872336513284298;370376;370415;333835;172395;
2024-05-25T23:01:57.818;539872336531436688;370341;370453;333816;172365;
2024-05-25T23:01:57.836;539872336549589078;370405;370469;333833;172373;
2024-05-25T23:01:57.855;539872336567741468;370457;370503;333791;172343;
2024-05-25T23:01:57.873;539872336585893858;370447;370536;333766;172286;
2024-05-25T23:01:57.891;539872336604046248;370369;370465;333735;172365;
2024-05-25T23:01:57.909;539872336622198638;370127;370145;333657;172281;
2024-05-25T23:01:57.927;539872336640351028;369897;369915;333495;172277;
2024-05-25T23:01:57.945;539872336658503418;369686;369667;333376;172303;
2024-05-25T23:01:57.963;539872336676655808;369432;369477;333269;172307;
2024-05-25T23:01:57.982;539872336694808198;369318;369349;333216;172337;
2024-05-25T23:01:58.000;539872336712960588;369262;369273;333149;172322;
2024-05-25T23:01:58.018;539872336731112978;369298;369262;333148;172325;
2024-05-25T23:01:58.036;539872336749265368;369281;369361;333214;172291;
2024-05-25T23:01:58.054;539872336767417758;369420;369506;333257;172302;
2024-05-25T23:01:58.072;539872336785570148;369519;369541;333338;172283;
2024-05-25T23:01:58.091;539872336803722538;369769;369767;333403;172339;
2024-05-25T23:01:58.109;539872336821874928;369859;369930;333491;172317;
2024-05-25T23:01:58.127;539872336840027318;370020;370110;333581;172337;
2024-05-25T23:01:58.145;539872336858179708;370100;370170;333628;172303;
2024-05-25T23:01:58.163;539872336876332098;370232;370354;333700;172343;
2024-05-25T23:01:58.181;539872336894484488;370259;370401;333728;172280;
2024-05-25T23:01:58.199;539872336912636878;370375;370449;333769;172344;
2024-05-25T23:01:58.218;539872336930789268;370412;370491;333770;172368;
2024-05-25T23:01:58.236;539872336948941658;370397;370462;333819;172337;
2024-05-25T23:01:58.254;539872336967094048;370435;370518;333820;172374;
2024-05-25T23:01:58.272;539872336985246438;370470;370517;333812;172305;
2024-05-25T23:01:58.290;539872337003398828;370444;370551;333864;172357;
2024-05-25T23:01:58.308;539872337021551218;370505;370600;333827;172317;
2024-05-25T23:01:58.326;539872337039703608;370450;370569;333881;172350;
2024-05-25T23:01:58.345;539872337057855998;370513;370588;333892;172382;
2024-05-25T23:01:58.363;539872337076008388;370533;370605;333822;172360;
2024-05-25T23:01:58.381;539872337094160778;370595;370604;333868;172304;
2024-05-25T23:01:58.399;539872337112313168;370583;370633;333834;172305;
2024-05-25T23:01:58.417;539872337130465558;370484;370531;333875;172341;
2024-05-25T23:01:58.435;539872337148617948;370207;370296;333700;172303;
2024-05-25T23:01:58.454;539872337166770504;370007;370022;333596;172338;
2024-05-25T23:01:58.472;539872337184923046;369771;369860;333572;172392;
2024-05-25T23:01:58.490;539872337203075588;369642;369700;333480;172389;
2024-05-25T23:01:58.508;539872337221228130;369511;369587;333378;172323;
2024-05-25T23:01:58.526;539872337239380672;369528;369563;333398;172342;
2024-05-25T23:01:58.544;539872337257533214;369539;369571;333379;172308;
2024-05-25T23:01:58.562;539872337275685756;369594;369703;333430;172409;
2024-05-25T23:01:58.581;539872337293838298;369631;369735;333415;172286;
2024-05-25T23:01:58.599;539872337311990840;369864;369928;333545;172376;
2024-05-25T23:01:58.617;539872337330143382;370028;370143;333619;172329;
2024-05-25T23:01:58.635;539872337348295924;370126;370283;333737;172337;
2024-05-25T23:01:58.653;539872337366448466;370260;370428;333746;172357;
2024-05-25T23:01:58.671;539872337384601008;370329;370506;333834;172348;
2024-05-25T23:01:58.690;539872337402753550;370441;370589;333872;172349;
2024-05-25T23:01:58.708;539872337420906092;370597;370690;333887;172357;
2024-05-25T23:01:58.726;539872337439058634;370601;370740;333945;172353;
2024-05-25T23:01:58.744;539872337457211176;370689;370777;333938;172348;
2024-05-25T23:01:58.762;539872337475363718;370592;370783;333941;172345;
2024-05-25T23:01:58.780;539872337493516260;370708;370788;333983;172373;
2024-05-25T23:01:58.798;539872337511668802;370678;370845;334000;172356;
2024-05-25T23:01:58.817;539872337529821344;370712;370775;334003;172355;
2024-05-25T23:01:58.835;539872337547973886;370668;370778;333993;172335;
2024-05-25T23:01:58.853;539872337566126428;370680;370800;334018;172353;
2024-05-25T23:01:58.871;539872337584278970;370729;370898;334035;172289;
2024-05-25T23:01:58.889;539872337602431512;370737;370912;334027;172334;
2024-05-25T23:01:58.907;539872337620584054;370709;370872;334026;172311;
2024-05-25T23:01:58.926;539872337638736596;370763;370873;334138;172354;
2024-05-25T23:01:58.944;539872337656889138;370702;370798;334057;172353;
2024-05-25T23:01:58.962;539872337675041680;370480;370551;333944;172346;
2024-05-25T23:01:58.980;539872337693194222;370291;370333;333804;172368;
2024-05-25T23:01:58.998;539872337711346764;370108;370210;333709;172327;
2024-05-25T23:01:59.016;539872337729499306;369947;370064;333697;172342;
2024-05-25T23:01:59.034;539872337747651848;369824;369902;333581;172311;
2024-05-25T23:01:59.053;539872337765804390;369848;369921;333576;172348;
2024-05-25T23:01:59.071;539872337783956932;369823;369926;333592;172353;
2024-05-25T23:01:59.089;539872337802109474;369918;370044;333681;172309;
2024-05-25T23:01:59.107;539872337820262016;370148;370197;333717;172371;
2024-05-25T23:01:59.125;539872337838414558;370202;370366;333847;172384;
2024-05-25T23:01:59.143;539872337856567100;370407;370506;333922;172317;
2024-05-25T23:01:59.162;539872337874719642;370523;370603;334020;172335;
2024-05-25T23:01:59.180;539872337892872184;370625;370685;334096;172253;
2024-05-25T23:01:59.198;539872337911024726;370804;370936;334178;172350;
2024-05-25T23:01:59.216;539872337929178022;370935;370981;334234;172346;
2024-05-25T23:01:59.234;539872337947331299;370983;371082;334235;172334;
2024-05-25T23:01:59.252;539872337965484576;371010;371133;334264;172373;
2024-05-25T23:01:59.270;539872337983637853;371014;371198;334279;172349;
2024-05-25T23:01:59.289;539872338001791130;371039;371203;334297;172332;
2024-05-25T23:01:59.307;539872338019944407;371068;371235;334340;172366;
2024-05-25T23:01:59.325;539872338038097684;371119;371236;334351;172368;
2024-05-25T23:01:59.343;539872338056250961;371064;371290;334375;172260;
2024-05-25T23:01:59.361;539872338074404238;371110;371263;334342;172307;
2024-05-25T23:01:59.379;539872338092557515;371155;371275;334363;172362;
2024-05-25T23:01:59.397;539872338110710792;371162;371357;334386;172332;
2024-05-25T23:01:59.416;539872338128864069;371208;371344;334345;172376;
2024-05-25T23:01:59.434;539872338147017346;371230;371440;334437;172340;
2024-05-25T23:01:59.452;539872338165170623;371263;371472;334405;172376;
2024-05-25T23:01:59.470;539872338183323900;371226;371325;334375;172350;
2024-05-25T23:01:59.488;539872338201477177;370989;371131;334239;172354;
2024-05-25T23:01:59.506;539872338219630454;370783;370935;334136;172325;
2024-05-25T23:01:59.525;539872338237783731;370543;370656;334041;172285;
2024-05-25T23:01:59.543;539872338255937008;370343;370510;333970;172340;
2024-05-25T23:01:59.561;539872338274090285;370258;370365;333894;172325;
2024-05-25T23:01:59.579;539872338292243562;370235;370346;333938;172358;
2024-05-25T23:01:59.597;539872338310396839;370254;370354;333932;172334;
2024-05-25T23:01:59.615;539872338328550116;370308;370456;333964;172399;
2024-05-25T23:01:59.633;539872338346703393;370437;370607;334028;172365;
2024-05-25T23:01:59.652;539872338364856670;370575;370665;334057;172336;
2024-05-25T23:01:59.670;539872338383009947;370763;370908;334180;172379;
2024-05-25T23:01:59.688;539872338401163224;370906;371107;334211;172404;
2024-05-25T23:01:59.706;539872338419316501;371039;371276;334359;172365;
2024-05-25T23:01:59.724;539872338437469778;371138;371355;334447;172365;
2024-05-25T23:01:59.742;539872338455623055;371301;371455;334503;172349;
2024-05-25T23:01:59.761;539872338473776332;371393;371535;334575;172382;
2024-05-25T23:01:59.779;539872338491929609;371356;371578;334546;172375;
2024-05-25T23:01:59.797;539872338510082886;371454;371710;334650;172377;
2024-05-25T23:01:59.815;539872338528236163;371521;371672;334598;172354;
2024-05-25T23:01:59.833;539872338546389440;371528;371720;334641;172353;
2024-05-25T23:01:59.851;539872338564542717;371523;371737;334642;172354;
2024-05-25T23:01:59.869;539872338582695994;371520;371740;334625;172335;
2024-05-25T23:01:59.888;539872338600849271;371573;371763;334618;172323;
2024-05-25T23:01:59.906;539872338619002548;371611;371823;334674;172359;
2024-05-25T23:01:59.924;539872338637155825;371597;371856;334706;172337;
2024-05-25T23:01:59.942;539872338655309102;371732;371890;334780;172410;
2024-05-25T23:01:59.960;539872338673462379;371767;371991;334786;172342;
2024-05-25T23:01:59.978;539872338691615656;371783;372054;334769;172362;
2024-05-25T23:01:59.997;539872338709768589;371652;371932;334741;172335;
2024-05-25T23:02:00.015;539872338727921494;371537;371776;334627;172368;
2024-05-25T23:02:00.033;539872338746074399;371362;371644;334556;172367;
2024-05-25T23:02:00.051;539872338764227304;371155;371332;334464;172342;
2024-05-25T23:02:00.069;539872338782380209;371026;371202;334375;172333;
2024-05-25T23:02:00.087;539872338800533114;370955;371051;334311;172358;
2024-05-25T23:02:00.105;539872338818686019;370803;371021;334256;172315;
2024-05-25T23:02:00.124;539872338836838924;370790;371034;334302;172335;
2024-05-25T23:02:00.142;539872338854991829;370866;371054;334277;172311;
2024-05-25T23:02:00.160;539872338873144734;370969;371087;334345;172324;
2024-05-25T23:02:00.178;539872338891297639;371139;371331;334481;172358;
2024-05-25T23:02:00.196;539872338909450544;371269;371455;334540;172324;
2024-05-25T23:02:00.214;539872338927603449;371444;371645;334678;172369;
2024-05-25T23:02:00.233;539872338945756354;371595;371744;334695;172311;
2024-05-25T23:02:00.251;539872338963909259;371680;371869;334744;172325;
2024-05-25T23:02:00.269;539872338982062164;371758;371983;334809;172335;
2024-05-25T23:02:00.287;539872339000215069;371831;372085;334920;172374;
2024-05-25T23:02:00.305;539872339018367974;371898;372112;334873;172357;
2024-05-25T23:02:00.323;539872339036520879;371897;372190;334913;172348;
2024-05-25T23:02:00.341;539872339054673784;371982;372201;334923;172360;
2024-05-25T23:02:00.360;539872339072826689;372009;372263;334992;172413;
2024-05-25T23:02:00.378;539872339090979594;372008;372180;335035;172362;
2024-05-25T23:02:00.396;539872339109132499;372020;372252;334997;172318;
2024-05-25T23:02:00.414;539872339127285404;371998;372205;335019;172333;
2024-05-25T23:02:00.432;539872339145438309;372058;372243;334955;172355;
2024-05-25T23:02:00.450;539872339163591214;372002;372278;335006;172340;
2024-05-25T23:02:00.469;539872339181744119;371973;372330;334967;172325;
2024-05-25T23:02:00.487;539872339199897024;372073;372346;335011;172336;
2024-05-25T23:02:00.505;539872339218049929;372048;372386;334981;172291;
2024-05-25T23:02:00.523;539872339236202834;372062;372296;334963;172338;
2024-05-25T23:02:00.541;539872339254355739;371832;372157;334945;172310;
2024-05-25T23:02:00.559;539872339272508644;371697;371881;334815;172357;
2024-05-25T23:02:00.577;539872339290661549;371439;371721;334734;172391;
2024-05-25T23:02:00.596;539872339308814454;371150;371477;334561;172334;
2024-05-25T23:02:00.614;539872339326967359;371019;371387;334499;172372;
2024-05-25T23:02:00.632;539872339345120264;370982;371295;334459;172375;
2024-05-25T23:02:00.650;539872339363273169;370891;371213;334456;172365;
2024-05-25T23:02:00.668;539872339381426074;370956;371228;334515;172358;
2024-05-25T23:02:00.686;539872339399578979;371103;371319;334565;172405;
2024-05-25T23:02:00.705;539872339417731884;371160;371429;334604;172342;
2024-05-25T23:02:00.723;539872339435884789;371331;371564;334698;172337;
2024-05-25T23:02:00.741;539872339454037694;371410;371707;334729;172368;
2024-05-25T23:02:00.759;539872339472190005;371496;371868;334774;172317;
2024-05-25T23:02:00.777;539872339490342284;371594;371914;334809;172311;
2024-05-25T23:02:00.795;539872339508494563;371685;372005;334841;172314;
2024-05-25T23:02:00.813;539872339526646842;371730;372048;334923;172334;
2024-05-25T23:02:00.832;539872339544799121;371720;372085;334961;172335;
2024-05-25T23:02:00.850;539872339562951400;371757;372072;334921;172352;
2024-05-25T23:02:00.868;539872339581103679;371760;372069;334886;172316;
2024-05-25T23:02:00.886;539872339599255958;371769;372105;334956;172334;
2024-05-25T23:02:00.904;539872339617408237;371798;372150;334988;172356;
2024-05-25T23:02:00.922;539872339635560516;371812;372169;335000;172344;
2024-05-25T23:02:00.941;539872339653712795;371762;372155;334992;172326;
2024-05-25T23:02:00.959;539872339671865074;371806;372173;334944;172333;
2024-05-25T23:02:00.977;539872339690017353;371884;372243;334971;172365;
2024-05-25T23:02:00.995;539872339708169632;371913;372283;335041;172377;
2024-05-25T23:02:01.013;539872339726321911;371935;372287;335063;172378;
2024-05-25T23:02:01.031;539872339744474190;371891;372295;335037;172363;
2024-05-25T23:02:01.049;539872339762626469;371804;372190;334977;172318;
2024-05-25T23:02:01.068;539872339780778748;371576;372008;334902;172370;
2024-05-25T23:02:01.086;539872339798931027;371306;371772;334764;172387;
2024-05-25T23:02:01.104;539872339817083306;371137;371477;334664;172369;
2024-05-25T23:02:01.122;539872339835235585;371012;371295;334566;172372;
2024-05-25T23:02:01.140;539872339853387864;370884;371206;334445;172334;
2024-05-25T23:02:01.158;539872339871540143;370839;371178;334481;172312;
2024-05-25T23:02:01.176;539872339889692422;370849;371216;334448;172282;
2024-05-25T23:02:01.195;539872339907844701;370973;371328;334593;172341;
2024-05-25T23:02:01.213;539872339925996980;370990;371355;334614;172351;
2024-05-25T23:02:01.231;539872339944149259;371056;371474;334633;172322;
2024-05-25T23:02:01.249;539872339962301538;371194;371609;334695;172323;
2024-05-25T23:02:01.267;539872339980453817;371340;371797;334763;172300;
2024-05-25T23:02:01.285;539872339998606096;371454;371963;334848;172303;
2024-05-25T23:02:01.304;539872340016758375;371542;372031;334893;172336;
2024-05-25T23:02:01.322;539872340034910654;371592;372068;334966;172291;
2024-05-25T23:02:01.340;539872340053062933;371628;372147;335001;172288;
2024-05-25T23:02:01.358;539872340071215212;371684;372102;335001;172295;
2024-05-25T23:02:01.376;539872340089367491;371730;372193;334996;172391;
2024-05-25T23:02:01.394;539872340107519770;371672;372128;334966;172323;
2024-05-25T23:02:01.412;539872340125672049;371661;372173;334975;172305;
2024-05-25T23:02:01.431;539872340143824328;371646;372144;334993;172287;
2024-05-25T23:02:01.449;539872340161976607;371652;372133;335019;172348;
2024-05-25T23:02:01.467;539872340180128886;371619;372087;334968;172314;
2024-05-25T23:02:01.485;539872340198281165;371575;372022;334908;172320;
2024-05-25T23:02:01.503;539872340216433444;371570;372050;334928;172322;
2024-05-25T23:02:01.521;539872340234585723;371547;372072;335002;172344;
2024-05-25T23:02:01.540;539872340252738002;371537;372067;334965;172350;
2024-05-25T23:02:01.558;539872340270890182;371424;372021;334899;172351;
2024-05-25T23:02:01.576;539872340289042324;371219;371798;334841;172338;
2024-05-25T23:02:01.594;539872340307194466;370856;371455;334637;172300;
2024-05-25T23:02:01.612;539872340325346608;370569;371153;334468;172312;
2024-05-25T23:02:01.630;539872340343498750;370295;370875;334329;172317;
2024-05-25T23:02:01.648;539872340361650892;370017;370597;334201;172290;
2024-05-25T23:02:01.667;539872340379803034;369978;370474;334161;172282;
2024-05-25T23:02:01.685;539872340397955176;369858;370394;334088;172295;
2024-05-25T23:02:01.703;539872340416107318;369814;370385;334027;172283;
2024-05-25T23:02:01.721;539872340434259460;369871;370482;334097;172303;
2024-05-25T23:02:01.739;539872340452411602;370060;370576;334163;172298;
2024-05-25T23:02:01.757;539872340470563744;370104;370704;334265;172288;
2024-05-25T23:02:01.776;539872340488715886;370322;370907;334342;172291;
2024-05-25T23:02:01.794;539872340506868028;370411;371001;334408;172356;
2024-05-25T23:02:01.812;539872340525020170;370568;371133;334454;172362;
2024-05-25T23:02:01.830;539872340543172312;370662;371263;334501;172336;
2024-05-25T23:02:01.848;539872340561324454;370678;371292;334579;172338;
2024-05-25T23:02:01.866;539872340579476596;370696;371324;334591;172302;
2024-05-25T23:02:01.884;539872340597628738;370763;371382;334576;172349;
2024-05-25T23:02:01.903;539872340615780880;370749;371394;334623;172340;
2024-05-25T23:02:01.921;539872340633933022;370798;371425;334626;172356;
2024-05-25T23:02:01.939;539872340652085164;370768;371417;334572;172293;
2024-05-25T23:02:01.957;539872340670237306;370770;371385;334585;172306;
2024-05-25T23:02:01.975;539872340688389448;370717;371410;334572;172302;
2024-05-25T23:02:01.993;539872340706541590;370737;371385;334587;172327;
2024-05-25T23:02:02.011;539872340724693732;370716;371482;334575;172310;
2024-05-25T23:02:02.030;539872340742845874;370709;371421;334583;172316;
2024-05-25T23:02:02.048;539872340760998016;370738;371442;334574;172317;
2024-05-25T23:02:02.066;539872340779150158;370754;371453;334565;172373;
2024-05-25T23:02:02.084;539872340797302300;370569;371349;334465;172326;
2024-05-25T23:02:02.102;539872340815454442;370380;371114;334376;172324;
2024-05-25T23:02:02.120;539872340833606584;370048;370765;334238;172280;
2024-05-25T23:02:02.139;539872340851758726;369844;370552;334111;172311;
2024-05-25T23:02:02.157;539872340869910868;369541;370244;333972;172255;
2024-05-25T23:02:02.175;539872340888063010;369352;370012;333852;172280;
2024-05-25T23:02:02.193;539872340906215152;369289;369927;333825;172290;
2024-05-25T23:02:02.211;539872340924367294;369234;369848;333821;172353;
2024-05-25T23:02:02.229;539872340942519436;369217;369875;333794;172264;
2024-05-25T23:02:02.247;539872340960671578;369283;369950;333831;172334;
2024-05-25T23:02:02.266;539872340978823720;369393;370049;333926;172325;
2024-05-25T23:02:02.284;539872340996975862;369456;370236;333919;172278;
2024-05-25T23:02:02.302;539872341015128004;369629;370410;334015;172338;
2024-05-25T23:02:02.320;539872341033280950;369796;370542;334107;172333;
2024-05-25T23:02:02.338;539872341051433872;369895;370650;334169;172338;
2024-05-25T23:02:02.356;539872341069586794;369955;370707;334208;172345;
2024-05-25T23:02:02.375;539872341087739716;369994;370759;334224;172307;
2024-05-25T23:02:02.393;539872341105892638;370031;370827;334257;172302;
2024-05-25T23:02:02.411;539872341124045560;370091;370890;334259;172340;
2024-05-25T23:02:02.429;539872341142198482;370098;370928;334286;172278;
2024-05-25T23:02:02.447;539872341160351404;370044;370934;334244;172245;
2024-05-25T23:02:02.465;539872341178504326;370115;370934;334311;172351;
2024-05-25T23:02:02.483;539872341196657248;370089;370913;334283;172325;
2024-05-25T23:02:02.502;539872341214810170;370081;370887;334286;172315;
2024-05-25T23:02:02.520;539872341232963092;370121;370897;334282;172309;
2024-05-25T23:02:02.538;539872341251116014;370136;370908;334299;172310;
2024-05-25T23:02:02.556;539872341269268936;370112;370906;334257;172314;
2024-05-25T23:02:02.574;539872341287421858;370167;370979;334289;172317;
2024-05-25T23:02:02.592;539872341305574780;370140;370940;334311;172304;
2024-05-25T23:02:02.611;539872341323727702;369997;370805;334273;172352;
2024-05-25T23:02:02.629;539872341341880624;369744;370547;334094;172314;
2024-05-25T23:02:02.647;539872341360033546;369484;370248;333941;172360;
2024-05-25T23:02:02.665;539872341378186468;369232;369980;333837;172287;
2024-05-25T23:02:02.683;539872341396339390;369031;369740;333761;172303;
2024-05-25T23:02:02.701;539872341414492312;368906;369502;333557;172247;
2024-05-25T23:02:02.719;539872341432645234;368782;369499;333589;172299;
2024-05-25T23:02:02.738;539872341450798156;368704;369528;333569;172303;
2024-05-25T23:02:02.756;539872341468951078;368754;369568;333578;172334;
2024-05-25T23:02:02.774;539872341487104000;368900;369628;333666;172334;
2024-05-25T23:02:02.792;539872341505256922;369005;369754;333676;172319;
2024-05-25T23:02:02.810;539872341523409844;369099;369911;333696;172259;
2024-05-25T23:02:02.828;539872341541562766;369260;370061;333837;172308;
2024-05-25T23:02:02.847;539872341559715688;369397;370232;333854;172309;
2024-05-25T23:02:02.865;539872341577868610;369527;370245;333896;172274;
2024-05-25T23:02:02.883;539872341596021532;369534;370362;333950;172285;
2024-05-25T23:02:02.901;539872341614174454;369627;370387;333954;172317;
2024-05-25T23:02:02.919;539872341632327376;369728;370390;334017;172325;
2024-05-25T23:02:02.937;539872341650480298;369651;370401;333962;172314;
2024-05-25T23:02:02.955;539872341668633220;369687;370398;333949;172297;
2024-05-25T23:02:02.974;539872341686786142;369742;370407;333941;172283;
2024-05-25T23:02:02.992;539872341704939064;369691;370439;333973;172317;
2024-05-25T23:02:03.010;539872341723091986;369757;370454;333990;172357;
2024-05-25T23:02:03.028;539872341741244908;369729;370522;333998;172343;
2024-05-25T23:02:03.046;539872341759397830;369685;370390;333969;172292;
2024-05-25T23:02:03.064;539872341777550752;369690;370485;334017;172373;
2024-05-25T23:02:03.082;539872341795703674;369759;370516;334032;172349;
2024-05-25T23:02:03.101;539872341813856130;369762;370452;334008;172318;
2024-05-25T23:02:03.119;539872341832008555;369741;370500;333972;172294;
2024-05-25T23:02:03.137;539872341850160980;369600;370282;333874;172239;
2024-05-25T23:02:03.155;539872341868313405;369332;370047;333746;172305;
2024-05-25T23:02:03.173;539872341886465830;369079;369756;333636;172299;
2024-05-25T23:02:03.191;539872341904618255;368825;369534;333477;172307;
2024-05-25T23:02:03.210;539872341922770680;368678;369373;333386;172319;
2024-05-25T23:02:03.228;539872341940923105;368567;369228;333328;172357;
2024-05-25T23:02:03.246;539872341959075530;368483;369116;333307;172282;
2024-05-25T23:02:03.264;539872341977227955;368481;369052;333257;172283;
2024-05-25T23:02:03.282;539872341995380380;368565;369149;333316;172318;
2024-05-25T23:02:03.300;539872342013532805;368643;369251;333273;172360;
2024-05-25T23:02:03.318;539872342031685230;368798;369379;333337;172320;
2024-05-25T23:02:03.337;539872342049837655;368937;369527;333414;172339;
2024-05-25T23:02:03.355;539872342067990080;369063;369707;333521;172357;
2024-05-25T23:02:03.373;539872342086142505;369216;369818;333620;172352;
2024-05-25T23:02:03.391;539872342104294930;369227;369905;333685;172367;
2024-05-25T23:02:03.409;539872342122447355;369348;369979;333671;172373;
2024-05-25T23:02:03.427;539872342140599780;369459;370000;333727;172304;
2024-05-25T23:02:03.446;539872342158752205;369509;370058;333766;172362;
2024-05-25T23:02:03.464;539872342176904630;369485;370107;333692;172288;
2024-05-25T23:02:03.482;539872342195057055;369523;370149;333686;172302;
2024-05-25T23:02:03.500;539872342213209480;369582;370165;333778;172303;
2024-05-25T23:02:03.518;539872342231361905;369536;370137;333765;172305;
2024-05-25T23:02:03.536;539872342249514330;369560;370099;333780;172327;
2024-05-25T23:02:03.554;539872342267666755;369550;370199;333795;172320;
2024-05-25T23:02:03.573;539872342285819180;369615;370191;333770;172328;
2024-05-25T23:02:03.591;539872342303971605;369638;370211;333766;172336;
2024-05-25T23:02:03.609;539872342322124030;369674;370207;333829;172323;
2024-05-25T23:02:03.627;539872342340276455;369737;370259;333806;172346;
2024-05-25T23:02:03.645;539872342358428880;369716;370224;333789;172285;
2024-05-25T23:02:03.663;539872342376581305;369558;370066;333735;172299;
2024-05-25T23:02:03.682;539872342394733730;369366;369892;333664;172331;
2024-05-25T23:02:03.700;539872342412886155;369098;369578;333496;172289;
2024-05-25T23:02:03.718;539872342431038580;368849;369337;333361;172325;
2024-05-25T23:02:03.736;539872342449191005;368678;369156;333211;172276;
2024-05-25T23:02:03.754;539872342467343430;368627;369010;333192;172311;
2024-05-25T23:02:03.772;539872342485495855;368596;368957;333079;172300;
2024-05-25T23:02:03.790;539872342503648280;368645;368945;333148;172358;
2024-05-25T23:02:03.809;539872342521800705;368746;369069;333174;172385;
2024-05-25T23:02:03.827;539872342539953130;368791;369147;333188;172390;
2024-05-25T23:02:03.845;539872342558105555;368969;369246;333253;172384;
2024-05-25T23:02:03.863;539872342576257980;369134;369484;333355;172363;
2024-05-25T23:02:03.881;539872342594409628;369216;369559;333475;172409;
2024-05-25T23:02:03.899;539872342612561273;369288;369681;333539;172378;
2024-05-25T23:02:03.918;539872342630712918;369452;369765;333524;172370;
2024-05-25T23:02:03.936;539872342648864563;369500;369888;333586;172323;
2024-05-25T23:02:03.954;539872342667016208;369630;369947;333625;172359;
2024-05-25T23:02:03.972;539872342685167853;369579;370010;333637;172339;
2024-05-25T23:02:03.990;539872342703319498;369636;370038;333647;172302;
2024-05-25T23:02:04.008;539872342721471143;369673;369997;333629;172272;
2024-05-25T23:02:04.026;539872342739622788;369696;370034;333688;172310;
2024-05-25T23:02:04.045;539872342757774433;369696;370008;333679;172295;
2024-05-25T23:02:04.063;539872342775926078;369728;370056;333655;172292;
2024-05-25T23:02:04.081;539872342794077723;369741;370027;333703;172272;
2024-05-25T23:02:04.099;539872342812229368;369734;370051;333685;172276;
2024-05-25T23:02:04.117;539872342830381013;369808;370146;333689;172331;
2024-05-25T23:02:04.135;539872342848532658;369758;370131;333718;172331;
2024-05-25T23:02:04.153;539872342866684303;369837;370125;333747;172269;
2024-05-25T23:02:04.172;539872342884835948;369844;370090;333791;172301;
2024-05-25T23:02:04.190;539872342902987593;369663;369985;333679;172303;
2024-05-25T23:02:04.208;539872342921139238;369427;369721;333450;172308;
2024-05-25T23:02:04.226;539872342939290883;369217;369501;333391;172301;
2024-05-25T23:02:04.244;539872342957442528;368959;369203;333180;172247;
2024-05-25T23:02:04.262;539872342975594173;368819;369063;333151;172352;
2024-05-25T23:02:04.281;539872342993745818;368772;369002;333125;172311;
2024-05-25T23:02:04.299;539872343011897463;368717;368891;333080;172327;
2024-05-25T23:02:04.317;539872343030049108;368727;368921;333072;172361;
2024-05-25T23:02:04.335;539872343048200753;368761;368988;333106;172289;
2024-05-25T23:02:04.353;539872343066352398;368841;369103;333107;172334;
2024-05-25T23:02:04.371;539872343084504043;369018;369192;333189;172310;
2024-05-25T23:02:04.389;539872343102655688;369166;369328;333228;172308;
2024-05-25T23:02:04.408;539872343120807333;369260;369473;333319;172305;
2024-05-25T23:02:04.426;539872343138958978;369319;369539;333395;172337;
2024-05-25T23:02:04.444;539872343157110623;369401;369645;333388;172304;
2024-05-25T23:02:04.462;539872343175262268;369451;369669;333422;172333;
2024-05-25T23:02:04.480;539872343193413913;369520;369723;333465;172317;
2024-05-25T23:02:04.498;539872343211565558;369519;369812;333531;172334;
2024-05-25T23:02:04.517;539872343229717203;369500;369785;333461;172294;
2024-05-25T23:02:04.535;539872343247868848;369617;369791;333509;172338;
2024-05-25T23:02:04.553;539872343266020493;369597;369757;333528;172317;
2024-05-25T23:02:04.571;539872343284172138;369570;369769;333501;172327;
2024-05-25T23:02:04.589;539872343302323783;369619;369815;333482;172326;
2024-05-25T23:02:04.607;539872343320475428;369696;369849;333511;172373;
2024-05-25T23:02:04.625;539872343338627073;369722;369909;333523;172356;
2024-05-25T23:02:04.644;539872343356778718;369695;369924;333583;172373;
2024-05-25T23:02:04.662;539872343374931987;369749;369917;333516;172286;
2024-05-25T23:02:04.680;539872343393085256;369793;369921;333542;172310;
2024-05-25T23:02:04.698;539872343411238525;369647;369795;333505;172295;
2024-05-25T23:02:04.716;539872343429391794;369428;369609;333427;172345;
2024-05-25T23:02:04.734;539872343447545063;369287;369326;333289;172277;
2024-05-25T23:02:04.752;539872343465698332;369096;369200;333164;172327;
2024-05-25T23:02:04.771;539872343483851601;368885;369068;333107;172355;
2024-05-25T23:02:04.789;539872343502004870;368765;368877;332980;172327;
2024-05-25T23:02:04.807;539872343520158139;368727;368861;332984;172288;
2024-05-25T23:02:04.825;539872343538311408;368715;368847;332980;172288;
2024-05-25T23:02:04.843;539872343556464677;368741;368910;332963;172302;
2024-05-25T23:02:04.861;539872343574617946;368827;369020;333039;172304;
2024-05-25T23:02:04.880;539872343592771215;369027;369158;333206;172315;
2024-05-25T23:02:04.898;539872343610924484;369250;369351;333307;172357;
2024-05-25T23:02:04.916;539872343629077753;369332;369481;333347;172306;
2024-05-25T23:02:04.934;539872343647231022;369505;369680;333413;172331;
2024-05-25T23:02:04.952;539872343665384291;369563;369819;333413;172269;
2024-05-25T23:02:04.970;539872343683537560;369683;369865;333462;172299;
2024-05-25T23:02:04.988;539872343701690829;369765;369942;333548;172308;
2024-05-25T23:02:05.007;539872343719844098;369763;370001;333525;172319;
2024-05-25T23:02:05.025;539872343737997367;369857;370010;333630;172346;
2024-05-25T23:02:05.043;539872343756150636;369912;370089;333625;172376;
2024-05-25T23:02:05.061;539872343774303905;369854;370048;333597;172320;
2024-05-25T23:02:05.079;539872343792457174;369905;370082;333582;172337;
2024-05-25T23:02:05.097;539872343810610443;369968;370028;333614;172345;
2024-05-25T23:02:05.116;539872343828763712;369950;370049;333600;172366;
2024-05-25T23:02:05.134;539872343846916981;369928;370042;333616;172378;
2024-05-25T23:02:05.152;539872343865070250;369883;370069;333625;172362;
2024-05-25T23:02:05.170;539872343883223519;369966;370105;333550;172352;
2024-05-25T23:02:05.188;539872343901376788;369967;370147;333613;172382;
2024-05-25T23:02:05.206;539872343919530057;369850;370065;333595;172385;
2024-05-25T23:02:05.224;539872343937683326;369678;369810;333471;172378;
2024-05-25T23:02:05.243;539872343955836595;369341;369574;333313;172309;
2024-05-25T23:02:05.261;539872343973989864;369078;369314;333203;172329;
2024-05-25T23:02:05.279;539872343992143133;368898;368989;333122;172369;
2024-05-25T23:02:05.297;539872344010296402;368734;368851;332948;172332;
2024-05-25T23:02:05.315;539872344028449671;368652;368803;332915;172361;
2024-05-25T23:02:05.333;539872344046602940;368604;368778;332935;172393;
2024-05-25T23:02:05.352;539872344064756209;368659;368820;332954;172399;
2024-05-25T23:02:05.370;539872344082909478;368761;368935;333032;172385;
2024-05-25T23:02:05.388;539872344101062747;368896;369001;333033;172337;
2024-05-25T23:02:05.406;539872344119216016;368984;369175;333156;172317;
2024-05-25T23:02:05.424;539872344137369165;369151;369348;333273;172359;
2024-05-25T23:02:05.442;539872344155522288;369322;369541;333340;172368;
2024-05-25T23:02:05.460;539872344173675411;369420;369645;333431;172373;
2024-05-25T23:02:05.479;539872344191828534;369515;369752;333459;172380;
2024-05-25T23:02:05.497;539872344209981657;369634;369823;333503;172294;
2024-05-25T23:02:05.515;539872344228134780;369711;369910;333529;172329;
2024-05-25T23:02:05.533;539872344246287903;369714;369979;333554;172362;
2024-05-25T23:02:05.551;539872344264441026;369734;370004;333571;172365;
2024-05-25T23:02:05.569;539872344282594149;369778;369990;333523;172326;
2024-05-25T23:02:05.588;539872344300747272;369819;370072;333637;172292;
2024-05-25T23:02:05.606;539872344318900395;369829;370111;333628;172320;
2024-05-25T23:02:05.624;539872344337053518;369874;370104;333632;172329;
2024-05-25T23:02:05.642;539872344355206641;369958;370158;333686;172325;
2024-05-25T23:02:05.660;539872344373359764;369908;370184;333695;172294;
2024-05-25T23:02:05.678;539872344391512887;369936;370208;333680;172291;
2024-05-25T23:02:05.696;539872344409666010;369992;370290;333711;172320;
2024-05-25T23:02:05.715;539872344427819133;369974;370213;333701;172319;
2024-05-25T23:02:05.733;539872344445972256;369798;370041;333616;172338;
2024-05-25T23:02:05.751;539872344464125379;369582;369871;333533;172325;
2024-05-25T23:02:05.769;539872344482278502;369397;369604;333415;172352;
2024-05-25T23:02:05.787;539872344500431625;369134;369366;333255;172303;
2024-05-25T23:02:05.805;539872344518584748;368953;369182;333129;172299;
2024-05-25T23:02:05.824;539872344536737871;368850;369091;333119;172358;
2024-05-25T23:02:05.842;539872344554890994;368863;369126;333098;172367;
2024-05-25T23:02:05.860;539872344573044117;368871;369069;333152;172318;
2024-05-25T23:02:05.878;539872344591197240;368964;369183;333145;172311;
2024-05-25T23:02:05.896;539872344609350363;369167;369278;333219;172294;
2024-05-25T23:02:05.914;539872344627503486;369258;369450;333338;172285;
2024-05-25T23:02:05.932;539872344645656609;369381;369638;333448;172309;
2024-05-25T23:02:05.951;539872344663809732;369527;369835;333537;172324;
2024-05-25T23:02:05.969;539872344681962855;369759;369968;333620;172394;
2024-05-25T23:02:05.987;539872344700115978;369827;370076;333597;172336;
2024-05-25T23:02:06.005;539872344718269101;369945;370215;333684;172287;
2024-05-25T23:02:06.023;539872344736422224;369952;370249;333692;172329;
2024-05-25T23:02:06.041;539872344754575347;370010;370318;333807;172280;
2024-05-25T23:02:06.060;539872344772728470;370069;370379;333837;172300;
2024-05-25T23:02:06.078;539872344790881593;370117;370384;333842;172298;
2024-05-25T23:02:06.096;539872344809034716;370170;370411;333834;172362;
2024-05-25T23:02:06.114;539872344827187839;370232;370498;333842;172315;
2024-05-25T23:02:06.132;539872344845340962;370190;370502;333933;172335;
2024-05-25T23:02:06.150;539872344863494085;370299;370563;333905;172372;
2024-05-25T23:02:06.168;539872344881647208;370304;370592;333930;172352;
2024-05-25T23:02:06.187;539872344899800041;370379;370632;333983;172424;
2024-05-25T23:02:06.205;539872344917952874;370388;370649;334033;172362;
2024-05-25T23:02:06.223;539872344936105707;370439;370718;333988;172368;
2024-05-25T23:02:06.241;539872344954258540;370383;370682;333908;172326;
2024-05-25T23:02:06.259;539872344972411373;370257;370479;333923;172351;
2024-05-25T23:02:06.277;539872344990564206;370020;370320;333812;172378;
2024-05-25T23:02:06.296;539872345008717039;369774;370056;333729;172325;
2024-05-25T23:02:06.314;539872345026869872;369544;369876;333571;172357;
2024-05-25T23:02:06.332;539872345045022705;369445;369695;333524;172360;
2024-05-25T23:02:06.350;539872345063175538;369366;369637;333520;172346;
2024-05-25T23:02:06.368;539872345081328371;369379;369639;333480;172341;
2024-05-25T23:02:06.386;539872345099481204;369421;369706;333506;172311;
2024-05-25T23:02:06.404;539872345117634037;369525;369804;333566;172367;
2024-05-25T23:02:06.423;539872345135786870;369584;369874;333584;172343;
2024-05-25T23:02:06.441;539872345153939703;369776;370080;333651;172344;
2024-05-25T23:02:06.459;539872345172092536;369926;370208;333736;172316;
2024-05-25T23:02:06.477;539872345190245369;370020;370401;333828;172335;
2024-05-25T23:02:06.495;539872345208398202;370166;370505;333992;172340;
2024-05-25T23:02:06.513;539872345226551035;370332;370616;334002;172306;
2024-05-25T23:02:06.531;539872345244703868;370422;370729;334070;172299;
2024-05-25T23:02:06.550;539872345262856701;370450;370755;334068;172290;
2024-05-25T23:02:06.568;539872345281009534;370551;370855;334126;172369;
2024-05-25T23:02:06.586;539872345299162367;370592;370892;334157;172342;
2024-05-25T23:02:06.604;539872345317315200;370558;370935;334167;172361;
2024-05-25T23:02:06.622;539872345335468033;370645;371046;334238;172400;
2024-05-25T23:02:06.640;539872345353620866;370687;371059;334228;172353;
2024-05-25T23:02:06.659;539872345371773699;370686;371092;334196;172331;
2024-05-25T23:02:06.677;539872345389926532;370717;371116;334244;172324;
2024-05-25T23:02:06.695;539872345408079365;370717;371087;334305;172368;
2024-05-25T23:02:06.713;539872345426232198;370772;371167;334299;172410;
2024-05-25T23:02:06.731;539872345444385031;370897;371243;334380;172414;
2024-05-25T23:02:06.749;539872345462537864;370832;371317;334367;172353;
2024-05-25T23:02:06.767;539872345480690697;370799;371202;334322;172342;
2024-05-25T23:02:06.786;539872345498843530;370699;371071;334266;172351;
2024-05-25T23:02:06.804;539872345516996363;370483;370883;334171;172316;
2024-05-25T23:02:06.822;539872345535149196;370312;370713;334050;172374;
2024-05-25T23:02:06.840;539872345553302029;370108;370516;333992;172322;
2024-05-25T23:02:06.858;539872345571454862;369964;370338;333899;172319;
2024-05-25T23:02:06.876;539872345589607695;369840;370330;333865;172343;
2024-05-25T23:02:06.895;539872345607760528;369868;370285;333861;172320;
2024-05-25T23:02:06.913;539872345625913361;369923;370348;333879;172305;
2024-05-25T23:02:06.931;539872345644066194;370008;370449;333921;172310;
2024-05-25T23:02:06.949;539872345662219027;370111;370640;334089;172333;
2024-05-25T23:02:06.967;539872345680371860;370269;370728;334108;172375;
2024-05-25T23:02:06.985;539872345698524693;370443;370898;334240;172343;
2024-05-25T23:02:07.003;539872345716677526;370549;371017;334268;172352;
2024-05-25T23:02:07.022;539872345734830359;370721;371161;334350;172311;
2024-05-25T23:02:07.040;539872345752983192;370874;371352;334477;172380;
2024-05-25T23:02:07.058;539872345771136025;370924;371447;334490;172374;
2024-05-25T23:02:07.076;539872345789288858;371056;371499;334546;172382;
2024-05-25T23:02:07.094;539872345807441691;371104;371488;334551;172386;
2024-05-25T23:02:07.112;539872345825594524;371165;371630;334665;172386;
2024-05-25T23:02:07.131;539872345843747357;371129;371632;334565;172352;
2024-05-25T23:02:07.149;539872345861900190;371197;371685;334597;172344;
2024-05-25T23:02:07.167;539872345880053023;371116;371651;334624;172333;
2024-05-25T23:02:07.185;539872345898205856;371208;371737;334659;172390;
2024-05-25T23:02:07.203;539872345916358689;371225;371726;334600;172374;
2024-05-25T23:02:07.221;539872345934511522;371282;371806;334691;172294;
2024-05-25T23:02:07.239;539872345952664355;371351;371846;334689;172352;
2024-05-25T23:02:07.258;539872345970817188;371331;371836;334709;172370;
2024-05-25T23:02:07.276;539872345988970021;371358;371833;334699;172348;
2024-05-25T23:02:07.294;539872346007122854;371305;371852;334703;172355;
2024-05-25T23:02:07.312;539872346025275687;371165;371666;334631;172345;
2024-05-25T23:02:07.330;539872346043428520;370995;371493;334531;172314;
2024-05-25T23:02:07.348;539872346061581353;370815;371333;334465;172341;
2024-05-25T23:02:07.367;539872346079734186;370582;371039;334310;172333;
2024-05-25T23:02:07.385;539872346097887019;370439;370930;334277;172289;
2024-05-25T23:02:07.403;539872346116039852;370354;370925;334260;172351;
2024-05-25T23:02:07.421;539872346134192685;370350;370829;334247;172326;
2024-05-25T23:02:07.439;539872346152345518;370388;370851;334284;172380;
2024-05-25T23:02:07.457;539872346170498351;370456;370945;334288;172335;
2024-05-25T23:02:07.475;539872346188651184;370645;371083;334352;172367;
2024-05-25T23:02:07.494;539872346206804017;370751;371287;334432;172335;
2024-05-25T23:02:07.512;539872346224956850;370892;371435;334510;172357;
2024-05-25T23:02:07.530;539872346243109683;371048;371596;334584;172344;
2024-05-25T23:02:07.548;539872346261262516;371218;371740;334711;172312;
2024-05-25T23:02:07.566;539872346279415349;371290;371855;334784;172340;
2024-05-25T23:02:07.584;539872346297568182;371362;371942;334780;172342;
2024-05-25T23:02:07.603;539872346315721015;371429;371975;334791;172293;
2024-05-25T23:02:07.621;539872346333873848;371494;372019;334831;172270;
2024-05-25T23:02:07.639;539872346352026681;371493;372071;334829;172304;
2024-05-25T23:02:07.657;539872346370179514;371525;372170;334889;172321;
2024-05-25T23:02:07.675;539872346388332347;371546;372122;334931;172309;
2024-05-25T23:02:07.693;539872346406485180;371624;372123;334947;172368;
2024-05-25T23:02:07.711;539872346424638762;371613;372165;334943;172341;
2024-05-25T23:02:07.730;539872346442792323;371698;372199;335000;172291;
2024-05-25T23:02:07.748;539872346460945884;371670;372245;335028;172328;
2024-05-25T23:02:07.766;539872346479099445;371711;372258;335007;172319;
2024-05-25T23:02:07.784;539872346497253006;371785;372379;335081;172388;
2024-05-25T23:02:07.802;539872346515406567;371788;372345;335071;172318;
2024-05-25T23:02:07.820;539872346533560128;371765;372300;335027;172322;
2024-05-25T23:02:07.839;539872346551713689;371606;372206;335005;172366;
2024-05-25T23:02:07.857;539872346569867250;371423;372025;334831;172319;
2024-05-25T23:02:07.875;539872346588020811;371235;371720;334752;172291;
2024-05-25T23:02:07.893;539872346606174372;371026;371550;334592;172342;
2024-05-25T23:02:07.911;539872346624327933;370873;371382;334527;172308;
2024-05-25T23:02:07.929;539872346642481494;370769;371383;334528;172344;
2024-05-25T23:02:07.947;539872346660635055;370781;371360;334561;172388;
2024-05-25T23:02:07.966;539872346678788616;370795;371361;334483;172368;
2024-05-25T23:02:07.984;539872346696942177;370888;371444;334537;172374;
2024-05-25T23:02:08.002;539872346715095738;371001;371550;334613;172356;
2024-05-25T23:02:08.020;539872346733249299;371163;371716;334737;172336;
2024-05-25T23:02:08.038;539872346751402860;371335;371836;334878;172373;
2024-05-25T23:02:08.056;539872346769556421;371515;372018;334956;172426;
2024-05-25T23:02:08.074;539872346787709982;371607;372075;334954;172342;
2024-05-25T23:02:08.093;539872346805863543;371668;372140;335005;172351;
2024-05-25T23:02:08.111;539872346824017104;371731;372260;335075;172321;
2024-05-25T23:02:08.129;539872346842170665;371775;372286;335090;172285;
2024-05-25T23:02:08.147;539872346860324226;371892;372314;335097;172346;
2024-05-25T23:02:08.165;539872346878477787;371905;372418;335149;172300;
2024-05-25T23:02:08.183;539872346896631348;371922;372430;335161;172289;
2024-05-25T23:02:08.202;539872346914784909;371924;372451;335161;172349;
2024-05-25T23:02:08.220;539872346932938470;371941;372455;335176;172350;
2024-05-25T23:02:08.238;539872346951092031;371912;372491;335137;172336;
2024-05-25T23:02:08.256;539872346969245592;371915;372496;335158;172331;
2024-05-25T23:02:08.274;539872346987399153;371955;372512;335181;172314;
2024-05-25T23:02:08.292;539872347005552714;372014;372566;335187;172319;
2024-05-25T23:02:08.310;539872347023706275;372074;372562;335202;172310;
2024-05-25T23:02:08.329;539872347041859836;372072;372591;335229;172318;
2024-05-25T23:02:08.347;539872347060013397;372008;372535;335222;172294;
2024-05-25T23:02:08.365;539872347078166958;371839;372383;335085;172304;
2024-05-25T23:02:08.383;539872347096320519;371600;372185;335027;172308;
2024-05-25T23:02:08.401;539872347114474080;371407;371922;334824;172318;
2024-05-25T23:02:08.419;539872347132627641;371233;371723;334770;172272;
2024-05-25T23:02:08.438;539872347150781202;371024;371537;334723;172302;
2024-05-25T23:02:08.456;539872347168934763;370923;371462;334661;172314;
2024-05-25T23:02:08.474;539872347187088324;370893;371453;334620;172300;
2024-05-25T23:02:08.492;539872347205241968;370951;371427;334624;172311;
2024-05-25T23:02:08.510;539872347223395600;371036;371504;334763;172306;
2024-05-25T23:02:08.528;539872347241549232;371172;371689;334766;172334;
2024-05-25T23:02:08.546;539872347259702864;371306;371837;334811;172271;
2024-05-25T23:02:08.565;539872347277856496;371433;371993;334938;172333;
2024-05-25T23:02:08.583;539872347296010128;371558;372062;335018;172247;
2024-05-25T23:02:08.601;539872347314163760;371685;372202;335079;172254;
2024-05-25T23:02:08.619;539872347332317392;371769;372305;335071;172314;
2024-05-25T23:02:08.637;539872347350471024;371856;372393;335077;172329;
2024-05-25T23:02:08.655;539872347368624656;371913;372442;335105;172294;
2024-05-25T23:02:08.674;539872347386778288;371977;372440;335147;172334;
2024-05-25T23:02:08.692;539872347404931920;371985;372453;335162;172359;
2024-05-25T23:02:08.710;539872347423085552;371997;372471;335135;172344;
2024-05-25T23:02:08.728;539872347441239184;371963;372569;335210;172322;
2024-05-25T23:02:08.746;539872347459392816;372058;372552;335228;172375;
2024-05-25T23:02:08.764;539872347477546448;372035;372577;335214;172341;
2024-05-25T23:02:08.782;539872347495700080;372090;372648;335268;172348;
2024-05-25T23:02:08.801;539872347513853712;372048;372600;335261;172341;
2024-05-25T23:02:08.819;539872347532007344;372105;372605;335298;172278;
2024-05-25T23:02:08.837;539872347550160976;372066;372677;335295;172270;
2024-05-25T23:02:08.855;539872347568314608;372102;372707;335323;172352;
2024-05-25T23:02:08.873;539872347586468240;371967;372570;335236;172323;
2024-05-25T23:02:08.891;539872347604621872;371738;372366;335097;172355;
2024-05-25T23:02:08.910;539872347622775504;371563;372159;335024;172362;
2024-05-25T23:02:08.928;539872347640929136;371369;371881;334868;172365;
2024-05-25T23:02:08.946;539872347659082768;371160;371684;334779;172343;
2024-05-25T23:02:08.964;539872347677236400;370990;371512;334746;172354;
2024-05-25T23:02:08.982;539872347695390032;370929;371426;334674;172344;
2024-05-25T23:02:09.000;539872347713543664;370872;371390;334666;172332;
2024-05-25T23:02:09.018;539872347731697296;370911;371458;334638;172285;
2024-05-25T23:02:09.037;539872347749850928;370982;371448;334735;172290;
2024-05-25T23:02:09.055;539872347768004560;371110;371594;334762;172319;
2024-05-25T23:02:09.073;539872347786158192;371287;371802;334865;172367;
2024-05-25T23:02:09.091;539872347804311824;371377;371879;334900;172321;
2024-05-25T23:02:09.109;539872347822465456;371455;371986;334980;172346;
2024-05-25T23:02:09.127;539872347840619088;371554;372068;335045;172332;
2024-05-25T23:02:09.146;539872347858772720;371647;372141;335061;172321;
2024-05-25T23:02:09.164;539872347876926352;371629;372173;335043;172287;
2024-05-25T23:02:09.182;539872347895079984;371611;372213;335059;172309;
2024-05-25T23:02:09.200;539872347913233616;371682;372257;335107;172336;
2024-05-25T23:02:09.218;539872347931387248;371715;372242;335082;172324;
2024-05-25T23:02:09.236;539872347949540880;371761;372338;335077;172256;
2024-05-25T23:02:09.254;539872347967693604;371732;372305;335092;172306;
2024-05-25T23:02:09.273;539872347985846328;371780;372265;335101;172338;
2024-05-25T23:02:09.291;539872348003999052;371747;372309;335092;172363;
2024-05-25T23:02:09.309;539872348022151776;371646;372225;335045;172318;
2024-05-25T23:02:09.327;539872348040304500;371666;372258;335077;172302;
2024-05-25T23:02:09.345;539872348058457224;371715;372239;335074;172321;
2024-05-25T23:02:09.363;539872348076609948;371698;372283;335076;172321;
2024-05-25T23:02:09.382;539872348094762672;371656;372220;335066;172329;
2024-05-25T23:02:09.400;539872348112915396;371393;372021;334925;172292;
2024-05-25T23:02:09.418;539872348131068120;371195;371770;334841;172321;
2024-05-25T23:02:09.436;539872348149220844;370944;371526;334665;172352;
2024-05-25T23:02:09.454;539872348167373568;370696;371212;334533;172299;
2024-05-25T23:02:09.472;539872348185526292;370558;371013;334430;172297;
2024-05-25T23:02:09.490;539872348203679016;370412;370932;334391;172301;
2024-05-25T23:02:09.509;539872348221831740;370344;370862;334342;172316;
2024-05-25T23:02:09.527;539872348239984464;370293;370888;334380;172339;
2024-05-25T23:02:09.545;539872348258137188;370303;370878;334328;172268;
2024-05-25T23:02:09.563;539872348276289912;370439;371019;334401;172317;
2024-05-25T23:02:09.581;539872348294442636;370531;371124;334464;172323;
2024-05-25T23:02:09.599;539872348312595360;370640;371208;334461;172354;
2024-05-25T23:02:09.618;539872348330748084;370744;371300;334563;172353;
2024-05-25T23:02:09.636;539872348348900808;370918;371473;334635;172390;
2024-05-25T23:02:09.654;539872348367053532;370952;371478;334694;172374;
2024-05-25T23:02:09.672;539872348385206256;370973;371566;334675;172351;
2024-05-25T23:02:09.690;539872348403358980;370992;371589;334695;172318;
2024-05-25T23:02:09.708;539872348421511704;371008;371527;334683;172370;
2024-05-25T23:02:09.726;539872348439664428;371041;371554;334691;172322;
2024-05-25T23:02:09.745;539872348457817152;371055;371613;334695;172317;
2024-05-25T23:02:09.763;539872348475969876;371020;371570;334780;172327;
2024-05-25T23:02:09.781;539872348494122600;371010;371566;334755;172307;
2024-05-25T23:02:09.799;539872348512275324;371021;371547;334754;172289;
2024-05-25T23:02:09.817;539872348530428048;371018;371610;334725;172343;
2024-05-25T23:02:09.835;539872348548580772;371054;371653;334709;172321;
2024-05-25T23:02:09.854;539872348566733496;371061;371611;334711;172317;
2024-05-25T23:02:09.872;539872348584886220;371086;371579;334655;172271;
2024-05-25T23:02:09.890;539872348603038944;371034;371565;334700;172299;
2024-05-25T23:02:09.908;539872348621191668;370816;371397;334631;172321;
2024-05-25T23:02:09.926;539872348639344392;370549;371103;334498;172267;
2024-05-25T23:02:09.944;539872348657497116;370355;370883;334360;172295;
2024-05-25T23:02:09.962;539872348675649840;370140;370695;334146;172289;
2024-05-25T23:02:09.981;539872348693802564;369920;370463;334095;172260;
2024-05-25T23:02:09.999;539872348711955288;369824;370377;334073;172297;
2024-05-25T23:02:10.017;539872348730108108;369801;370242;334068;172328;
2024-05-25T23:02:10.035;539872348748260924;369803;370338;334022;172329;
2024-05-25T23:02:10.053;539872348766413740;369832;370331;334033;172316;
2024-05-25T23:02:10.071;539872348784566556;369883;370401;334056;172259;
2024-05-25T23:02:10.090;539872348802719372;369998;370516;334134;172341;
2024-05-25T23:02:10.108;539872348820872188;370056;370640;334138;172264;
2024-05-25T23:02:10.126;539872348839025004;370215;370718;334221;172287;
2024-05-25T23:02:10.144;539872348857177820;370284;370796;334285;172284;
2024-05-25T23:02:10.162;539872348875330636;370320;370895;334319;172301;
2024-05-25T23:02:10.180;539872348893483452;370347;370876;334310;172295;
2024-05-25T23:02:10.198;539872348911636268;370468;370944;334351;172372;
2024-05-25T23:02:10.217;539872348929789084;370500;371007;334358;172327;
2024-05-25T23:02:10.235;539872348947941900;370526;370984;334425;172331;
2024-05-25T23:02:10.253;539872348966094716;370564;371042;334394;172325;
2024-05-25T23:02:10.271;539872348984247532;370592;371135;334400;172312;
2024-05-25T23:02:10.289;539872349002400348;370577;371146;334460;172289;
2024-05-25T23:02:10.307;539872349020553164;370652;371180;334454;172315;
2024-05-25T23:02:10.325;539872349038705980;370658;371214;334483;172324;
2024-05-25T23:02:10.344;539872349056858796;370781;371270;334567;172338;
2024-05-25T23:02:10.362;539872349075011612;370781;371349;334565;172318;
2024-05-25T23:02:10.380;539872349093164428;370815;371333;334508;172359;
2024-05-25T23:02:10.398;539872349111317244;370666;371194;334453;172323;
2024-05-25T23:02:10.416;539872349129470060;370508;370989;334400;172351;
2024-05-25T23:02:10.434;539872349147622876;370308;370748;334196;172338;
2024-05-25T23:02:10.453;539872349165775692;370127;370624;334130;172310;
2024-05-25T23:02:10.471;539872349183928508;369991;370437;334126;172375;
2024-05-25T23:02:10.489;539872349202081324;369863;370341;334006;172304;
2024-05-25T23:02:10.507;539872349220234140;369786;370353;333989;172331;
2024-05-25T23:02:10.525;539872349238386956;369898;370401;334060;172375;
2024-05-25T23:02:10.543;539872349256539772;369970;370449;334008;172332;
2024-05-25T23:02:10.561;539872349274692588;370192;370655;334187;172316;
2024-05-25T23:02:10.580;539872349292845404;370317;370803;334259;172316;
2024-05-25T23:02:10.598;539872349310998220;370437;370895;334294;172372;
2024-05-25T23:02:10.616;539872349329151036;370625;371093;334320;172352;
2024-05-25T23:02:10.634;539872349347303852;370791;371257;334473;172377;
2024-05-25T23:02:10.652;539872349365456668;370819;371292;334445;172325;
2024-05-25T23:02:10.670;539872349383609484;370796;371363;334455;172258;
2024-05-25T23:02:10.689;539872349401762300;370904;371394;334534;172340;
2024-05-25T23:02:10.707;539872349419915116;370970;371408;334551;172339;
2024-05-25T23:02:10.725;539872349438067932;370962;371417;334531;172329;
2024-05-25T23:02:10.743;539872349456220748;370966;371380;334541;172317;
2024-05-25T23:02:10.761;539872349474373564;370987;371346;334520;172297;
2024-05-25T23:02:10.779;539872349492526380;370898;371416;334537;172291;
2024-05-25T23:02:10.797;539872349510679590;370910;371353;334550;172306;
2024-05-25T23:02:10.816;539872349528832786;370880;371329;334554;172344;
2024-05-25T23:02:10.834;539872349546985982;370802;371240;334459;172265;
2024-05-25T23:02:10.852;539872349565139178;370726;371162;334368;172280;
2024-05-25T23:02:10.870;539872349583292374;370611;371033;334347;172251;
2024-05-25T23:02:10.888;539872349601445570;370371;370774;334242;172303;
2024-05-25T23:02:10.906;539872349619598766;370021;370431;334073;172316;
2024-05-25T23:02:10.925;539872349637751962;369626;370003;333825;172311;
2024-05-25T23:02:10.943;539872349655905158;369288;369645;333608;172325;
2024-05-25T23:02:10.961;539872349674058354;369022;369280;333486;172350;
2024-05-25T23:02:10.979;539872349692211550;368786;369110;333320;172393;
2024-05-25T23:02:10.997;539872349710364746;368640;368965;333256;172373;
2024-05-25T23:02:11.015;539872349728517942;368524;368823;333155;172368;
2024-05-25T23:02:11.033;539872349746671138;368472;368755;333135;172315;
2024-05-25T23:02:11.052;539872349764824334;368512;368801;333103;172335;
2024-05-25T23:02:11.070;539872349782977530;368520;368878;333203;172326;
2024-05-25T23:02:11.088;539872349801130726;368650;368910;333231;172374;
2024-05-25T23:02:11.106;539872349819283922;368676;368905;333217;172260;
2024-05-25T23:02:11.124;539872349837437118;368674;368981;333219;172293;
2024-05-25T23:02:11.142;539872349855590314;368792;369003;333225;172304;
2024-05-25T23:02:11.161;539872349873743510;368783;369005;333236;172324;
2024-05-25T23:02:11.179;539872349891896706;368809;369075;333251;172278;
2024-05-25T23:02:11.197;539872349910049902;368834;369114;333248;172321;
2024-05-25T23:02:11.215;539872349928203098;368861;369108;333285;172341;
2024-05-25T23:02:11.233;539872349946356294;368876;369109;333270;172373;
2024-05-25T23:02:11.251;539872349964509490;368775;369008;333215;172361;
2024-05-25T23:02:11.269;539872349982662686;368737;369041;333271;172352;
2024-05-25T23:02:11.288;539872350000815882;368805;369024;333233;172355;
2024-05-25T23:02:11.306;539872350018969078;368807;369042;333222;172294;
2024-05-25T23:02:11.324;539872350037122274;368878;369050;333227;172329;
2024-05-25T23:02:11.342;539872350055275470;368834;369100;333265;172316;
2024-05-25T23:02:11.360;539872350073428666;368939;369081;333367;172286;
2024-05-25T23:02:11.378;539872350091581862;368849;369006;333271;172282;
2024-05-25T23:02:11.397;539872350109735058;368731;368879;333188;172297;
2024-05-25T23:02:11.415;539872350127888254;368473;368614;333031;172337;
2024-05-25T23:02:11.433;539872350146041450;368143;368331;332847;172289;
2024-05-25T23:02:11.451;539872350164194646;367913;368181;332727;172394;
2024-05-25T23:02:11.469;539872350182347842;367834;367974;332638;172373;
2024-05-25T23:02:11.487;539872350200501038;367651;367760;332556;172285;
2024-05-25T23:02:11.505;539872350218654234;367613;367787;332563;172380;
2024-05-25T23:02:11.524;539872350236807430;367698;367841;332585;172354;
2024-05-25T23:02:11.542;539872350254960626;367809;367912;332630;172328;
2024-05-25T23:02:11.560;539872350273113123;367944;368035;332714;172369;
2024-05-25T23:02:11.578;539872350291265592;368016;368176;332707;172324;
2024-05-25T23:02:11.596;539872350309418061;368099;368210;332760;172310;
2024-05-25T23:02:11.614;539872350327570530;368243;368289;332833;172375;
2024-05-25T23:02:11.633;539872350345722999;368288;368414;332886;172346;
2024-05-25T23:02:11.651;539872350363875468;368294;368447;332914;172304;
2024-05-25T23:02:11.669;539872350382027937;368385;368539;332930;172298;
2024-05-25T23:02:11.687;539872350400180406;368410;368569;332951;172389;
2024-05-25T23:02:11.705;539872350418332875;368432;368618;332897;172310;
2024-05-25T23:02:11.723;539872350436485344;368467;368596;332911;172311;
2024-05-25T23:02:11.741;539872350454637813;368482;368578;332904;172288;
2024-05-25T23:02:11.760;539872350472790282;368540;368571;332940;172310;
2024-05-25T23:02:11.778;539872350490942751;368501;368579;332913;172287;
2024-05-25T23:02:11.796;539872350509095220;368466;368568;332884;172274;
2024-05-25T23:02:11.814;539872350527247689;368574;368573;332948;172289;
2024-05-25T23:02:11.832;539872350545400158;368526;368660;332904;172268;
2024-05-25T23:02:11.850;539872350563552627;368591;368693;332959;172287;
2024-05-25T23:02:11.868;539872350581705096;368672;368698;332972;172335;
2024-05-25T23:02:11.887;539872350599857565;368564;368595;332937;172339;
2024-05-25T23:02:11.905;539872350618010034;368362;368379;332810;172318;
2024-05-25T23:02:11.923;539872350636162503;368161;368232;332754;172258;
2024-05-25T23:02:11.941;539872350654314972;367970;367984;332640;172307;
2024-05-25T23:02:11.959;539872350672467441;367788;367804;332571;172348;
2024-05-25T23:02:11.977;539872350690619910;367709;367693;332505;172301;
2024-05-25T23:02:11.996;539872350708772379;367633;367624;332450;172282;
2024-05-25T23:02:12.014;539872350726924848;367649;367605;332426;172324;
2024-05-25T23:02:12.032;539872350745077317;367696;367688;332501;172348;
2024-05-25T23:02:12.050;539872350763229786;367792;367768;332502;172326;
2024-05-25T23:02:12.068;539872350781382255;367859;367881;332537;172334;
2024-05-25T23:02:12.086;539872350799534724;368077;368090;332645;172341;
2024-05-25T23:02:12.104;539872350817687193;368220;368181;332703;172297;
2024-05-25T23:02:12.123;539872350835839662;368294;368288;332790;172321;
