Phone timestamp;sensor timestamp [ns];channel 0;channel 1;channel 2;ambient
2024-05-26T22:15:17.444;539955935965193137;440709;451722;392754;172350;
2024-05-26T22:15:17.462;539955935983351169;440640;451674;392762;172333;
2024-05-26T22:15:17.480;539955936001509201;440588;451597;392700;172421;
2024-05-26T22:15:17.498;539955936019667233;440456;451453;392614;172399;
2024-05-26T22:15:17.516;539955936037825265;440217;451320;392455;172389;
2024-05-26T22:15:17.534;539955936055983297;440083;451166;392326;172385;
2024-05-26T22:15:17.552;539955936074141329;439894;450944;392250;172355;
2024-05-26T22:15:17.571;539955936092299361;439724;450889;392107;172368;
2024-05-26T22:15:17.589;539955936110457393;439601;450767;392049;172328;
2024-05-26T22:15:17.607;539955936128615425;439560;450639;392036;172374;
2024-05-26T22:15:17.625;539955936146773457;439618;450613;392073;172433;
2024-05-26T22:15:17.643;539955936164931489;439551;450609;392021;172405;
2024-05-26T22:15:17.661;539955936183089521;439577;450642;392006;172392;
2024-05-26T22:15:17.680;539955936201247553;439576;450605;392064;172399;
2024-05-26T22:15:17.698;539955936219405585;439616;450624;392094;172396;
2024-05-26T22:15:17.716;539955936237563617;439653;450633;392117;172386;
2024-05-26T22:15:17.734;539955936255721649;439710;450681;392202;172428;
2024-05-26T22:15:17.752;539955936273879681;439711;450624;392123;172433;
2024-05-26T22:15:17.770;539955936292037713;439633;450676;392118;172414;
2024-05-26T22:15:17.789;539955936310195745;439668;450625;392069;172378;
2024-05-26T22:15:17.807;539955936328353777;439664;450681;392141;172385;
2024-05-26T22:15:17.825;539955936346511809;439683;450623;392073;172446;
2024-05-26T22:15:17.843;539955936364669841;439623;450564;392062;172387;
2024-05-26T22:15:17.861;539955936382827873;439537;450479;391984;172406;
2024-05-26T22:15:17.879;539955936400985905;439486;450469;391965;172395;
2024-05-26T22:15:17.897;539955936419143937;439545;450476;392002;172416;
2024-05-26T22:15:17.916;539955936437301969;439492;450417;391931;172399;
2024-05-26T22:15:17.934;539955936455460001;439521;450485;391972;172378;
2024-05-26T22:15:17.952;539955936473618033;439492;450463;391930;172422;
2024-05-26T22:15:17.970;539955936491776065;439442;450422;391940;172412;
2024-05-26T22:15:17.988;539955936509934097;439412;450331;391901;172351;
2024-05-26T22:15:18.006;539955936528092129;439440;450338;391973;172410;
2024-05-26T22:15:18.025;539955936546250161;439383;450309;391869;172368;
2024-05-26T22:15:18.043;539955936564408193;439421;450318;391903;172387;
2024-05-26T22:15:18.061;539955936582566225;439446;450349;391954;172374;
2024-05-26T22:15:18.079;539955936600724257;439467;450330;391901;172362;
2024-05-26T22:15:18.097;539955936618882289;439465;450258;391943;172392;
2024-05-26T22:15:18.115;539955936637040321;439347;450260;391916;172410;
2024-05-26T22:15:18.134;539955936655198353;439369;450293;391964;172378;
2024-05-26T22:15:18.152;539955936673356385;439387;450282;391935;172377;
2024-05-26T22:15:18.170;539955936691514417;439404;450237;391954;172413;
2024-05-26T22:15:18.188;539955936709672449;439402;450235;391868;172360;
2024-05-26T22:15:18.206;539955936727830481;439356;450205;391866;172354;
2024-05-26T22:15:18.224;539955936745988513;439345;450242;391950;172366;
2024-05-26T22:15:18.242;539955936764146545;439373;450189;391896;172406;
2024-05-26T22:15:18.261;539955936782304606;439320;450215;391868;172389;
2024-05-26T22:15:18.279;539955936800462638;439210;450119;391808;172362;
2024-05-26T22:15:18.297;539955936818620670;439101;450003;391846;172429;
2024-05-26T22:15:18.315;539955936836778702;438859;449731;391609;172344;
2024-05-26T22:15:18.333;539955936854936734;438697;449531;391466;172370;
2024-05-26T22:15:18.351;539955936873094766;438466;449309;391340;172376;
2024-05-26T22:15:18.370;539955936891252798;438339;449161;391226;172356;
2024-05-26T22:15:18.388;539955936909410830;438165;448976;391159;172392;
2024-05-26T22:15:18.406;539955936927568862;438068;448853;391077;172401;
2024-05-26T22:15:18.424;539955936945726894;438107;448813;391057;172435;
2024-05-26T22:15:18.442;539955936963884926;438057;448781;391033;172401;
2024-05-26T22:15:18.460;539955936982042958;437960;448754;391078;172362;
2024-05-26T22:15:18.479;539955937000200990;438047;448779;391029;172379;
2024-05-26T22:15:18.497;539955937018359022;438135;448781;391120;172414;
2024-05-26T22:15:18.515;539955937036517054;438202;448846;391149;172394;
2024-05-26T22:15:18.533;539955937054675086;438260;448844;391125;172440;
2024-05-26T22:15:18.551;539955937072833118;438324;448941;391186;172385;
2024-05-26T22:15:18.569;539955937090991150;438308;448908;391209;172389;
2024-05-26T22:15:18.587;539955937109149182;438320;448962;391306;172388;
2024-05-26T22:15:18.606;539955937127307214;438346;448966;391210;172409;
2024-05-26T22:15:18.624;539955937145465246;438403;448997;391254;172436;
2024-05-26T22:15:18.642;539955937163623278;438353;448973;391246;172369;
2024-05-26T22:15:18.660;539955937181781310;438357;448911;391223;172343;
2024-05-26T22:15:18.678;539955937199939342;438352;448889;391210;172377;
2024-05-26T22:15:18.696;539955937218097374;438291;448921;391192;172393;
2024-05-26T22:15:18.715;539955937236255406;438280;448775;391211;172372;
2024-05-26T22:15:18.733;539955937254413438;438205;448765;391179;172367;
2024-05-26T22:15:18.751;539955937272571470;438235;448816;391187;172358;
2024-05-26T22:15:18.769;539955937290729502;438318;448804;391217;172370;
2024-05-26T22:15:18.787;539955937308887534;438284;448818;391217;172424;
2024-05-26T22:15:18.805;539955937327045566;438282;448794;391214;172406;
2024-05-26T22:15:18.824;539955937345203598;438248;448834;391193;172380;
2024-05-26T22:15:18.842;539955937363361630;438197;448747;391196;172394;
2024-05-26T22:15:18.860;539955937381519662;438264;448885;391287;172390;
2024-05-26T22:15:18.878;539955937399677694;438319;448882;391309;172423;
2024-05-26T22:15:18.896;539955937417835726;438333;448912;391317;172411;
2024-05-26T22:15:18.914;539955937435993758;438333;448915;391336;172362;
2024-05-26T22:15:18.932;539955937454151790;438372;448928;391342;172395;
2024-05-26T22:15:18.951;539955937472309822;438416;448958;391348;172396;
2024-05-26T22:15:18.969;539955937490467854;438443;448929;391355;172438;
2024-05-26T22:15:18.987;539955937508625886;438378;448933;391252;172367;
2024-05-26T22:15:19.005;539955937526783918;438379;448991;391334;172349;
2024-05-26T22:15:19.023;539955937544941950;438373;448994;391307;172362;
2024-05-26T22:15:19.041;539955937563101623;438430;448943;391277;172329;
2024-05-26T22:15:19.060;539955937581261286;438380;448809;391264;172393;
2024-05-26T22:15:19.078;539955937599420949;438218;448739;391214;172392;
2024-05-26T22:15:19.096;539955937617580612;437960;448498;391045;172344;
2024-05-26T22:15:19.114;539955937635740275;437732;448272;390927;172385;
2024-05-26T22:15:19.132;539955937653899938;437535;448058;390743;172395;
2024-05-26T22:15:19.150;539955937672059601;437275;447734;390590;172369;
2024-05-26T22:15:19.169;539955937690219264;437185;447501;390452;172409;
2024-05-26T22:15:19.187;539955937708378927;437087;447346;390408;172382;
2024-05-26T22:15:19.205;539955937726538590;437008;447249;390293;172343;
2024-05-26T22:15:19.223;539955937744698253;436930;447223;390285;172322;
2024-05-26T22:15:19.241;539955937762857916;436978;447269;390267;172316;
2024-05-26T22:15:19.259;539955937781017579;437022;447300;390353;172416;
2024-05-26T22:15:19.277;539955937799177242;437040;447351;390434;172404;
2024-05-26T22:15:19.296;539955937817336905;437100;447325;390432;172408;
2024-05-26T22:15:19.314;539955937835496568;437198;447464;390517;172396;
2024-05-26T22:15:19.332;539955937853656231;437292;447515;390563;172379;
2024-05-26T22:15:19.350;539955937871815894;437238;447507;390563;172342;
2024-05-26T22:15:19.368;539955937889975557;437233;447538;390517;172410;
2024-05-26T22:15:19.386;539955937908135220;437314;447543;390548;172435;
2024-05-26T22:15:19.405;539955937926294883;437303;447485;390518;172378;
2024-05-26T22:15:19.423;539955937944454546;437296;447455;390519;172382;
2024-05-26T22:15:19.441;539955937962614209;437265;447407;390510;172385;
2024-05-26T22:15:19.459;539955937980773872;437192;447359;390476;172321;
2024-05-26T22:15:19.477;539955937998933535;437121;447341;390412;172275;
2024-05-26T22:15:19.495;539955938017093198;437122;447340;390415;172303;
2024-05-26T22:15:19.514;539955938035252861;437158;447263;390407;172345;
2024-05-26T22:15:19.532;539955938053412524;437108;447242;390400;172363;
2024-05-26T22:15:19.550;539955938071572187;437060;447283;390385;172366;
2024-05-26T22:15:19.568;539955938089731850;437102;447219;390377;172372;
2024-05-26T22:15:19.586;539955938107891513;437070;447156;390317;172337;
2024-05-26T22:15:19.604;539955938126051176;437167;447250;390411;172331;
2024-05-26T22:15:19.623;539955938144210839;437153;447251;390361;172379;
2024-05-26T22:15:19.641;539955938162370502;437142;447251;390408;172425;
2024-05-26T22:15:19.659;539955938180530165;437232;447301;390455;172350;
2024-05-26T22:15:19.677;539955938198689828;437181;447264;390477;172361;
2024-05-26T22:15:19.695;539955938216849491;437166;447325;390450;172300;
2024-05-26T22:15:19.713;539955938235009154;437222;447315;390466;172395;
2024-05-26T22:15:19.731;539955938253168817;437216;447320;390471;172358;
2024-05-26T22:15:19.750;539955938271328480;437284;447396;390499;172389;
2024-05-26T22:15:19.768;539955938289488143;437275;447340;390518;172302;
2024-05-26T22:15:19.786;539955938307647806;437316;447375;390480;172324;
2024-05-26T22:15:19.804;539955938325806768;437393;447467;390594;172359;
2024-05-26T22:15:19.822;539955938343965704;437371;447420;390555;172374;
2024-05-26T22:15:19.840;539955938362124640;437279;447337;390539;172406;
2024-05-26T22:15:19.859;539955938380283576;437122;447164;390456;172394;
2024-05-26T22:15:19.877;539955938398442512;436912;446898;390192;172332;
2024-05-26T22:15:19.895;539955938416601448;436636;446690;390035;172336;
2024-05-26T22:15:19.913;539955938434760384;436482;446432;389856;172350;
2024-05-26T22:15:19.931;539955938452919320;436323;446225;389752;172403;
2024-05-26T22:15:19.949;539955938471078256;436245;446078;389645;172371;
2024-05-26T22:15:19.968;539955938489237192;436195;446060;389628;172455;
2024-05-26T22:15:19.986;539955938507396128;436143;445989;389637;172377;
2024-05-26T22:15:20.004;539955938525555064;436127;445993;389588;172363;
2024-05-26T22:15:20.022;539955938543714000;436222;446050;389597;172409;
2024-05-26T22:15:20.040;539955938561872936;436250;446100;389649;172353;
2024-05-26T22:15:20.058;539955938580031872;436310;446156;389653;172395;
2024-05-26T22:15:20.076;539955938598190808;436388;446286;389780;172359;
2024-05-26T22:15:20.095;539955938616349744;436514;446398;389809;172382;
2024-05-26T22:15:20.113;539955938634508680;436542;446389;389819;172371;
2024-05-26T22:15:20.131;539955938652667616;436615;446480;389834;172372;
2024-05-26T22:15:20.149;539955938670826552;436633;446533;389871;172363;
2024-05-26T22:15:20.167;539955938688985488;436623;446587;389874;172348;
2024-05-26T22:15:20.185;539955938707144424;436654;446525;389810;172349;
2024-05-26T22:15:20.204;539955938725303360;436672;446526;389909;172402;
2024-05-26T22:15:20.222;539955938743462296;436627;446533;389864;172393;
2024-05-26T22:15:20.240;539955938761621232;436638;446519;389896;172396;
2024-05-26T22:15:20.258;539955938779780168;436659;446512;389869;172446;
2024-05-26T22:15:20.276;539955938797939104;436644;446525;389878;172388;
2024-05-26T22:15:20.294;539955938816098040;436670;446536;389889;172421;
2024-05-26T22:15:20.313;539955938834256976;436648;446523;389901;172360;
2024-05-26T22:15:20.331;539955938852415912;436728;446587;389914;172370;
2024-05-26T22:15:20.349;539955938870574848;436741;446501;389852;172350;
2024-05-26T22:15:20.367;539955938888733784;436837;446585;389885;172380;
2024-05-26T22:15:20.385;539955938906892720;436870;446594;389855;172319;
2024-05-26T22:15:20.403;539955938925051656;436879;446675;390020;172377;
2024-05-26T22:15:20.422;539955938943210592;436868;446699;390009;172342;
2024-05-26T22:15:20.440;539955938961369528;436949;446785;390009;172391;
2024-05-26T22:15:20.458;539955938979528464;437048;446833;390019;172413;
2024-05-26T22:15:20.476;539955938997687400;437051;446820;390053;172439;
2024-05-26T22:15:20.494;539955939015846336;437028;446851;390086;172397;
2024-05-26T22:15:20.512;539955939034005272;437021;446880;390078;172359;
2024-05-26T22:15:20.530;539955939052164208;437043;446857;390109;172368;
2024-05-26T22:15:20.549;539955939070323144;437053;446875;390076;172351;
2024-05-26T22:15:20.567;539955939088484021;437102;446963;390168;172370;
2024-05-26T22:15:20.585;539955939106644892;437095;446926;390176;172365;
2024-05-26T22:15:20.603;539955939124805763;437008;446871;390095;172409;
2024-05-26T22:15:20.621;539955939142966634;436908;446810;390012;172431;
2024-05-26T22:15:20.639;539955939161127505;436789;446605;389908;172440;
2024-05-26T22:15:20.658;539955939179288376;436608;446408;389676;172405;
2024-05-26T22:15:20.676;539955939197449247;436398;446201;389512;172359;
2024-05-26T22:15:20.694;539955939215610118;436220;446027;389385;172331;
2024-05-26T22:15:20.712;539955939233770989;436091;445869;389282;172334;
2024-05-26T22:15:20.730;539955939251931860;436051;445851;389261;172374;
2024-05-26T22:15:20.748;539955939270092731;436051;445851;389258;172367;
2024-05-26T22:15:20.767;539955939288253602;436106;445888;389225;172343;
2024-05-26T22:15:20.785;539955939306414473;436157;445975;389232;172379;
2024-05-26T22:15:20.803;539955939324575344;436148;446047;389333;172385;
2024-05-26T22:15:20.821;539955939342736215;436216;446086;389374;172371;
2024-05-26T22:15:20.839;539955939360897086;436308;446202;389437;172376;
2024-05-26T22:15:20.857;539955939379057957;436365;446271;389481;172368;
2024-05-26T22:15:20.876;539955939397218828;436510;446333;389564;172374;
2024-05-26T22:15:20.894;539955939415379699;436439;446376;389574;172362;
2024-05-26T22:15:20.912;539955939433540570;436471;446370;389640;172336;
2024-05-26T22:15:20.930;539955939451701441;436533;446393;389566;172400;
2024-05-26T22:15:20.948;539955939469862312;436481;446372;389537;172338;
2024-05-26T22:15:20.966;539955939488023183;436505;446398;389524;172373;
2024-05-26T22:15:20.984;539955939506184054;436523;446472;389551;172400;
2024-05-26T22:15:21.003;539955939524344925;436472;446417;389505;172385;
2024-05-26T22:15:21.021;539955939542505796;436411;446303;389466;172361;
2024-05-26T22:15:21.039;539955939560666667;436357;446366;389483;172341;
2024-05-26T22:15:21.057;539955939578827538;436361;446270;389404;172378;
2024-05-26T22:15:21.075;539955939596988409;436394;446322;389420;172387;
2024-05-26T22:15:21.093;539955939615149280;436380;446325;389476;172392;
2024-05-26T22:15:21.112;539955939633310151;436348;446324;389434;172411;
2024-05-26T22:15:21.130;539955939651471022;436375;446399;389532;172392;
2024-05-26T22:15:21.148;539955939669631893;436371;446351;389459;172392;
2024-05-26T22:15:21.166;539955939687792764;436384;446418;389488;172423;
2024-05-26T22:15:21.184;539955939705953635;436421;446377;389491;172366;
2024-05-26T22:15:21.202;539955939724114506;436446;446377;389492;172328;
2024-05-26T22:15:21.221;539955939742275377;436542;446453;389553;172392;
2024-05-26T22:15:21.239;539955939760436248;436563;446515;389575;172349;
2024-05-26T22:15:21.257;539955939778597119;436551;446489;389543;172361;
2024-05-26T22:15:21.275;539955939796757990;436563;446556;389547;172334;
2024-05-26T22:15:21.293;539955939814918861;436633;446610;389574;172400;
2024-05-26T22:15:21.311;539955939833079732;436589;446670;389567;172342;
2024-05-26T22:15:21.330;539955939851240603;436637;446660;389671;172366;
2024-05-26T22:15:21.348;539955939869401702;436700;446769;389669;172395;
2024-05-26T22:15:21.366;539955939887562786;436663;446625;389613;172377;
2024-05-26T22:15:21.384;539955939905723870;436592;446649;389565;172421;
2024-05-26T22:15:21.402;539955939923884954;436456;446583;389440;172361;
2024-05-26T22:15:21.420;539955939942046038;436207;446340;389266;172371;
2024-05-26T22:15:21.439;539955939960207122;436109;446220;389197;172393;
2024-05-26T22:15:21.457;539955939978368206;435953;446086;389081;172407;
2024-05-26T22:15:21.475;539955939996529290;435831;446036;389039;172307;
2024-05-26T22:15:21.493;539955940014690374;435886;446023;388959;172345;
2024-05-26T22:15:21.511;539955940032851458;435934;446054;389015;172403;
2024-05-26T22:15:21.529;539955940051012542;435981;446100;389096;172399;
2024-05-26T22:15:21.547;539955940069173626;435982;446137;389040;172374;
2024-05-26T22:15:21.566;539955940087334710;436104;446259;389151;172378;
2024-05-26T22:15:21.584;539955940105495794;436120;446293;389197;172327;
2024-05-26T22:15:21.602;539955940123656878;436198;446443;389236;172320;
2024-05-26T22:15:21.620;539955940141817962;436303;446551;389332;172380;
2024-05-26T22:15:21.638;539955940159979046;436430;446654;389415;172361;
2024-05-26T22:15:21.656;539955940178140130;436443;446649;389414;172374;
2024-05-26T22:15:21.675;539955940196301214;436482;446708;389414;172404;
2024-05-26T22:15:21.693;539955940214462298;436504;446762;389452;172345;
2024-05-26T22:15:21.711;539955940232623382;436501;446737;389487;172305;
2024-05-26T22:15:21.729;539955940250784466;436533;446832;389462;172360;
2024-05-26T22:15:21.747;539955940268945550;436519;446863;389475;172425;
2024-05-26T22:15:21.765;539955940287106634;436583;446810;389512;172408;
2024-05-26T22:15:21.784;539955940305267718;436649;446984;389509;172436;
2024-05-26T22:15:21.802;539955940323428802;436668;446948;389566;172361;
2024-05-26T22:15:21.820;539955940341589886;436719;447043;389613;172379;
2024-05-26T22:15:21.838;539955940359750970;436774;447048;389660;172348;
2024-05-26T22:15:21.856;539955940377912054;436807;447109;389669;172363;
2024-05-26T22:15:21.874;539955940396073138;436925;447220;389731;172420;
2024-05-26T22:15:21.893;539955940414234222;437015;447244;389790;172369;
2024-05-26T22:15:21.911;539955940432395306;436974;447294;389756;172309;
2024-05-26T22:15:21.929;539955940450556390;437092;447365;389876;172373;
2024-05-26T22:15:21.947;539955940468717474;437151;447423;389846;172368;
2024-05-26T22:15:21.965;539955940486878558;437189;447534;389910;172384;
2024-05-26T22:15:21.983;539955940505039642;437244;447627;390004;172362;
2024-05-26T22:15:22.002;539955940523200726;437301;447680;390033;172391;
2024-05-26T22:15:22.020;539955940541361810;437356;447738;390039;172395;
2024-05-26T22:15:22.038;539955940559522894;437438;447895;390112;172377;
2024-05-26T22:15:22.056;539955940577683978;437479;447888;390179;172423;
2024-05-26T22:15:22.074;539955940595845062;437502;447971;390236;172393;
2024-05-26T22:15:22.092;539955940614006146;437622;448083;390254;172440;
2024-05-26T22:15:22.110;539955940632167230;437633;448078;390249;172408;
2024-05-26T22:15:22.129;539955940650327076;437568;448085;390274;172458;
2024-05-26T22:15:22.147;539955940668486884;437440;448010;390190;172367;
2024-05-26T22:15:22.165;539955940686646692;437322;447841;390083;172401;
2024-05-26T22:15:22.183;539955940704806500;437153;447645;389923;172359;
2024-05-26T22:15:22.201;539955940722966308;436980;447536;389815;172382;
2024-05-26T22:15:22.219;539955940741126116;436875;447474;389726;172351;
2024-05-26T22:15:22.238;539955940759285924;436875;447374;389731;172388;
2024-05-26T22:15:22.256;539955940777445732;436826;447384;389713;172404;
2024-05-26T22:15:22.274;539955940795605540;436810;447389;389722;172406;
2024-05-26T22:15:22.292;539955940813765348;436866;447402;389783;172406;
2024-05-26T22:15:22.310;539955940831925156;436907;447457;389718;172376;
2024-05-26T22:15:22.328;539955940850084964;436990;447556;389839;172422;
2024-05-26T22:15:22.347;539955940868244772;437001;447618;389854;172348;
2024-05-26T22:15:22.365;539955940886404580;437042;447686;389899;172369;
2024-05-26T22:15:22.383;539955940904564388;437186;447775;389951;172378;
2024-05-26T22:15:22.401;539955940922724196;437161;447818;390006;172377;
2024-05-26T22:15:22.419;539955940940884004;437205;447904;390074;172437;
2024-05-26T22:15:22.437;539955940959043812;437288;447954;390122;172411;
2024-05-26T22:15:22.456;539955940977203620;437284;447869;390104;172389;
2024-05-26T22:15:22.474;539955940995363428;437353;447916;390173;172378;
2024-05-26T22:15:22.492;539955941013523236;437343;447929;390099;172419;
2024-05-26T22:15:22.510;539955941031683044;437331;448011;390065;172393;
2024-05-26T22:15:22.528;539955941049842852;437366;448031;390214;172406;
2024-05-26T22:15:22.546;539955941068002660;437364;448028;390209;172433;
2024-05-26T22:15:22.564;539955941086162468;437471;448080;390211;172434;
2024-05-26T22:15:22.583;539955941104322276;437426;448107;390198;172413;
2024-05-26T22:15:22.601;539955941122482084;437479;448161;390261;172417;
2024-05-26T22:15:22.619;539955941140641892;437513;448198;390262;172390;
2024-05-26T22:15:22.637;539955941158801700;437540;448291;390297;172422;
2024-05-26T22:15:22.655;539955941176961508;437592;448355;390327;172386;
2024-05-26T22:15:22.673;539955941195121316;437677;448467;390445;172431;
2024-05-26T22:15:22.692;539955941213281124;437745;448573;390496;172401;
2024-05-26T22:15:22.710;539955941231440932;437864;448584;390569;172387;
2024-05-26T22:15:22.728;539955941249600740;437982;448613;390589;172354;
2024-05-26T22:15:22.746;539955941267760548;438067;448719;390613;172386;
2024-05-26T22:15:22.764;539955941285920356;438090;448824;390765;172403;
2024-05-26T22:15:22.782;539955941304080164;438084;448903;390737;172377;
2024-05-26T22:15:22.801;539955941322239972;438237;448938;390777;172376;
2024-05-26T22:15:22.819;539955941340399780;438289;449050;390805;172361;
2024-05-26T22:15:22.837;539955941358559588;438398;449131;390942;172408;
2024-05-26T22:15:22.855;539955941376719396;438405;449222;390999;172451;
2024-05-26T22:15:22.873;539955941394879204;438473;449278;391034;172454;
2024-05-26T22:15:22.891;539955941413039661;438482;449284;391059;172382;
2024-05-26T22:15:22.910;539955941431200074;438476;449392;391039;172376;
2024-05-26T22:15:22.928;539955941449360487;438469;449324;391055;172384;
2024-05-26T22:15:22.946;539955941467520900;438390;449212;390915;172393;
2024-05-26T22:15:22.964;539955941485681313;438248;449110;390876;172346;
2024-05-26T22:15:22.982;539955941503841726;438195;449036;390808;172386;
2024-05-26T22:15:23.000;539955941522002139;438150;448959;390757;172387;
2024-05-26T22:15:23.018;539955941540162552;438122;448922;390738;172421;
2024-05-26T22:15:23.037;539955941558322965;438054;448977;390740;172385;
2024-05-26T22:15:23.055;539955941576483378;438070;448991;390793;172413;
2024-05-26T22:15:23.073;539955941594643791;438094;449030;390838;172367;
2024-05-26T22:15:23.091;539955941612804204;438175;449085;390903;172397;
2024-05-26T22:15:23.109;539955941630964617;438280;449178;390895;172414;
2024-05-26T22:15:23.127;539955941649125030;438333;449264;390912;172423;
2024-05-26T22:15:23.146;539955941667285443;438354;449289;390957;172369;
2024-05-26T22:15:23.164;539955941685445856;438465;449402;391059;172408;
2024-05-26T22:15:23.182;539955941703606269;438533;449421;391104;172356;
2024-05-26T22:15:23.200;539955941721766682;438623;449563;391137;172412;
2024-05-26T22:15:23.218;539955941739927095;438690;449602;391182;172374;
2024-05-26T22:15:23.236;539955941758087508;438662;449560;391145;172394;
2024-05-26T22:15:23.255;539955941776247921;438611;449585;391155;172341;
2024-05-26T22:15:23.273;539955941794408334;438668;449627;391189;172370;
2024-05-26T22:15:23.291;539955941812568747;438645;449671;391174;172357;
2024-05-26T22:15:23.309;539955941830729160;438651;449667;391172;172371;
2024-05-26T22:15:23.327;539955941848889573;438715;449690;391205;172399;
2024-05-26T22:15:23.345;539955941867049986;438745;449696;391215;172343;
2024-05-26T22:15:23.364;539955941885210399;438737;449662;391268;172383;
2024-05-26T22:15:23.382;539955941903370812;438782;449746;391314;172389;
2024-05-26T22:15:23.400;539955941921531225;438845;449832;391326;172403;
2024-05-26T22:15:23.418;539955941939691638;438887;449836;391387;172401;
2024-05-26T22:15:23.436;539955941957852051;438910;449855;391342;172425;
2024-05-26T22:15:23.454;539955941976012464;438891;449888;391401;172368;
2024-05-26T22:15:23.472;539955941994172877;438942;449949;391404;172374;
2024-05-26T22:15:23.491;539955942012333290;438999;449930;391383;172359;
2024-05-26T22:15:23.509;539955942030493703;439046;449976;391408;172370;
2024-05-26T22:15:23.527;539955942048654116;439058;450059;391431;172380;
2024-05-26T22:15:23.545;539955942066814529;439072;450059;391458;172307;
2024-05-26T22:15:23.563;539955942084974942;439139;450077;391529;172406;
2024-05-26T22:15:23.581;539955942103135355;439118;450165;391560;172423;
2024-05-26T22:15:23.600;539955942121295768;439146;450208;391520;172389;
2024-05-26T22:15:23.618;539955942139456181;439169;450195;391562;172371;
2024-05-26T22:15:23.636;539955942157616594;439184;450142;391529;172335;
2024-05-26T22:15:23.654;539955942175777007;439212;450172;391525;172368;
2024-05-26T22:15:23.672;539955942193937420;439208;450189;391499;172341;
2024-05-26T22:15:23.690;539955942212097833;439144;450129;391495;172334;
2024-05-26T22:15:23.709;539955942230257262;439037;450065;391440;172401;
2024-05-26T22:15:23.727;539955942248416658;438870;449877;391377;172386;
2024-05-26T22:15:23.745;539955942266576054;438769;449720;391202;172390;
2024-05-26T22:15:23.763;539955942284735450;438610;449605;391092;172361;
2024-05-26T22:15:23.781;539955942302894846;438541;449504;391081;172418;
2024-05-26T22:15:23.799;539955942321054242;438411;449437;390985;172394;
2024-05-26T22:15:23.818;539955942339213638;438392;449415;390930;172441;
2024-05-26T22:15:23.836;539955942357373034;438321;449375;390985;172369;
2024-05-26T22:15:23.854;539955942375532430;438410;449473;391036;172405;
2024-05-26T22:15:23.872;539955942393691826;438422;449389;390987;172366;
2024-05-26T22:15:23.890;539955942411851222;438533;449499;391099;172410;
2024-05-26T22:15:23.908;539955942430010618;438506;449505;391102;172375;
2024-05-26T22:15:23.926;539955942448170014;438606;449599;391137;172348;
2024-05-26T22:15:23.945;539955942466329410;438693;449620;391185;172390;
2024-05-26T22:15:23.963;539955942484488806;438730;449690;391224;172382;
2024-05-26T22:15:23.981;539955942502648202;438722;449694;391232;172349;
2024-05-26T22:15:23.999;539955942520807598;438729;449679;391270;172360;
2024-05-26T22:15:24.017;539955942538966994;438789;449666;391251;172439;
2024-05-26T22:15:24.035;539955942557126390;438717;449734;391258;172418;
2024-05-26T22:15:24.054;539955942575285786;438702;449675;391191;172392;
2024-05-26T22:15:24.072;539955942593445182;438707;449663;391198;172416;
2024-05-26T22:15:24.090;539955942611604578;438707;449663;391204;172343;
2024-05-26T22:15:24.108;539955942629763974;438742;449635;391185;172323;
2024-05-26T22:15:24.126;539955942647923370;438691;449603;391172;172346;
2024-05-26T22:15:24.144;539955942666082766;438699;449611;391185;172370;
2024-05-26T22:15:24.163;539955942684242162;438735;449665;391220;172350;
2024-05-26T22:15:24.181;539955942702401558;438734;449599;391196;172355;
2024-05-26T22:15:24.199;539955942720560954;438765;449703;391206;172375;
2024-05-26T22:15:24.217;539955942738720350;438735;449674;391172;172404;
2024-05-26T22:15:24.235;539955942756879746;438859;449700;391280;172410;
2024-05-26T22:15:24.253;539955942775039142;438898;449761;391319;172426;
2024-05-26T22:15:24.272;539955942793198538;438966;449771;391356;172385;
2024-05-26T22:15:24.290;539955942811357934;438915;449748;391356;172378;
2024-05-26T22:15:24.308;539955942829517330;438950;449829;391394;172353;
2024-05-26T22:15:24.326;539955942847676726;438944;449857;391417;172335;
2024-05-26T22:15:24.344;539955942865836122;438950;449931;391423;172365;
2024-05-26T22:15:24.362;539955942883995518;439040;449879;391421;172390;
2024-05-26T22:15:24.380;539955942902154914;439071;449904;391439;172383;
2024-05-26T22:15:24.399;539955942920314310;439144;449958;391447;172453;
2024-05-26T22:15:24.417;539955942938473706;439178;449930;391467;172395;
2024-05-26T22:15:24.435;539955942956633102;439158;449922;391470;172404;
2024-05-26T22:15:24.453;539955942974792498;439130;450002;391500;172372;
2024-05-26T22:15:24.471;539955942992951894;439120;450017;391507;172372;
2024-05-26T22:15:24.489;539955943011111290;439070;449929;391413;172368;
2024-05-26T22:15:24.508;539955943029270686;438926;449805;391320;172389;
2024-05-26T22:15:24.526;539955943047430075;438748;449654;391199;172346;
2024-05-26T22:15:24.544;539955943065589464;438628;449539;391124;172391;
2024-05-26T22:15:24.562;539955943083748853;438502;449444;391028;172446;
2024-05-26T22:15:24.580;539955943101908242;438398;449333;390970;172414;
2024-05-26T22:15:24.598;539955943120067631;438335;449215;390892;172407;
2024-05-26T22:15:24.617;539955943138227020;438339;449096;390844;172394;
2024-05-26T22:15:24.635;539955943156386409;438362;449144;390918;172434;
2024-05-26T22:15:24.653;539955943174545798;438405;449179;390951;172365;
2024-05-26T22:15:24.671;539955943192705187;438474;449205;390990;172434;
2024-05-26T22:15:24.689;539955943210864576;438549;449190;390940;172359;
2024-05-26T22:15:24.707;539955943229023965;438572;449330;391065;172390;
2024-05-26T22:15:24.725;539955943247183354;438592;449341;391087;172345;
2024-05-26T22:15:24.744;539955943265342743;438731;449400;391189;172461;
2024-05-26T22:15:24.762;539955943283502132;438807;449499;391179;172388;
2024-05-26T22:15:24.780;539955943301661521;438783;449505;391204;172369;
2024-05-26T22:15:24.798;539955943319820910;438808;449508;391114;172362;
2024-05-26T22:15:24.816;539955943337980299;438813;449520;391167;172422;
2024-05-26T22:15:24.834;539955943356139688;438850;449458;391163;172441;
2024-05-26T22:15:24.853;539955943374299077;438813;449466;391083;172340;
2024-05-26T22:15:24.871;539955943392458466;438848;449522;391107;172392;
2024-05-26T22:15:24.889;539955943410617855;438768;449503;391110;172339;
2024-05-26T22:15:24.907;539955943428777244;438807;449446;391169;172346;
2024-05-26T22:15:24.925;539955943446936633;438820;449458;391168;172357;
2024-05-26T22:15:24.943;539955943465096022;438777;449520;391178;172371;
2024-05-26T22:15:24.962;539955943483255411;438851;449484;391211;172336;
2024-05-26T22:15:24.980;539955943501414800;438875;449534;391196;172357;
2024-05-26T22:15:24.998;539955943519574189;438904;449582;391250;172359;
2024-05-26T22:15:25.016;539955943537733578;438944;449551;391234;172410;
2024-05-26T22:15:25.034;539955943555892967;438927;449633;391258;172379;
2024-05-26T22:15:25.052;539955943574052356;438963;449607;391251;172372;
2024-05-26T22:15:25.071;539955943592211745;438977;449660;391311;172329;
2024-05-26T22:15:25.089;539955943610371134;439015;449606;391285;172337;
2024-05-26T22:15:25.107;539955943628530523;439122;449654;391297;172340;
2024-05-26T22:15:25.125;539955943646689912;439124;449678;391311;172317;
2024-05-26T22:15:25.143;539955943664849301;439116;449742;391348;172385;
2024-05-26T22:15:25.161;539955943683008690;439167;449741;391385;172383;
2024-05-26T22:15:25.179;539955943701168079;439196;449761;391456;172366;
2024-05-26T22:15:25.198;539955943719327468;439246;449807;391418;172387;
2024-05-26T22:15:25.216;539955943737486857;439278;449803;391443;172409;
2024-05-26T22:15:25.234;539955943755646246;439310;449821;391404;172325;
2024-05-26T22:15:25.252;539955943773805635;439275;449864;391428;172336;
2024-05-26T22:15:25.270;539955943791965024;439304;449857;391468;172392;
2024-05-26T22:15:25.288;539955943810124413;439302;449886;391500;172344;
2024-05-26T22:15:25.307;539955943828283802;439310;449886;391442;172286;
2024-05-26T22:15:25.325;539955943846442887;439343;449785;391455;172319;
2024-05-26T22:15:25.343;539955943864601944;439233;449661;391336;172377;
2024-05-26T22:15:25.361;539955943882761001;439066;449553;391237;172408;
2024-05-26T22:15:25.379;539955943900920058;438905;449411;391165;172372;
2024-05-26T22:15:25.397;539955943919079115;438687;449250;391032;172393;
2024-05-26T22:15:25.416;539955943937238172;438614;449040;390869;172358;
2024-05-26T22:15:25.434;539955943955397229;438538;448921;390745;172390;
2024-05-26T22:15:25.452;539955943973556286;438532;448870;390814;172423;
2024-05-26T22:15:25.470;539955943991715343;438456;448819;390705;172407;
2024-05-26T22:15:25.488;539955944009874400;438483;448874;390768;172403;
2024-05-26T22:15:25.506;539955944028033457;438487;448857;390787;172409;
2024-05-26T22:15:25.524;539955944046192514;438544;448870;390762;172341;
2024-05-26T22:15:25.543;539955944064351571;438652;448916;390816;172434;
2024-05-26T22:15:25.561;539955944082510628;438703;449039;390941;172413;
2024-05-26T22:15:25.579;539955944100669685;438749;449018;390968;172376;
2024-05-26T22:15:25.597;539955944118828742;438884;449179;391010;172382;
2024-05-26T22:15:25.615;539955944136987799;438947;449183;391027;172378;
2024-05-26T22:15:25.633;539955944155146856;438964;449147;391065;172357;
2024-05-26T22:15:25.652;539955944173305913;439032;449292;391073;172384;
2024-05-26T22:15:25.670;539955944191464970;438996;449277;391070;172356;
2024-05-26T22:15:25.688;539955944209624027;439080;449234;391119;172367;
2024-05-26T22:15:25.706;539955944227783084;439095;449304;391164;172377;
2024-05-26T22:15:25.724;539955944245942141;439104;449263;391135;172370;
2024-05-26T22:15:25.742;539955944264101198;439072;449255;391072;172399;
2024-05-26T22:15:25.761;539955944282260255;439092;449247;391090;172378;
2024-05-26T22:15:25.779;539955944300419312;439157;449329;391080;172411;
2024-05-26T22:15:25.797;539955944318578369;439203;449373;391100;172401;
2024-05-26T22:15:25.815;539955944336737426;439205;449401;391187;172419;
2024-05-26T22:15:25.833;539955944354896483;439281;449393;391221;172362;
2024-05-26T22:15:25.851;539955944373055540;439321;449403;391182;172401;
2024-05-26T22:15:25.870;539955944391214597;439331;449426;391212;172343;
2024-05-26T22:15:25.888;539955944409373654;439407;449472;391285;172399;
2024-05-26T22:15:25.906;539955944427532711;439438;449482;391302;172384;
2024-05-26T22:15:25.924;539955944445691768;439423;449522;391354;172395;
2024-05-26T22:15:25.942;539955944463850825;439507;449534;391309;172401;
2024-05-26T22:15:25.960;539955944482009882;439587;449622;391411;172391;
2024-05-26T22:15:25.978;539955944500168939;439668;449632;391419;172428;
2024-05-26T22:15:25.997;539955944518327996;439698;449655;391452;172340;
2024-05-26T22:15:26.015;539955944536487053;439657;449671;391379;172291;
2024-05-26T22:15:26.033;539955944554646110;439746;449737;391479;172346;
2024-05-26T22:15:26.051;539955944572805167;439797;449819;391560;172362;
2024-05-26T22:15:26.069;539955944590964224;439775;449799;391536;172352;
2024-05-26T22:15:26.087;539955944609123281;439832;449827;391543;172327;
2024-05-26T22:15:26.106;539955944627282338;439919;449882;391527;172301;
2024-05-26T22:15:26.124;539955944645441395;439957;449956;391610;172349;
2024-05-26T22:15:26.142;539955944663601895;440064;449960;391624;172351;
2024-05-26T22:15:26.160;539955944681762357;440003;449951;391623;172333;
2024-05-26T22:15:26.178;539955944699922819;440035;449926;391612;172379;
2024-05-26T22:15:26.196;539955944718083281;440015;450030;391591;172410;
2024-05-26T22:15:26.215;539955944736243743;440098;450030;391672;172377;
2024-05-26T22:15:26.233;539955944754404205;440038;450047;391706;172340;
2024-05-26T22:15:26.251;539955944772564667;440011;450040;391645;172355;
2024-05-26T22:15:26.269;539955944790725129;439999;449976;391647;172419;
2024-05-26T22:15:26.287;539955944808885591;439858;449880;391507;172436;
2024-05-26T22:15:26.305;539955944827046053;439709;449687;391394;172365;
2024-05-26T22:15:26.324;539955944845206515;439526;449472;391232;172351;
2024-05-26T22:15:26.342;539955944863366977;439396;449317;391119;172339;
2024-05-26T22:15:26.360;539955944881527439;439338;449226;391061;172354;
2024-05-26T22:15:26.378;539955944899687901;439295;449110;390995;172367;
2024-05-26T22:15:26.396;539955944917848363;439300;449055;390968;172371;
2024-05-26T22:15:26.414;539955944936008825;439302;449031;390991;172390;
2024-05-26T22:15:26.432;539955944954169287;439295;449092;391022;172366;
2024-05-26T22:15:26.451;539955944972329749;439352;449142;391041;172370;
2024-05-26T22:15:26.469;539955944990490211;439432;449210;391093;172329;
2024-05-26T22:15:26.487;539955945008650673;439462;449215;391130;172331;
2024-05-26T22:15:26.505;539955945026811135;439533;449335;391170;172366;
2024-05-26T22:15:26.523;539955945044971597;439666;449302;391177;172321;
2024-05-26T22:15:26.541;539955945063132059;439660;449456;391251;172325;
2024-05-26T22:15:26.560;539955945081292521;439731;449502;391304;172392;
2024-05-26T22:15:26.578;539955945099452983;439765;449511;391264;172374;
2024-05-26T22:15:26.596;539955945117613445;439742;449478;391235;172379;
2024-05-26T22:15:26.614;539955945135773907;439742;449549;391340;172365;
2024-05-26T22:15:26.632;539955945153934369;439799;449571;391353;172353;
2024-05-26T22:15:26.650;539955945172094831;439782;449507;391280;172289;
2024-05-26T22:15:26.669;539955945190255293;439744;449506;391308;172372;
2024-05-26T22:15:26.687;539955945208415755;439790;449524;391309;172399;
2024-05-26T22:15:26.705;539955945226576217;439833;449539;391296;172339;
2024-05-26T22:15:26.723;539955945244736679;439862;449574;391316;172360;
2024-05-26T22:15:26.741;539955945262897141;439843;449579;391343;172395;
2024-05-26T22:15:26.759;539955945281057603;439804;449598;391383;172361;
2024-05-26T22:15:26.778;539955945299218065;439877;449639;391391;172420;
2024-05-26T22:15:26.796;539955945317378527;439850;449659;391368;172384;
2024-05-26T22:15:26.814;539955945335538989;439926;449670;391371;172388;
2024-05-26T22:15:26.832;539955945353699451;439970;449739;391403;172374;
2024-05-26T22:15:26.850;539955945371859913;439978;449757;391375;172314;
2024-05-26T22:15:26.868;539955945390020375;439971;449776;391456;172388;
2024-05-26T22:15:26.886;539955945408180837;440072;449829;391458;172385;
2024-05-26T22:15:26.905;539955945426341213;440119;449812;391508;172441;
2024-05-26T22:15:26.923;539955945444501566;440068;449829;391552;172379;
2024-05-26T22:15:26.941;539955945462661919;440080;449980;391553;172405;
2024-05-26T22:15:26.959;539955945480822272;440133;449944;391521;172399;
2024-05-26T22:15:26.977;539955945498982625;440197;449891;391507;172417;
2024-05-26T22:15:26.995;539955945517142978;440217;449976;391636;172356;
2024-05-26T22:15:27.014;539955945535303331;440204;450029;391562;172360;
2024-05-26T22:15:27.032;539955945553463684;440180;450028;391599;172395;
2024-05-26T22:15:27.050;539955945571624037;440188;450021;391537;172332;
2024-05-26T22:15:27.068;539955945589784390;440249;449987;391540;172336;
2024-05-26T22:15:27.086;539955945607944743;440263;449958;391501;172370;
2024-05-26T22:15:27.104;539955945626105096;440193;449999;391580;172403;
2024-05-26T22:15:27.123;539955945644265449;440214;449992;391565;172376;
2024-05-26T22:15:27.141;539955945662425802;440220;450029;391616;172405;
2024-05-26T22:15:27.159;539955945680586155;440165;449955;391565;172402;
2024-05-26T22:15:27.177;539955945698746508;440107;449901;391449;172387;
2024-05-26T22:15:27.195;539955945716906861;439926;449772;391398;172389;
2024-05-26T22:15:27.213;539955945735067214;439808;449631;391277;172341;
2024-05-26T22:15:27.232;539955945753227567;439685;449436;391121;172317;
2024-05-26T22:15:27.250;539955945771387920;439607;449421;391131;172371;
2024-05-26T22:15:27.268;539955945789548273;439518;449295;391032;172366;
2024-05-26T22:15:27.286;539955945807708626;439438;449213;391002;172323;
2024-05-26T22:15:27.304;539955945825868979;439434;449281;391038;172388;
2024-05-26T22:15:27.322;539955945844029332;439552;449343;390997;172371;
2024-05-26T22:15:27.340;539955945862189685;439640;449401;391056;172433;
2024-05-26T22:15:27.359;539955945880350038;439674;449453;391136;172382;
2024-05-26T22:15:27.377;539955945898510391;439711;449564;391206;172354;
2024-05-26T22:15:27.395;539955945916670744;439895;449742;391352;172404;
2024-05-26T22:15:27.413;539955945934831097;440007;449797;391409;172349;
2024-05-26T22:15:27.431;539955945952991450;440099;449881;391501;172371;
2024-05-26T22:15:27.449;539955945971151803;440144;450009;391547;172344;
2024-05-26T22:15:27.468;539955945989312156;440216;450128;391528;172323;
2024-05-26T22:15:27.486;539955946007472509;440310;450251;391599;172360;
2024-05-26T22:15:27.504;539955946025632862;440389;450275;391664;172319;
2024-05-26T22:15:27.522;539955946043793215;440493;450372;391723;172406;
2024-05-26T22:15:27.540;539955946061953568;440530;450459;391758;172366;
2024-05-26T22:15:27.558;539955946080113921;440589;450498;391796;172360;
2024-05-26T22:15:27.577;539955946098274274;440660;450557;391874;172386;
2024-05-26T22:15:27.595;539955946116434627;440718;450635;391964;172406;
2024-05-26T22:15:27.613;539955946134594980;440802;450743;391926;172367;
2024-05-26T22:15:27.631;539955946152755333;440912;450843;392032;172400;
2024-05-26T22:15:27.649;539955946170915686;440985;450910;392066;172456;
2024-05-26T22:15:27.667;539955946189075731;441070;450986;392203;172430;
2024-05-26T22:15:27.686;539955946207235757;441139;451123;392228;172377;
2024-05-26T22:15:27.704;539955946225395783;441198;451179;392310;172431;
2024-05-26T22:15:27.722;539955946243555809;441304;451228;392341;172423;
2024-05-26T22:15:27.740;539955946261715835;441393;451288;392396;172438;
2024-05-26T22:15:27.758;539955946279875861;441466;451382;392506;172430;
2024-05-26T22:15:27.776;539955946298035887;441493;451493;392533;172374;
2024-05-26T22:15:27.795;539955946316195913;441590;451586;392547;172363;
2024-05-26T22:15:27.813;539955946334355939;441611;451703;392628;172353;
2024-05-26T22:15:27.831;539955946352515965;441687;451706;392672;172334;
2024-05-26T22:15:27.849;539955946370675991;441692;451693;392613;172316;
2024-05-26T22:15:27.867;539955946388836017;441752;451757;392677;172405;
2024-05-26T22:15:27.885;539955946406996043;441742;451872;392669;172394;
2024-05-26T22:15:27.903;539955946425156069;441748;451892;392717;172369;
2024-05-26T22:15:27.922;539955946443316095;441788;451936;392778;172365;
2024-05-26T22:15:27.940;539955946461476121;441853;451961;392778;172345;
2024-05-26T22:15:27.958;539955946479636147;441836;451960;392874;172374;
2024-05-26T22:15:27.976;539955946497796173;441848;451958;392836;172383;
2024-05-26T22:15:27.994;539955946515956199;441874;452014;392868;172411;
2024-05-26T22:15:28.012;539955946534116225;441899;452077;392876;172486;
2024-05-26T22:15:28.031;539955946552276251;441792;452004;392836;172410;
2024-05-26T22:15:28.049;539955946570436277;441840;452037;392849;172350;
2024-05-26T22:15:28.067;539955946588596303;441741;452097;392782;172378;
2024-05-26T22:15:28.085;539955946606756329;441684;451941;392753;172399;
2024-05-26T22:15:28.103;539955946624916355;441555;451949;392701;172392;
2024-05-26T22:15:28.121;539955946643076381;441402;451672;392503;172377;
2024-05-26T22:15:28.140;539955946661236407;441321;451623;392449;172354;
2024-05-26T22:15:28.158;539955946679396433;441127;451529;392353;172359;
2024-05-26T22:15:28.176;539955946697556459;441048;451480;392383;172340;
2024-05-26T22:15:28.194;539955946715716485;441073;451475;392377;172397;
2024-05-26T22:15:28.212;539955946733876511;441099;451450;392367;172360;
2024-05-26T22:15:28.230;539955946752036537;441120;451533;392414;172352;
2024-05-26T22:15:28.249;539955946770196563;441066;451518;392409;172392;
2024-05-26T22:15:28.267;539955946788356589;441140;451557;392367;172335;
2024-05-26T22:15:28.285;539955946806516615;441236;451615;392464;172391;
2024-05-26T22:15:28.303;539955946824676641;441317;451672;392545;172430;
2024-05-26T22:15:28.321;539955946842836667;441339;451776;392570;172345;
2024-05-26T22:15:28.339;539955946860996693;441324;451780;392568;172366;
2024-05-26T22:15:28.357;539955946879156719;441295;451773;392540;172352;
2024-05-26T22:15:28.376;539955946897316745;441314;451768;392626;172349;
2024-05-26T22:15:28.394;539955946915476771;441339;451771;392587;172345;
2024-05-26T22:15:28.412;539955946933636797;441295;451755;392561;172387;
2024-05-26T22:15:28.430;539955946951797663;441280;451747;392598;172391;
2024-05-26T22:15:28.448;539955946969958511;441275;451769;392661;172374;
2024-05-26T22:15:28.466;539955946988119359;441293;451739;392581;172349;
2024-05-26T22:15:28.485;539955947006280207;441258;451738;392542;172362;
2024-05-26T22:15:28.503;539955947024441055;441262;451746;392533;172336;
2024-05-26T22:15:28.521;539955947042601903;441261;451739;392531;172386;
2024-05-26T22:15:28.539;539955947060762751;441288;451818;392564;172392;
2024-05-26T22:15:28.557;539955947078923599;441302;451810;392632;172391;
2024-05-26T22:15:28.575;539955947097084447;441311;451859;392628;172423;
2024-05-26T22:15:28.594;539955947115245295;441239;451830;392634;172333;
2024-05-26T22:15:28.612;539955947133406143;441298;451892;392666;172332;
2024-05-26T22:15:28.630;539955947151566991;441333;451861;392703;172314;
2024-05-26T22:15:28.648;539955947169727839;441363;451903;392701;172362;
2024-05-26T22:15:28.666;539955947187888687;441352;452004;392711;172356;
2024-05-26T22:15:28.684;539955947206049535;441409;452013;392734;172362;
2024-05-26T22:15:28.703;539955947224210383;441424;451992;392809;172351;
2024-05-26T22:15:28.721;539955947242371231;441438;452014;392804;172332;
2024-05-26T22:15:28.739;539955947260532079;441429;452100;392790;172339;
2024-05-26T22:15:28.757;539955947278692927;441391;452108;392882;172356;
2024-05-26T22:15:28.775;539955947296853775;441430;452094;392867;172342;
2024-05-26T22:15:28.793;539955947315014623;441456;452076;392856;172301;
2024-05-26T22:15:28.811;539955947333175471;441499;452103;392840;172314;
2024-05-26T22:15:28.830;539955947351336319;441426;452094;392834;172350;
2024-05-26T22:15:28.848;539955947369497167;441477;452105;392909;172377;
2024-05-26T22:15:28.866;539955947387658015;441400;452046;392829;172336;
2024-05-26T22:15:28.884;539955947405818863;441377;452111;392785;172369;
2024-05-26T22:15:28.902;539955947423979711;441393;452033;392790;172413;
2024-05-26T22:15:28.920;539955947442140559;441375;452028;392889;172458;
2024-05-26T22:15:28.939;539955947460301407;441301;451976;392766;172410;
2024-05-26T22:15:28.957;539955947478462255;441223;451903;392741;172340;
2024-05-26T22:15:28.975;539955947496623103;441211;451866;392712;172359;
2024-05-26T22:15:28.993;539955947514783951;440956;451734;392593;172333;
2024-05-26T22:15:29.011;539955947532944799;440863;451672;392488;172389;
2024-05-26T22:15:29.029;539955947551105647;440721;451537;392449;172377;
2024-05-26T22:15:29.048;539955947569266495;440611;451418;392345;172334;
2024-05-26T22:15:29.066;539955947587427343;440537;451398;392274;172375;
2024-05-26T22:15:29.084;539955947605588191;440461;451320;392243;172359;
2024-05-26T22:15:29.102;539955947623749039;440358;451310;392208;172414;
2024-05-26T22:15:29.120;539955947641909887;440371;451300;392247;172365;
2024-05-26T22:15:29.138;539955947660070735;440350;451322;392262;172325;
2024-05-26T22:15:29.157;539955947678231583;440371;451261;392320;172379;
2024-05-26T22:15:29.175;539955947696392431;440337;451259;392246;172325;
2024-05-26T22:15:29.193;539955947714553279;440359;451247;392237;172318;
2024-05-26T22:15:29.211;539955947732714127;440384;451304;392296;172351;
2024-05-26T22:15:29.229;539955947750874975;440371;451306;392302;172361;
2024-05-26T22:15:29.247;539955947769035823;440448;451354;392323;172355;
2024-05-26T22:15:29.266;539955947787196671;440437;451366;392343;172354;
2024-05-26T22:15:29.284;539955947805357519;440336;451321;392233;172325;
2024-05-26T22:15:29.302;539955947823517290;440391;451356;392298;172362;
2024-05-26T22:15:29.320;539955947841677025;440339;451347;392305;172356;
2024-05-26T22:15:29.338;539955947859836760;440277;451303;392239;172321;
2024-05-26T22:15:29.356;539955947877996495;440311;451281;392240;172334;
2024-05-26T22:15:29.374;539955947896156230;440304;451343;392206;172302;
2024-05-26T22:15:29.393;539955947914315965;440315;451304;392246;172327;
2024-05-26T22:15:29.411;539955947932475700;440267;451294;392286;172349;
2024-05-26T22:15:29.429;539955947950635435;440256;451298;392236;172386;
2024-05-26T22:15:29.447;539955947968795170;440267;451260;392340;172456;
2024-05-26T22:15:29.465;539955947986954905;440230;451274;392305;172372;
2024-05-26T22:15:29.483;539955948005114640;440272;451270;392344;172389;
2024-05-26T22:15:29.502;539955948023274375;440263;451261;392276;172367;
2024-05-26T22:15:29.520;539955948041434110;440247;451301;392285;172379;
2024-05-26T22:15:29.538;539955948059593845;440188;451247;392241;172373;
2024-05-26T22:15:29.556;539955948077753580;440190;451252;392291;172370;
2024-05-26T22:15:29.574;539955948095913315;440176;451286;392333;172389;
2024-05-26T22:15:29.592;539955948114073050;440178;451264;392287;172349;
2024-05-26T22:15:29.611;539955948132232785;440151;451301;392283;172360;
2024-05-26T22:15:29.629;539955948150392520;440169;451235;392273;172301;
2024-05-26T22:15:29.647;539955948168552255;440202;451257;392275;172343;
2024-05-26T22:15:29.665;539955948186711990;440175;451307;392308;172316;
2024-05-26T22:15:29.683;539955948204871725;440232;451346;392318;172342;
2024-05-26T22:15:29.701;539955948223031460;440196;451314;392321;172337;
2024-05-26T22:15:29.719;539955948241191195;440162;451350;392347;172382;
2024-05-26T22:15:29.738;539955948259350930;440231;451362;392346;172428;
2024-05-26T22:15:29.756;539955948277510665;440213;451385;392303;172411;
2024-05-26T22:15:29.774;539955948295670400;440190;451296;392303;172365;
2024-05-26T22:15:29.792;539955948313830135;440172;451312;392333;172311;
2024-05-26T22:15:29.810;539955948331989870;440122;451266;392234;172325;
2024-05-26T22:15:29.828;539955948350149605;440090;451270;392259;172333;
2024-05-26T22:15:29.847;539955948368309340;439971;451212;392229;172356;
2024-05-26T22:15:29.865;539955948386469075;439847;451019;392094;172344;
2024-05-26T22:15:29.883;539955948404628810;439650;450865;391936;172362;
2024-05-26T22:15:29.901;539955948422788545;439449;450815;391905;172388;
2024-05-26T22:15:29.919;539955948440948280;439244;450640;391798;172324;
2024-05-26T22:15:29.937;539955948459108015;439259;450633;391774;172388;
2024-05-26T22:15:29.956;539955948477267750;439122;450509;391786;172346;
2024-05-26T22:15:29.974;539955948495427485;439097;450452;391790;172392;
2024-05-26T22:15:29.992;539955948513587220;439009;450485;391745;172371;
2024-05-26T22:15:30.010;539955948531746955;439024;450491;391758;172355;
2024-05-26T22:15:30.028;539955948549906690;439154;450507;391820;172390;
2024-05-26T22:15:30.046;539955948568066425;439164;450545;391835;172406;
2024-05-26T22:15:30.065;539955948586226160;439217;450656;391868;172308;
2024-05-26T22:15:30.083;539955948604385895;439279;450712;391864;172332;
2024-05-26T22:15:30.101;539955948622545630;439321;450700;391915;172345;
2024-05-26T22:15:30.119;539955948640705365;439325;450791;391967;172349;
2024-05-26T22:15:30.137;539955948658864287;439363;450769;392024;172400;
2024-05-26T22:15:30.155;539955948677023164;439284;450755;391988;172354;
2024-05-26T22:15:30.173;539955948695182041;439252;450709;391926;172320;
2024-05-26T22:15:30.192;539955948713340918;439249;450684;391895;172316;
2024-05-26T22:15:30.210;539955948731499795;439244;450700;391880;172375;
2024-05-26T22:15:30.228;539955948749658672;439249;450644;391973;172383;
2024-05-26T22:15:30.246;539955948767817549;439227;450656;391985;172416;
2024-05-26T22:15:30.264;539955948785976426;439200;450637;391929;172408;
2024-05-26T22:15:30.282;539955948804135303;439217;450590;391872;172382;
2024-05-26T22:15:30.301;539955948822294180;439179;450582;391830;172404;
2024-05-26T22:15:30.319;539955948840453057;439112;450635;391875;172378;
2024-05-26T22:15:30.337;539955948858611934;439139;450573;391865;172361;
2024-05-26T22:15:30.355;539955948876770811;439188;450611;391917;172401;
2024-05-26T22:15:30.373;539955948894929688;439152;450662;391944;172360;
2024-05-26T22:15:30.391;539955948913088565;439172;450715;391971;172394;
2024-05-26T22:15:30.410;539955948931247442;439226;450695;391995;172383;
2024-05-26T22:15:30.428;539955948949406319;439252;450699;391985;172396;
2024-05-26T22:15:30.446;539955948967565196;439262;450689;392006;172430;
2024-05-26T22:15:30.464;539955948985724073;439158;450713;391996;172346;
2024-05-26T22:15:30.482;539955949003882950;439275;450783;392052;172395;
2024-05-26T22:15:30.500;539955949022041827;439263;450779;392075;172371;
2024-05-26T22:15:30.519;539955949040200704;439271;450780;392064;172463;
2024-05-26T22:15:30.537;539955949058359581;439246;450775;392018;172367;
2024-05-26T22:15:30.555;539955949076518458;439249;450737;392008;172379;
2024-05-26T22:15:30.573;539955949094677335;439244;450733;392083;172411;
2024-05-26T22:15:30.591;539955949112836212;439257;450781;392032;172413;
2024-05-26T22:15:30.609;539955949130995089;439231;450734;392072;172437;
2024-05-26T22:15:30.627;539955949149153966;439245;450768;392040;172352;
2024-05-26T22:15:30.646;539955949167312843;439224;450693;392064;172448;
2024-05-26T22:15:30.664;539955949185471720;439176;450637;392019;172447;
2024-05-26T22:15:30.682;539955949203630597;439101;450609;391962;172431;
2024-05-26T22:15:30.700;539955949221789474;438909;450456;391796;172443;
2024-05-26T22:15:30.718;539955949239948351;438670;450267;391698;172406;
2024-05-26T22:15:30.736;539955949258107228;438472;450027;391598;172377;
2024-05-26T22:15:30.755;539955949276266105;438276;449909;391485;172442;
2024-05-26T22:15:30.773;539955949294424982;438123;449839;391370;172441;
2024-05-26T22:15:30.791;539955949312583859;438037;449729;391308;172427;
2024-05-26T22:15:30.809;539955949330742736;437969;449609;391265;172406;
2024-05-26T22:15:30.827;539955949348901613;437962;449601;391248;172408;
2024-05-26T22:15:30.845;539955949367060490;437932;449580;391296;172388;
2024-05-26T22:15:30.864;539955949385219367;437932;449640;391271;172325;
2024-05-26T22:15:30.882;539955949403378244;438028;449623;391377;172387;
2024-05-26T22:15:30.900;539955949421537121;438045;449616;391370;172435;
2024-05-26T22:15:30.918;539955949439695998;438079;449621;391422;172340;
2024-05-26T22:15:30.936;539955949457854875;438143;449699;391368;172418;
2024-05-26T22:15:30.954;539955949476013752;438234;449718;391444;172394;
2024-05-26T22:15:30.972;539955949494172629;438251;449791;391443;172336;
2024-05-26T22:15:30.991;539955949512331506;438242;449753;391416;172357;
2024-05-26T22:15:31.009;539955949530489432;438243;449760;391459;172434;
2024-05-26T22:15:31.027;539955949548647329;438241;449754;391447;172352;
2024-05-26T22:15:31.045;539955949566805226;438223;449699;391401;172389;
2024-05-26T22:15:31.063;539955949584963123;438199;449737;391430;172404;
2024-05-26T22:15:31.081;539955949603121020;438151;449709;391405;172420;
2024-05-26T22:15:31.100;539955949621278917;438155;449648;391422;172401;
2024-05-26T22:15:31.118;539955949639436814;438131;449602;391382;172331;
2024-05-26T22:15:31.136;539955949657594711;438106;449621;391393;172379;
2024-05-26T22:15:31.154;539955949675752608;438115;449607;391388;172388;
2024-05-26T22:15:31.172;539955949693910505;438118;449608;391376;172363;
2024-05-26T22:15:31.190;539955949712068402;438150;449625;391348;172366;
2024-05-26T22:15:31.209;539955949730226299;438149;449624;391358;172328;
2024-05-26T22:15:31.227;539955949748384196;438179;449589;391266;172423;
2024-05-26T22:15:31.245;539955949766542093;438173;449622;391409;172400;
2024-05-26T22:15:31.263;539955949784699990;438148;449600;391418;172404;
2024-05-26T22:15:31.281;539955949802857887;438175;449621;391428;172377;
2024-05-26T22:15:31.299;539955949821015784;438276;449682;391459;172418;
2024-05-26T22:15:31.317;539955949839173681;438309;449724;391468;172417;
2024-05-26T22:15:31.336;539955949857331578;438323;449685;391516;172383;
2024-05-26T22:15:31.354;539955949875489475;438352;449684;391535;172362;
2024-05-26T22:15:31.372;539955949893647372;438303;449722;391488;172379;
2024-05-26T22:15:31.390;539955949911805269;438357;449794;391570;172372;
2024-05-26T22:15:31.408;539955949929963166;438399;449861;391610;172419;
2024-05-26T22:15:31.426;539955949948121063;438378;449789;391540;172375;
2024-05-26T22:15:31.445;539955949966278960;438362;449778;391509;172371;
2024-05-26T22:15:31.463;539955949984436857;438371;449815;391547;172420;
2024-05-26T22:15:31.481;539955950002594754;438292;449651;391484;172393;
2024-05-26T22:15:31.499;539955950020752651;438168;449551;391360;172390;
2024-05-26T22:15:31.517;539955950038910548;438045;449370;391257;172389;
2024-05-26T22:15:31.535;539955950057068445;437797;449113;391077;172373;
2024-05-26T22:15:31.554;539955950075226342;437557;448899;390995;172349;
2024-05-26T22:15:31.572;539955950093384239;437391;448699;390846;172399;
2024-05-26T22:15:31.590;539955950111542136;437249;448540;390738;172387;
2024-05-26T22:15:31.608;539955950129700033;437114;448412;390646;172409;
2024-05-26T22:15:31.626;539955950147857930;437065;448339;390568;172408;
2024-05-26T22:15:31.644;539955950166015827;437011;448387;390621;172452;
2024-05-26T22:15:31.662;539955950184173724;437077;448349;390629;172378;
2024-05-26T22:15:31.681;539955950202331621;437160;448311;390569;172369;
2024-05-26T22:15:31.699;539955950220489518;437159;448311;390586;172389;
2024-05-26T22:15:31.717;539955950238647415;437304;448379;390738;172412;
2024-05-26T22:15:31.735;539955950256805312;437308;448425;390678;172423;
2024-05-26T22:15:31.753;539955950274963209;437348;448437;390685;172373;
2024-05-26T22:15:31.771;539955950293121106;437389;448491;390710;172394;
2024-05-26T22:15:31.790;539955950311279003;437453;448490;390755;172419;
2024-05-26T22:15:31.808;539955950329437536;437432;448523;390725;172369;
2024-05-26T22:15:31.826;539955950347596051;437386;448498;390711;172410;
2024-05-26T22:15:31.844;539955950365754566;437419;448463;390705;172441;
2024-05-26T22:15:31.862;539955950383913081;437403;448417;390690;172456;
2024-05-26T22:15:31.880;539955950402071596;437378;448389;390660;172439;
2024-05-26T22:15:31.899;539955950420230111;437374;448370;390692;172362;
2024-05-26T22:15:31.917;539955950438388626;437332;448301;390665;172401;
2024-05-26T22:15:31.935;539955950456547141;437343;448261;390625;172394;
2024-05-26T22:15:31.953;539955950474705656;437296;448224;390653;172371;
2024-05-26T22:15:31.971;539955950492864171;437274;448192;390651;172409;
2024-05-26T22:15:31.989;539955950511022686;437401;448226;390686;172395;
2024-05-26T22:15:32.007;539955950529181201;437409;448270;390634;172418;
2024-05-26T22:15:32.026;539955950547339716;437364;448292;390598;172390;
2024-05-26T22:15:32.044;539955950565498231;437409;448319;390643;172361;
2024-05-26T22:15:32.062;539955950583656746;437374;448286;390716;172397;
2024-05-26T22:15:32.080;539955950601815261;437410;448251;390699;172403;
2024-05-26T22:15:32.098;539955950619973776;437480;448266;390683;172384;
2024-05-26T22:15:32.116;539955950638132291;437463;448289;390708;172420;
2024-05-26T22:15:32.135;539955950656290806;437530;448366;390733;172444;
2024-05-26T22:15:32.153;539955950674449321;437514;448322;390760;172393;
2024-05-26T22:15:32.171;539955950692607836;437537;448399;390739;172376;
2024-05-26T22:15:32.189;539955950710766351;437563;448381;390751;172353;
2024-05-26T22:15:32.207;539955950728924866;437589;448354;390759;172380;
2024-05-26T22:15:32.225;539955950747083381;437641;448334;390754;172400;
2024-05-26T22:15:32.244;539955950765241896;437502;448254;390697;172353;
2024-05-26T22:15:32.262;539955950783400411;437361;448072;390560;172407;
2024-05-26T22:15:32.280;539955950801558926;437183;447910;390456;172376;
2024-05-26T22:15:32.298;539955950819717441;436930;447671;390267;172380;
2024-05-26T22:15:32.316;539955950837875956;436748;447404;390178;172373;
2024-05-26T22:15:32.334;539955950856034471;436600;447220;389993;172403;
2024-05-26T22:15:32.352;539955950874192986;436539;447136;389878;172383;
2024-05-26T22:15:32.371;539955950892351501;436477;447034;389854;172397;
2024-05-26T22:15:32.389;539955950910510016;436499;446994;389824;172412;
2024-05-26T22:15:32.407;539955950928668531;436498;447058;389827;172392;
2024-05-26T22:15:32.425;539955950946827046;436554;447038;389886;172395;
2024-05-26T22:15:32.443;539955950964985561;436534;447025;389940;172397;
2024-05-26T22:15:32.461;539955950983144076;436636;447176;389933;172368;
2024-05-26T22:15:32.480;539955951001302591;436734;447154;389936;172376;
2024-05-26T22:15:32.498;539955951019461106;436878;447253;390033;172385;
2024-05-26T22:15:32.516;539955951037619621;436875;447311;390052;172404;
2024-05-26T22:15:32.534;539955951055778136;436942;447388;390104;172389;
2024-05-26T22:15:32.552;539955951073936651;436977;447450;390174;172391;
2024-05-26T22:15:32.570;539955951092095166;436945;447405;390105;172369;
2024-05-26T22:15:32.589;539955951110253681;437029;447387;390118;172390;
2024-05-26T22:15:32.607;539955951128412196;437018;447378;390078;172375;
2024-05-26T22:15:32.625;539955951146571083;437065;447348;390071;172361;
2024-05-26T22:15:32.643;539955951164729946;436991;447340;390095;172360;
2024-05-26T22:15:32.661;539955951182888809;437026;447418;390138;172340;
2024-05-26T22:15:32.679;539955951201047672;437086;447420;390165;172386;
2024-05-26T22:15:32.698;539955951219206535;437069;447375;390158;172319;
2024-05-26T22:15:32.716;539955951237365398;437097;447429;390117;172388;
2024-05-26T22:15:32.734;539955951255524261;437160;447520;390143;172389;
2024-05-26T22:15:32.752;539955951273683124;437209;447468;390197;172387;
2024-05-26T22:15:32.770;539955951291841987;437251;447491;390183;172341;
2024-05-26T22:15:32.788;539955951310000850;437300;447584;390248;172390;
2024-05-26T22:15:32.806;539955951328159713;437302;447578;390282;172408;
2024-05-26T22:15:32.825;539955951346318576;437355;447603;390290;172404;
2024-05-26T22:15:32.843;539955951364477439;437492;447723;390369;172412;
2024-05-26T22:15:32.861;539955951382636302;437483;447720;390367;172386;
2024-05-26T22:15:32.879;539955951400795165;437570;447746;390458;172431;
2024-05-26T22:15:32.897;539955951418954028;437621;447810;390501;172411;
2024-05-26T22:15:32.915;539955951437112891;437629;447901;390497;172375;
2024-05-26T22:15:32.934;539955951455271754;437650;447879;390444;172367;
2024-05-26T22:15:32.952;539955951473430617;437679;447910;390441;172394;
2024-05-26T22:15:32.970;539955951491589480;437547;447709;390381;172362;
2024-05-26T22:15:32.988;539955951509748343;437388;447552;390247;172388;
2024-05-26T22:15:33.006;539955951527907206;437213;447389;390143;172338;
2024-05-26T22:15:33.024;539955951546066069;437209;447317;390072;172356;
2024-05-26T22:15:33.043;539955951564224932;437150;447251;390043;172352;
2024-05-26T22:15:33.061;539955951582383795;437121;447169;389987;172345;
2024-05-26T22:15:33.079;539955951600542658;437125;447166;389972;172361;
2024-05-26T22:15:33.097;539955951618701521;437134;447215;389971;172360;
2024-05-26T22:15:33.115;539955951636860384;437184;447316;390091;172318;
2024-05-26T22:15:33.133;539955951655019247;437313;447409;390144;172363;
2024-05-26T22:15:33.151;539955951673178110;437401;447454;390224;172335;
2024-05-26T22:15:33.170;539955951691336973;437497;447553;390270;172372;
2024-05-26T22:15:33.188;539955951709495836;437578;447664;390268;172385;
2024-05-26T22:15:33.206;539955951727654699;437569;447729;390339;172350;
2024-05-26T22:15:33.224;539955951745813562;437663;447751;390385;172359;
2024-05-26T22:15:33.242;539955951763972425;437719;447763;390366;172351;
2024-05-26T22:15:33.260;539955951782131288;437732;447793;390383;172312;
2024-05-26T22:15:33.279;539955951800290151;437776;447814;390453;172387;
2024-05-26T22:15:33.297;539955951818449014;437766;447831;390417;172374;
2024-05-26T22:15:33.315;539955951836607877;437793;447846;390487;172412;
2024-05-26T22:15:33.333;539955951854766740;437791;447873;390441;172399;
2024-05-26T22:15:33.351;539955951872925603;437855;447854;390446;172379;
2024-05-26T22:15:33.369;539955951891084466;437843;447931;390489;172369;
2024-05-26T22:15:33.388;539955951909242784;437858;447884;390428;172384;
2024-05-26T22:15:33.406;539955951927401068;437881;447988;390488;172375;
2024-05-26T22:15:33.424;539955951945559352;437927;448012;390468;172397;
2024-05-26T22:15:33.442;539955951963717636;438000;448034;390560;172403;
2024-05-26T22:15:33.460;539955951981875920;438001;448028;390523;172359;
2024-05-26T22:15:33.478;539955952000034204;438052;448016;390539;172362;
2024-05-26T22:15:33.496;539955952018192488;438054;448074;390615;172353;
2024-05-26T22:15:33.515;539955952036350772;438097;448132;390631;172366;
2024-05-26T22:15:33.533;539955952054509056;438157;448210;390657;172376;
2024-05-26T22:15:33.551;539955952072667340;438197;448268;390671;172306;
2024-05-26T22:15:33.569;539955952090825624;438199;448289;390683;172277;
2024-05-26T22:15:33.587;539955952108983908;438275;448349;390693;172413;
2024-05-26T22:15:33.605;539955952127142192;438256;448382;390766;172366;
2024-05-26T22:15:33.624;539955952145300476;438187;448277;390732;172305;
2024-05-26T22:15:33.642;539955952163458760;438080;448129;390631;172389;
2024-05-26T22:15:33.660;539955952181617044;438013;448023;390540;172369;
2024-05-26T22:15:33.678;539955952199775328;437918;447985;390439;172343;
2024-05-26T22:15:33.696;539955952217933612;437831;447865;390430;172367;
2024-05-26T22:15:33.714;539955952236091896;437780;447796;390454;172342;
2024-05-26T22:15:33.733;539955952254250180;437717;447766;390434;172349;
2024-05-26T22:15:33.751;539955952272408464;437740;447737;390412;172365;
2024-05-26T22:15:33.769;539955952290566748;437840;447777;390380;172327;
2024-05-26T22:15:33.787;539955952308725032;437893;447824;390425;172366;
2024-05-26T22:15:33.805;539955952326883316;437949;447918;390451;172411;
2024-05-26T22:15:33.823;539955952345041600;438031;448004;390501;172392;
2024-05-26T22:15:33.842;539955952363199884;438037;448105;390561;172390;
2024-05-26T22:15:33.860;539955952381358168;438093;448191;390549;172343;
2024-05-26T22:15:33.878;539955952399516452;438162;448225;390695;172358;
2024-05-26T22:15:33.896;539955952417674736;438192;448301;390712;172309;
2024-05-26T22:15:33.914;539955952435833020;438209;448292;390655;172336;
2024-05-26T22:15:33.932;539955952453991304;438262;448339;390697;172308;
2024-05-26T22:15:33.950;539955952472149588;438196;448314;390729;172342;
2024-05-26T22:15:33.969;539955952490307872;438194;448305;390731;172339;
2024-05-26T22:15:33.987;539955952508466156;438279;448302;390737;172377;
2024-05-26T22:15:34.005;539955952526624440;438207;448281;390724;172372;
2024-05-26T22:15:34.023;539955952544782724;438248;448315;390767;172342;
2024-05-26T22:15:34.041;539955952562941008;438270;448351;390767;172310;
2024-05-26T22:15:34.059;539955952581099292;438254;448387;390791;172292;
2024-05-26T22:15:34.078;539955952599257576;438275;448420;390812;172316;
2024-05-26T22:15:34.096;539955952617415860;438347;448461;390861;172430;
2024-05-26T22:15:34.114;539955952635574144;438444;448476;390910;172417;
2024-05-26T22:15:34.132;539955952653734490;438455;448528;390899;172407;
2024-05-26T22:15:34.150;539955952671894829;438499;448633;390936;172365;
2024-05-26T22:15:34.168;539955952690055168;438537;448702;391017;172402;
2024-05-26T22:15:34.187;539955952708215507;438552;448680;391025;172389;
2024-05-26T22:15:34.205;539955952726375846;438668;448763;391025;172383;
2024-05-26T22:15:34.223;539955952744536185;438648;448800;391005;172331;
2024-05-26T22:15:34.241;539955952762696524;438648;448883;391058;172341;
2024-05-26T22:15:34.259;539955952780856863;438654;448820;391053;172334;
2024-05-26T22:15:34.277;539955952799017202;438552;448702;391033;172357;
2024-05-26T22:15:34.295;539955952817177541;438441;448609;390912;172406;
2024-05-26T22:15:34.314;539955952835337880;438276;448408;390858;172308;
2024-05-26T22:15:34.332;539955952853498219;438147;448296;390772;172382;
2024-05-26T22:15:34.350;539955952871658558;438100;448206;390686;172355;
2024-05-26T22:15:34.368;539955952889818897;438109;448183;390690;172375;
2024-05-26T22:15:34.386;539955952907979236;438039;448155;390666;172361;
2024-05-26T22:15:34.404;539955952926139575;438058;448171;390630;172382;
2024-05-26T22:15:34.423;539955952944299914;438075;448167;390695;172354;
2024-05-26T22:15:34.441;539955952962460253;438134;448256;390756;172360;
2024-05-26T22:15:34.459;539955952980620592;438261;448371;390737;172387;
2024-05-26T22:15:34.477;539955952998780931;438326;448393;390845;172371;
2024-05-26T22:15:34.495;539955953016941270;438398;448399;390837;172407;
2024-05-26T22:15:34.513;539955953035101609;438407;448492;390928;172401;
2024-05-26T22:15:34.532;539955953053261948;438407;448582;390988;172407;
2024-05-26T22:15:34.550;539955953071422287;438451;448643;390984;172382;
2024-05-26T22:15:34.568;539955953089582626;438513;448656;391048;172392;
2024-05-26T22:15:34.586;539955953107742965;438520;448631;391050;172361;
2024-05-26T22:15:34.604;539955953125903304;438511;448639;390989;172354;
2024-05-26T22:15:34.622;539955953144063643;438502;448665;390959;172353;
2024-05-26T22:15:34.641;539955953162223982;438554;448678;390989;172378;
2024-05-26T22:15:34.659;539955953180384321;438553;448711;391035;172402;
2024-05-26T22:15:34.677;539955953198544660;438512;448724;391036;172400;
2024-05-26T22:15:34.695;539955953216704999;438499;448730;391078;172397;
2024-05-26T22:15:34.713;539955953234865338;438559;448704;391069;172383;
2024-05-26T22:15:34.731;539955953253025677;438499;448649;391030;172372;
2024-05-26T22:15:34.749;539955953271186016;438585;448804;391073;172406;
2024-05-26T22:15:34.768;539955953289346355;438587;448860;391111;172416;
2024-05-26T22:15:34.786;539955953307506694;438698;448914;391111;172343;
2024-05-26T22:15:34.804;539955953325667033;438720;448899;391223;172382;
2024-05-26T22:15:34.822;539955953343827372;438737;448908;391178;172434;
2024-05-26T22:15:34.840;539955953361987711;438756;448970;391220;172375;
2024-05-26T22:15:34.858;539955953380148050;438749;448974;391222;172387;
2024-05-26T22:15:34.877;539955953398308389;438782;448999;391249;172419;
2024-05-26T22:15:34.895;539955953416468728;438801;449088;391302;172350;
2024-05-26T22:15:34.913;539955953434627439;438871;449069;391324;172373;
2024-05-26T22:15:34.931;539955953452786123;438827;449065;391244;172335;
2024-05-26T22:15:34.949;539955953470944807;438790;449043;391241;172380;
2024-05-26T22:15:34.967;539955953489103491;438697;448985;391199;172388;
2024-05-26T22:15:34.986;539955953507262175;438486;448872;391131;172435;
2024-05-26T22:15:35.004;539955953525420859;438459;448713;391047;172410;
2024-05-26T22:15:35.022;539955953543579543;438338;448621;390989;172396;
2024-05-26T22:15:35.040;539955953561738227;438365;448615;390981;172430;
2024-05-26T22:15:35.058;539955953579896911;438264;448569;390928;172378;
2024-05-26T22:15:35.076;539955953598055595;438363;448630;391026;172401;
2024-05-26T22:15:35.095;539955953616214279;438340;448650;390977;172368;
2024-05-26T22:15:35.113;539955953634372963;438453;448741;391053;172427;
2024-05-26T22:15:35.131;539955953652531647;438513;448786;391121;172387;
2024-05-26T22:15:35.149;539955953670690331;438545;448856;391198;172407;
2024-05-26T22:15:35.167;539955953688849015;438615;448956;391177;172423;
2024-05-26T22:15:35.185;539955953707007699;438725;448979;391252;172378;
2024-05-26T22:15:35.203;539955953725166383;438775;449044;391291;172383;
2024-05-26T22:15:35.222;539955953743325067;438782;449068;391278;172368;
2024-05-26T22:15:35.240;539955953761483751;438830;449126;391322;172352;
2024-05-26T22:15:35.258;539955953779642435;438786;449181;391346;172320;
2024-05-26T22:15:35.276;539955953797801119;438862;449216;391340;172369;
2024-05-26T22:15:35.294;539955953815959803;438895;449221;391376;172406;
2024-05-26T22:15:35.312;539955953834118487;438908;449253;391358;172352;
2024-05-26T22:15:35.331;539955953852277171;438924;449235;391410;172369;
2024-05-26T22:15:35.349;539955953870435855;438975;449292;391459;172418;
2024-05-26T22:15:35.367;539955953888594539;438987;449283;391406;172370;
2024-05-26T22:15:35.385;539955953906753223;438964;449292;391417;172436;
2024-05-26T22:15:35.403;539955953924911907;438990;449290;391471;172365;
2024-05-26T22:15:35.421;539955953943070591;439009;449399;391497;172385;
2024-05-26T22:15:35.440;539955953961229275;439056;449369;391513;172401;
2024-05-26T22:15:35.458;539955953979387959;439088;449416;391526;172352;
2024-05-26T22:15:35.476;539955953997546643;439157;449490;391614;172416;
2024-05-26T22:15:35.494;539955954015705327;439134;449569;391592;172385;
2024-05-26T22:15:35.512;539955954033864011;439218;449550;391615;172357;
2024-05-26T22:15:35.530;539955954052022695;439216;449615;391699;172359;
2024-05-26T22:15:35.548;539955954070181379;439224;449659;391700;172329;
2024-05-26T22:15:35.567;539955954088340063;439281;449731;391809;172403;
2024-05-26T22:15:35.585;539955954106498747;439302;449747;391763;172379;
2024-05-26T22:15:35.603;539955954124657431;439357;449822;391820;172391;
2024-05-26T22:15:35.621;539955954142816115;439395;449848;391775;172395;
2024-05-26T22:15:35.639;539955954160974799;439353;449875;391844;172458;
2024-05-26T22:15:35.657;539955954179133483;439316;449801;391756;172366;
2024-05-26T22:15:35.676;539955954197292167;439267;449835;391729;172354;
2024-05-26T22:15:35.694;539955954215450851;439118;449673;391650;172344;
2024-05-26T22:15:35.712;539955954233609535;439080;449549;391624;172455;
2024-05-26T22:15:35.730;539955954251769263;438916;449446;391494;172418;
2024-05-26T22:15:35.748;539955954269928968;438849;449422;391507;172436;
2024-05-26T22:15:35.766;539955954288088673;438791;449323;391459;172373;
2024-05-26T22:15:35.785;539955954306248378;438754;449324;391423;172404;
2024-05-26T22:15:35.803;539955954324408083;438763;449300;391451;172426;
2024-05-26T22:15:35.821;539955954342567788;438802;449303;391422;172378;
2024-05-26T22:15:35.839;539955954360727493;438848;449318;391486;172354;
2024-05-26T22:15:35.857;539955954378887198;438878;449344;391513;172362;
2024-05-26T22:15:35.875;539955954397046903;438945;449462;391552;172395;
2024-05-26T22:15:35.894;539955954415206608;439036;449541;391613;172380;
2024-05-26T22:15:35.912;539955954433366313;439030;449570;391580;172406;
2024-05-26T22:15:35.930;539955954451526018;439106;449643;391573;172352;
2024-05-26T22:15:35.948;539955954469685723;439092;449589;391630;172352;
2024-05-26T22:15:35.966;539955954487845428;439096;449702;391688;172350;
2024-05-26T22:15:35.984;539955954506005133;439139;449690;391741;172373;
2024-05-26T22:15:36.002;539955954524164838;439088;449701;391699;172352;
2024-05-26T22:15:36.021;539955954542324543;439135;449690;391725;172363;
2024-05-26T22:15:36.039;539955954560484248;439134;449683;391703;172346;
2024-05-26T22:15:36.057;539955954578643953;439145;449703;391712;172393;
2024-05-26T22:15:36.075;539955954596803658;439244;449784;391759;172353;
2024-05-26T22:15:36.093;539955954614963363;439168;449762;391770;172382;
2024-05-26T22:15:36.111;539955954633123068;439149;449758;391776;172383;
2024-05-26T22:15:36.130;539955954651282773;439171;449729;391739;172393;
2024-05-26T22:15:36.148;539955954669442478;439195;449805;391767;172399;
2024-05-26T22:15:36.166;539955954687602183;439248;449815;391734;172479;
2024-05-26T22:15:36.184;539955954705761888;439249;449862;391804;172417;
2024-05-26T22:15:36.202;539955954723921593;439298;449916;391798;172395;
2024-05-26T22:15:36.220;539955954742081298;439361;449953;391844;172420;
2024-05-26T22:15:36.239;539955954760241003;439379;449953;391944;172446;
2024-05-26T22:15:36.257;539955954778400708;439399;450003;391964;172389;
2024-05-26T22:15:36.275;539955954796560413;439417;449991;391922;172376;
2024-05-26T22:15:36.293;539955954814720118;439461;450058;391988;172390;
2024-05-26T22:15:36.311;539955954832879823;439497;450151;392039;172408;
2024-05-26T22:15:36.329;539955954851039528;439545;450140;392120;172395;
2024-05-26T22:15:36.348;539955954869199233;439566;450205;392068;172418;
2024-05-26T22:15:36.366;539955954887358938;439643;450207;392104;172429;
2024-05-26T22:15:36.384;539955954905518643;439598;450245;392102;172397;
2024-05-26T22:15:36.402;539955954923678348;439618;450281;392132;172420;
2024-05-26T22:15:36.420;539955954941838053;439633;450298;392088;172454;
2024-05-26T22:15:36.438;539955954959997758;439658;450280;392142;172427;
2024-05-26T22:15:36.456;539955954978157463;439595;450224;392116;172351;
2024-05-26T22:15:36.475;539955954996317168;439540;450223;392083;172390;
2024-05-26T22:15:36.493;539955955014476873;439445;450116;392014;172387;
2024-05-26T22:15:36.511;539955955032636578;439345;449950;391872;172366;
2024-05-26T22:15:36.529;539955955050796283;439201;449870;391806;172324;
2024-05-26T22:15:36.547;539955955068955988;439101;449772;391722;172405;
2024-05-26T22:15:36.565;539955955087115693;439020;449693;391700;172402;
2024-05-26T22:15:36.584;539955955105275398;438933;449640;391646;172361;
2024-05-26T22:15:36.602;539955955123435103;438906;449582;391607;172318;
2024-05-26T22:15:36.620;539955955141594808;438963;449580;391613;172327;
2024-05-26T22:15:36.638;539955955159753634;438938;449598;391695;172410;
2024-05-26T22:15:36.656;539955955177912447;438992;449688;391735;172359;
2024-05-26T22:15:36.674;539955955196071260;439037;449672;391751;172346;
2024-05-26T22:15:36.693;539955955214230073;439178;449845;391884;172374;
2024-05-26T22:15:36.711;539955955232388886;439212;449848;391855;172391;
2024-05-26T22:15:36.729;539955955250547699;439231;449929;391891;172358;
2024-05-26T22:15:36.747;539955955268706512;439305;449973;391926;172422;
2024-05-26T22:15:36.765;539955955286865325;439367;449973;391940;172376;
2024-05-26T22:15:36.783;539955955305024138;439417;450018;391932;172420;
2024-05-26T22:15:36.801;539955955323182951;439465;450129;392006;172441;
2024-05-26T22:15:36.820;539955955341341764;439367;450065;391947;172363;
2024-05-26T22:15:36.838;539955955359500577;439395;450099;391952;172331;
2024-05-26T22:15:36.856;539955955377659390;439434;450061;391956;172361;
2024-05-26T22:15:36.874;539955955395818203;439484;450095;391964;172409;
2024-05-26T22:15:36.892;539955955413977016;439453;450100;392019;172363;
2024-05-26T22:15:36.910;539955955432135829;439455;450159;392002;172408;
2024-05-26T22:15:36.929;539955955450294642;439456;450132;392050;172369;
2024-05-26T22:15:36.947;539955955468453455;439545;450123;392119;172348;
2024-05-26T22:15:36.965;539955955486612268;439562;450148;392046;172346;
2024-05-26T22:15:36.983;539955955504771081;439567;450161;392102;172356;
2024-05-26T22:15:37.001;539955955522929894;439551;450245;392101;172351;
2024-05-26T22:15:37.019;539955955541088707;439609;450284;392174;172368;
2024-05-26T22:15:37.038;539955955559247520;439626;450302;392132;172355;
2024-05-26T22:15:37.056;539955955577406333;439689;450293;392161;172387;
2024-05-26T22:15:37.074;539955955595565146;439711;450343;392220;172382;
2024-05-26T22:15:37.092;539955955613723959;439790;450364;392254;172376;
2024-05-26T22:15:37.110;539955955631882772;439855;450410;392267;172419;
2024-05-26T22:15:37.128;539955955650041585;439886;450476;392346;172418;
2024-05-26T22:15:37.147;539955955668200398;439885;450538;392353;172399;
2024-05-26T22:15:37.165;539955955686359211;439961;450552;392362;172375;
2024-05-26T22:15:37.183;539955955704518024;440038;450628;392416;172386;
2024-05-26T22:15:37.201;539955955722676837;440025;450641;392386;172418;
2024-05-26T22:15:37.219;539955955740835650;440076;450698;392398;172391;
2024-05-26T22:15:37.237;539955955758994463;440070;450678;392427;172416;
2024-05-26T22:15:37.255;539955955777153276;440077;450707;392411;172380;
2024-05-26T22:15:37.274;539955955795312089;440134;450723;392456;172405;
2024-05-26T22:15:37.292;539955955813470902;440204;450777;392481;172361;
2024-05-26T22:15:37.310;539955955831629715;440152;450755;392493;172370;
2024-05-26T22:15:37.328;539955955849788528;440225;450821;392480;172395;
2024-05-26T22:15:37.346;539955955867947341;440243;450830;392490;172392;
2024-05-26T22:15:37.364;539955955886106154;440171;450869;392467;172403;
2024-05-26T22:15:37.383;539955955904264967;440161;450728;392405;172427;
2024-05-26T22:15:37.401;539955955922423780;440028;450679;392362;172390;
2024-05-26T22:15:37.419;539955955940582676;439912;450516;392278;172418;
2024-05-26T22:15:37.437;539955955958741564;439780;450417;392154;172385;
2024-05-26T22:15:37.455;539955955976900452;439715;450284;392102;172388;
2024-05-26T22:15:37.473;539955955995059340;439601;450117;392047;172408;
2024-05-26T22:15:37.492;539955956013218228;439468;450043;392025;172393;
2024-05-26T22:15:37.510;539955956031377116;439453;450012;391973;172462;
2024-05-26T22:15:37.528;539955956049536004;439448;449922;391923;172410;
2024-05-26T22:15:37.546;539955956067694892;439513;449994;391955;172439;
2024-05-26T22:15:37.564;539955956085853780;439497;450053;391960;172401;
2024-05-26T22:15:37.582;539955956104012668;439619;450147;392022;172425;
2024-05-26T22:15:37.600;539955956122171556;439617;450074;392062;172406;
2024-05-26T22:15:37.619;539955956140330444;439718;450205;392121;172379;
2024-05-26T22:15:37.637;539955956158489332;439754;450273;392185;172414;
2024-05-26T22:15:37.655;539955956176648220;439781;450331;392138;172384;
2024-05-26T22:15:37.673;539955956194807108;439838;450374;392190;172384;
2024-05-26T22:15:37.691;539955956212965996;439871;450372;392192;172382;
2024-05-26T22:15:37.709;539955956231124884;439908;450298;392164;172406;
2024-05-26T22:15:37.728;539955956249283772;439928;450352;392223;172438;
2024-05-26T22:15:37.746;539955956267442660;439911;450362;392258;172392;
2024-05-26T22:15:37.764;539955956285601548;439933;450416;392236;172410;
2024-05-26T22:15:37.782;539955956303760436;439960;450430;392270;172394;
2024-05-26T22:15:37.800;539955956321919324;439929;450455;392250;172403;
2024-05-26T22:15:37.818;539955956340078212;439941;450497;392260;172412;
2024-05-26T22:15:37.837;539955956358237100;439970;450478;392257;172366;
2024-05-26T22:15:37.855;539955956376395988;440039;450489;392319;172429;
2024-05-26T22:15:37.873;539955956394554876;440028;450529;392326;172385;
2024-05-26T22:15:37.891;539955956412713764;440094;450525;392330;172387;
2024-05-26T22:15:37.909;539955956430872652;440147;450545;392339;172399;
2024-05-26T22:15:37.927;539955956449031540;440184;450595;392444;172422;
2024-05-26T22:15:37.945;539955956467190428;440178;450628;392466;172396;
2024-05-26T22:15:37.964;539955956485349316;440236;450588;392445;172408;
2024-05-26T22:15:37.982;539955956503508204;440303;450682;392508;172412;
2024-05-26T22:15:38.000;539955956521667092;440303;450748;392524;172404;
2024-05-26T22:15:38.018;539955956539825980;440311;450731;392505;172350;
2024-05-26T22:15:38.036;539955956557984868;440401;450836;392512;172333;
2024-05-26T22:15:38.054;539955956576143756;440427;450797;392566;172403;
2024-05-26T22:15:38.073;539955956594302644;440491;450815;392619;172403;
2024-05-26T22:15:38.091;539955956612461532;440510;450839;392566;172378;
2024-05-26T22:15:38.109;539955956630620420;440496;450865;392604;172358;
2024-05-26T22:15:38.127;539955956648779308;440574;450906;392632;172389;
2024-05-26T22:15:38.145;539955956666938196;440612;451015;392623;172380;
2024-05-26T22:15:38.163;539955956685097084;440598;451017;392670;172322;
2024-05-26T22:15:38.182;539955956703255972;440619;451055;392667;172350;
2024-05-26T22:15:38.200;539955956721414860;440703;451071;392733;172394;
2024-05-26T22:15:38.218;539955956739573748;440657;451102;392721;172423;
2024-05-26T22:15:38.236;539955956757735388;440670;451096;392719;172367;
2024-05-26T22:15:38.254;539955956775896988;440707;451113;392714;172448;
2024-05-26T22:15:38.272;539955956794058588;440710;451128;392688;172475;
2024-05-26T22:15:38.291;539955956812220188;440679;451074;392650;172410;
2024-05-26T22:15:38.309;539955956830381788;440549;450886;392609;172409;
2024-05-26T22:15:38.327;539955956848543388;440377;450748;392481;172365;
2024-05-26T22:15:38.345;539955956866704988;440246;450558;392409;172366;
2024-05-26T22:15:38.363;539955956884866588;440121;450372;392232;172403;
2024-05-26T22:15:38.381;539955956903028188;440047;450328;392151;172369;
2024-05-26T22:15:38.399;539955956921189788;439928;450151;392086;172391;
2024-05-26T22:15:38.418;539955956939351388;439897;450101;392031;172409;
2024-05-26T22:15:38.436;539955956957512988;439971;450125;391989;172455;
2024-05-26T22:15:38.454;539955956975674588;439983;450181;392024;172474;
2024-05-26T22:15:38.472;539955956993836188;440055;450243;392068;172477;
2024-05-26T22:15:38.490;539955957011997788;440043;450249;392059;172393;
2024-05-26T22:15:38.508;539955957030159388;440090;450293;392098;172400;
2024-05-26T22:15:38.527;539955957048320988;440079;450309;392089;172375;
2024-05-26T22:15:38.545;539955957066482588;440156;450362;392114;172373;
2024-05-26T22:15:38.563;539955957084644188;440152;450400;392130;172410;
2024-05-26T22:15:38.581;539955957102805788;440119;450360;392136;172382;
2024-05-26T22:15:38.599;539955957120967388;440166;450465;392205;172443;
2024-05-26T22:15:38.617;539955957139128988;440181;450455;392191;172388;
2024-05-26T22:15:38.636;539955957157290588;440214;450345;392157;172427;
2024-05-26T22:15:38.654;539955957175452188;440168;450298;392137;172480;
2024-05-26T22:15:38.672;539955957193613788;440155;450311;392150;172368;
2024-05-26T22:15:38.690;539955957211775388;440189;450268;392122;172387;
2024-05-26T22:15:38.708;539955957229936988;440163;450269;392165;172395;
2024-05-26T22:15:38.726;539955957248098588;440149;450316;392093;172368;
2024-05-26T22:15:38.745;539955957266260188;440064;450280;392048;172321;
2024-05-26T22:15:38.763;539955957284421788;440093;450287;392036;172376;
2024-05-26T22:15:38.781;539955957302583388;440064;450308;392064;172349;
2024-05-26T22:15:38.799;539955957320744988;440148;450299;392103;172436;
2024-05-26T22:15:38.817;539955957338906588;440124;450317;392096;172437;
2024-05-26T22:15:38.835;539955957357068188;440145;450347;392068;172384;
2024-05-26T22:15:38.854;539955957375229788;440233;450355;392118;172435;
2024-05-26T22:15:38.872;539955957393391388;440201;450350;392074;172391;
2024-05-26T22:15:38.890;539955957411552988;440202;450290;392071;172436;
2024-05-26T22:15:38.908;539955957429714588;440196;450304;392133;172423;
2024-05-26T22:15:38.926;539955957447876188;440173;450481;392147;172453;
2024-05-26T22:15:38.944;539955957466037788;440214;450443;392124;172393;
2024-05-26T22:15:38.963;539955957484199388;440270;450436;392128;172442;
2024-05-26T22:15:38.981;539955957502360988;440278;450421;392167;172465;
2024-05-26T22:15:38.999;539955957520522588;440206;450447;392186;172379;
2024-05-26T22:15:39.017;539955957538684188;440273;450467;392164;172426;
2024-05-26T22:15:39.035;539955957556845788;440233;450456;392086;172416;
2024-05-26T22:15:39.053;539955957575006397;440178;450455;392130;172410;
2024-05-26T22:15:39.071;539955957593166964;440231;450456;392148;172375;
2024-05-26T22:15:39.090;539955957611327531;440293;450461;392140;172387;
2024-05-26T22:15:39.108;539955957629488098;440247;450441;392070;172375;
2024-05-26T22:15:39.126;539955957647648665;440209;450440;392122;172421;
2024-05-26T22:15:39.144;539955957665809232;440205;450408;392068;172357;
2024-05-26T22:15:39.162;539955957683969799;440254;450408;392063;172377;
2024-05-26T22:15:39.180;539955957702130366;440230;450386;392012;172360;
2024-05-26T22:15:39.199;539955957720290933;440116;450311;391938;172359;
2024-05-26T22:15:39.217;539955957738451500;439937;450101;391770;172326;
2024-05-26T22:15:39.235;539955957756612067;439816;450061;391701;172344;
2024-05-26T22:15:39.253;539955957774772634;439670;449825;391611;172384;
2024-05-26T22:15:39.271;539955957792933201;439548;449727;391483;172344;
2024-05-26T22:15:39.289;539955957811093768;439451;449592;391419;172338;
2024-05-26T22:15:39.308;539955957829254335;439389;449537;391389;172372;
2024-05-26T22:15:39.326;539955957847414902;439387;449516;391307;172349;
2024-05-26T22:15:39.344;539955957865575469;439430;449503;391298;172348;
2024-05-26T22:15:39.362;539955957883736036;439444;449532;391345;172342;
2024-05-26T22:15:39.380;539955957901896603;439475;449635;391401;172431;
2024-05-26T22:15:39.398;539955957920057170;439500;449652;391443;172357;
2024-05-26T22:15:39.417;539955957938217737;439612;449728;391423;172361;
2024-05-26T22:15:39.435;539955957956378304;439662;449793;391488;172320;
2024-05-26T22:15:39.453;539955957974538871;439701;449861;391483;172318;
2024-05-26T22:15:39.471;539955957992699438;439778;449936;391533;172336;
2024-05-26T22:15:39.489;539955958010860005;439834;449940;391557;172375;
2024-05-26T22:15:39.507;539955958029020572;439868;449984;391631;172378;
2024-05-26T22:15:39.525;539955958047181139;439893;450026;391677;172421;
2024-05-26T22:15:39.544;539955958065341706;439839;450066;391665;172343;
2024-05-26T22:15:39.562;539955958083502273;439895;450057;391735;172363;
2024-05-26T22:15:39.580;539955958101662840;439885;449992;391652;172371;
2024-05-26T22:15:39.598;539955958119823407;439859;449991;391627;172326;
2024-05-26T22:15:39.616;539955958137983974;439882;450010;391636;172315;
2024-05-26T22:15:39.634;539955958156144541;439930;450108;391616;172368;
2024-05-26T22:15:39.653;539955958174305108;439914;450167;391703;172362;
2024-05-26T22:15:39.671;539955958192465675;439978;450204;391706;172380;
2024-05-26T22:15:39.689;539955958210626242;439978;450172;391681;172306;
2024-05-26T22:15:39.707;539955958228786809;439954;450122;391655;172324;
2024-05-26T22:15:39.725;539955958246947376;440027;450172;391623;172370;
2024-05-26T22:15:39.743;539955958265107943;440026;450279;391720;172387;
2024-05-26T22:15:39.762;539955958283268510;440091;450270;391740;172362;
2024-05-26T22:15:39.780;539955958301429077;440090;450348;391740;172323;
2024-05-26T22:15:39.798;539955958319589644;440103;450372;391763;172337;
2024-05-26T22:15:39.816;539955958337750211;440213;450398;391842;172378;
2024-05-26T22:15:39.834;539955958355910778;440219;450444;391794;172401;
2024-05-26T22:15:39.852;539955958374070788;440128;450467;391831;172369;
2024-05-26T22:15:39.871;539955958392230778;440185;450497;391817;172350;
2024-05-26T22:15:39.889;539955958410390768;440246;450527;391844;172382;
2024-05-26T22:15:39.907;539955958428550758;440289;450560;391826;172390;
2024-05-26T22:15:39.925;539955958446710748;440323;450658;391841;172377;
2024-05-26T22:15:39.943;539955958464870738;440308;450628;391936;172425;
2024-05-26T22:15:39.961;539955958483030728;440351;450663;391937;172406;
2024-05-26T22:15:39.979;539955958501190718;440402;450723;391946;172419;
2024-05-26T22:15:39.998;539955958519350708;440438;450746;391970;172371;
2024-05-26T22:15:40.016;539955958537510698;440406;450706;391962;172351;
2024-05-26T22:15:40.034;539955958555670688;440377;450761;392013;172391;
2024-05-26T22:15:40.052;539955958573830678;440454;450769;391986;172413;
2024-05-26T22:15:40.070;539955958591990668;440405;450754;391886;172375;
2024-05-26T22:15:40.088;539955958610150658;440361;450755;391911;172433;
2024-05-26T22:15:40.107;539955958628310648;440385;450789;391919;172390;
2024-05-26T22:15:40.125;539955958646470638;440332;450731;391927;172431;
2024-05-26T22:15:40.143;539955958664630628;440157;450564;391800;172341;
2024-05-26T22:15:40.161;539955958682790618;440007;450389;391620;172341;
2024-05-26T22:15:40.179;539955958700950608;439856;450249;391499;172393;
2024-05-26T22:15:40.197;539955958719110598;439714;450139;391440;172435;
2024-05-26T22:15:40.216;539955958737270588;439560;450021;391301;172423;
2024-05-26T22:15:40.234;539955958755430578;439490;450003;391233;172395;
2024-05-26T22:15:40.252;539955958773590568;439466;449930;391255;172397;
2024-05-26T22:15:40.270;539955958791750558;439478;449865;391218;172407;
2024-05-26T22:15:40.288;539955958809910548;439439;449977;391266;172378;
2024-05-26T22:15:40.306;539955958828070538;439445;450082;391275;172353;
2024-05-26T22:15:40.325;539955958846230528;439559;450183;391368;172413;
2024-05-26T22:15:40.343;539955958864390518;439562;450137;391332;172401;
2024-05-26T22:15:40.361;539955958882550508;439633;450204;391443;172405;
2024-05-26T22:15:40.379;539955958900710498;439715;450303;391545;172401;
2024-05-26T22:15:40.397;539955958918870488;439775;450374;391543;172372;
2024-05-26T22:15:40.415;539955958937030478;439829;450375;391616;172420;
2024-05-26T22:15:40.433;539955958955190468;439848;450459;391598;172391;
2024-05-26T22:15:40.452;539955958973350458;439823;450552;391591;172356;
2024-05-26T22:15:40.470;539955958991510448;439811;450479;391546;172338;
2024-05-26T22:15:40.488;539955959009670438;439905;450570;391609;172434;
2024-05-26T22:15:40.506;539955959027830428;439901;450577;391612;172387;
2024-05-26T22:15:40.524;539955959045990418;439906;450589;391666;172426;
2024-05-26T22:15:40.542;539955959064150408;439947;450624;391655;172438;
2024-05-26T22:15:40.561;539955959082310398;439850;450586;391648;172353;
2024-05-26T22:15:40.579;539955959100470388;439934;450648;391723;172413;
2024-05-26T22:15:40.597;539955959118630378;439937;450710;391773;172452;
2024-05-26T22:15:40.615;539955959136790368;439899;450696;391729;172407;
2024-05-26T22:15:40.633;539955959154950358;439965;450788;391756;172367;
2024-05-26T22:15:40.651;539955959173110348;439969;450809;391737;172365;
2024-05-26T22:15:40.670;539955959191270338;439998;450854;391763;172413;
2024-05-26T22:15:40.688;539955959209430328;440063;450942;391767;172370;
2024-05-26T22:15:40.706;539955959227590318;440097;450963;391773;172353;
2024-05-26T22:15:40.724;539955959245750741;440139;450984;391888;172401;
2024-05-26T22:15:40.742;539955959263911130;440145;451035;391930;172386;
2024-05-26T22:15:40.760;539955959282071519;440108;451098;391957;172393;
2024-05-26T22:15:40.779;539955959300231908;440182;451116;391985;172376;
2024-05-26T22:15:40.797;539955959318392297;440266;451189;392038;172427;
2024-05-26T22:15:40.815;539955959336552686;440269;451231;392019;172365;
2024-05-26T22:15:40.833;539955959354713075;440302;451231;392070;172388;
2024-05-26T22:15:40.851;539955959372873464;440301;451349;392074;172390;
2024-05-26T22:15:40.869;539955959391033853;440349;451320;392086;172352;
2024-05-26T22:15:40.888;539955959409194242;440291;451320;392089;172391;
2024-05-26T22:15:40.906;539955959427354631;440449;451419;392181;172421;
2024-05-26T22:15:40.924;539955959445515020;440387;451385;392193;172382;
2024-05-26T22:15:40.942;539955959463675409;440454;451409;392164;172380;
2024-05-26T22:15:40.960;539955959481835798;440428;451470;392241;172421;
2024-05-26T22:15:40.978;539955959499996187;440449;451473;392234;172411;
2024-05-26T22:15:40.996;539955959518156576;440469;451521;392218;172418;
2024-05-26T22:15:41.015;539955959536316965;440412;451524;392193;172394;
2024-05-26T22:15:41.033;539955959554477354;440338;451470;392177;172348;
2024-05-26T22:15:41.051;539955959572637743;440229;451355;392101;172341;
2024-05-26T22:15:41.069;539955959590798132;440183;451249;392049;172379;
2024-05-26T22:15:41.087;539955959608958521;439958;451176;391901;172371;
2024-05-26T22:15:41.105;539955959627118910;439782;451017;391744;172417;
2024-05-26T22:15:41.124;539955959645279299;439575;450929;391744;172428;
2024-05-26T22:15:41.142;539955959663439688;439490;450799;391692;172479;
2024-05-26T22:15:41.160;539955959681600077;439413;450746;391612;172401;
2024-05-26T22:15:41.178;539955959699760466;439317;450753;391613;172377;
2024-05-26T22:15:41.196;539955959717920855;439282;450803;391687;172407;
2024-05-26T22:15:41.214;539955959736081244;439268;450787;391604;172394;
2024-05-26T22:15:41.233;539955959754241633;439353;450871;391677;172390;
2024-05-26T22:15:41.251;539955959772402022;439411;450888;391764;172393;
2024-05-26T22:15:41.269;539955959790562411;439430;450882;391739;172406;
2024-05-26T22:15:41.287;539955959808722800;439461;451025;391784;172419;
2024-05-26T22:15:41.305;539955959826883189;439468;450937;391812;172395;
2024-05-26T22:15:41.323;539955959845043578;439492;451008;391878;172414;
2024-05-26T22:15:41.342;539955959863203967;439562;451048;391817;172378;
2024-05-26T22:15:41.360;539955959881364356;439566;451099;391933;172422;
2024-05-26T22:15:41.378;539955959899524745;439566;451109;391946;172408;
2024-05-26T22:15:41.396;539955959917685134;439565;451054;391936;172387;
2024-05-26T22:15:41.414;539955959935845523;439499;451122;391894;172416;
2024-05-26T22:15:41.432;539955959954005912;439440;451109;391893;172383;
2024-05-26T22:15:41.450;539955959972166301;439424;451120;391920;172353;
2024-05-26T22:15:41.469;539955959990326690;439435;451096;391872;172375;
2024-05-26T22:15:41.487;539955960008486781;439387;451102;391896;172348;
2024-05-26T22:15:41.505;539955960026646848;439380;451126;391914;172397;
2024-05-26T22:15:41.523;539955960044806915;439398;451093;391889;172401;
2024-05-26T22:15:41.541;539955960062966982;439435;451116;391914;172343;
2024-05-26T22:15:41.559;539955960081127049;439475;451183;391959;172425;
2024-05-26T22:15:41.578;539955960099287116;439381;451183;391952;172353;
2024-05-26T22:15:41.596;539955960117447183;439367;451209;391983;172376;
2024-05-26T22:15:41.614;539955960135607250;439411;451245;391968;172350;
2024-05-26T22:15:41.632;539955960153767317;439463;451316;392045;172368;
2024-05-26T22:15:41.650;539955960171927384;439459;451290;392063;172300;
2024-05-26T22:15:41.668;539955960190087451;439540;451409;392168;172385;
2024-05-26T22:15:41.687;539955960208247518;439545;451402;392099;172404;
2024-05-26T22:15:41.705;539955960226407585;439595;451466;392160;172375;
2024-05-26T22:15:41.723;539955960244567652;439594;451459;392171;172368;
2024-05-26T22:15:41.741;539955960262727719;439582;451504;392232;172395;
2024-05-26T22:15:41.759;539955960280887786;439603;451571;392213;172361;
2024-05-26T22:15:41.777;539955960299047853;439618;451519;392153;172362;
2024-05-26T22:15:41.796;539955960317207920;439593;451517;392191;172340;
2024-05-26T22:15:41.814;539955960335367987;439527;451442;392219;172294;
2024-05-26T22:15:41.832;539955960353528054;439609;451517;392208;172406;
2024-05-26T22:15:41.850;539955960371688121;439562;451484;392201;172310;
2024-05-26T22:15:41.868;539955960389848188;439524;451509;392190;172287;
2024-05-26T22:15:41.886;539955960408008255;439462;451466;392222;172333;
2024-05-26T22:15:41.904;539955960426168322;439518;451467;392257;172383;
2024-05-26T22:15:41.923;539955960444328389;439287;451297;392139;172375;
2024-05-26T22:15:41.941;539955960462488456;439130;451214;392042;172344;
2024-05-26T22:15:41.959;539955960480648523;438922;451111;391967;172388;
2024-05-26T22:15:41.977;539955960498808590;438685;450987;391810;172314;
2024-05-26T22:15:41.995;539955960516968657;438492;450849;391722;172339;
2024-05-26T22:15:42.013;539955960535128724;438340;450801;391691;172388;
2024-05-26T22:15:42.032;539955960553288791;438299;450724;391686;172337;
2024-05-26T22:15:42.050;539955960571448858;438262;450738;391706;172365;
2024-05-26T22:15:42.068;539955960589608925;438187;450673;391723;172316;
2024-05-26T22:15:42.086;539955960607768992;438213;450749;391755;172359;
2024-05-26T22:15:42.104;539955960625929059;438311;450808;391807;172412;
2024-05-26T22:15:42.122;539955960644089126;438359;450854;391850;172419;
2024-05-26T22:15:42.141;539955960662249193;438382;450940;391849;172357;
2024-05-26T22:15:42.159;539955960680409260;438439;450924;391914;172399;
2024-05-26T22:15:42.177;539955960698569327;438447;450999;391996;172383;
2024-05-26T22:15:42.195;539955960716729394;438553;451054;391991;172389;
2024-05-26T22:15:42.213;539955960734889461;438472;451039;391967;172346;
2024-05-26T22:15:42.231;539955960753049528;438513;451062;391991;172383;
2024-05-26T22:15:42.250;539955960771209595;438515;451119;392020;172393;
2024-05-26T22:15:42.268;539955960789369662;438446;451078;392051;172357;
2024-05-26T22:15:42.286;539955960807529729;438472;451088;392087;172396;
2024-05-26T22:15:42.304;539955960825689796;438449;451052;392057;172388;
2024-05-26T22:15:42.322;539955960843850551;438388;451056;392032;172369;
2024-05-26T22:15:42.340;539955960862011304;438347;451059;392051;172380;
2024-05-26T22:15:42.358;539955960880172057;438352;451066;392020;172369;
2024-05-26T22:15:42.377;539955960898332810;438295;451122;392070;172361;
2024-05-26T22:15:42.395;539955960916493563;438299;451095;391986;172393;
2024-05-26T22:15:42.413;539955960934654316;438332;451129;392051;172378;
2024-05-26T22:15:42.431;539955960952815069;438285;451084;392004;172368;
2024-05-26T22:15:42.449;539955960970975822;438286;451062;392075;172307;
2024-05-26T22:15:42.467;539955960989136575;438339;451101;392137;172344;
2024-05-26T22:15:42.486;539955961007297328;438322;451143;392142;172344;
2024-05-26T22:15:42.504;539955961025458081;438348;451209;392236;172379;
2024-05-26T22:15:42.522;539955961043618834;438342;451248;392201;172373;
2024-05-26T22:15:42.540;539955961061779587;438359;451241;392179;172380;
2024-05-26T22:15:42.558;539955961079940340;438387;451280;392270;172359;
2024-05-26T22:15:42.576;539955961098101093;438388;451343;392316;172363;
2024-05-26T22:15:42.595;539955961116261846;438420;451366;392305;172351;
2024-05-26T22:15:42.613;539955961134422599;438391;451385;392257;172387;
2024-05-26T22:15:42.631;539955961152583352;438469;451391;392301;172400;
2024-05-26T22:15:42.649;539955961170744105;438543;451430;392357;172373;
2024-05-26T22:15:42.667;539955961188904858;438535;451365;392321;172386;
2024-05-26T22:15:42.685;539955961207065611;438501;451386;392411;172356;
2024-05-26T22:15:42.704;539955961225226364;438521;451471;392440;172402;
2024-05-26T22:15:42.722;539955961243387117;438510;451503;392355;172370;
2024-05-26T22:15:42.740;539955961261547870;438483;451372;392387;172359;
2024-05-26T22:15:42.758;539955961279708623;438415;451446;392468;172390;
2024-05-26T22:15:42.776;539955961297869376;438331;451411;392369;172387;
2024-05-26T22:15:42.794;539955961316030129;438152;451284;392238;172342;
2024-05-26T22:15:42.812;539955961334190882;437984;451198;392211;172390;
2024-05-26T22:15:42.831;539955961352351635;437752;451041;392143;172350;
2024-05-26T22:15:42.849;539955961370512388;437555;450842;391982;172354;
2024-05-26T22:15:42.867;539955961388673141;437392;450706;391908;172388;
2024-05-26T22:15:42.885;539955961406833894;437151;450584;391804;172321;
2024-05-26T22:15:42.903;539955961424994647;437101;450515;391738;172362;
2024-05-26T22:15:42.921;539955961443155400;437006;450493;391789;172374;
2024-05-26T22:15:42.940;539955961461316153;436987;450485;391759;172303;
2024-05-26T22:15:42.958;539955961479476906;437066;450531;391795;172373;
2024-05-26T22:15:42.976;539955961497637659;437128;450560;391857;172399;
2024-05-26T22:15:42.994;539955961515798412;437148;450633;391961;172376;
2024-05-26T22:15:43.012;539955961533959165;437270;450631;391976;172380;
2024-05-26T22:15:43.030;539955961552119918;437343;450766;392029;172426;
2024-05-26T22:15:43.049;539955961570280671;437291;450738;392010;172391;
2024-05-26T22:15:43.067;539955961588441424;437343;450774;392048;172386;
2024-05-26T22:15:43.085;539955961606602177;437363;450835;392072;172332;
2024-05-26T22:15:43.103;539955961624762930;437421;450867;392141;172343;
2024-05-26T22:15:43.121;539955961642923683;437417;450834;392114;172390;
2024-05-26T22:15:43.139;539955961661084130;437398;450788;392085;172367;
2024-05-26T22:15:43.158;539955961679244559;437408;450842;392173;172409;
2024-05-26T22:15:43.176;539955961697404988;437358;450887;392148;172349;
2024-05-26T22:15:43.194;539955961715565417;437355;450916;392179;172409;
2024-05-26T22:15:43.212;539955961733725846;437311;450865;392178;172351;
2024-05-26T22:15:43.230;539955961751886275;437302;450883;392200;172334;
2024-05-26T22:15:43.248;539955961770046704;437299;450865;392200;172345;
2024-05-26T22:15:43.267;539955961788207133;437283;450885;392211;172356;
2024-05-26T22:15:43.285;539955961806367562;437320;450918;392219;172331;
2024-05-26T22:15:43.303;539955961824527991;437316;450851;392236;172349;
2024-05-26T22:15:43.321;539955961842688420;437322;450939;392253;172366;
2024-05-26T22:15:43.339;539955961860848849;437359;450962;392276;172435;
2024-05-26T22:15:43.357;539955961879009278;437388;450997;392311;172461;
2024-05-26T22:15:43.375;539955961897169707;437392;451011;392352;172465;
2024-05-26T22:15:43.394;539955961915330136;437427;451032;392361;172343;
2024-05-26T22:15:43.412;539955961933490565;437404;451059;392422;172403;
2024-05-26T22:15:43.430;539955961951650994;437441;451055;392407;172389;
2024-05-26T22:15:43.448;539955961969811423;437487;451185;392417;172370;
2024-05-26T22:15:43.466;539955961987971852;437504;451137;392420;172360;
2024-05-26T22:15:43.484;539955962006132281;437558;451189;392422;172395;
2024-05-26T22:15:43.503;539955962024292710;437512;451167;392461;172375;
2024-05-26T22:15:43.521;539955962042453139;437517;451175;392468;172337;
2024-05-26T22:15:43.539;539955962060613568;437571;451208;392492;172326;
2024-05-26T22:15:43.557;539955962078773997;437574;451210;392493;172352;
2024-05-26T22:15:43.575;539955962096934426;437523;451278;392527;172374;
2024-05-26T22:15:43.593;539955962115094855;437571;451258;392508;172397;
2024-05-26T22:15:43.612;539955962133255284;437598;451270;392530;172377;
2024-05-26T22:15:43.630;539955962151415713;437568;451296;392535;172388;
2024-05-26T22:15:43.648;539955962169576142;437477;451225;392554;172399;
2024-05-26T22:15:43.666;539955962187736571;437286;451116;392462;172411;
2024-05-26T22:15:43.684;539955962205897000;437088;450923;392367;172414;
2024-05-26T22:15:43.702;539955962224057429;436821;450673;392217;172361;
2024-05-26T22:15:43.721;539955962242217858;436644;450469;392116;172399;
2024-05-26T22:15:43.739;539955962260378287;436438;450360;392024;172351;
2024-05-26T22:15:43.757;539955962278538716;436274;450282;391994;172331;
2024-05-26T22:15:43.775;539955962296699145;436172;450184;391946;172410;
2024-05-26T22:15:43.793;539955962314859574;436210;450163;391948;172403;
2024-05-26T22:15:43.811;539955962333020003;436157;450121;391963;172412;
2024-05-26T22:15:43.829;539955962351180432;436192;450138;391914;172423;
2024-05-26T22:15:43.848;539955962369340861;436239;450076;391897;172384;
2024-05-26T22:15:43.866;539955962387501290;436249;450144;391970;172344;
2024-05-26T22:15:43.884;539955962405661719;436324;450214;392040;172394;
2024-05-26T22:15:43.902;539955962423822148;436392;450290;392107;172391;
2024-05-26T22:15:43.920;539955962441982577;436468;450302;392160;172391;
2024-05-26T22:15:43.938;539955962460141941;436554;450342;392142;172409;
2024-05-26T22:15:43.957;539955962478301263;436566;450364;392202;172409;
2024-05-26T22:15:43.975;539955962496460585;436576;450403;392240;172426;
2024-05-26T22:15:43.993;539955962514619907;436593;450364;392157;172384;
2024-05-26T22:15:44.011;539955962532779229;436566;450421;392259;172368;
2024-05-26T22:15:44.029;539955962550938551;436581;450387;392239;172409;
2024-05-26T22:15:44.047;539955962569097873;436581;450377;392205;172411;
2024-05-26T22:15:44.066;539955962587257195;436566;450408;392226;172359;
2024-05-26T22:15:44.084;539955962605416517;436605;450388;392229;172388;
2024-05-26T22:15:44.102;539955962623575839;436660;450427;392280;172366;
2024-05-26T22:15:44.120;539955962641735161;436586;450410;392254;172331;
2024-05-26T22:15:44.138;539955962659894483;436610;450428;392215;172391;
2024-05-26T22:15:44.156;539955962678053805;436673;450497;392308;172485;
2024-05-26T22:15:44.175;539955962696213127;436649;450456;392295;172431;
2024-05-26T22:15:44.193;539955962714372449;436724;450527;392358;172433;
2024-05-26T22:15:44.211;539955962732531771;436757;450597;392372;172399;
2024-05-26T22:15:44.229;539955962750691093;436698;450566;392331;172340;
2024-05-26T22:15:44.247;539955962768850415;436772;450612;392365;172366;
2024-05-26T22:15:44.265;539955962787009737;436869;450679;392409;172439;
2024-05-26T22:15:44.283;539955962805169059;436908;450651;392441;172406;
2024-05-26T22:15:44.302;539955962823328381;436921;450645;392446;172412;
2024-05-26T22:15:44.320;539955962841487703;436941;450716;392536;172383;
2024-05-26T22:15:44.338;539955962859647025;436889;450759;392541;172372;
2024-05-26T22:15:44.356;539955962877806347;436975;450733;392499;172354;
2024-05-26T22:15:44.374;539955962895965669;437015;450745;392545;172370;
2024-05-26T22:15:44.392;539955962914124991;437067;450816;392613;172382;
2024-05-26T22:15:44.411;539955962932284313;437150;450891;392659;172392;
2024-05-26T22:15:44.429;539955962950443635;437150;450851;392693;172397;
2024-05-26T22:15:44.447;539955962968602957;437117;450899;392650;172409;
2024-05-26T22:15:44.465;539955962986762279;437091;450877;392688;172386;
2024-05-26T22:15:44.483;539955963004921601;437167;450894;392721;172409;
2024-05-26T22:15:44.501;539955963023080923;437156;450806;392708;172372;
2024-05-26T22:15:44.520;539955963041240245;437045;450843;392629;172356;
2024-05-26T22:15:44.538;539955963059399567;436898;450662;392514;172323;
2024-05-26T22:15:44.556;539955963077558889;436739;450455;392435;172352;
2024-05-26T22:15:44.574;539955963095718211;436478;450298;392329;172363;
2024-05-26T22:15:44.592;539955963113877533;436333;450081;392257;172414;
2024-05-26T22:15:44.610;539955963132036855;436074;449862;392079;172346;
2024-05-26T22:15:44.629;539955963150196177;435968;449726;392039;172307;
2024-05-26T22:15:44.647;539955963168355499;435924;449591;391931;172297;
2024-05-26T22:15:44.665;539955963186514821;435889;449513;391914;172316;
2024-05-26T22:15:44.683;539955963204674143;435818;449467;391937;172380;
2024-05-26T22:15:44.701;539955963222833465;435875;449497;391936;172397;
2024-05-26T22:15:44.719;539955963240992787;435943;449579;391928;172363;
2024-05-26T22:15:44.737;539955963259152109;436036;449581;391972;172368;
2024-05-26T22:15:44.756;539955963277311431;436123;449665;392033;172369;
2024-05-26T22:15:44.774;539955963295470753;436172;449682;392060;172311;
2024-05-26T22:15:44.792;539955963313630075;436260;449725;392126;172399;
2024-05-26T22:15:44.810;539955963331791128;436353;449773;392184;172405;
2024-05-26T22:15:44.828;539955963349952157;436243;449716;392077;172370;
2024-05-26T22:15:44.846;539955963368113186;436297;449721;392113;172396;
2024-05-26T22:15:44.865;539955963386274215;436316;449711;392113;172361;
2024-05-26T22:15:44.883;539955963404435244;436320;449688;392155;172357;
2024-05-26T22:15:44.901;539955963422596273;436311;449682;392092;172435;
2024-05-26T22:15:44.919;539955963440757302;436267;449652;392019;172384;
2024-05-26T22:15:44.937;539955963458918331;436258;449587;392031;172390;
2024-05-26T22:15:44.955;539955963477079360;436282;449588;392035;172453;
2024-05-26T22:15:44.974;539955963495240389;436260;449604;392008;172365;
2024-05-26T22:15:44.992;539955963513401418;436236;449558;392012;172363;
2024-05-26T22:15:45.010;539955963531562447;436262;449548;391984;172395;
2024-05-26T22:15:45.028;539955963549723476;436276;449491;392060;172399;
2024-05-26T22:15:45.046;539955963567884505;436236;449536;392033;172371;
2024-05-26T22:15:45.064;539955963586045534;436264;449551;392056;172384;
2024-05-26T22:15:45.083;539955963604206563;436332;449505;392047;172393;
2024-05-26T22:15:45.101;539955963622367592;436395;449533;392067;172410;
2024-05-26T22:15:45.119;539955963640528621;436459;449576;392119;172423;
2024-05-26T22:15:45.137;539955963658689650;436456;449543;392161;172409;
2024-05-26T22:15:45.155;539955963676850679;436531;449637;392179;172386;
2024-05-26T22:15:45.173;539955963695011708;436535;449606;392172;172402;
2024-05-26T22:15:45.191;539955963713172737;436575;449625;392169;172380;
2024-05-26T22:15:45.210;539955963731333766;436576;449654;392175;172389;
2024-05-26T22:15:45.228;539955963749494795;436552;449643;392202;172412;
2024-05-26T22:15:45.246;539955963767655824;436678;449696;392234;172379;
2024-05-26T22:15:45.264;539955963785816853;436686;449750;392271;172372;
2024-05-26T22:15:45.282;539955963803977882;436706;449735;392204;172365;
2024-05-26T22:15:45.300;539955963822138911;436792;449785;392276;172369;
2024-05-26T22:15:45.319;539955963840299940;436806;449814;392311;172372;
2024-05-26T22:15:45.337;539955963858460969;436770;449758;392220;172383;
2024-05-26T22:15:45.355;539955963876621998;436683;449634;392194;172448;
2024-05-26T22:15:45.373;539955963894783027;436487;449460;392090;172386;
2024-05-26T22:15:45.391;539955963912944056;436231;449248;391922;172393;
2024-05-26T22:15:45.409;539955963931105085;436023;448980;391725;172331;
2024-05-26T22:15:45.428;539955963949266114;435847;448794;391666;172376;
2024-05-26T22:15:45.446;539955963967427143;435722;448643;391558;172351;
2024-05-26T22:15:45.464;539955963985588172;435657;448567;391484;172324;
2024-05-26T22:15:45.482;539955964003749201;435671;448501;391437;172376;
2024-05-26T22:15:45.500;539955964021910230;435671;448453;391441;172377;
2024-05-26T22:15:45.518;539955964040071259;435673;448463;391423;172396;
2024-05-26T22:15:45.537;539955964058232288;435723;448599;391422;172332;
2024-05-26T22:15:45.555;539955964076393317;435834;448535;391486;172385;
2024-05-26T22:15:45.573;539955964094554346;435934;448527;391512;172402;
2024-05-26T22:15:45.591;539955964112715375;435923;448644;391493;172400;
2024-05-26T22:15:45.609;539955964130876404;436038;448688;391517;172425;
2024-05-26T22:15:45.627;539955964149037433;436057;448694;391622;172400;
2024-05-26T22:15:45.646;539955964167197552;436111;448666;391642;172387;
2024-05-26T22:15:45.664;539955964185357642;436110;448656;391548;172400;
2024-05-26T22:15:45.682;539955964203517732;436085;448677;391497;172385;
2024-05-26T22:15:45.700;539955964221677822;436097;448591;391490;172356;
2024-05-26T22:15:45.718;539955964239837912;436074;448539;391402;172343;
2024-05-26T22:15:45.736;539955964257998002;436056;448511;391400;172399;
2024-05-26T22:15:45.754;539955964276158092;435909;448488;391359;172326;
2024-05-26T22:15:45.773;539955964294318182;435957;448439;391359;172401;
2024-05-26T22:15:45.791;539955964312478272;435974;448460;391380;172409;
2024-05-26T22:15:45.809;539955964330638362;435926;448391;391278;172353;
2024-05-26T22:15:45.827;539955964348798452;435983;448396;391375;172374;
2024-05-26T22:15:45.845;539955964366958542;435944;448373;391252;172387;
2024-05-26T22:15:45.863;539955964385118632;435966;448373;391295;172376;
2024-05-26T22:15:45.882;539955964403278722;436003;448382;391230;172403;
2024-05-26T22:15:45.900;539955964421438812;436011;448353;391226;172391;
2024-05-26T22:15:45.918;539955964439598902;436054;448411;391246;172422;
2024-05-26T22:15:45.936;539955964457758992;436054;448406;391287;172405;
2024-05-26T22:15:45.954;539955964475919082;436094;448416;391320;172448;
2024-05-26T22:15:45.972;539955964494079172;436139;448414;391268;172387;
2024-05-26T22:15:45.991;539955964512239262;436097;448387;391237;172341;
2024-05-26T22:15:46.009;539955964530399352;436227;448424;391278;172375;
2024-05-26T22:15:46.027;539955964548559442;436191;448446;391330;172356;
2024-05-26T22:15:46.045;539955964566719532;436224;448529;391311;172370;
2024-05-26T22:15:46.063;539955964584879622;436221;448505;391317;172422;
2024-05-26T22:15:46.081;539955964603039712;436244;448507;391328;172339;
2024-05-26T22:15:46.100;539955964621199802;436302;448573;391289;172418;
2024-05-26T22:15:46.118;539955964639359892;436307;448552;391289;172448;
2024-05-26T22:15:46.136;539955964657519982;436263;448499;391301;172393;
2024-05-26T22:15:46.154;539955964675680072;436141;448364;391138;172346;
2024-05-26T22:15:46.172;539955964693840162;435999;448236;391045;172379;
2024-05-26T22:15:46.190;539955964712000252;435798;448045;390874;172379;
2024-05-26T22:15:46.208;539955964730160342;435614;447785;390695;172357;
2024-05-26T22:15:46.227;539955964748320432;435470;447619;390587;172404;
2024-05-26T22:15:46.245;539955964766480522;435328;447486;390414;172334;
2024-05-26T22:15:46.263;539955964784640612;435214;447399;390279;172384;
2024-05-26T22:15:46.281;539955964802800702;435258;447330;390274;172442;
2024-05-26T22:15:46.299;539955964820960792;435238;447279;390234;172399;
2024-05-26T22:15:46.317;539955964839120882;435255;447250;390205;172366;
2024-05-26T22:15:46.336;539955964857280972;435355;447329;390230;172362;
2024-05-26T22:15:46.354;539955964875441062;435354;447369;390306;172354;
2024-05-26T22:15:46.372;539955964893601152;435470;447452;390323;172359;
2024-05-26T22:15:46.390;539955964911761242;435641;447578;390399;172441;
2024-05-26T22:15:46.408;539955964929921332;435723;447579;390454;172393;
2024-05-26T22:15:46.426;539955964948080527;435771;447654;390509;172386;
2024-05-26T22:15:46.445;539955964966239708;435850;447724;390510;172338;
2024-05-26T22:15:46.463;539955964984398889;435881;447765;390535;172338;
2024-05-26T22:15:46.481;539955965002558070;435836;447803;390480;172371;
2024-05-26T22:15:46.499;539955965020717251;435874;447843;390458;172363;
2024-05-26T22:15:46.517;539955965038876432;435855;447831;390526;172383;
2024-05-26T22:15:46.535;539955965057035613;435853;447825;390504;172342;
2024-05-26T22:15:46.554;539955965075194794;435954;447805;390480;172405;
2024-05-26T22:15:46.572;539955965093353975;435957;447828;390414;172355;
2024-05-26T22:15:46.590;539955965111513156;435976;447800;390418;172316;
2024-05-26T22:15:46.608;539955965129672337;436005;447926;390426;172397;
2024-05-26T22:15:46.626;539955965147831518;436030;447806;390430;172353;
2024-05-26T22:15:46.644;539955965165990699;436037;447912;390427;172321;
2024-05-26T22:15:46.662;539955965184149880;436135;447933;390484;172366;
2024-05-26T22:15:46.681;539955965202309061;436159;447986;390512;172390;
2024-05-26T22:15:46.699;539955965220468242;436177;448035;390519;172353;
2024-05-26T22:15:46.717;539955965238627423;436205;448091;390532;172303;
2024-05-26T22:15:46.735;539955965256786604;436364;448151;390580;172356;
2024-05-26T22:15:46.753;539955965274945785;436345;448123;390549;172349;
2024-05-26T22:15:46.771;539955965293104966;436352;448165;390614;172356;
2024-05-26T22:15:46.790;539955965311264147;436378;448238;390555;172414;
2024-05-26T22:15:46.808;539955965329423328;436422;448277;390639;172399;
2024-05-26T22:15:46.826;539955965347582509;436478;448392;390606;172373;
2024-05-26T22:15:46.844;539955965365741690;436542;448355;390604;172374;
2024-05-26T22:15:46.862;539955965383900871;436575;448365;390686;172373;
2024-05-26T22:15:46.880;539955965402060052;436638;448478;390721;172404;
2024-05-26T22:15:46.899;539955965420219233;436678;448480;390685;172344;
2024-05-26T22:15:46.917;539955965438378414;436725;448511;390742;172387;
2024-05-26T22:15:46.935;539955965456537595;436689;448504;390697;172393;
2024-05-26T22:15:46.953;539955965474696776;436667;448514;390717;172367;
2024-05-26T22:15:46.971;539955965492855957;436704;448493;390716;172399;
2024-05-26T22:15:46.989;539955965511015138;436632;448451;390643;172378;
2024-05-26T22:15:47.007;539955965529174319;436487;448237;390392;172317;
2024-05-26T22:15:47.026;539955965547333500;436347;448156;390292;172360;
2024-05-26T22:15:47.044;539955965565492681;436115;447949;390165;172368;
2024-05-26T22:15:47.062;539955965583651862;435996;447747;389975;172385;
2024-05-26T22:15:47.080;539955965601811043;435840;447577;389882;172350;
2024-05-26T22:15:47.098;539955965619970224;435781;447476;389742;172316;
2024-05-26T22:15:47.116;539955965638129405;435776;447449;389717;172337;
2024-05-26T22:15:47.135;539955965656288586;435793;447380;389713;172366;
2024-05-26T22:15:47.153;539955965674447767;435823;447436;389708;172440;
2024-05-26T22:15:47.171;539955965692606948;435811;447517;389766;172384;
2024-05-26T22:15:47.189;539955965710766129;435892;447562;389778;172374;
2024-05-26T22:15:47.207;539955965728925310;436029;447649;389834;172340;
2024-05-26T22:15:47.225;539955965747083520;436079;447689;389907;172317;
2024-05-26T22:15:47.244;539955965765241730;436180;447849;390007;172370;
