Phone timestamp;sensor timestamp [ns];channel 0;channel 1;channel 2;ambient
2024-05-26T22:20:11.236;539956229775936820;525031;592399;541538;172379;
2024-05-26T22:20:11.254;539956229794095138;525229;592622;541782;172429;
2024-05-26T22:20:11.272;539956229812253456;525339;592824;541970;172419;
2024-05-26T22:20:11.290;539956229830411774;525610;592996;542152;172374;
2024-05-26T22:20:11.308;539956229848570092;525763;593287;542327;172362;
2024-05-26T22:20:11.326;539956229866728410;526024;593616;542590;172380;
2024-05-26T22:20:11.344;539956229884886728;526228;593837;542786;172373;
2024-05-26T22:20:11.363;539956229903045046;526421;594136;543069;172421;
2024-05-26T22:20:11.381;539956229921203364;526628;594428;543297;172396;
2024-05-26T22:20:11.399;539956229939361682;526934;594742;543567;172392;
2024-05-26T22:20:11.417;539956229957520000;527194;595031;543771;172444;
2024-05-26T22:20:11.435;539956229975678318;527391;595277;544026;172414;
2024-05-26T22:20:11.453;539956229993836636;527345;595299;544044;172460;
2024-05-26T22:20:11.472;539956230011994954;527115;594998;543830;172419;
2024-05-26T22:20:11.490;539956230030153272;526631;594367;543299;172438;
2024-05-26T22:20:11.508;539956230048311590;526100;593723;542753;172429;
2024-05-26T22:20:11.526;539956230066469908;525512;592996;542167;172402;
2024-05-26T22:20:11.544;539956230084628226;525051;592390;541589;172362;
2024-05-26T22:20:11.562;539956230102786544;524681;591953;541164;172420;
2024-05-26T22:20:11.581;539956230120944862;524433;591690;540952;172425;
2024-05-26T22:20:11.599;539956230139103180;524361;591613;540824;172430;
2024-05-26T22:20:11.617;539956230157261498;524410;591712;540882;172417;
2024-05-26T22:20:11.635;539956230175419816;524545;591855;540944;172369;
2024-05-26T22:20:11.653;539956230193578134;524812;592250;541247;172414;
2024-05-26T22:20:11.671;539956230211736452;525110;592602;541554;172392;
2024-05-26T22:20:11.689;539956230229894770;525482;593020;541875;172416;
2024-05-26T22:20:11.708;539956230248053088;525731;593355;542186;172402;
2024-05-26T22:20:11.726;539956230266211406;526065;593771;542523;172356;
2024-05-26T22:20:11.744;539956230284369724;526417;594127;542886;172429;
2024-05-26T22:20:11.762;539956230302528042;526648;594464;543185;172390;
2024-05-26T22:20:11.780;539956230320686360;526884;594840;543492;172394;
2024-05-26T22:20:11.798;539956230338844678;527194;595123;543762;172387;
2024-05-26T22:20:11.817;539956230357002996;527351;595417;543999;172389;
2024-05-26T22:20:11.835;539956230375161314;527614;595707;544262;172391;
2024-05-26T22:20:11.853;539956230393319632;527866;596021;544492;172404;
2024-05-26T22:20:11.871;539956230411477950;528089;596388;544750;172397;
2024-05-26T22:20:11.889;539956230429636268;528336;596633;545011;172407;
2024-05-26T22:20:11.907;539956230447794586;528585;596939;545286;172408;
2024-05-26T22:20:11.926;539956230465952904;528879;597245;545493;172420;
2024-05-26T22:20:11.944;539956230484111263;529048;597603;545752;172365;
2024-05-26T22:20:11.962;539956230502269581;529343;597893;546037;172427;
2024-05-26T22:20:11.980;539956230520427899;529597;598230;546300;172377;
2024-05-26T22:20:11.998;539956230538586217;529934;598519;546631;172371;
2024-05-26T22:20:12.016;539956230556744535;530212;598818;546898;172372;
2024-05-26T22:20:12.034;539956230574902853;530341;599052;547095;172411;
2024-05-26T22:20:12.053;539956230593061171;530273;598942;547067;172391;
2024-05-26T22:20:12.071;539956230611219489;530049;598640;546837;172452;
2024-05-26T22:20:12.089;539956230629377807;529701;598186;546439;172406;
2024-05-26T22:20:12.107;539956230647536125;529300;597682;546075;172410;
2024-05-26T22:20:12.125;539956230665694443;528960;597365;545690;172378;
2024-05-26T22:20:12.143;539956230683852761;528772;597057;545477;172472;
2024-05-26T22:20:12.162;539956230702011079;528642;596876;545365;172473;
2024-05-26T22:20:12.180;539956230720169397;528650;596939;545340;172437;
2024-05-26T22:20:12.198;539956230738327715;528736;597087;545483;172478;
2024-05-26T22:20:12.216;539956230756486033;528941;597327;545629;172410;
2024-05-26T22:20:12.234;539956230774644351;529205;597657;545866;172376;
2024-05-26T22:20:12.252;539956230792802669;529574;598082;546184;172379;
2024-05-26T22:20:12.271;539956230810960987;529837;598486;546503;172401;
2024-05-26T22:20:12.289;539956230829119305;530156;598777;546859;172437;
2024-05-26T22:20:12.307;539956230847277623;530477;599248;547262;172441;
2024-05-26T22:20:12.325;539956230865435941;530782;599628;547593;172462;
2024-05-26T22:20:12.343;539956230883594259;531030;599977;547880;172435;
2024-05-26T22:20:12.361;539956230901752577;531336;600339;548125;172344;
2024-05-26T22:20:12.379;539956230919910895;531616;600584;548483;172383;
2024-05-26T22:20:12.398;539956230938069213;531904;600971;548735;172423;
2024-05-26T22:20:12.416;539956230956227531;532124;601218;548937;172367;
2024-05-26T22:20:12.434;539956230974385849;532362;601586;549238;172388;
2024-05-26T22:20:12.452;539956230992544167;532594;601969;549583;172406;
2024-05-26T22:20:12.470;539956231010702485;532915;602300;549852;172456;
2024-05-26T22:20:12.488;539956231028860803;533213;602644;550206;172422;
2024-05-26T22:20:12.507;539956231047019121;533524;602939;550484;172425;
2024-05-26T22:20:12.525;539956231065177439;533836;603365;550803;172437;
2024-05-26T22:20:12.543;539956231083335757;534104;603680;551079;172459;
2024-05-26T22:20:12.561;539956231101494075;534423;604030;551347;172397;
2024-05-26T22:20:12.579;539956231119652393;534672;604355;551623;172416;
2024-05-26T22:20:12.597;539956231137810711;535028;604721;551900;172428;
2024-05-26T22:20:12.616;539956231155969029;535256;605090;552236;172421;
2024-05-26T22:20:12.634;539956231174127347;535381;605194;552421;172395;
2024-05-26T22:20:12.652;539956231192285665;535390;605139;552400;172388;
2024-05-26T22:20:12.670;539956231210443983;535200;604874;552264;172416;
2024-05-26T22:20:12.688;539956231228602301;534931;604530;552051;172437;
2024-05-26T22:20:12.706;539956231246762618;534691;604194;551757;172459;
2024-05-26T22:20:12.724;539956231264922898;534543;604074;551550;172372;
2024-05-26T22:20:12.743;539956231283083178;534435;603983;551484;172373;
2024-05-26T22:20:12.761;539956231301243458;534465;603988;551523;172389;
2024-05-26T22:20:12.779;539956231319403738;534518;604138;551655;172353;
2024-05-26T22:20:12.797;539956231337564018;534763;604477;551876;172424;
2024-05-26T22:20:12.815;539956231355724298;535053;604742;552117;172406;
2024-05-26T22:20:12.833;539956231373884578;535399;605152;552445;172420;
2024-05-26T22:20:12.852;539956231392044858;535723;605613;552831;172407;
2024-05-26T22:20:12.870;539956231410205138;536141;606102;553188;172404;
2024-05-26T22:20:12.888;539956231428365418;536457;606461;553546;172365;
2024-05-26T22:20:12.906;539956231446525698;536758;606857;553861;172401;
2024-05-26T22:20:12.924;539956231464685978;537066;607286;554237;172462;
2024-05-26T22:20:12.942;539956231482846258;537371;607633;554522;172408;
2024-05-26T22:20:12.961;539956231501006538;537693;607955;554768;172361;
2024-05-26T22:20:12.979;539956231519166818;537983;608308;555112;172367;
2024-05-26T22:20:12.997;539956231537327098;538212;608637;555362;172412;
2024-05-26T22:20:13.015;539956231555487378;538458;608949;555604;172391;
2024-05-26T22:20:13.033;539956231573647658;538682;609212;555902;172459;
2024-05-26T22:20:13.051;539956231591807938;538957;609483;556110;172386;
2024-05-26T22:20:13.070;539956231609968218;539192;609766;556357;172420;
2024-05-26T22:20:13.088;539956231628128498;539386;610060;556626;172360;
2024-05-26T22:20:13.106;539956231646288778;539655;610371;556959;172430;
2024-05-26T22:20:13.124;539956231664449058;539902;610747;557134;172436;
2024-05-26T22:20:13.142;539956231682609338;540067;611023;557387;172386;
2024-05-26T22:20:13.160;539956231700769618;540375;611324;557641;172385;
2024-05-26T22:20:13.178;539956231718929898;540633;611630;557938;172346;
2024-05-26T22:20:13.197;539956231737090178;540792;611802;558129;172349;
2024-05-26T22:20:13.215;539956231755250458;540851;611932;558247;172442;
2024-05-26T22:20:13.233;539956231773410738;540703;611739;558118;172394;
2024-05-26T22:20:13.251;539956231791571018;540547;611409;557955;172386;
2024-05-26T22:20:13.269;539956231809731298;540336;611205;557753;172429;
2024-05-26T22:20:13.287;539956231827891578;540239;611065;557675;172442;
2024-05-26T22:20:13.306;539956231846051858;540223;611068;557632;172437;
2024-05-26T22:20:13.324;539956231864212138;540220;611095;557678;172374;
2024-05-26T22:20:13.342;539956231882372418;540401;611249;557774;172391;
2024-05-26T22:20:13.360;539956231900532698;540570;611526;558016;172344;
2024-05-26T22:20:13.378;539956231918692978;540896;611841;558338;172406;
2024-05-26T22:20:13.396;539956231936853258;541211;612310;558600;172371;
2024-05-26T22:20:13.415;539956231955013538;541556;612749;558976;172460;
2024-05-26T22:20:13.433;539956231973173818;541930;613129;559311;172392;
2024-05-26T22:20:13.451;539956231991334098;542227;613537;559691;172405;
2024-05-26T22:20:13.469;539956232009493223;542528;613806;559981;172370;
2024-05-26T22:20:13.487;539956232027652341;542836;614253;560357;172402;
2024-05-26T22:20:13.505;539956232045811459;543144;614559;560561;172424;
2024-05-26T22:20:13.524;539956232063970577;543396;614859;560828;172408;
2024-05-26T22:20:13.542;539956232082129695;543577;615188;561079;172422;
2024-05-26T22:20:13.560;539956232100288813;543761;615466;561301;172440;
2024-05-26T22:20:13.578;539956232118447931;543994;615736;561538;172470;
2024-05-26T22:20:13.596;539956232136607049;544119;615971;561703;172417;
2024-05-26T22:20:13.614;539956232154766167;544478;616292;561996;172467;
2024-05-26T22:20:13.632;539956232172925285;544730;616550;562296;172426;
2024-05-26T22:20:13.651;539956232191084403;544928;616847;562511;172405;
2024-05-26T22:20:13.669;539956232209243521;545198;617105;562741;172387;
2024-05-26T22:20:13.687;539956232227402639;545466;617459;562981;172437;
2024-05-26T22:20:13.705;539956232245561757;545655;617669;563174;172406;
2024-05-26T22:20:13.723;539956232263720875;545802;617862;563412;172445;
2024-05-26T22:20:13.741;539956232281879993;545880;617879;563502;172442;
2024-05-26T22:20:13.760;539956232300039111;545721;617685;563364;172418;
2024-05-26T22:20:13.778;539956232318198229;545440;617455;563209;172405;
2024-05-26T22:20:13.796;539956232336357347;545215;617116;562981;172382;
2024-05-26T22:20:13.814;539956232354516465;544974;616858;562739;172365;
2024-05-26T22:20:13.832;539956232372675583;544836;616763;562567;172386;
2024-05-26T22:20:13.850;539956232390834701;544744;616600;562519;172401;
2024-05-26T22:20:13.869;539956232408993819;544723;616640;562528;172380;
2024-05-26T22:20:13.887;539956232427152937;544816;616734;562606;172422;
2024-05-26T22:20:13.905;539956232445312055;544926;616888;562709;172399;
2024-05-26T22:20:13.923;539956232463471173;545156;617261;562908;172418;
2024-05-26T22:20:13.941;539956232481630291;545347;617522;563209;172383;
2024-05-26T22:20:13.959;539956232499789409;545530;617823;563437;172419;
2024-05-26T22:20:13.978;539956232517948527;545783;618055;563696;172444;
2024-05-26T22:20:13.996;539956232536107645;545979;618413;563944;172417;
2024-05-26T22:20:14.014;539956232554266763;546221;618624;564117;172444;
2024-05-26T22:20:14.032;539956232572425881;546369;618942;564326;172377;
2024-05-26T22:20:14.050;539956232590584999;546491;619124;564500;172433;
2024-05-26T22:20:14.068;539956232608744117;546601;619256;564583;172410;
2024-05-26T22:20:14.086;539956232626903235;546649;619481;564728;172367;
2024-05-26T22:20:14.105;539956232645062353;546759;619515;564840;172429;
2024-05-26T22:20:14.123;539956232663221471;546843;619690;564967;172372;
2024-05-26T22:20:14.141;539956232681380589;547000;619909;565175;172399;
2024-05-26T22:20:14.159;539956232699539707;547143;620061;565293;172368;
2024-05-26T22:20:14.177;539956232717698825;547200;620146;565328;172411;
2024-05-26T22:20:14.195;539956232735857943;547343;620249;565452;172371;
2024-05-26T22:20:14.214;539956232754017061;547422;620421;565598;172409;
2024-05-26T22:20:14.232;539956232772174730;547422;620605;565659;172376;
2024-05-26T22:20:14.250;539956232790332367;547579;620748;565852;172422;
2024-05-26T22:20:14.268;539956232808490004;547556;620811;565894;172395;
2024-05-26T22:20:14.286;539956232826647641;547404;620581;565743;172419;
2024-05-26T22:20:14.304;539956232844805278;547032;620131;565420;172409;
2024-05-26T22:20:14.323;539956232862962915;546657;619663;565095;172367;
2024-05-26T22:20:14.341;539956232881120552;546274;619202;564698;172426;
2024-05-26T22:20:14.359;539956232899278189;545971;618806;564398;172424;
2024-05-26T22:20:14.377;539956232917435826;545720;618468;564185;172440;
2024-05-26T22:20:14.395;539956232935593463;545573;618356;564027;172448;
2024-05-26T22:20:14.413;539956232953751100;545554;618322;564031;172420;
2024-05-26T22:20:14.431;539956232971908737;545604;618377;564084;172383;
2024-05-26T22:20:14.450;539956232990066374;545698;618457;564223;172379;
2024-05-26T22:20:14.468;539956233008224011;545886;618659;564348;172440;
2024-05-26T22:20:14.486;539956233026381648;546022;618830;564463;172366;
2024-05-26T22:20:14.504;539956233044539285;546245;619088;564688;172397;
2024-05-26T22:20:14.522;539956233062696922;546359;619312;564899;172399;
2024-05-26T22:20:14.540;539956233080854559;546550;619547;565037;172373;
2024-05-26T22:20:14.559;539956233099012196;546676;619742;565170;172370;
2024-05-26T22:20:14.577;539956233117169833;546777;619821;565319;172400;
2024-05-26T22:20:14.595;539956233135327470;546916;619992;565500;172333;
2024-05-26T22:20:14.613;539956233153485107;546986;620143;565529;172375;
2024-05-26T22:20:14.631;539956233171642744;547050;620307;565676;172352;
2024-05-26T22:20:14.649;539956233189800381;547173;620389;565797;172397;
2024-05-26T22:20:14.668;539956233207958018;547265;620497;565903;172348;
2024-05-26T22:20:14.686;539956233226115655;547275;620581;565973;172387;
2024-05-26T22:20:14.704;539956233244273292;547410;620729;566087;172387;
2024-05-26T22:20:14.722;539956233262430929;547506;620821;566146;172356;
2024-05-26T22:20:14.740;539956233280588566;547617;620961;566229;172422;
2024-05-26T22:20:14.758;539956233298746203;547621;621047;566316;172405;
2024-05-26T22:20:14.776;539956233316903840;547788;621174;566448;172409;
2024-05-26T22:20:14.795;539956233335061477;547832;621263;566494;172375;
2024-05-26T22:20:14.813;539956233353219114;547697;621140;566492;172362;
2024-05-26T22:20:14.831;539956233371376751;547462;620875;566169;172406;
2024-05-26T22:20:14.849;539956233389534388;547030;620397;565834;172400;
2024-05-26T22:20:14.867;539956233407692025;546612;619800;565447;172356;
2024-05-26T22:20:14.885;539956233425849662;546191;619358;565101;172408;
2024-05-26T22:20:14.904;539956233444007299;545770;618916;564714;172383;
2024-05-26T22:20:14.922;539956233462164936;545557;618659;564512;172440;
2024-05-26T22:20:14.940;539956233480322573;545421;618528;564434;172393;
2024-05-26T22:20:14.958;539956233498484492;545491;618555;564485;172469;
2024-05-26T22:20:14.976;539956233516646379;545431;618491;564379;172403;
2024-05-26T22:20:14.994;539956233534808266;545608;618705;564552;172448;
2024-05-26T22:20:15.013;539956233552970153;545672;618847;564705;172391;
2024-05-26T22:20:15.031;539956233571132040;545921;619101;564843;172442;
2024-05-26T22:20:15.049;539956233589293927;546197;619397;565116;172435;
2024-05-26T22:20:15.067;539956233607455814;546305;619615;565253;172393;
2024-05-26T22:20:15.085;539956233625617701;546509;619848;565462;172402;
2024-05-26T22:20:15.103;539956233643779588;546708;620134;565610;172417;
2024-05-26T22:20:15.122;539956233661941475;546908;620279;565805;172350;
2024-05-26T22:20:15.140;539956233680103362;547016;620454;565949;172384;
2024-05-26T22:20:15.158;539956233698265249;547174;620608;566071;172422;
2024-05-26T22:20:15.176;539956233716427136;547269;620785;566214;172451;
2024-05-26T22:20:15.194;539956233734589023;547404;620885;566344;172396;
2024-05-26T22:20:15.212;539956233752750910;547491;621042;566436;172371;
2024-05-26T22:20:15.230;539956233770912797;547698;621166;566595;172419;
2024-05-26T22:20:15.249;539956233789074684;547738;621318;566736;172441;
2024-05-26T22:20:15.267;539956233807236571;547810;621377;566823;172367;
2024-05-26T22:20:15.285;539956233825398458;547936;621547;566893;172460;
2024-05-26T22:20:15.303;539956233843560345;547993;621656;566975;172417;
2024-05-26T22:20:15.321;539956233861722232;548005;621753;567086;172363;
2024-05-26T22:20:15.339;539956233879884119;548206;621940;567175;172388;
2024-05-26T22:20:15.358;539956233898046006;548275;622004;567337;172383;
2024-05-26T22:20:15.376;539956233916207893;548164;621953;567306;172406;
2024-05-26T22:20:15.394;539956233934369780;547925;621661;567084;172425;
2024-05-26T22:20:15.412;539956233952531667;547523;621138;566599;172377;
2024-05-26T22:20:15.430;539956233970693554;547124;620650;566253;172434;
2024-05-26T22:20:15.448;539956233988855441;546660;620081;565819;172391;
2024-05-26T22:20:15.467;539956234007017328;546301;619642;565429;172405;
2024-05-26T22:20:15.485;539956234025179215;545973;619207;565119;172391;
2024-05-26T22:20:15.503;539956234043341102;545812;619063;564991;172402;
2024-05-26T22:20:15.521;539956234061502989;545772;618947;564952;172390;
2024-05-26T22:20:15.539;539956234079664876;545780;619064;564925;172365;
2024-05-26T22:20:15.557;539956234097826763;545835;619184;564991;172361;
2024-05-26T22:20:15.576;539956234115988650;545959;619270;565104;172417;
2024-05-26T22:20:15.594;539956234134150537;546142;619524;565297;172399;
2024-05-26T22:20:15.612;539956234152312424;546257;619721;565496;172414;
2024-05-26T22:20:15.630;539956234170474311;546364;619863;565556;172422;
2024-05-26T22:20:15.648;539956234188636198;546501;620065;565710;172442;
2024-05-26T22:20:15.666;539956234206795934;546533;620106;565814;172372;
2024-05-26T22:20:15.685;539956234224955670;546631;620229;565849;172389;
2024-05-26T22:20:15.703;539956234243115406;546695;620322;565956;172434;
2024-05-26T22:20:15.721;539956234261275142;546788;620432;566052;172452;
2024-05-26T22:20:15.739;539956234279434878;546922;620542;566179;172411;
2024-05-26T22:20:15.757;539956234297594614;546973;620643;566279;172460;
2024-05-26T22:20:15.775;539956234315754350;547007;620645;566224;172388;
2024-05-26T22:20:15.793;539956234333914086;547099;620759;566331;172372;
2024-05-26T22:20:15.812;539956234352073822;547132;620856;566490;172441;
2024-05-26T22:20:15.830;539956234370233558;547247;620957;566541;172436;
2024-05-26T22:20:15.848;539956234388393294;547413;621149;566597;172446;
2024-05-26T22:20:15.866;539956234406553030;547434;621187;566657;172394;
2024-05-26T22:20:15.884;539956234424712766;547493;621266;566772;172382;
2024-05-26T22:20:15.902;539956234442872502;547580;621361;566857;172412;
2024-05-26T22:20:15.921;539956234461032238;547527;621287;566766;172389;
2024-05-26T22:20:15.939;539956234479191974;547188;620977;566512;172401;
2024-05-26T22:20:15.957;539956234497351710;546760;620414;566068;172360;
2024-05-26T22:20:15.975;539956234515511446;546150;619785;565562;172383;
2024-05-26T22:20:15.993;539956234533671182;545531;618959;564935;172392;
2024-05-26T22:20:16.011;539956234551830918;544904;618287;564276;172430;
2024-05-26T22:20:16.030;539956234569990654;544351;617714;563742;172412;
2024-05-26T22:20:16.048;539956234588150390;543991;617242;563350;172407;
2024-05-26T22:20:16.066;539956234606310126;543682;616994;563124;172409;
2024-05-26T22:20:16.084;539956234624469862;543548;616849;562999;172397;
2024-05-26T22:20:16.102;539956234642629598;543530;616855;562943;172385;
2024-05-26T22:20:16.120;539956234660789334;543571;616866;563016;172422;
2024-05-26T22:20:16.139;539956234678949070;543613;617018;563013;172382;
2024-05-26T22:20:16.157;539956234697108806;543747;617159;563122;172452;
2024-05-26T22:20:16.175;539956234715268542;543824;617331;563229;172414;
2024-05-26T22:20:16.193;539956234733428278;543891;617415;563267;172343;
2024-05-26T22:20:16.211;539956234751588014;543942;617464;563374;172439;
2024-05-26T22:20:16.229;539956234769747750;543891;617489;563372;172342;
2024-05-26T22:20:16.247;539956234787907486;543869;617523;563345;172361;
2024-05-26T22:20:16.266;539956234806067222;543852;617521;563291;172372;
2024-05-26T22:20:16.284;539956234824226958;543834;617574;563333;172416;
2024-05-26T22:20:16.302;539956234842386694;543819;617588;563340;172390;
2024-05-26T22:20:16.320;539956234860545704;543882;617597;563372;172390;
2024-05-26T22:20:16.338;539956234878704676;543894;617662;563372;172419;
2024-05-26T22:20:16.356;539956234896863648;543921;617711;563448;172391;
2024-05-26T22:20:16.375;539956234915022620;543971;617858;563469;172375;
2024-05-26T22:20:16.393;539956234933181592;544084;617915;563527;172340;
2024-05-26T22:20:16.411;539956234951340564;544124;618020;563563;172433;
2024-05-26T22:20:16.429;539956234969499536;544226;618126;563712;172413;
2024-05-26T22:20:16.447;539956234987658508;544304;618205;563742;172370;
2024-05-26T22:20:16.465;539956235005817480;544398;618269;563831;172421;
2024-05-26T22:20:16.484;539956235023976452;544400;618323;563847;172371;
2024-05-26T22:20:16.502;539956235042135424;544163;618081;563668;172411;
2024-05-26T22:20:16.520;539956235060294396;543591;617448;563158;172379;
2024-05-26T22:20:16.538;539956235078453368;542826;616553;562398;172354;
2024-05-26T22:20:16.556;539956235096612340;541996;615520;561495;172392;
2024-05-26T22:20:16.574;539956235114771312;541057;614479;560614;172362;
2024-05-26T22:20:16.592;539956235132930284;540154;613444;559712;172419;
2024-05-26T22:20:16.611;539956235151089256;539413;612621;558995;172386;
2024-05-26T22:20:16.629;539956235169248228;538877;612033;558404;172373;
2024-05-26T22:20:16.647;539956235187407200;538437;611605;557983;172380;
2024-05-26T22:20:16.665;539956235205566172;538154;611243;557694;172388;
2024-05-26T22:20:16.683;539956235223725144;538036;611175;557582;172403;
2024-05-26T22:20:16.701;539956235241884116;537936;611080;557545;172350;
2024-05-26T22:20:16.720;539956235260043088;537952;611158;557560;172407;
2024-05-26T22:20:16.738;539956235278202060;537983;611219;557660;172417;
2024-05-26T22:20:16.756;539956235296361032;537991;611317;557662;172355;
2024-05-26T22:20:16.774;539956235314520004;537992;611313;557711;172370;
2024-05-26T22:20:16.792;539956235332678976;538094;611434;557798;172361;
2024-05-26T22:20:16.810;539956235350837948;538084;611466;557767;172390;
2024-05-26T22:20:16.829;539956235368996920;538085;611469;557790;172387;
2024-05-26T22:20:16.847;539956235387155892;537995;611491;557759;172367;
2024-05-26T22:20:16.865;539956235405314864;537977;611477;557691;172407;
2024-05-26T22:20:16.883;539956235423473836;537939;611418;557671;172400;
2024-05-26T22:20:16.901;539956235441632808;537907;611429;557570;172402;
2024-05-26T22:20:16.919;539956235459791780;537930;611384;557607;172366;
2024-05-26T22:20:16.938;539956235477950752;537952;611351;557603;172414;
2024-05-26T22:20:16.956;539956235496109724;537848;611288;557582;172454;
2024-05-26T22:20:16.974;539956235514268696;537854;611378;557615;172447;
2024-05-26T22:20:16.992;539956235532427668;537899;611418;557643;172447;
2024-05-26T22:20:17.010;539956235550586640;537950;611510;557612;172454;
2024-05-26T22:20:17.028;539956235568745612;537964;611463;557675;172405;
2024-05-26T22:20:17.046;539956235586905365;538050;611600;557714;172359;
2024-05-26T22:20:17.065;539956235605065100;538069;611709;557844;172375;
2024-05-26T22:20:17.083;539956235623224835;538085;611770;557919;172400;
2024-05-26T22:20:17.101;539956235641384570;538192;611823;557907;172407;
2024-05-26T22:20:17.119;539956235659544305;537978;611575;557733;172419;
2024-05-26T22:20:17.137;539956235677704040;537496;611021;557257;172410;
2024-05-26T22:20:17.155;539956235695863775;536790;610091;556495;172375;
2024-05-26T22:20:17.174;539956235714023510;535793;609065;555638;172423;
2024-05-26T22:20:17.192;539956235732183245;534945;608009;554727;172404;
2024-05-26T22:20:17.210;539956235750342980;534101;606996;553876;172428;
2024-05-26T22:20:17.228;539956235768502715;533371;606136;553129;172369;
2024-05-26T22:20:17.246;539956235786662450;532814;605525;552608;172360;
2024-05-26T22:20:17.264;539956235804822185;532473;605195;552222;172390;
2024-05-26T22:20:17.283;539956235822981920;532269;604973;552079;172435;
2024-05-26T22:20:17.301;539956235841141655;532218;604900;551974;172394;
2024-05-26T22:20:17.319;539956235859301390;532368;605037;552114;172393;
2024-05-26T22:20:17.337;539956235877461125;532466;605198;552262;172471;
2024-05-26T22:20:17.355;539956235895620860;532698;605423;552450;172437;
2024-05-26T22:20:17.373;539956235913780595;532922;605650;552689;172413;
2024-05-26T22:20:17.392;539956235931940330;533149;605934;552884;172399;
2024-05-26T22:20:17.410;539956235950100065;533333;606112;553100;172375;
2024-05-26T22:20:17.428;539956235968259800;533520;606362;553214;172357;
2024-05-26T22:20:17.446;539956235986419535;533755;606526;553406;172411;
2024-05-26T22:20:17.464;539956236004579270;533871;606609;553515;172397;
2024-05-26T22:20:17.482;539956236022739005;533912;606679;553564;172428;
2024-05-26T22:20:17.500;539956236040898740;534068;606855;553736;172472;
2024-05-26T22:20:17.519;539956236059058475;534154;606910;553741;172409;
2024-05-26T22:20:17.537;539956236077218210;534167;606987;553896;172369;
2024-05-26T22:20:17.555;539956236095377945;534304;607148;553960;172410;
2024-05-26T22:20:17.573;539956236113537680;534322;607216;554049;172380;
2024-05-26T22:20:17.591;539956236131697415;534412;607383;554203;172362;
2024-05-26T22:20:17.609;539956236149857150;534621;607516;554362;172377;
2024-05-26T22:20:17.628;539956236168016885;534852;607695;554569;172386;
2024-05-26T22:20:17.646;539956236186176620;534978;607940;554707;172397;
2024-05-26T22:20:17.664;539956236204336355;535182;608117;554816;172366;
2024-05-26T22:20:17.682;539956236222496090;535374;608389;555071;172318;
2024-05-26T22:20:17.700;539956236240655825;535616;608641;555310;172365;
2024-05-26T22:20:17.718;539956236258812616;535914;608970;555633;172399;
2024-05-26T22:20:17.737;539956236276969378;536251;609280;555865;172393;
2024-05-26T22:20:17.755;539956236295126140;536466;609531;556114;172421;
2024-05-26T22:20:17.773;539956236313282902;536750;609815;556408;172394;
2024-05-26T22:20:17.791;539956236331439664;536962;610167;556655;172379;
2024-05-26T22:20:17.809;539956236349596426;537215;610431;556932;172375;
2024-05-26T22:20:17.827;539956236367753188;537405;610680;557138;172419;
2024-05-26T22:20:17.845;539956236385909950;537637;610957;557330;172422;
2024-05-26T22:20:17.864;539956236404066712;537868;611232;557586;172418;
2024-05-26T22:20:17.882;539956236422223474;538045;611436;557820;172384;
2024-05-26T22:20:17.900;539956236440380236;538249;611681;558046;172386;
2024-05-26T22:20:17.918;539956236458536998;538290;611755;558146;172373;
2024-05-26T22:20:17.936;539956236476693760;538006;611425;557881;172407;
2024-05-26T22:20:17.954;539956236494850522;537499;610801;557341;172447;
2024-05-26T22:20:17.973;539956236513007284;536795;609968;556699;172405;
2024-05-26T22:20:17.991;539956236531164046;536045;609089;555966;172430;
2024-05-26T22:20:18.009;539956236549320808;535370;608235;555253;172400;
2024-05-26T22:20:18.027;539956236567477570;534789;607522;554691;172400;
2024-05-26T22:20:18.045;539956236585634332;534327;606945;554265;172372;
2024-05-26T22:20:18.063;539956236603791094;534074;606670;554015;172374;
2024-05-26T22:20:18.082;539956236621947856;533870;606552;553791;172379;
2024-05-26T22:20:18.100;539956236640104618;533966;606509;553859;172454;
2024-05-26T22:20:18.118;539956236658261380;534054;606752;554022;172448;
2024-05-26T22:20:18.136;539956236676418142;534254;606967;554160;172387;
2024-05-26T22:20:18.154;539956236694574904;534432;607191;554397;172382;
2024-05-26T22:20:18.172;539956236712731666;534607;607408;554636;172424;
2024-05-26T22:20:18.190;539956236730888428;534817;607667;554901;172384;
2024-05-26T22:20:18.209;539956236749045190;535015;607924;555053;172436;
2024-05-26T22:20:18.227;539956236767201952;535109;608105;555203;172403;
2024-05-26T22:20:18.245;539956236785358714;535261;608314;555299;172400;
2024-05-26T22:20:18.263;539956236803515476;535432;608446;555489;172451;
2024-05-26T22:20:18.281;539956236821672238;535516;608555;555623;172440;
2024-05-26T22:20:18.299;539956236839829000;535699;608798;555825;172433;
2024-05-26T22:20:18.318;539956236857985762;535800;608904;555875;172377;
2024-05-26T22:20:18.336;539956236876142524;535988;609121;556035;172460;
2024-05-26T22:20:18.354;539956236894299286;536091;609254;556259;172402;
2024-05-26T22:20:18.372;539956236912456048;536237;609418;556384;172414;
2024-05-26T22:20:18.390;539956236930612810;536388;609577;556516;172447;
2024-05-26T22:20:18.408;539956236948769572;536567;609811;556678;172423;
2024-05-26T22:20:18.426;539956236966928584;536755;610027;556973;172421;
2024-05-26T22:20:18.445;539956236985087576;536977;610242;557078;172401;
2024-05-26T22:20:18.463;539956237003246568;537137;610405;557266;172383;
2024-05-26T22:20:18.481;539956237021405560;537372;610676;557483;172413;
2024-05-26T22:20:18.499;539956237039564552;537585;610886;557742;172399;
2024-05-26T22:20:18.517;539956237057723544;537758;611151;557913;172378;
2024-05-26T22:20:18.535;539956237075882536;537959;611390;558174;172350;
2024-05-26T22:20:18.554;539956237094041528;538142;611658;558426;172383;
2024-05-26T22:20:18.572;539956237112200520;538419;611920;558666;172438;
2024-05-26T22:20:18.590;539956237130359512;538629;612148;558894;172435;
2024-05-26T22:20:18.608;539956237148518504;538817;612462;559119;172418;
2024-05-26T22:20:18.626;539956237166677496;539106;612740;559289;172410;
2024-05-26T22:20:18.644;539956237184836488;539233;612822;559412;172434;
2024-05-26T22:20:18.663;539956237202995480;539009;612595;559245;172426;
2024-05-26T22:20:18.681;539956237221154472;538544;612029;558841;172437;
2024-05-26T22:20:18.699;539956237239313464;537987;611285;558278;172414;
2024-05-26T22:20:18.717;539956237257472456;537338;610535;557677;172451;
2024-05-26T22:20:18.735;539956237275631448;536745;609894;557131;172481;
2024-05-26T22:20:18.753;539956237293790440;536247;609318;556689;172487;
2024-05-26T22:20:18.772;539956237311949432;535910;608886;556262;172436;
2024-05-26T22:20:18.790;539956237330108424;535627;608676;556086;172402;
2024-05-26T22:20:18.808;539956237348267416;535534;608548;555970;172420;
2024-05-26T22:20:18.826;539956237366426408;535504;608540;555943;172413;
2024-05-26T22:20:18.844;539956237384585400;535521;608642;555994;172393;
2024-05-26T22:20:18.862;539956237402744392;535699;608903;556206;172439;
2024-05-26T22:20:18.880;539956237420903384;535919;609080;556311;172424;
2024-05-26T22:20:18.899;539956237439062376;536130;609445;556618;172426;
2024-05-26T22:20:18.917;539956237457221368;536352;609629;556866;172395;
2024-05-26T22:20:18.935;539956237475380360;536578;609895;557039;172434;
2024-05-26T22:20:18.953;539956237493539352;536847;610161;557270;172425;
2024-05-26T22:20:18.971;539956237511698344;537189;610435;557583;172484;
2024-05-26T22:20:18.989;539956237529857336;537378;610741;557801;172455;
2024-05-26T22:20:19.008;539956237548016328;537707;611127;558053;172408;
2024-05-26T22:20:19.026;539956237566175320;538067;611440;558289;172389;
2024-05-26T22:20:19.044;539956237584334312;538364;611762;558580;172384;
2024-05-26T22:20:19.062;539956237602493304;538732;612228;558947;172382;
2024-05-26T22:20:19.080;539956237620652296;539138;612609;559360;172443;
2024-05-26T22:20:19.098;539956237638811288;539546;613005;559627;172475;
2024-05-26T22:20:19.117;539956237656970280;539956;613323;560071;172440;
2024-05-26T22:20:19.135;539956237675127672;540268;613677;560406;172461;
2024-05-26T22:20:19.153;539956237693285057;540515;613937;560665;172352;
2024-05-26T22:20:19.171;539956237711442442;540703;614144;560938;172407;
2024-05-26T22:20:19.189;539956237729599827;540971;614406;561217;172468;
2024-05-26T22:20:19.207;539956237747757212;541131;614643;561453;172441;
2024-05-26T22:20:19.225;539956237765914597;541310;614924;561685;172406;
2024-05-26T22:20:19.244;539956237784071982;541540;615149;561876;172436;
2024-05-26T22:20:19.262;539956237802229367;541727;615475;562078;172462;
2024-05-26T22:20:19.280;539956237820386752;541895;615651;562284;172444;
2024-05-26T22:20:19.298;539956237838544137;541975;615802;562381;172423;
2024-05-26T22:20:19.316;539956237856701522;542170;615959;562595;172423;
2024-05-26T22:20:19.334;539956237874858907;542305;616111;562769;172409;
2024-05-26T22:20:19.353;539956237893016292;542335;616089;562767;172382;
2024-05-26T22:20:19.371;539956237911173677;542151;615891;562679;172447;
2024-05-26T22:20:19.389;539956237929331062;541702;615302;562283;172450;
2024-05-26T22:20:19.407;539956237947488447;541183;614677;561784;172435;
2024-05-26T22:20:19.425;539956237965645832;540544;613936;561161;172384;
2024-05-26T22:20:19.443;539956237983803217;540045;613261;560658;172380;
2024-05-26T22:20:19.462;539956238001960602;539558;612758;560203;172400;
2024-05-26T22:20:19.480;539956238020117987;539185;612255;559849;172407;
2024-05-26T22:20:19.498;539956238038275372;539058;612010;559713;172411;
2024-05-26T22:20:19.516;539956238056432757;538882;611907;559566;172406;
2024-05-26T22:20:19.534;539956238074590142;538902;611935;559600;172420;
2024-05-26T22:20:19.552;539956238092747527;538977;612014;559673;172413;
2024-05-26T22:20:19.570;539956238110904912;539052;612161;559740;172373;
2024-05-26T22:20:19.589;539956238129062297;539194;612413;559910;172410;
2024-05-26T22:20:19.607;539956238147219682;539323;612636;560124;172391;
2024-05-26T22:20:19.625;539956238165377067;539558;612869;560360;172413;
2024-05-26T22:20:19.643;539956238183534452;539696;613091;560486;172378;
2024-05-26T22:20:19.661;539956238201691837;539842;613323;560601;172369;
2024-05-26T22:20:19.679;539956238219849222;540096;613527;560784;172394;
2024-05-26T22:20:19.698;539956238238006607;540278;613761;561016;172385;
2024-05-26T22:20:19.716;539956238256163992;540501;614074;561121;172431;
2024-05-26T22:20:19.734;539956238274321377;540643;614258;561317;172409;
2024-05-26T22:20:19.752;539956238292478762;540890;614527;561456;172436;
2024-05-26T22:20:19.770;539956238310636147;541049;614792;561642;172407;
2024-05-26T22:20:19.788;539956238328793532;541215;615012;561829;172458;
2024-05-26T22:20:19.807;539956238346952264;541465;615251;562111;172426;
2024-05-26T22:20:19.825;539956238365110982;541650;615515;562291;172379;
2024-05-26T22:20:19.843;539956238383269700;541845;615749;562485;172389;
2024-05-26T22:20:19.861;539956238401428418;542147;616155;562734;172408;
2024-05-26T22:20:19.879;539956238419587136;542481;616353;563007;172467;
2024-05-26T22:20:19.897;539956238437745854;542720;616658;563217;172396;
2024-05-26T22:20:19.915;539956238455904572;542967;616880;563484;172395;
2024-05-26T22:20:19.934;539956238474063290;543273;617274;563796;172353;
2024-05-26T22:20:19.952;539956238492222008;543494;617486;564070;172404;
2024-05-26T22:20:19.970;539956238510380726;543779;617825;564295;172396;
2024-05-26T22:20:19.988;539956238528539444;544099;618112;564585;172386;
2024-05-26T22:20:20.006;539956238546698162;544344;618467;564858;172384;
2024-05-26T22:20:20.024;539956238564856880;544712;618874;565244;172367;
2024-05-26T22:20:20.043;539956238583015598;544956;619164;565483;172340;
2024-05-26T22:20:20.061;539956238601174316;545327;619568;565831;172371;
2024-05-26T22:20:20.079;539956238619333034;545568;619855;566014;172349;
2024-05-26T22:20:20.097;539956238637491752;545696;619910;566203;172431;
2024-05-26T22:20:20.115;539956238655650470;545625;619750;566106;172408;
2024-05-26T22:20:20.133;539956238673809188;545371;619426;565811;172369;
2024-05-26T22:20:20.152;539956238691967906;545063;618969;565564;172327;
2024-05-26T22:20:20.170;539956238710126624;544735;618569;565179;172348;
2024-05-26T22:20:20.188;539956238728285342;544555;618208;564932;172365;
2024-05-26T22:20:20.206;539956238746444060;544447;618052;564783;172397;
2024-05-26T22:20:20.224;539956238764602778;544423;617992;564724;172406;
2024-05-26T22:20:20.242;539956238782761496;544524;618128;564819;172423;
2024-05-26T22:20:20.260;539956238800920214;544703;618268;564923;172418;
2024-05-26T22:20:20.279;539956238819078932;544883;618546;565131;172390;
2024-05-26T22:20:20.297;539956238837237650;545181;618854;565465;172405;
2024-05-26T22:20:20.315;539956238855396368;545446;619181;565782;172368;
2024-05-26T22:20:20.333;539956238873555086;545779;619567;566126;172405;
2024-05-26T22:20:20.351;539956238891713804;546159;619970;566513;172402;
2024-05-26T22:20:20.369;539956238909872522;546419;620267;566788;172403;
2024-05-26T22:20:20.388;539956238928031240;546713;620619;566984;172356;
2024-05-26T22:20:20.406;539956238946189958;547006;620962;567237;172397;
2024-05-26T22:20:20.424;539956238964348676;547252;621223;567472;172407;
2024-05-26T22:20:20.442;539956238982507394;547540;621543;567766;172422;
2024-05-26T22:20:20.460;539956239000666112;547775;621771;567955;172402;
2024-05-26T22:20:20.478;539956239018824830;547975;622064;568232;172411;
2024-05-26T22:20:20.497;539956239036983548;548306;622417;568467;172462;
2024-05-26T22:20:20.515;539956239055142266;548572;622665;568752;172406;
2024-05-26T22:20:20.533;539956239073300984;548823;623001;569026;172370;
2024-05-26T22:20:20.551;539956239091459702;549175;623301;569249;172410;
2024-05-26T22:20:20.569;539956239109618894;549366;623595;569525;172405;
2024-05-26T22:20:20.587;539956239127778048;549680;623927;569772;172418;
2024-05-26T22:20:20.606;539956239145937202;549884;624212;570024;172425;
2024-05-26T22:20:20.624;539956239164096356;550254;624587;570360;172431;
2024-05-26T22:20:20.642;539956239182255510;550530;624855;570643;172464;
2024-05-26T22:20:20.660;539956239200414664;550767;625197;570898;172387;
2024-05-26T22:20:20.678;539956239218573818;551106;625500;571176;172402;
2024-05-26T22:20:20.696;539956239236732972;551329;625853;571389;172406;
2024-05-26T22:20:20.714;539956239254892126;551553;626160;571735;172402;
2024-05-26T22:20:20.733;539956239273051280;551951;626457;572015;172388;
2024-05-26T22:20:20.751;539956239291210434;552179;626757;572279;172408;
2024-05-26T22:20:20.769;539956239309369588;552456;627046;572510;172390;
2024-05-26T22:20:20.787;539956239327528742;552586;627219;572677;172406;
2024-05-26T22:20:20.805;539956239345687896;552441;626983;572556;172388;
2024-05-26T22:20:20.823;539956239363847050;552245;626744;572359;172440;
2024-05-26T22:20:20.842;539956239382006204;551887;626266;571994;172407;
2024-05-26T22:20:20.860;539956239400165358;551650;625941;571774;172333;
2024-05-26T22:20:20.878;539956239418324512;551477;625628;571551;172387;
2024-05-26T22:20:20.896;539956239436483666;551349;625355;571329;172383;
2024-05-26T22:20:20.914;539956239454642820;551330;625342;571305;172421;
2024-05-26T22:20:20.932;539956239472801974;551328;625387;571245;172395;
2024-05-26T22:20:20.951;539956239490961128;551412;625523;571402;172362;
2024-05-26T22:20:20.969;539956239509120282;551641;625733;571618;172380;
2024-05-26T22:20:20.987;539956239527279436;551829;626020;571810;172383;
2024-05-26T22:20:21.005;539956239545438590;552120;626313;572066;172389;
2024-05-26T22:20:21.023;539956239563597744;552377;626646;572325;172421;
2024-05-26T22:20:21.041;539956239581756898;552659;626999;572618;172391;
2024-05-26T22:20:21.059;539956239599916052;552893;627203;572798;172424;
2024-05-26T22:20:21.078;539956239618075206;553116;627434;573024;172416;
2024-05-26T22:20:21.096;539956239636234360;553230;627701;573203;172382;
2024-05-26T22:20:21.114;539956239654393514;553436;627903;573380;172424;
2024-05-26T22:20:21.132;539956239672552668;553571;628089;573485;172407;
2024-05-26T22:20:21.150;539956239690711822;553659;628155;573598;172379;
2024-05-26T22:20:21.168;539956239708870976;553823;628355;573794;172373;
2024-05-26T22:20:21.187;539956239727030130;553902;628447;573899;172344;
2024-05-26T22:20:21.205;539956239745189284;553995;628589;573987;172366;
2024-05-26T22:20:21.223;539956239763348438;554092;628758;574132;172401;
2024-05-26T22:20:21.241;539956239781507592;554181;628885;574233;172371;
2024-05-26T22:20:21.259;539956239799666746;554413;629062;574379;172437;
2024-05-26T22:20:21.277;539956239817825900;554551;629240;574536;172448;
2024-05-26T22:20:21.296;539956239835985054;554705;629424;574641;172401;
2024-05-26T22:20:21.314;539956239854144208;554848;629589;574811;172377;
2024-05-26T22:20:21.332;539956239872302418;555038;629783;574999;172452;
2024-05-26T22:20:21.350;539956239890460628;555163;629955;575169;172427;
2024-05-26T22:20:21.368;539956239908618838;555343;630264;575319;172399;
2024-05-26T22:20:21.386;539956239926777048;555482;630382;575430;172406;
2024-05-26T22:20:21.404;539956239944935258;555603;630505;575611;172404;
2024-05-26T22:20:21.423;539956239963093468;555694;630608;575651;172391;
2024-05-26T22:20:21.441;539956239981251678;555642;630504;575654;172419;
2024-05-26T22:20:21.459;539956239999409888;555311;630077;575396;172379;
2024-05-26T22:20:21.477;539956240017568098;554878;629534;574891;172380;
2024-05-26T22:20:21.495;539956240035726308;554378;628872;574422;172365;
2024-05-26T22:20:21.513;539956240053884518;553972;628402;573897;172408;
2024-05-26T22:20:21.532;539956240072042728;553587;627861;573543;172417;
2024-05-26T22:20:21.550;539956240090200938;553230;627573;573250;172350;
2024-05-26T22:20:21.568;539956240108359148;553048;627265;572959;172378;
2024-05-26T22:20:21.586;539956240126517358;552958;627171;572793;172369;
2024-05-26T22:20:21.604;539956240144675568;552863;627116;572757;172357;
2024-05-26T22:20:21.622;539956240162833778;552925;627226;572832;172382;
2024-05-26T22:20:21.641;539956240180991988;553014;627400;572837;172365;
2024-05-26T22:20:21.659;539956240199150198;553119;627454;572945;172395;
2024-05-26T22:20:21.677;539956240217308408;553137;627545;573058;172380;
2024-05-26T22:20:21.695;539956240235466618;553280;627696;573130;172372;
2024-05-26T22:20:21.713;539956240253624828;553351;627804;573207;172424;
2024-05-26T22:20:21.731;539956240271783038;553358;627939;573262;172369;
2024-05-26T22:20:21.750;539956240289941248;553458;628028;573344;172372;
2024-05-26T22:20:21.768;539956240308099458;553428;628046;573331;172383;
2024-05-26T22:20:21.786;539956240326257668;553499;628106;573394;172383;
2024-05-26T22:20:21.804;539956240344415878;553487;628183;573458;172377;
2024-05-26T22:20:21.822;539956240362574088;553548;628193;573426;172390;
2024-05-26T22:20:21.840;539956240380732298;553575;628269;573445;172430;
2024-05-26T22:20:21.858;539956240398890508;553573;628318;573468;172407;
2024-05-26T22:20:21.877;539956240417048718;553584;628287;573532;172422;
2024-05-26T22:20:21.895;539956240435206928;553645;628380;573508;172424;
2024-05-26T22:20:21.913;539956240453365138;553675;628474;573658;172401;
2024-05-26T22:20:21.931;539956240471523348;553663;628493;573633;172406;
2024-05-26T22:20:21.949;539956240489681558;553732;628533;573634;172429;
2024-05-26T22:20:21.967;539956240507839768;553772;628627;573744;172371;
2024-05-26T22:20:21.986;539956240525997978;553836;628652;573732;172391;
2024-05-26T22:20:22.004;539956240544156188;553910;628768;573819;172406;
2024-05-26T22:20:22.022;539956240562314398;553945;628791;573881;172426;
2024-05-26T22:20:22.040;539956240580472608;554012;628881;573938;172378;
2024-05-26T22:20:22.058;539956240598630818;554135;628987;574013;172421;
2024-05-26T22:20:22.076;539956240616789028;553942;628838;573900;172380;
2024-05-26T22:20:22.095;539956240634947238;553654;628441;573549;172393;
2024-05-26T22:20:22.113;539956240653105448;553125;627763;573024;172387;
2024-05-26T22:20:22.131;539956240671263658;552562;627081;572437;172404;
2024-05-26T22:20:22.149;539956240689421868;551990;626305;571783;172391;
2024-05-26T22:20:22.167;539956240707580078;551528;625589;571281;172438;
2024-05-26T22:20:22.185;539956240725738288;551128;625095;570801;172393;
2024-05-26T22:20:22.203;539956240743896498;550847;624672;570419;172410;
2024-05-26T22:20:22.222;539956240762054708;550661;624462;570237;172413;
2024-05-26T22:20:22.240;539956240780212918;550599;624414;570173;172440;
2024-05-26T22:20:22.258;539956240798371128;550615;624385;570114;172390;
2024-05-26T22:20:22.276;539956240816529338;550690;624499;570177;172369;
2024-05-26T22:20:22.294;539956240834687548;550773;624699;570246;172374;
2024-05-26T22:20:22.312;539956240852845758;550952;624842;570386;172411;
2024-05-26T22:20:22.331;539956240871003968;551048;624990;570493;172373;
2024-05-26T22:20:22.349;539956240889162178;551112;625098;570593;172367;
2024-05-26T22:20:22.367;539956240907320388;551218;625210;570704;172385;
2024-05-26T22:20:22.385;539956240925478598;551350;625372;570783;172385;
2024-05-26T22:20:22.403;539956240943636808;551394;625446;570768;172360;
2024-05-26T22:20:22.421;539956240961795018;551448;625432;570843;172399;
2024-05-26T22:20:22.440;539956240979953228;551452;625502;570886;172379;
2024-05-26T22:20:22.458;539956240998111438;551519;625506;570890;172403;
2024-05-26T22:20:22.476;539956241016269648;551536;625583;570942;172421;
2024-05-26T22:20:22.494;539956241034427858;551553;625635;570964;172367;
2024-05-26T22:20:22.512;539956241052586068;551618;625698;571025;172370;
2024-05-26T22:20:22.530;539956241070744278;551748;625759;571089;172379;
2024-05-26T22:20:22.548;539956241088902488;551797;625826;571121;172391;
2024-05-26T22:20:22.567;539956241107060698;551899;625915;571201;172390;
2024-05-26T22:20:22.585;539956241125218908;551965;626068;571322;172446;
2024-05-26T22:20:22.603;539956241143377118;552122;626252;571484;172439;
2024-05-26T22:20:22.621;539956241161535328;552187;626373;571557;172447;
2024-05-26T22:20:22.639;539956241179693538;552371;626491;571642;172386;
2024-05-26T22:20:22.657;539956241197851748;552579;626627;571770;172388;
2024-05-26T22:20:22.676;539956241216009958;552717;626830;571958;172327;
2024-05-26T22:20:22.694;539956241234168168;552921;627002;572129;172446;
2024-05-26T22:20:22.712;539956241252326378;552968;627140;572205;172410;
2024-05-26T22:20:22.730;539956241270484588;552913;626955;572136;172429;
2024-05-26T22:20:22.748;539956241288642798;552615;626504;571795;172431;
2024-05-26T22:20:22.766;539956241306801008;552031;625898;571304;172439;
2024-05-26T22:20:22.785;539956241324959218;551469;625102;570607;172401;
2024-05-26T22:20:22.803;539956241343117428;550929;624297;570006;172382;
2024-05-26T22:20:22.821;539956241361275638;550466;623689;569490;172375;
2024-05-26T22:20:22.839;539956241379433848;550102;623267;569061;172410;
2024-05-26T22:20:22.857;539956241397592058;549819;622842;568744;172428;
2024-05-26T22:20:22.875;539956241415750268;549660;622631;568519;172407;
2024-05-26T22:20:22.893;539956241433908478;549552;622548;568493;172419;
2024-05-26T22:20:22.912;539956241452066688;549682;622632;568515;172408;
2024-05-26T22:20:22.930;539956241470224898;549746;622705;568561;172361;
2024-05-26T22:20:22.948;539956241488383108;549933;622927;568702;172429;
2024-05-26T22:20:22.966;539956241506541318;550096;623099;568855;172469;
2024-05-26T22:20:22.984;539956241524699528;550270;623312;568989;172402;
2024-05-26T22:20:23.002;539956241542857738;550408;623474;569171;172363;
2024-05-26T22:20:23.021;539956241561015948;550539;623618;569267;172433;
2024-05-26T22:20:23.039;539956241579174158;550626;623787;569424;172463;
2024-05-26T22:20:23.057;539956241597332368;550669;623807;569478;172429;
2024-05-26T22:20:23.075;539956241615490578;550730;623890;569467;172370;
2024-05-26T22:20:23.093;539956241633648788;550877;623885;569582;172406;
2024-05-26T22:20:23.111;539956241651806998;550838;623979;569567;172399;
2024-05-26T22:20:23.130;539956241669965208;550950;624017;569629;172436;
2024-05-26T22:20:23.148;539956241688123418;550957;624118;569718;172410;
2024-05-26T22:20:23.166;539956241706281628;551099;624110;569756;172440;
2024-05-26T22:20:23.184;539956241724439838;551165;624224;569798;172464;
2024-05-26T22:20:23.202;539956241742598048;551164;624277;569847;172386;
2024-05-26T22:20:23.220;539956241760756983;551241;624324;569947;172397;
2024-05-26T22:20:23.238;539956241778915893;551318;624440;570002;172396;
2024-05-26T22:20:23.257;539956241797074803;551396;624575;570050;172387;
2024-05-26T22:20:23.275;539956241815233713;551562;624695;570153;172403;
2024-05-26T22:20:23.293;539956241833392623;551611;624723;570238;172359;
2024-05-26T22:20:23.311;539956241851551533;551691;624879;570356;172341;
2024-05-26T22:20:23.329;539956241869710443;551739;624957;570463;172332;
2024-05-26T22:20:23.347;539956241887869353;551699;624912;570403;172366;
2024-05-26T22:20:23.366;539956241906028263;551442;624617;570113;172453;
2024-05-26T22:20:23.384;539956241924187173;551002;623953;569659;172356;
2024-05-26T22:20:23.402;539956241942346083;550438;623195;569036;172394;
2024-05-26T22:20:23.420;539956241960504993;549824;622413;568371;172430;
2024-05-26T22:20:23.438;539956241978663903;549279;621567;567750;172422;
2024-05-26T22:20:23.456;539956241996822813;548750;620853;567150;172408;
2024-05-26T22:20:23.475;539956242014981723;548392;620403;566709;172389;
2024-05-26T22:20:23.493;539956242033140633;548141;620119;566506;172434;
2024-05-26T22:20:23.511;539956242051299543;548050;619953;566348;172392;
2024-05-26T22:20:23.529;539956242069458453;548071;619995;566321;172393;
2024-05-26T22:20:23.547;539956242087617363;548173;620069;566404;172369;
2024-05-26T22:20:23.565;539956242105776273;548263;620182;566476;172419;
2024-05-26T22:20:23.583;539956242123935183;548389;620368;566646;172379;
2024-05-26T22:20:23.602;539956242142094093;548547;620625;566859;172443;
2024-05-26T22:20:23.620;539956242160253003;548755;620784;566918;172426;
2024-05-26T22:20:23.638;539956242178411913;548811;620932;567068;172379;
2024-05-26T22:20:23.656;539956242196570823;548951;620990;567154;172438;
2024-05-26T22:20:23.674;539956242214729733;549032;621105;567188;172407;
2024-05-26T22:20:23.692;539956242232888643;549114;621153;567261;172412;
2024-05-26T22:20:23.711;539956242251047553;549139;621215;567232;172379;
2024-05-26T22:20:23.729;539956242269206463;549171;621163;567214;172393;
2024-05-26T22:20:23.747;539956242287365373;549175;621163;567286;172395;
2024-05-26T22:20:23.765;539956242305524283;549190;621232;567297;172400;
2024-05-26T22:20:23.783;539956242323683193;549225;621248;567359;172378;
2024-05-26T22:20:23.801;539956242341842103;549335;621298;567372;172383;
2024-05-26T22:20:23.820;539956242360001013;549382;621387;567481;172372;
2024-05-26T22:20:23.838;539956242378159923;549399;621488;567525;172426;
2024-05-26T22:20:23.856;539956242396318833;549464;621511;567545;172414;
2024-05-26T22:20:23.874;539956242414477743;549605;621683;567614;172446;
2024-05-26T22:20:23.892;539956242432637514;549647;621707;567716;172385;
2024-05-26T22:20:23.910;539956242450797249;549712;621845;567777;172406;
2024-05-26T22:20:23.929;539956242468956984;549668;621771;567698;172412;
2024-05-26T22:20:23.947;539956242487116719;549390;621403;567432;172365;
2024-05-26T22:20:23.965;539956242505276454;548891;620785;566939;172406;
2024-05-26T22:20:23.983;539956242523436189;548242;619995;566138;172406;
2024-05-26T22:20:24.001;539956242541595924;547542;619044;565438;172400;
2024-05-26T22:20:24.019;539956242559755659;546914;618143;564663;172369;
2024-05-26T22:20:24.037;539956242577915394;546325;617441;564054;172419;
2024-05-26T22:20:24.056;539956242596075129;545908;616914;563496;172397;
2024-05-26T22:20:24.074;539956242614234864;545619;616560;563207;172429;
2024-05-26T22:20:24.092;539956242632394599;545465;616373;563015;172424;
2024-05-26T22:20:24.110;539956242650554334;545441;616280;562939;172441;
2024-05-26T22:20:24.128;539956242668714069;545465;616355;562916;172436;
2024-05-26T22:20:24.146;539956242686873804;545542;616483;563016;172433;
2024-05-26T22:20:24.165;539956242705033539;545570;616576;563074;172379;
2024-05-26T22:20:24.183;539956242723193274;545710;616731;563189;172417;
2024-05-26T22:20:24.201;539956242741353009;545880;616904;563373;172440;
2024-05-26T22:20:24.219;539956242759512744;545931;617065;563459;172425;
2024-05-26T22:20:24.237;539956242777672479;545959;617074;563431;172346;
2024-05-26T22:20:24.255;539956242795832214;546026;617152;563559;172369;
2024-05-26T22:20:24.274;539956242813991949;546027;617193;563530;172440;
2024-05-26T22:20:24.292;539956242832151684;545961;617227;563416;172431;
2024-05-26T22:20:24.310;539956242850311419;545946;617259;563387;172436;
2024-05-26T22:20:24.328;539956242868471154;545948;617284;563424;172439;
2024-05-26T22:20:24.346;539956242886630889;545899;617264;563429;172363;
2024-05-26T22:20:24.364;539956242904790624;545876;617198;563326;172419;
2024-05-26T22:20:24.383;539956242922950359;545912;617210;563328;172416;
2024-05-26T22:20:24.401;539956242941110094;545909;617322;563333;172451;
2024-05-26T22:20:24.419;539956242959269829;545847;617346;563339;172443;
2024-05-26T22:20:24.437;539956242977429564;545887;617445;563412;172446;
2024-05-26T22:20:24.455;539956242995589299;545952;617403;563431;172451;
2024-05-26T22:20:24.473;539956243013749034;546002;617484;563449;172444;
2024-05-26T22:20:24.491;539956243031908769;546051;617570;563557;172429;
2024-05-26T22:20:24.510;539956243050068504;546103;617698;563614;172396;
2024-05-26T22:20:24.528;539956243068228239;546046;617655;563534;172407;
2024-05-26T22:20:24.546;539956243086387974;545677;617195;563151;172436;
2024-05-26T22:20:24.564;539956243104546478;545078;616442;562525;172418;
2024-05-26T22:20:24.582;539956243122704949;544301;615452;561687;172433;
2024-05-26T22:20:24.600;539956243140863420;543494;614445;560836;172403;
2024-05-26T22:20:24.619;539956243159021891;542675;613542;559962;172377;
2024-05-26T22:20:24.637;539956243177180362;541988;612648;559244;172420;
2024-05-26T22:20:24.655;539956243195338833;541429;612073;558673;172412;
2024-05-26T22:20:24.673;539956243213497304;540935;611512;558191;172362;
2024-05-26T22:20:24.691;539956243231655775;540808;611327;557948;172390;
2024-05-26T22:20:24.709;539956243249814246;540737;611305;557835;172414;
2024-05-26T22:20:24.728;539956243267972717;540742;611332;557811;172467;
2024-05-26T22:20:24.746;539956243286131188;540704;611397;557856;172418;
2024-05-26T22:20:24.764;539956243304289659;540818;611598;557982;172425;
2024-05-26T22:20:24.782;539956243322448130;541044;611788;558126;172418;
2024-05-26T22:20:24.800;539956243340606601;541198;612005;558264;172431;
2024-05-26T22:20:24.818;539956243358765072;541347;612148;558427;172411;
2024-05-26T22:20:24.836;539956243376923543;541364;612397;558542;172402;
2024-05-26T22:20:24.855;539956243395082014;541451;612384;558650;172384;
2024-05-26T22:20:24.873;539956243413240485;541588;612618;558715;172437;
2024-05-26T22:20:24.891;539956243431398956;541609;612565;558689;172370;
2024-05-26T22:20:24.909;539956243449557427;541611;612552;558729;172360;
2024-05-26T22:20:24.927;539956243467715898;541641;612690;558754;172383;
2024-05-26T22:20:24.945;539956243485874369;541758;612772;558859;172444;
2024-05-26T22:20:24.964;539956243504032840;541807;612917;558921;172428;
2024-05-26T22:20:24.982;539956243522191311;541805;613016;558873;172440;
2024-05-26T22:20:25.000;539956243540349782;541907;613107;558941;172400;
2024-05-26T22:20:25.018;539956243558508253;542029;613280;559032;172444;
2024-05-26T22:20:25.036;539956243576666724;542121;613364;559204;172456;
2024-05-26T22:20:25.054;539956243594825195;542218;613534;559319;172405;
2024-05-26T22:20:25.073;539956243612983666;542320;613740;559442;172410;
2024-05-26T22:20:25.091;539956243631142137;542411;613852;559531;172393;
2024-05-26T22:20:25.109;539956243649300608;542622;614086;559740;172447;
2024-05-26T22:20:25.127;539956243667459079;542746;614332;559900;172440;
2024-05-26T22:20:25.145;539956243685617550;542848;614445;560001;172458;
2024-05-26T22:20:25.163;539956243703776021;542657;614212;559841;172442;
2024-05-26T22:20:25.181;539956243721934492;542259;613836;559381;172427;
2024-05-26T22:20:25.200;539956243740092960;541662;613087;558723;172429;
2024-05-26T22:20:25.218;539956243758251417;540983;612261;558084;172404;
2024-05-26T22:20:25.236;539956243776409874;540396;611531;557372;172427;
2024-05-26T22:20:25.254;539956243794568331;539770;610818;556759;172437;
2024-05-26T22:20:25.272;539956243812726788;539351;610396;556257;172472;
2024-05-26T22:20:25.290;539956243830885245;539068;610046;555993;172484;
2024-05-26T22:20:25.309;539956243849043702;538940;610015;555931;172515;
2024-05-26T22:20:25.327;539956243867202159;538973;609946;555889;172478;
2024-05-26T22:20:25.345;539956243885360616;539074;610113;555986;172471;
2024-05-26T22:20:25.363;539956243903519073;539304;610388;556138;172443;
2024-05-26T22:20:25.381;539956243921677530;539585;610742;556384;172457;
2024-05-26T22:20:25.399;539956243939835987;539811;611012;556668;172401;
2024-05-26T22:20:25.418;539956243957994444;539981;611291;556880;172346;
2024-05-26T22:20:25.436;539956243976152901;540223;611549;557122;172353;
2024-05-26T22:20:25.454;539956243994311358;540411;611873;557358;172386;
2024-05-26T22:20:25.472;539956244012469815;540612;612103;557477;172389;
2024-05-26T22:20:25.490;539956244030628272;540753;612299;557613;172392;
2024-05-26T22:20:25.508;539956244048786729;540883;612486;557852;172368;
2024-05-26T22:20:25.527;539956244066945186;540991;612619;557885;172354;
2024-05-26T22:20:25.545;539956244085103643;541105;612770;558066;172412;
2024-05-26T22:20:25.563;539956244103262100;541262;612951;558185;172344;
2024-05-26T22:20:25.581;539956244121420557;541331;613140;558331;172401;
2024-05-26T22:20:25.599;539956244139579014;541495;613297;558469;172384;
2024-05-26T22:20:25.617;539956244157737471;541614;613527;558636;172457;
2024-05-26T22:20:25.635;539956244175895928;541766;613728;558783;172393;
2024-05-26T22:20:25.654;539956244194054385;541942;613932;558986;172436;
2024-05-26T22:20:25.672;539956244212212842;542071;614096;559106;172441;
2024-05-26T22:20:25.690;539956244230371299;542285;614434;559361;172465;
2024-05-26T22:20:25.708;539956244248529756;542402;614669;559516;172425;
2024-05-26T22:20:25.726;539956244266688213;542624;614950;559774;172448;
2024-05-26T22:20:25.744;539956244284846670;542871;615197;559938;172396;
2024-05-26T22:20:25.763;539956244303005127;543116;615441;560154;172354;
2024-05-26T22:20:25.781;539956244321163584;543363;615791;560395;172392;
2024-05-26T22:20:25.799;539956244339322041;543592;615986;560722;172404;
2024-05-26T22:20:25.817;539956244357480498;543562;616047;560688;172419;
2024-05-26T22:20:25.835;539956244375638955;543349;615847;560480;172387;
2024-05-26T22:20:25.853;539956244393797412;542943;615299;560091;172397;
2024-05-26T22:20:25.872;539956244411958001;542396;614769;559576;172408;
2024-05-26T22:20:25.890;539956244430118561;541917;614192;559012;172372;
2024-05-26T22:20:25.908;539956244448279121;541462;613664;558521;172348;
2024-05-26T22:20:25.926;539956244466439681;541006;613262;558131;172340;
2024-05-26T22:20:25.944;539956244484600241;540762;613081;557879;172345;
2024-05-26T22:20:25.962;539956244502760801;540720;612996;557873;172441;
2024-05-26T22:20:25.980;539956244520921361;540771;613056;557922;172373;
2024-05-26T22:20:25.999;539956244539081921;541015;613254;558108;172426;
2024-05-26T22:20:26.017;539956244557242481;541150;613468;558273;172355;
2024-05-26T22:20:26.035;539956244575403041;541441;613809;558550;172410;
2024-05-26T22:20:26.053;539956244593563601;541721;614132;558853;172376;
2024-05-26T22:20:26.071;539956244611724161;541899;614426;559117;172424;
2024-05-26T22:20:26.089;539956244629884721;542160;614716;559388;172421;
2024-05-26T22:20:26.108;539956244648045281;542351;615063;559622;172393;
2024-05-26T22:20:26.126;539956244666205841;542615;615279;559878;172392;
2024-05-26T22:20:26.144;539956244684366401;542810;615574;560077;172413;
2024-05-26T22:20:26.162;539956244702526961;542919;615761;560259;172421;
2024-05-26T22:20:26.180;539956244720687521;543160;616029;560428;172434;
2024-05-26T22:20:26.198;539956244738848081;543288;616170;560607;172375;
2024-05-26T22:20:26.217;539956244757008641;543392;616379;560772;172421;
2024-05-26T22:20:26.235;539956244775169201;543630;616579;560892;172361;
2024-05-26T22:20:26.253;539956244793329761;543805;616806;561105;172345;
2024-05-26T22:20:26.271;539956244811490321;543943;617016;561275;172354;
2024-05-26T22:20:26.289;539956244829650881;544098;617243;561473;172356;
2024-05-26T22:20:26.307;539956244847811441;544278;617551;561710;172382;
2024-05-26T22:20:26.326;539956244865972001;544454;617722;561922;172366;
2024-05-26T22:20:26.344;539956244884132561;544664;617974;562120;172371;
2024-05-26T22:20:26.362;539956244902293121;544933;618281;562376;172368;
2024-05-26T22:20:26.380;539956244920453681;545116;618540;562616;172403;
2024-05-26T22:20:26.398;539956244938614241;545322;618883;562842;172410;
2024-05-26T22:20:26.416;539956244956774801;545626;619200;563130;172460;
2024-05-26T22:20:26.434;539956244974935361;545819;619459;563323;172395;
2024-05-26T22:20:26.453;539956244993095921;545855;619520;563348;172412;
2024-05-26T22:20:26.471;539956245011256481;545672;619268;563256;172422;
2024-05-26T22:20:26.489;539956245029417041;545286;618904;562946;172450;
2024-05-26T22:20:26.507;539956245047577601;544949;618381;562547;172419;
2024-05-26T22:20:26.525;539956245065738161;544554;617902;562091;172368;
2024-05-26T22:20:26.543;539956245083897932;544133;617465;561841;172371;
2024-05-26T22:20:26.562;539956245102057667;543882;617270;561540;172372;
2024-05-26T22:20:26.580;539956245120217402;543775;617179;561463;172365;
2024-05-26T22:20:26.598;539956245138377137;543732;617163;561442;172362;
2024-05-26T22:20:26.616;539956245156536872;543841;617247;561515;172414;
2024-05-26T22:20:26.634;539956245174696607;543983;617496;561687;172368;
2024-05-26T22:20:26.652;539956245192856342;544134;617689;561852;172335;
2024-05-26T22:20:26.671;539956245211016077;544362;618017;562129;172331;
2024-05-26T22:20:26.689;539956245229175812;544601;618330;562316;172352;
2024-05-26T22:20:26.707;539956245247335547;544860;618560;562628;172334;
2024-05-26T22:20:26.725;539956245265495282;545095;618845;562877;172353;
2024-05-26T22:20:26.743;539956245283655017;545233;619089;563071;172410;
2024-05-26T22:20:26.761;539956245301814752;545439;619358;563275;172404;
2024-05-26T22:20:26.780;539956245319974487;545597;619541;563432;172453;
2024-05-26T22:20:26.798;539956245338134222;545787;619592;563626;172419;
2024-05-26T22:20:26.816;539956245356293957;545883;619796;563759;172423;
2024-05-26T22:20:26.834;539956245374453692;546046;620005;563954;172418;
2024-05-26T22:20:26.852;539956245392613427;546160;620209;564052;172384;
2024-05-26T22:20:26.870;539956245410773162;546261;620334;564186;172384;
2024-05-26T22:20:26.888;539956245428932897;546345;620524;564442;172400;
2024-05-26T22:20:26.907;539956245447092632;546460;620691;564491;172358;
2024-05-26T22:20:26.925;539956245465252367;546651;620872;564747;172403;
2024-05-26T22:20:26.943;539956245483412102;546833;621062;564820;172427;
2024-05-26T22:20:26.961;539956245501571837;546924;621213;564992;172408;
2024-05-26T22:20:26.979;539956245519731572;547105;621429;565192;172429;
2024-05-26T22:20:26.997;539956245537891307;547163;621629;565396;172392;
2024-05-26T22:20:27.016;539956245556051042;547339;621810;565544;172400;
2024-05-26T22:20:27.034;539956245574210777;547531;622075;565755;172430;
2024-05-26T22:20:27.052;539956245592370512;547657;622219;565892;172391;
2024-05-26T22:20:27.070;539956245610530247;547851;622412;566120;172406;
2024-05-26T22:20:27.088;539956245628689982;548003;622633;566280;172360;
2024-05-26T22:20:27.106;539956245646849717;548008;622714;566390;172327;
2024-05-26T22:20:27.125;539956245665009452;547800;622436;566220;172363;
2024-05-26T22:20:27.143;539956245683169187;547463;621937;565905;172340;
2024-05-26T22:20:27.161;539956245701328922;546994;621412;565468;172390;
2024-05-26T22:20:27.179;539956245719488657;546518;620782;564973;172403;
2024-05-26T22:20:27.197;539956245737648392;546053;620329;564586;172372;
2024-05-26T22:20:27.215;539956245755807381;545701;619898;564234;172371;
2024-05-26T22:20:27.234;539956245773966333;545382;619632;563985;172362;
2024-05-26T22:20:27.252;539956245792125285;545204;619466;563934;172353;
2024-05-26T22:20:27.270;539956245810284237;545199;619440;563873;172363;
2024-05-26T22:20:27.288;539956245828443189;545224;619530;564041;172383;
2024-05-26T22:20:27.306;539956245846602141;545328;619625;564177;172401;
2024-05-26T22:20:27.324;539956245864761093;545546;619884;564325;172402;
2024-05-26T22:20:27.342;539956245882920045;545650;620056;564456;172377;
2024-05-26T22:20:27.361;539956245901078997;545807;620226;564659;172416;
2024-05-26T22:20:27.379;539956245919237949;545984;620461;564838;172377;
2024-05-26T22:20:27.397;539956245937396901;546149;620679;564997;172425;
2024-05-26T22:20:27.415;539956245955555853;546303;620885;565124;172456;
2024-05-26T22:20:27.433;539956245973714805;546417;621018;565270;172443;
2024-05-26T22:20:27.451;539956245991873757;546456;621126;565401;172360;
2024-05-26T22:20:27.470;539956246010032709;546556;621207;565528;172430;
2024-05-26T22:20:27.488;539956246028191661;546687;621311;565611;172377;
2024-05-26T22:20:27.506;539956246046350613;546726;621421;565718;172405;
2024-05-26T22:20:27.524;539956246064509565;546797;621513;565773;172405;
2024-05-26T22:20:27.542;539956246082668517;546998;621707;565986;172410;
2024-05-26T22:20:27.560;539956246100827469;547081;621815;566067;172356;
2024-05-26T22:20:27.579;539956246118986421;547190;621945;566248;172365;
2024-05-26T22:20:27.597;539956246137145373;547369;622088;566364;172386;
2024-05-26T22:20:27.615;539956246155304325;547501;622315;566557;172450;
2024-05-26T22:20:27.633;539956246173463277;547589;622481;566686;172447;
2024-05-26T22:20:27.651;539956246191622229;547774;622716;566840;172447;
2024-05-26T22:20:27.669;539956246209781181;547966;622914;567069;172475;
2024-05-26T22:20:27.688;539956246227940133;548076;623108;567217;172420;
2024-05-26T22:20:27.706;539956246246099085;548195;623242;567408;172393;
2024-05-26T22:20:27.724;539956246264258037;548369;623404;567586;172392;
2024-05-26T22:20:27.742;539956246282416989;548515;623653;567721;172342;
2024-05-26T22:20:27.760;539956246300575941;548766;623853;567928;172323;
2024-05-26T22:20:27.778;539956246318734893;548934;624064;568107;172358;
2024-05-26T22:20:27.796;539956246336893845;549041;624167;568275;172348;
2024-05-26T22:20:27.815;539956246355052797;549174;624337;568417;172385;
2024-05-26T22:20:27.833;539956246373211749;549149;624267;568363;172385;
2024-05-26T22:20:27.851;539956246391370701;548874;623949;568135;172436;
2024-05-26T22:20:27.869;539956246409529653;548525;623436;567744;172406;
2024-05-26T22:20:27.887;539956246427688605;547969;622875;567306;172365;
2024-05-26T22:20:27.905;539956246445847557;547557;622340;566999;172401;
2024-05-26T22:20:27.924;539956246464006588;547192;621901;566672;172422;
2024-05-26T22:20:27.942;539956246482165579;546877;621544;566409;172373;
2024-05-26T22:20:27.960;539956246500324570;546662;621399;566257;172359;
2024-05-26T22:20:27.978;539956246518483561;546619;621340;566274;172396;
2024-05-26T22:20:27.996;539956246536642552;546638;621337;566287;172394;
2024-05-26T22:20:28.014;539956246554801543;546776;621489;566451;172338;
2024-05-26T22:20:28.033;539956246572960534;546833;621614;566543;172353;
2024-05-26T22:20:28.051;539956246591119525;547020;621862;566726;172389;
2024-05-26T22:20:28.069;539956246609278516;547215;622158;566942;172393;
2024-05-26T22:20:28.087;539956246627437507;547397;622354;567098;172376;
2024-05-26T22:20:28.105;539956246645596498;547592;622540;567298;172376;
2024-05-26T22:20:28.123;539956246663755489;547731;622673;567380;172409;
2024-05-26T22:20:28.141;539956246681914480;547788;622818;567517;172400;
2024-05-26T22:20:28.160;539956246700073471;547876;622995;567663;172356;
2024-05-26T22:20:28.178;539956246718232462;547982;623028;567704;172305;
2024-05-26T22:20:28.196;539956246736391453;548077;623162;567828;172340;
2024-05-26T22:20:28.214;539956246754550444;548112;623253;567955;172430;
2024-05-26T22:20:28.232;539956246772709435;548157;623324;568013;172375;
2024-05-26T22:20:28.250;539956246790868426;548253;623399;568011;172386;
2024-05-26T22:20:28.269;539956246809027417;548230;623349;568061;172356;
2024-05-26T22:20:28.287;539956246827186408;548244;623429;568174;172400;
2024-05-26T22:20:28.305;539956246845345399;548147;623464;568172;172403;
2024-05-26T22:20:28.323;539956246863504390;548057;623413;568076;172366;
2024-05-26T22:20:28.341;539956246881663381;548042;623342;568141;172440;
2024-05-26T22:20:28.359;539956246899822372;547919;623327;568075;172374;
2024-05-26T22:20:28.378;539956246917981363;547883;623370;568050;172418;
2024-05-26T22:20:28.396;539956246936140354;547888;623381;568079;172399;
2024-05-26T22:20:28.414;539956246954299345;547900;623386;568073;172384;
2024-05-26T22:20:28.432;539956246972458336;547845;623457;568128;172359;
2024-05-26T22:20:28.450;539956246990617327;547887;623485;568188;172370;
2024-05-26T22:20:28.468;539956247008776318;547925;623560;568279;172363;
2024-05-26T22:20:28.486;539956247026935309;547925;623636;568268;172414;
2024-05-26T22:20:28.505;539956247045094300;547897;623760;568275;172403;
2024-05-26T22:20:28.523;539956247063253291;547894;623806;568294;172392;
2024-05-26T22:20:28.541;539956247081412282;547831;623836;568296;172421;
2024-05-26T22:20:28.559;539956247099571273;547741;623731;568172;172363;
2024-05-26T22:20:28.577;539956247117730264;547518;623719;568161;172435;
2024-05-26T22:20:28.595;539956247135889255;547384;623606;567967;172440;
2024-05-26T22:20:28.614;539956247154048246;547359;623606;567861;172397;
2024-05-26T22:20:28.632;539956247172207237;547399;623646;567990;172405;
2024-05-26T22:20:28.650;539956247190366228;547491;623725;568135;172437;
2024-05-26T22:20:28.668;539956247208525292;547615;623862;568275;172390;
2024-05-26T22:20:28.686;539956247226684326;548014;624194;568617;172417;
2024-05-26T22:20:28.704;539956247244843360;548647;624663;569082;172374;
2024-05-26T22:20:28.723;539956247263002394;549328;624968;569478;172442;
2024-05-26T22:20:28.741;539956247281161428;549891;625348;569880;172443;
2024-05-26T22:20:28.759;539956247299320462;550392;625565;570188;172407;
2024-05-26T22:20:28.777;539956247317479496;550719;625604;570477;172435;
2024-05-26T22:20:28.795;539956247335638530;551113;625814;570728;172400;
2024-05-26T22:20:28.813;539956247353797564;551443;626075;570966;172416;
2024-05-26T22:20:28.832;539956247371956598;551639;626325;571335;172417;
2024-05-26T22:20:28.850;539956247390115632;551723;626483;571530;172391;
2024-05-26T22:20:28.868;539956247408274666;551809;626734;571684;172362;
2024-05-26T22:20:28.886;539956247426433700;551979;626922;571821;172370;
2024-05-26T22:20:28.904;539956247444592734;552089;627235;572023;172403;
2024-05-26T22:20:28.922;539956247462751768;552294;627468;572200;172352;
2024-05-26T22:20:28.940;539956247480910802;552316;627701;572397;172377;
2024-05-26T22:20:28.959;539956247499069836;552385;627826;572487;172384;
2024-05-26T22:20:28.977;539956247517228870;552418;627953;572608;172367;
2024-05-26T22:20:28.995;539956247535387904;552390;628033;572719;172433;
2024-05-26T22:20:29.013;539956247553546938;552420;628077;572842;172416;
2024-05-26T22:20:29.031;539956247571705972;552462;628220;572850;172448;
2024-05-26T22:20:29.049;539956247589865006;552470;628285;572907;172462;
2024-05-26T22:20:29.068;539956247608024040;552392;628266;572868;172418;
2024-05-26T22:20:29.086;539956247626183074;552399;628276;572798;172359;
2024-05-26T22:20:29.104;539956247644342108;552298;628293;572765;172361;
2024-05-26T22:20:29.122;539956247662501142;552184;628239;572768;172437;
2024-05-26T22:20:29.140;539956247680660176;552027;628122;572611;172339;
2024-05-26T22:20:29.158;539956247698819210;551741;628007;572403;172374;
2024-05-26T22:20:29.177;539956247716978244;551546;627827;572228;172387;
2024-05-26T22:20:29.195;539956247735137278;551183;627655;571979;172411;
2024-05-26T22:20:29.213;539956247753296312;550904;627412;571696;172454;
2024-05-26T22:20:29.231;539956247771455346;550672;627194;571403;172410;
2024-05-26T22:20:29.249;539956247789614380;550333;627007;571127;172393;
2024-05-26T22:20:29.267;539956247807773414;550061;626842;570858;172397;
2024-05-26T22:20:29.285;539956247825932448;549792;626605;570718;172395;
2024-05-26T22:20:29.304;539956247844091482;549696;626418;570695;172465;
2024-05-26T22:20:29.322;539956247862250516;549503;626180;570556;172402;
2024-05-26T22:20:29.340;539956247880409774;549448;626213;570475;172456;
2024-05-26T22:20:29.358;539956247898569030;549403;626164;570473;172442;
2024-05-26T22:20:29.376;539956247916728286;549372;626109;570508;172412;
2024-05-26T22:20:29.394;539956247934887542;549415;626193;570579;172438;
2024-05-26T22:20:29.413;539956247953046798;549400;626112;570544;172413;
2024-05-26T22:20:29.431;539956247971206054;549243;625927;570423;172391;
2024-05-26T22:20:29.449;539956247989365310;548963;625587;570198;172438;
2024-05-26T22:20:29.467;539956248007524566;548705;625145;569874;172408;
2024-05-26T22:20:29.485;539956248025683822;548334;624509;569491;172352;
2024-05-26T22:20:29.503;539956248043843078;547905;623857;569093;172342;
2024-05-26T22:20:29.522;539956248062002334;547582;623122;568776;172345;
2024-05-26T22:20:29.540;539956248080161590;547271;622654;568476;172367;
2024-05-26T22:20:29.558;539956248098320846;547195;622445;568403;172378;
2024-05-26T22:20:29.576;539956248116480102;547440;622469;568506;172448;
2024-05-26T22:20:29.594;539956248134639358;547660;622623;568766;172393;
2024-05-26T22:20:29.612;539956248152798614;547951;622914;568972;172439;
2024-05-26T22:20:29.631;539956248170957870;548129;623061;569187;172405;
2024-05-26T22:20:29.649;539956248189117126;548235;623132;569334;172374;
2024-05-26T22:20:29.667;539956248207276382;548395;623464;569521;172439;
2024-05-26T22:20:29.685;539956248225435638;548493;623523;569591;172454;
2024-05-26T22:20:29.703;539956248243594894;548606;623606;569712;172451;
2024-05-26T22:20:29.721;539956248261754150;548478;623594;569633;172363;
2024-05-26T22:20:29.739;539956248279913406;548360;623583;569516;172394;
2024-05-26T22:20:29.758;539956248298072662;548158;623454;569372;172440;
2024-05-26T22:20:29.776;539956248316231918;548128;623405;569230;172427;
2024-05-26T22:20:29.794;539956248334391174;547966;623363;569082;172389;
2024-05-26T22:20:29.812;539956248352550430;547974;623485;569108;172413;
2024-05-26T22:20:29.830;539956248370709686;548203;623713;569384;172386;
2024-05-26T22:20:29.848;539956248388868942;548543;624032;569657;172373;
2024-05-26T22:20:29.867;539956248407028198;548964;624356;570048;172336;
2024-05-26T22:20:29.885;539956248425187454;549611;624824;570593;172389;
2024-05-26T22:20:29.903;539956248443346710;550849;625824;571476;172372;
2024-05-26T22:20:29.921;539956248461505966;552613;627347;572815;172433;
2024-05-26T22:20:29.939;539956248479665222;554537;629044;574270;172419;
2024-05-26T22:20:29.957;539956248497824478;556152;630488;575505;172422;
2024-05-26T22:20:29.976;539956248515983719;557563;631754;576731;172422;
2024-05-26T22:20:29.994;539956248534142931;559072;633107;577919;172434;
2024-05-26T22:20:30.012;539956248552302143;560586;634489;579056;172457;
2024-05-26T22:20:30.030;539956248570461355;562227;635957;580333;172402;
2024-05-26T22:20:30.048;539956248588620567;563799;637355;581533;172426;
2024-05-26T22:20:30.066;539956248606779779;565327;638702;582755;172400;
2024-05-26T22:20:30.085;539956248624938991;566736;639971;583924;172399;
2024-05-26T22:20:30.103;539956248643098203;568061;641153;584927;172462;
2024-05-26T22:20:30.121;539956248661257415;569243;642229;585937;172456;
2024-05-26T22:20:30.139;539956248679416627;570331;643240;586813;172477;
2024-05-26T22:20:30.157;539956248697575839;571257;644042;587598;172471;
2024-05-26T22:20:30.175;539956248715735051;571846;644553;588065;172458;
2024-05-26T22:20:30.193;539956248733894263;572139;644568;588192;172394;
2024-05-26T22:20:30.212;539956248752053475;572364;644574;588266;172428;
2024-05-26T22:20:30.230;539956248770212687;572355;644418;588231;172427;
2024-05-26T22:20:30.248;539956248788371899;572355;644152;588027;172424;
2024-05-26T22:20:30.266;539956248806531111;572329;643909;588026;172408;
2024-05-26T22:20:30.284;539956248824690323;572362;643910;588082;172388;
2024-05-26T22:20:30.302;539956248842849535;572515;644042;588260;172408;
2024-05-26T22:20:30.321;539956248861008747;572756;644224;588428;172419;
2024-05-26T22:20:30.339;539956248879167959;573116;644670;588677;172470;
2024-05-26T22:20:30.357;539956248897327171;573518;645085;589065;172426;
2024-05-26T22:20:30.375;539956248915486383;574071;645715;589452;172420;
2024-05-26T22:20:30.393;539956248933645595;574710;646449;589991;172411;
2024-05-26T22:20:30.411;539956248951804807;575404;647257;590562;172427;
2024-05-26T22:20:30.430;539956248969964019;576208;648116;591178;172472;
2024-05-26T22:20:30.448;539956248988123231;576867;648850;591700;172435;
2024-05-26T22:20:30.466;539956249006282443;577504;649543;592176;172395;
2024-05-26T22:20:30.484;539956249024441655;578134;650226;592651;172417;
2024-05-26T22:20:30.502;539956249042600867;578719;650895;593105;172405;
2024-05-26T22:20:30.520;539956249060760079;579249;651410;593523;172435;
2024-05-26T22:20:30.538;539956249078919291;579839;651918;593981;172460;
2024-05-26T22:20:30.557;539956249097078503;580164;652423;594323;172447;
2024-05-26T22:20:30.575;539956249115237715;580697;652874;594664;172413;
2024-05-26T22:20:30.593;539956249133396927;581106;653213;595020;172478;
2024-05-26T22:20:30.611;539956249151556008;581462;653550;595333;172421;
2024-05-26T22:20:30.629;539956249169715084;581818;653918;595587;172399;
2024-05-26T22:20:30.647;539956249187874160;582271;654262;595862;172418;
2024-05-26T22:20:30.666;539956249206033236;582473;654577;596030;172379;
2024-05-26T22:20:30.684;539956249224192312;582697;654797;596308;172402;
2024-05-26T22:20:30.702;539956249242351388;582847;654966;596467;172397;
2024-05-26T22:20:30.720;539956249260510464;583052;655155;596672;172446;
2024-05-26T22:20:30.738;539956249278669540;583201;655269;596783;172473;
2024-05-26T22:20:30.756;539956249296828616;583378;655533;597027;172482;
2024-05-26T22:20:30.775;539956249314987692;583477;655707;597176;172468;
2024-05-26T22:20:30.793;539956249333146768;583539;655950;597281;172427;
2024-05-26T22:20:30.811;539956249351305844;583704;656072;597530;172377;
2024-05-26T22:20:30.829;539956249369464920;583834;656288;597737;172424;
2024-05-26T22:20:30.847;539956249387623996;583863;656519;597879;172440;
2024-05-26T22:20:30.865;539956249405783072;583992;656763;598101;172401;
2024-05-26T22:20:30.884;539956249423942148;584257;657029;598370;172458;
2024-05-26T22:20:30.902;539956249442101224;584360;657186;598479;172443;
2024-05-26T22:20:30.920;539956249460260300;584327;657119;598468;172418;
2024-05-26T22:20:30.938;539956249478419376;583987;656772;598207;172427;
2024-05-26T22:20:30.956;539956249496578452;583531;656244;597756;172410;
2024-05-26T22:20:30.974;539956249514737528;583082;655637;597379;172429;
2024-05-26T22:20:30.992;539956249532896604;582677;655127;596960;172428;
2024-05-26T22:20:31.011;539956249551055680;582276;654666;596557;172440;
2024-05-26T22:20:31.029;539956249569214756;582161;654464;596288;172470;
2024-05-26T22:20:31.047;539956249587373832;582042;654303;596164;172438;
2024-05-26T22:20:31.065;539956249605532908;582049;654308;596189;172459;
2024-05-26T22:20:31.083;539956249623691984;582278;654621;596378;172410;
2024-05-26T22:20:31.101;539956249641851060;582675;655070;596632;172472;
2024-05-26T22:20:31.120;539956249660010136;583067;655486;596965;172437;
2024-05-26T22:20:31.138;539956249678169212;583550;656016;597280;172436;
2024-05-26T22:20:31.156;539956249696328288;584010;656539;597639;172469;
2024-05-26T22:20:31.174;539956249714487364;584441;656991;598050;172448;
2024-05-26T22:20:31.192;539956249732646440;584791;657427;598347;172437;
2024-05-26T22:20:31.210;539956249750805516;585167;657829;598732;172480;
2024-05-26T22:20:31.229;539956249768964592;585467;658223;598947;172421;
2024-05-26T22:20:31.247;539956249787123668;585679;658405;599101;172427;
2024-05-26T22:20:31.265;539956249805282744;585902;658727;599277;172458;
2024-05-26T22:20:31.283;539956249823443164;586077;658896;599484;172451;
2024-05-26T22:20:31.301;539956249841603578;586179;659015;599571;172440;
2024-05-26T22:20:31.319;539956249859763992;586158;659085;599644;172401;
2024-05-26T22:20:31.337;539956249877924406;586117;658981;599628;172390;
2024-05-26T22:20:31.356;539956249896084820;585964;658949;599721;172443;
2024-05-26T22:20:31.374;539956249914245234;585841;658968;599732;172458;
2024-05-26T22:20:31.392;539956249932405648;585663;658743;599736;172457;
2024-05-26T22:20:31.410;539956249950566062;585572;658722;599733;172471;
2024-05-26T22:20:31.428;539956249968726476;585368;658498;599691;172414;
2024-05-26T22:20:31.446;539956249986886890;585159;658460;599679;172476;
2024-05-26T22:20:31.465;539956250005047304;584916;658255;599632;172370;
2024-05-26T22:20:31.483;539956250023207718;584659;658081;599528;172403;
2024-05-26T22:20:31.501;539956250041368132;584375;657881;599437;172421;
2024-05-26T22:20:31.519;539956250059528546;584117;657738;599397;172442;
2024-05-26T22:20:31.537;539956250077688960;583793;657504;599249;172356;
2024-05-26T22:20:31.555;539956250095849374;583501;657374;599159;172440;
2024-05-26T22:20:31.574;539956250114009788;583228;657206;598996;172450;
2024-05-26T22:20:31.592;539956250132170202;582861;657054;598868;172459;
2024-05-26T22:20:31.610;539956250150330616;582535;656936;598762;172386;
2024-05-26T22:20:31.628;539956250168491030;582206;656686;598548;172356;
2024-05-26T22:20:31.646;539956250186651444;581725;656249;598220;172423;
2024-05-26T22:20:31.664;539956250204811858;580998;655539;597559;172407;
2024-05-26T22:20:31.683;539956250222972272;579975;654515;596741;172428;
2024-05-26T22:20:31.701;539956250241132686;578774;653363;595718;172368;
2024-05-26T22:20:31.719;539956250259293100;577680;652203;594707;172446;
2024-05-26T22:20:31.737;539956250277453514;576344;651005;593478;172399;
2024-05-26T22:20:31.755;539956250295613928;575294;649931;592478;172396;
2024-05-26T22:20:31.773;539956250313774342;574262;648852;591563;172408;
2024-05-26T22:20:31.791;539956250331934756;573414;648150;590872;172401;
2024-05-26T22:20:31.810;539956250350095170;572858;647561;590281;172440;
2024-05-26T22:20:31.828;539956250368255584;572384;647256;589887;172453;
2024-05-26T22:20:31.846;539956250386415998;572089;647052;589623;172471;
2024-05-26T22:20:31.864;539956250404576412;571957;646905;589599;172424;
2024-05-26T22:20:31.882;539956250422736826;571912;646896;589622;172411;
2024-05-26T22:20:31.900;539956250440897240;571936;646978;589675;172474;
2024-05-26T22:20:31.919;539956250459057654;572003;647005;589735;172410;
2024-05-26T22:20:31.937;539956250477217407;572016;647010;589812;172418;
2024-05-26T22:20:31.955;539956250495377142;571994;647044;589897;172366;
2024-05-26T22:20:31.973;539956250513536877;571994;647027;589863;172401;
2024-05-26T22:20:31.991;539956250531696612;571862;647004;589766;172391;
2024-05-26T22:20:32.009;539956250549856347;571574;646850;589623;172456;
2024-05-26T22:20:32.028;539956250568016082;571246;646704;589420;172447;
2024-05-26T22:20:32.046;539956250586175817;571213;646794;589333;172389;
2024-05-26T22:20:32.064;539956250604335552;571188;646795;589264;172379;
2024-05-26T22:20:32.082;539956250622495287;570997;646739;589170;172386;
2024-05-26T22:20:32.100;539956250640655022;570975;646744;589089;172436;
2024-05-26T22:20:32.118;539956250658814757;571310;646836;589176;172384;
2024-05-26T22:20:32.137;539956250676974492;571571;646942;589238;172414;
2024-05-26T22:20:32.155;539956250695134227;571584;646878;589146;172362;
2024-05-26T22:20:32.173;539956250713293962;571630;646825;589238;172387;
2024-05-26T22:20:32.191;539956250731453697;571647;646877;589214;172328;
2024-05-26T22:20:32.209;539956250749613432;571684;646831;589227;172414;
2024-05-26T22:20:32.227;539956250767773167;571704;646867;589232;172375;
2024-05-26T22:20:32.245;539956250785932902;571621;646840;589188;172409;
2024-05-26T22:20:32.264;539956250804092637;571637;646928;589149;172421;
2024-05-26T22:20:32.282;539956250822252372;571768;646948;589195;172434;
2024-05-26T22:20:32.300;539956250840412107;571718;647051;589189;172416;
2024-05-26T22:20:32.318;539956250858571842;571526;646815;588888;172418;
2024-05-26T22:20:32.336;539956250876731577;571126;646154;588429;172448;
2024-05-26T22:20:32.354;539956250894891312;570404;645287;587638;172454;
2024-05-26T22:20:32.373;539956250913051047;569515;644232;586756;172387;
2024-05-26T22:20:32.391;539956250931210782;568713;643317;585926;172414;
2024-05-26T22:20:32.409;539956250949370517;567830;642489;584978;172391;
2024-05-26T22:20:32.427;539956250967530252;567166;641897;584324;172461;
2024-05-26T22:20:32.445;539956250985689987;566614;641251;583754;172427;
2024-05-26T22:20:32.463;539956251003849722;566206;640954;583294;172429;
2024-05-26T22:20:32.482;539956251022009457;565867;640691;582966;172385;
2024-05-26T22:20:32.500;539956251040169192;565736;640546;582756;172426;
2024-05-26T22:20:32.518;539956251058328927;565615;640464;582631;172392;
2024-05-26T22:20:32.536;539956251076488662;565688;640511;582617;172363;
2024-05-26T22:20:32.554;539956251094648397;565748;640605;582600;172421;
2024-05-26T22:20:32.572;539956251112808132;565758;640654;582593;172428;
2024-05-26T22:20:32.591;539956251130967867;565761;640736;582608;172392;
2024-05-26T22:20:32.609;539956251149127602;565856;640759;582628;172394;
2024-05-26T22:20:32.627;539956251167287947;565878;640886;582709;172438;
2024-05-26T22:20:32.645;539956251185448276;565878;640864;582657;172402;
2024-05-26T22:20:32.663;539956251203608605;565801;640841;582608;172358;
2024-05-26T22:20:32.681;539956251221768934;565801;640806;582603;172412;
2024-05-26T22:20:32.699;539956251239929263;565754;640811;582571;172376;
2024-05-26T22:20:32.718;539956251258089592;565725;640807;582544;172408;
2024-05-26T22:20:32.736;539956251276249921;565741;640802;582524;172360;
2024-05-26T22:20:32.754;539956251294410250;565687;640778;582483;172380;
2024-05-26T22:20:32.772;539956251312570579;565643;640859;582443;172394;
2024-05-26T22:20:32.790;539956251330730908;565656;640926;582397;172405;
2024-05-26T22:20:32.808;539956251348891237;565793;640976;582408;172393;
2024-05-26T22:20:32.827;539956251367051566;565788;640969;582482;172385;
2024-05-26T22:20:32.845;539956251385211895;565848;641106;582576;172399;
2024-05-26T22:20:32.863;539956251403372224;565841;641113;582606;172410;
2024-05-26T22:20:32.881;539956251421532553;565907;641180;582575;172379;
2024-05-26T22:20:32.899;539956251439692882;566020;641271;582696;172370;
2024-05-26T22:20:32.917;539956251457853211;566065;641396;582732;172346;
2024-05-26T22:20:32.936;539956251476013540;566223;641502;582848;172470;
2024-05-26T22:20:32.954;539956251494173869;566055;641374;582766;172446;
2024-05-26T22:20:32.972;539956251512334198;565761;641031;582472;172394;
2024-05-26T22:20:32.990;539956251530494527;565082;640421;581763;172436;
2024-05-26T22:20:33.008;539956251548654856;564195;639444;580853;172368;
2024-05-26T22:20:33.026;539956251566815185;563174;638431;579933;172397;
2024-05-26T22:20:33.045;539956251584975514;562066;637415;578942;172444;
2024-05-26T22:20:33.063;539956251603135843;561058;636411;577920;172408;
2024-05-26T22:20:33.081;539956251621296172;560207;635627;577115;172427;
2024-05-26T22:20:33.099;539956251639456501;559518;635032;576418;172416;
2024-05-26T22:20:33.117;539956251657616830;558928;634527;575836;172372;
2024-05-26T22:20:33.135;539956251675777159;558573;634216;575537;172416;
2024-05-26T22:20:33.154;539956251693937488;558358;634113;575263;172391;
2024-05-26T22:20:33.172;539956251712097817;558196;634052;575129;172417;
2024-05-26T22:20:33.190;539956251730258146;558121;634026;575138;172391;
2024-05-26T22:20:33.208;539956251748418475;558134;634087;575034;172434;
2024-05-26T22:20:33.226;539956251766578804;558111;634191;575179;172358;
2024-05-26T22:20:33.244;539956251784739133;558167;634201;575102;172376;
2024-05-26T22:20:33.262;539956251802899462;558206;634334;575200;172397;
2024-05-26T22:20:33.281;539956251821058174;558170;634387;575203;172383;
2024-05-26T22:20:33.299;539956251839216879;558204;634381;575087;172340;
2024-05-26T22:20:33.317;539956251857375584;558190;634456;575190;172409;
2024-05-26T22:20:33.335;539956251875534289;558114;634410;575119;172414;
2024-05-26T22:20:33.353;539956251893692994;558049;634384;575037;172412;
2024-05-26T22:20:33.371;539956251911851699;558034;634429;575054;172454;
2024-05-26T22:20:33.390;539956251930010404;558024;634457;575013;172370;
2024-05-26T22:20:33.408;539956251948169109;557967;634496;575007;172407;
2024-05-26T22:20:33.426;539956251966327814;558017;634544;575035;172429;
2024-05-26T22:20:33.444;539956251984486519;557998;634509;575042;172404;
2024-05-26T22:20:33.462;539956252002645224;558037;634520;575098;172438;
2024-05-26T22:20:33.480;539956252020803929;558009;634563;575125;172457;
2024-05-26T22:20:33.499;539956252038962634;558082;634693;575259;172487;
2024-05-26T22:20:33.517;539956252057121339;558082;634772;575304;172431;
2024-05-26T22:20:33.535;539956252075280044;558175;634897;575398;172411;
2024-05-26T22:20:33.553;539956252093438749;558250;634989;575435;172454;
2024-05-26T22:20:33.571;539956252111597454;558337;635148;575406;172423;
2024-05-26T22:20:33.589;539956252129756159;558382;635175;575561;172404;
2024-05-26T22:20:33.607;539956252147914864;558265;635120;575497;172359;
2024-05-26T22:20:33.626;539956252166073569;557911;634766;575130;172446;
2024-05-26T22:20:33.644;539956252184232274;557207;633985;574418;172412;
2024-05-26T22:20:33.662;539956252202390979;556174;633111;573591;172387;
2024-05-26T22:20:33.680;539956252220549684;555202;632087;572594;172443;
2024-05-26T22:20:33.698;539956252238708389;554117;631107;571555;172377;
2024-05-26T22:20:33.716;539956252256867094;553223;630232;570691;172423;
2024-05-26T22:20:33.735;539956252275025799;552439;629562;569968;172413;
2024-05-26T22:20:33.753;539956252293184504;551842;628988;569362;172395;
2024-05-26T22:20:33.771;539956252311343209;551363;628634;568956;172427;
2024-05-26T22:20:33.789;539956252329501914;551160;628498;568764;172417;
2024-05-26T22:20:33.807;539956252347660619;550987;628441;568609;172401;
2024-05-26T22:20:33.825;539956252365819324;550989;628528;568573;172403;
2024-05-26T22:20:33.844;539956252383978029;551060;628597;568578;172395;
2024-05-26T22:20:33.862;539956252402136734;551155;628693;568741;172422;
2024-05-26T22:20:33.880;539956252420295439;551234;628838;568874;172457;
2024-05-26T22:20:33.898;539956252438454144;551363;628933;568934;172402;
2024-05-26T22:20:33.916;539956252456612849;551374;629039;569024;172436;
2024-05-26T22:20:33.934;539956252474771554;551395;629094;569038;172423;
2024-05-26T22:20:33.952;539956252492931325;551518;629100;569108;172420;
2024-05-26T22:20:33.971;539956252511091060;551490;629142;569181;172426;
2024-05-26T22:20:33.989;539956252529250795;551471;629150;569161;172469;
2024-05-26T22:20:34.007;539956252547410530;551491;629149;569198;172452;
2024-05-26T22:20:34.025;539956252565570265;551477;629194;569278;172440;
2024-05-26T22:20:34.043;539956252583730000;551382;629179;569265;172413;
2024-05-26T22:20:34.061;539956252601889735;551408;629206;569325;172393;
2024-05-26T22:20:34.080;539956252620049470;551451;629309;569285;172355;
2024-05-26T22:20:34.098;539956252638209205;551483;629435;569371;172411;
2024-05-26T22:20:34.116;539956252656368940;551482;629535;569395;172402;
2024-05-26T22:20:34.134;539956252674528675;551562;629564;569522;172410;
2024-05-26T22:20:34.152;539956252692688410;551688;629689;569658;172448;
2024-05-26T22:20:34.170;539956252710848145;551762;629837;569795;172448;
2024-05-26T22:20:34.189;539956252729007880;551905;629900;569885;172422;
2024-05-26T22:20:34.207;539956252747167615;551977;630058;570007;172442;
2024-05-26T22:20:34.225;539956252765327350;552116;630190;570127;172423;
2024-05-26T22:20:34.243;539956252783487085;552113;630354;570229;172394;
2024-05-26T22:20:34.261;539956252801646820;552050;630282;570188;172383;
2024-05-26T22:20:34.279;539956252819806555;551611;629849;569783;172376;
2024-05-26T22:20:34.298;539956252837966290;550999;629149;569239;172477;
2024-05-26T22:20:34.316;539956252856126025;550115;628226;568380;172377;
2024-05-26T22:20:34.334;539956252874285760;549131;627378;567512;172406;
2024-05-26T22:20:34.352;539956252892445495;548201;626473;566605;172366;
2024-05-26T22:20:34.370;539956252910605230;547457;625737;565916;172417;
2024-05-26T22:20:34.388;539956252928764965;546906;625243;565406;172401;
2024-05-26T22:20:34.406;539956252946924700;546398;624806;564953;172372;
2024-05-26T22:20:34.425;539956252965084435;546090;624593;564711;172352;
2024-05-26T22:20:34.443;539956252983244170;545950;624521;564641;172388;
2024-05-26T22:20:34.461;539956253001403905;546019;624488;564636;172422;
2024-05-26T22:20:34.479;539956253019563640;546091;624677;564722;172470;
2024-05-26T22:20:34.497;539956253037723375;546200;624808;564876;172436;
2024-05-26T22:20:34.515;539956253055883110;546312;625010;565035;172441;
2024-05-26T22:20:34.534;539956253074042845;546452;625121;565256;172469;
2024-05-26T22:20:34.552;539956253092202580;546480;625164;565305;172388;
2024-05-26T22:20:34.570;539956253110362315;546570;625290;565411;172362;
2024-05-26T22:20:34.588;539956253128522050;546594;625360;565548;172431;
2024-05-26T22:20:34.606;539956253146681785;546628;625411;565570;172420;
2024-05-26T22:20:34.624;539956253164841520;546616;625410;565604;172454;
2024-05-26T22:20:34.643;539956253183001255;546644;625469;565606;172388;
2024-05-26T22:20:34.661;539956253201160990;546542;625474;565625;172368;
2024-05-26T22:20:34.679;539956253219321520;546662;625507;565661;172414;
2024-05-26T22:20:34.697;539956253237482039;546646;625542;565708;172370;
2024-05-26T22:20:34.715;539956253255642558;546645;625594;565729;172395;
2024-05-26T22:20:34.733;539956253273803077;546663;625615;565857;172396;
2024-05-26T22:20:34.752;539956253291963596;546775;625743;565971;172395;
2024-05-26T22:20:34.770;539956253310124115;546850;625866;566031;172436;
2024-05-26T22:20:34.788;539956253328284634;546962;625950;566124;172403;
2024-05-26T22:20:34.806;539956253346445153;547018;626096;566305;172442;
2024-05-26T22:20:34.824;539956253364605672;547152;626148;566449;172418;
2024-05-26T22:20:34.842;539956253382766191;547179;626285;566549;172356;
2024-05-26T22:20:34.860;539956253400926710;547322;626433;566743;172357;
2024-05-26T22:20:34.879;539956253419087229;547380;626419;566807;172377;
2024-05-26T22:20:34.897;539956253437247748;547096;626154;566595;172395;
2024-05-26T22:20:34.915;539956253455408267;546513;625640;566127;172436;
2024-05-26T22:20:34.933;539956253473568786;545729;624773;565359;172402;
2024-05-26T22:20:34.951;539956253491729305;544967;623921;564616;172433;
2024-05-26T22:20:34.969;539956253509889824;544123;623105;563836;172417;
2024-05-26T22:20:34.988;539956253528050343;543352;622403;563154;172435;
2024-05-26T22:20:35.006;539956253546210862;542726;621848;562597;172405;
2024-05-26T22:20:35.024;539956253564371381;542278;621396;562170;172426;
2024-05-26T22:20:35.042;539956253582531900;541968;621205;561895;172373;
2024-05-26T22:20:35.060;539956253600692419;541876;621070;561826;172358;
2024-05-26T22:20:35.078;539956253618852938;541790;621014;561822;172341;
2024-05-26T22:20:35.097;539956253637013457;541870;621161;561871;172392;
2024-05-26T22:20:35.115;539956253655173976;542030;621298;562030;172394;
2024-05-26T22:20:35.133;539956253673334495;542216;621510;562233;172399;
2024-05-26T22:20:35.151;539956253691495014;542417;621704;562437;172427;
2024-05-26T22:20:35.169;539956253709655533;542565;621799;562551;172427;
2024-05-26T22:20:35.187;539956253727816052;542670;621949;562743;172413;
2024-05-26T22:20:35.206;539956253745976571;542821;622073;562926;172424;
2024-05-26T22:20:35.224;539956253764137090;542843;622144;563007;172394;
2024-05-26T22:20:35.242;539956253782297609;542950;622163;563092;172437;
2024-05-26T22:20:35.260;539956253800458128;543010;622163;563144;172394;
2024-05-26T22:20:35.278;539956253818618647;543024;622202;563176;172365;
2024-05-26T22:20:35.296;539956253836779166;543090;622278;563360;172395;
2024-05-26T22:20:35.315;539956253854939685;543267;622437;563531;172424;
2024-05-26T22:20:35.333;539956253873100204;543301;622501;563571;172429;
2024-05-26T22:20:35.351;539956253891259438;543387;622571;563702;172419;
2024-05-26T22:20:35.369;539956253909418637;543523;622700;563802;172390;
2024-05-26T22:20:35.387;539956253927577836;543640;622828;563939;172411;
2024-05-26T22:20:35.405;539956253945737035;543785;623016;564188;172408;
2024-05-26T22:20:35.423;539956253963896234;543950;623065;564283;172361;
2024-05-26T22:20:35.442;539956253982055433;544149;623325;564544;172379;
2024-05-26T22:20:35.460;539956254000214632;544347;623467;564726;172369;
2024-05-26T22:20:35.478;539956254018373831;544476;623603;564932;172383;
2024-05-26T22:20:35.496;539956254036533030;544615;623845;565113;172435;
2024-05-26T22:20:35.514;539956254054692229;544828;624050;565325;172387;
2024-05-26T22:20:35.532;539956254072851428;545095;624074;565480;172389;
2024-05-26T22:20:35.551;539956254091010627;544947;624060;565462;172455;
2024-05-26T22:20:35.569;539956254109169826;544645;623651;565205;172385;
2024-05-26T22:20:35.587;539956254127329025;544145;623027;564689;172418;
2024-05-26T22:20:35.605;539956254145488224;543416;622269;564058;172407;
2024-05-26T22:20:35.623;539956254163647423;542645;621484;563347;172392;
2024-05-26T22:20:35.641;539956254181806622;541944;620691;562675;172395;
2024-05-26T22:20:35.660;539956254199965821;541394;620051;562136;172426;
2024-05-26T22:20:35.678;539956254218125020;540907;619571;561758;172384;
2024-05-26T22:20:35.696;539956254236284219;540707;619307;561473;172412;
2024-05-26T22:20:35.714;539956254254443418;540526;619140;561373;172422;
2024-05-26T22:20:35.732;539956254272602617;540579;619138;561396;172418;
2024-05-26T22:20:35.750;539956254290761816;540674;619208;561507;172423;
2024-05-26T22:20:35.768;539956254308921015;540840;619387;561643;172401;
2024-05-26T22:20:35.787;539956254327080214;541101;619731;561948;172428;
2024-05-26T22:20:35.805;539956254345239413;541302;619821;562224;172423;
2024-05-26T22:20:35.823;539956254363398612;541476;620043;562438;172400;
2024-05-26T22:20:35.841;539956254381557811;541704;620297;562685;172434;
2024-05-26T22:20:35.859;539956254399717010;541868;620412;562835;172346;
2024-05-26T22:20:35.877;539956254417876209;542036;620628;563060;172425;
2024-05-26T22:20:35.896;539956254436035408;542199;620703;563133;172411;
2024-05-26T22:20:35.914;539956254454194607;542267;620747;563295;172424;
2024-05-26T22:20:35.932;539956254472353806;542307;620806;563379;172353;
2024-05-26T22:20:35.950;539956254490513005;542388;620885;563527;172406;
2024-05-26T22:20:35.968;539956254508672204;542553;621034;563652;172439;
2024-05-26T22:20:35.986;539956254526831403;542698;621082;563740;172422;
2024-05-26T22:20:36.005;539956254544990602;542777;621194;563903;172385;
2024-05-26T22:20:36.023;539956254563149716;542969;621220;564107;172393;
2024-05-26T22:20:36.041;539956254581308797;543164;621423;564298;172422;
2024-05-26T22:20:36.059;539956254599467878;543327;621579;564488;172420;
2024-05-26T22:20:36.077;539956254617626959;543463;621862;564698;172440;
2024-05-26T22:20:36.095;539956254635786040;543633;621986;564906;172417;
2024-05-26T22:20:36.114;539956254653945121;543756;622121;565092;172378;
2024-05-26T22:20:36.132;539956254672104202;544075;622361;565310;172422;
2024-05-26T22:20:36.150;539956254690263283;544216;622545;565459;172348;
2024-05-26T22:20:36.168;539956254708422364;544544;622860;565776;172431;
2024-05-26T22:20:36.186;539956254726581445;544716;623077;566051;172404;
2024-05-26T22:20:36.204;539956254744740526;544932;623289;566290;172421;
2024-05-26T22:20:36.222;539956254762899607;545241;623570;566535;172452;
2024-05-26T22:20:36.241;539956254781058688;545448;623842;566756;172407;
2024-05-26T22:20:36.259;539956254799217769;545654;624015;566974;172360;
2024-05-26T22:20:36.277;539956254817376850;545894;624288;567227;172378;
2024-05-26T22:20:36.295;539956254835535931;545973;624296;567362;172438;
2024-05-26T22:20:36.313;539956254853695012;545791;624089;567247;172431;
2024-05-26T22:20:36.331;539956254871854093;545374;623611;566861;172465;
2024-05-26T22:20:36.350;539956254890013174;544856;622911;566383;172447;
2024-05-26T22:20:36.368;539956254908172255;544314;622203;565845;172429;
2024-05-26T22:20:36.386;539956254926331336;543733;621535;565379;172440;
2024-05-26T22:20:36.404;539956254944490417;543288;620952;564998;172444;
2024-05-26T22:20:36.422;539956254962649498;542915;620503;564609;172426;
2024-05-26T22:20:36.440;539956254980808579;542742;620295;564518;172461;
2024-05-26T22:20:36.459;539956254998967660;542747;620204;564421;172443;
2024-05-26T22:20:36.477;539956255017126741;542777;620196;564571;172421;
2024-05-26T22:20:36.495;539956255035285822;542973;620383;564711;172394;
2024-05-26T22:20:36.513;539956255053444903;543184;620561;564912;172329;
2024-05-26T22:20:36.531;539956255071603984;543358;620812;565125;172337;
2024-05-26T22:20:36.549;539956255089763065;543713;621115;565441;172487;
2024-05-26T22:20:36.567;539956255107922146;543931;621337;565657;172472;
2024-05-26T22:20:36.586;539956255126081227;543981;621523;565806;172431;
2024-05-26T22:20:36.604;539956255144240308;544177;621700;566061;172392;
2024-05-26T22:20:36.622;539956255162399389;544334;621816;566161;172393;
2024-05-26T22:20:36.640;539956255180558470;544486;621945;566276;172423;
2024-05-26T22:20:36.658;539956255198717577;544579;622016;566397;172392;
2024-05-26T22:20:36.676;539956255216876670;544687;622126;566545;172391;
2024-05-26T22:20:36.695;539956255235035763;544822;622121;566621;172404;
2024-05-26T22:20:36.713;539956255253194856;544961;622253;566785;172451;
2024-05-26T22:20:36.731;539956255271353949;545016;622376;566877;172456;
2024-05-26T22:20:36.749;539956255289513042;545213;622503;567074;172395;
2024-05-26T22:20:36.767;539956255307672135;545323;622617;567166;172390;
2024-05-26T22:20:36.785;539956255325831228;545430;622779;567338;172374;
2024-05-26T22:20:36.804;539956255343990321;545681;622898;567546;172382;
2024-05-26T22:20:36.822;539956255362149414;545894;623129;567746;172431;
2024-05-26T22:20:36.840;539956255380308507;546017;623263;567994;172461;
2024-05-26T22:20:36.858;539956255398467600;546226;623510;568147;172423;
2024-05-26T22:20:36.876;539956255416626693;546402;623688;568337;172414;
2024-05-26T22:20:36.894;539956255434785786;546603;623884;568503;172400;
2024-05-26T22:20:36.913;539956255452944879;546812;624065;568741;172422;
2024-05-26T22:20:36.931;539956255471103972;547041;624277;568951;172405;
2024-05-26T22:20:36.949;539956255489263065;547214;624474;569128;172410;
2024-05-26T22:20:36.967;539956255507422158;547442;624746;569390;172424;
2024-05-26T22:20:36.985;539956255525581251;547618;624939;569621;172392;
2024-05-26T22:20:37.003;539956255543740344;547823;625082;569790;172423;
2024-05-26T22:20:37.021;539956255561899437;548040;625330;569986;172422;
2024-05-26T22:20:37.040;539956255580058530;548211;625541;570234;172450;
2024-05-26T22:20:37.058;539956255598217623;548276;625512;570331;172413;
2024-05-26T22:20:37.076;539956255616376716;548130;625329;570133;172434;
2024-05-26T22:20:37.094;539956255634535809;547808;624864;569898;172444;
2024-05-26T22:20:37.112;539956255652694902;547321;624191;569407;172460;
2024-05-26T22:20:37.130;539956255670853995;546793;623542;568986;172443;
2024-05-26T22:20:37.149;539956255689013088;546402;622941;568584;172473;
2024-05-26T22:20:37.167;539956255707172181;546020;622416;568279;172435;
2024-05-26T22:20:37.185;539956255725331274;545860;622169;568097;172431;
2024-05-26T22:20:37.203;539956255743490367;545752;621951;568001;172409;
2024-05-26T22:20:37.221;539956255761649460;545763;621897;568038;172384;
2024-05-26T22:20:37.239;539956255779808553;545874;621958;568161;172400;
2024-05-26T22:20:37.258;539956255797967646;546052;622090;568307;172441;
2024-05-26T22:20:37.276;539956255816126739;546262;622343;568576;172446;
2024-05-26T22:20:37.294;539956255834285832;546506;622618;568815;172409;
2024-05-26T22:20:37.312;539956255852444925;546737;622845;568960;172424;
2024-05-26T22:20:37.330;539956255870604018;546913;623048;569150;172393;
2024-05-26T22:20:37.348;539956255888763789;547021;623190;569346;172379;
2024-05-26T22:20:37.366;539956255906923524;547194;623408;569526;172407;
2024-05-26T22:20:37.385;539956255925083259;547307;623505;569602;172343;
2024-05-26T22:20:37.403;539956255943242994;547402;623626;569758;172401;
2024-05-26T22:20:37.421;539956255961402729;547524;623695;569824;172376;
2024-05-26T22:20:37.439;539956255979562464;547618;623731;569950;172413;
2024-05-26T22:20:37.457;539956255997722199;547681;623833;570078;172413;
2024-05-26T22:20:37.475;539956256015881934;547735;623913;570115;172455;
2024-05-26T22:20:37.494;539956256034041669;547879;623987;570221;172443;
2024-05-26T22:20:37.512;539956256052201404;547966;624087;570329;172402;
2024-05-26T22:20:37.530;539956256070361139;548123;624228;570503;172454;
2024-05-26T22:20:37.548;539956256088520874;548231;624325;570631;172384;
2024-05-26T22:20:37.566;539956256106680609;548445;624460;570777;172463;
2024-05-26T22:20:37.584;539956256124840344;548547;624634;570953;172383;
2024-05-26T22:20:37.603;539956256143000079;548674;624819;571091;172452;
2024-05-26T22:20:37.621;539956256161159814;548890;624893;571212;172400;
2024-05-26T22:20:37.639;539956256179319549;549025;625113;571390;172372;
2024-05-26T22:20:37.657;539956256197479284;549239;625232;571563;172440;
2024-05-26T22:20:37.675;539956256215639019;549335;625458;571700;172438;
2024-05-26T22:20:37.693;539956256233798754;549542;625613;571904;172350;
2024-05-26T22:20:37.712;539956256251958489;549677;625812;572060;172371;
2024-05-26T22:20:37.730;539956256270118224;549892;626016;572289;172380;
2024-05-26T22:20:37.748;539956256288277959;550065;626180;572413;172365;
2024-05-26T22:20:37.766;539956256306437694;550212;626327;572580;172384;
2024-05-26T22:20:37.784;539956256324597429;550390;626563;572719;172409;
2024-05-26T22:20:37.802;539956256342757164;550541;626696;572870;172462;
2024-05-26T22:20:37.820;539956256360916899;550489;626679;572929;172423;
2024-05-26T22:20:37.839;539956256379076634;550400;626494;572874;172406;
2024-05-26T22:20:37.857;539956256397236369;550029;625888;572456;172376;
2024-05-26T22:20:37.875;539956256415396104;549503;625172;571967;172396;
2024-05-26T22:20:37.893;539956256433555839;548989;624381;571531;172429;
2024-05-26T22:20:37.911;539956256451715574;548508;623646;571066;172451;
2024-05-26T22:20:37.929;539956256469875309;548043;622927;570673;172389;
2024-05-26T22:20:37.948;539956256488035044;547796;622567;570368;172430;
2024-05-26T22:20:37.966;539956256506194779;547644;622279;570231;172442;
2024-05-26T22:20:37.984;539956256524354514;547591;622169;570243;172447;
2024-05-26T22:20:38.002;539956256542514249;547606;622074;570243;172458;
2024-05-26T22:20:38.020;539956256560673984;547741;622118;570356;172480;
2024-05-26T22:20:38.038;539956256578832994;547870;622295;570465;172394;
2024-05-26T22:20:38.057;539956256596991966;548018;622580;570699;172437;
2024-05-26T22:20:38.075;539956256615150938;548213;622715;570818;172454;
2024-05-26T22:20:38.093;539956256633309910;548409;622925;570985;172425;
2024-05-26T22:20:38.111;539956256651468882;548567;623151;571174;172417;
2024-05-26T22:20:38.129;539956256669627854;548651;623289;571262;172453;
2024-05-26T22:20:38.147;539956256687786826;548792;623389;571460;172411;
2024-05-26T22:20:38.166;539956256705945798;548841;623483;571493;172481;
2024-05-26T22:20:38.184;539956256724104770;548895;623491;571585;172445;
2024-05-26T22:20:38.202;539956256742263742;548931;623494;571629;172503;
2024-05-26T22:20:38.220;539956256760422714;548940;623499;571528;172356;
2024-05-26T22:20:38.238;539956256778581686;549030;623545;571611;172355;
2024-05-26T22:20:38.256;539956256796740658;549016;623570;571614;172345;
2024-05-26T22:20:38.274;539956256814899630;549165;623710;571789;172404;
2024-05-26T22:20:38.293;539956256833058602;549210;623711;571843;172404;
2024-05-26T22:20:38.311;539956256851217574;549339;623799;571936;172414;
2024-05-26T22:20:38.329;539956256869376546;549431;623893;572054;172423;
2024-05-26T22:20:38.347;539956256887535518;549511;624026;572131;172395;
2024-05-26T22:20:38.365;539956256905694490;549656;624155;572222;172411;
2024-05-26T22:20:38.383;539956256923853462;549759;624260;572301;172412;
2024-05-26T22:20:38.402;539956256942012434;549885;624368;572396;172368;
2024-05-26T22:20:38.420;539956256960171406;550061;624661;572642;172465;
2024-05-26T22:20:38.438;539956256978330378;550181;624785;572742;172397;
2024-05-26T22:20:38.456;539956256996489350;550380;624923;572861;172394;
2024-05-26T22:20:38.474;539956257014648322;550507;625104;573067;172402;
2024-05-26T22:20:38.492;539956257032807294;550627;625338;573147;172391;
2024-05-26T22:20:38.511;539956257050966266;550743;625507;573339;172408;
2024-05-26T22:20:38.529;539956257069125238;550899;625657;573426;172429;
2024-05-26T22:20:38.547;539956257087284210;551062;625841;573551;172414;
2024-05-26T22:20:38.565;539956257105443182;551199;626065;573726;172454;
2024-05-26T22:20:38.583;539956257123602154;551263;626199;573811;172394;
2024-05-26T22:20:38.601;539956257141761126;551386;626374;573912;172399;
2024-05-26T22:20:38.619;539956257159920098;551528;626521;574041;172407;
2024-05-26T22:20:38.638;539956257178079070;551694;626689;574187;172360;
2024-05-26T22:20:38.656;539956257196238042;551791;626898;574386;172343;
2024-05-26T22:20:38.674;539956257214397014;551808;626957;574363;172402;
2024-05-26T22:20:38.692;539956257232555986;551596;626646;574213;172427;
2024-05-26T22:20:38.710;539956257250714958;551221;626091;573871;172391;
2024-05-26T22:20:38.728;539956257268873930;550740;625340;573289;172403;
2024-05-26T22:20:38.747;539956257287032902;550209;624612;572773;172480;
2024-05-26T22:20:38.765;539956257305191870;549603;623850;572150;172357;
2024-05-26T22:20:38.783;539956257323350824;549145;623213;571790;172373;
2024-05-26T22:20:38.801;539956257341509778;548827;622807;571463;172375;
2024-05-26T22:20:38.819;539956257359668732;548612;622458;571293;172439;
2024-05-26T22:20:38.837;539956257377827686;548566;622326;571213;172396;
2024-05-26T22:20:38.856;539956257395986640;548597;622355;571216;172425;
2024-05-26T22:20:38.874;539956257414145594;548640;622453;571259;172411;
2024-05-26T22:20:38.892;539956257432304548;548744;622598;571430;172396;
2024-05-26T22:20:38.910;539956257450463502;549016;622836;571573;172447;
2024-05-26T22:20:38.928;539956257468622456;549060;623014;571782;172392;
2024-05-26T22:20:38.946;539956257486781410;549320;623198;571921;172420;
2024-05-26T22:20:38.965;539956257504940364;549384;623376;571991;172417;
2024-05-26T22:20:38.983;539956257523099318;549526;623522;572135;172418;
2024-05-26T22:20:39.001;539956257541258272;549544;623662;572154;172458;
2024-05-26T22:20:39.019;539956257559417226;549600;623747;572233;172418;
2024-05-26T22:20:39.037;539956257577576180;549605;623736;572225;172426;
2024-05-26T22:20:39.055;539956257595735134;549648;623744;572199;172409;
2024-05-26T22:20:39.073;539956257613894088;549727;623806;572277;172473;
2024-05-26T22:20:39.092;539956257632053042;549692;623885;572232;172452;
2024-05-26T22:20:39.110;539956257650211996;549695;623980;572272;172450;
2024-05-26T22:20:39.128;539956257668370950;549724;623971;572329;172411;
2024-05-26T22:20:39.146;539956257686529904;549819;624055;572374;172450;
2024-05-26T22:20:39.164;539956257704688858;549852;624114;572368;172420;
2024-05-26T22:20:39.182;539956257722847812;549946;624266;572485;172412;
2024-05-26T22:20:39.201;539956257741006766;550045;624411;572575;172412;
2024-05-26T22:20:39.219;539956257759165720;550123;624557;572609;172370;
2024-05-26T22:20:39.237;539956257777324674;550188;624636;572688;172402;
2024-05-26T22:20:39.255;539956257795483628;550208;624739;572754;172380;
2024-05-26T22:20:39.273;539956257813642582;550431;624881;572920;172376;
2024-05-26T22:20:39.291;539956257831801536;550586;625005;573049;172450;
2024-05-26T22:20:39.310;539956257849960490;550692;625228;573171;172473;
2024-05-26T22:20:39.328;539956257868119444;550786;625391;573256;172409;
2024-05-26T22:20:39.346;539956257886278398;550963;625670;573353;172429;
2024-05-26T22:20:39.364;539956257904437352;551097;625819;573510;172446;
2024-05-26T22:20:39.382;539956257922596306;551256;626017;573622;172403;
2024-05-26T22:20:39.400;539956257940755260;551332;626219;573779;172426;
2024-05-26T22:20:39.418;539956257958914214;551502;626386;573962;172430;
2024-05-26T22:20:39.437;539956257977073168;551592;626522;574036;172403;
2024-05-26T22:20:39.455;539956257995232122;551780;626732;574192;172379;
2024-05-26T22:20:39.473;539956258013391076;551928;626887;574296;172416;
2024-05-26T22:20:39.491;539956258031550030;551958;627057;574289;172411;
2024-05-26T22:20:39.509;539956258049709094;552049;627141;574403;172419;
2024-05-26T22:20:39.527;539956258067868128;551881;626987;574259;172410;
2024-05-26T22:20:39.546;539956258086027162;551567;626557;573942;172477;
2024-05-26T22:20:39.564;539956258104186196;551016;625943;573492;172418;
2024-05-26T22:20:39.582;539956258122345230;550474;625084;572930;172463;
2024-05-26T22:20:39.600;539956258140504264;549818;624395;572277;172414;
2024-05-26T22:20:39.618;539956258158663298;549310;623782;571725;172390;
2024-05-26T22:20:39.636;539956258176822332;548861;623231;571330;172443;
2024-05-26T22:20:39.655;539956258194981366;548587;622852;571036;172408;
2024-05-26T22:20:39.673;539956258213140400;548419;622641;570819;172430;
2024-05-26T22:20:39.691;539956258231299434;548349;622545;570715;172405;
2024-05-26T22:20:39.709;539956258249458468;548373;622613;570712;172437;
2024-05-26T22:20:39.727;539956258267617502;548429;622733;570745;172380;
2024-05-26T22:20:39.745;539956258285776536;548591;622881;570914;172452;
2024-05-26T22:20:39.763;539956258303935570;548655;623015;570940;172392;
2024-05-26T22:20:39.782;539956258322094604;548793;623219;571147;172407;
2024-05-26T22:20:39.800;539956258340253638;548855;623364;571208;172408;
2024-05-26T22:20:39.818;539956258358412672;548878;623453;571198;172405;
2024-05-26T22:20:39.836;539956258376571706;548869;623557;571121;172382;
2024-05-26T22:20:39.854;539956258394730740;548924;623623;571220;172431;
2024-05-26T22:20:39.872;539956258412889774;548869;623608;571184;172399;
2024-05-26T22:20:39.891;539956258431048808;548769;623560;571091;172378;
2024-05-26T22:20:39.909;539956258449207842;548817;623563;571084;172460;
2024-05-26T22:20:39.927;539956258467366876;548807;623663;571005;172461;
2024-05-26T22:20:39.945;539956258485525910;548742;623608;570969;172457;
2024-05-26T22:20:39.963;539956258503684944;548810;623672;570983;172423;
2024-05-26T22:20:39.981;539956258521843978;548879;623694;571032;172399;
2024-05-26T22:20:40.000;539956258540003012;548932;623764;571094;172414;
2024-05-26T22:20:40.018;539956258558162046;548940;623902;571107;172451;
2024-05-26T22:20:40.036;539956258576321080;548999;624017;571127;172429;
2024-05-26T22:20:40.054;539956258594480114;549061;624070;571243;172372;
2024-05-26T22:20:40.072;539956258612639148;549250;624181;571359;172341;
2024-05-26T22:20:40.090;539956258630798182;549313;624372;571459;172369;
2024-05-26T22:20:40.109;539956258648957216;549408;624456;571517;172406;
2024-05-26T22:20:40.127;539956258667116250;549544;624586;571554;172399;
2024-05-26T22:20:40.145;539956258685275284;549642;624780;571656;172411;
2024-05-26T22:20:40.163;539956258703434318;549783;624940;571743;172463;
2024-05-26T22:20:40.181;539956258721593382;549870;625058;571859;172426;
2024-05-26T22:20:40.199;539956258739752416;549934;625202;571944;172377;
2024-05-26T22:20:40.217;539956258757911450;550056;625382;572072;172395;
2024-05-26T22:20:40.236;539956258776070484;550225;625550;572202;172437;
2024-05-26T22:20:40.254;539956258794229518;550345;625733;572366;172386;
2024-05-26T22:20:40.272;539956258812388552;550449;625861;572387;172438;
2024-05-26T22:20:40.290;539956258830547586;550357;625826;572380;172424;
2024-05-26T22:20:40.308;539956258848706620;550107;625532;572137;172435;
2024-05-26T22:20:40.326;539956258866865654;549603;624875;571582;172424;
2024-05-26T22:20:40.345;539956258885024688;548901;624021;570871;172393;
2024-05-26T22:20:40.363;539956258903183722;548033;622949;570056;172486;
2024-05-26T22:20:40.381;539956258921342756;547116;621890;569102;172395;
2024-05-26T22:20:40.399;539956258939501790;546295;621020;568307;172429;
2024-05-26T22:20:40.417;539956258957660824;545596;620192;567562;172418;
2024-05-26T22:20:40.435;539956258975819858;545083;619642;567005;172445;
2024-05-26T22:20:40.454;539956258993978892;544722;619349;566702;172431;
2024-05-26T22:20:40.472;539956259012137926;544460;619102;566471;172370;
2024-05-26T22:20:40.490;539956259030296960;544337;618982;566307;172353;
2024-05-26T22:20:40.508;539956259048455994;544373;619107;566279;172409;
2024-05-26T22:20:40.526;539956259066615028;544377;619129;566315;172435;
2024-05-26T22:20:40.544;539956259084774062;544466;619238;566375;172409;
2024-05-26T22:20:40.562;539956259102933096;544522;619393;566410;172413;
2024-05-26T22:20:40.581;539956259121092130;544459;619428;566356;172396;
2024-05-26T22:20:40.599;539956259139251164;544512;619562;566372;172427;
2024-05-26T22:20:40.617;539956259157410198;544464;619474;566341;172443;
2024-05-26T22:20:40.635;539956259175569232;544372;619431;566306;172405;
2024-05-26T22:20:40.653;539956259193728266;544348;619321;566143;172431;
2024-05-26T22:20:40.671;539956259211887300;544176;619227;566000;172375;
2024-05-26T22:20:40.690;539956259230046334;544021;619137;565886;172429;
2024-05-26T22:20:40.708;539956259248205368;543841;618947;565787;172429;
2024-05-26T22:20:40.726;539956259266364402;543886;618960;565684;172477;
2024-05-26T22:20:40.744;539956259284523436;543647;618725;565519;172383;
2024-05-26T22:20:40.762;539956259302682470;543587;618718;565426;172443;
2024-05-26T22:20:40.780;539956259320841504;543491;618635;565334;172433;
2024-05-26T22:20:40.799;539956259339000538;543481;618614;565325;172481;
2024-05-26T22:20:40.817;539956259357159572;543421;618549;565240;172443;
2024-05-26T22:20:40.835;539956259375318606;543357;618605;565186;172401;
2024-05-26T22:20:40.853;539956259393477172;543294;618628;565135;172386;
2024-05-26T22:20:40.871;539956259411635711;543296;618669;565163;172448;
2024-05-26T22:20:40.889;539956259429794250;543307;618672;565156;172424;
2024-05-26T22:20:40.908;539956259447952789;543244;618643;565101;172441;
2024-05-26T22:20:40.926;539956259466111328;543278;618733;565110;172463;
2024-05-26T22:20:40.944;539956259484269867;543257;618795;565096;172431;
2024-05-26T22:20:40.962;539956259502428406;543305;618834;565080;172431;
2024-05-26T22:20:40.980;539956259520586945;543335;619004;565124;172484;
2024-05-26T22:20:40.998;539956259538745484;543342;618978;565220;172423;
2024-05-26T22:20:41.016;539956259556904023;543366;619022;565200;172424;
2024-05-26T22:20:41.035;539956259575062562;543430;619121;565232;172457;
