Phone timestamp;sensor timestamp [ns];channel 0;channel 1;channel 2;ambient
2024-05-26T22:22:01.290;539956340182942988;513644;591814;534288;172446;
2024-05-26T22:22:01.308;539956340201098387;514832;592878;535285;172450;
2024-05-26T22:22:01.326;539956340219253786;515898;593877;536306;172443;
2024-05-26T22:22:01.344;539956340237409185;517128;594928;537387;172458;
2024-05-26T22:22:01.362;539956340255564584;518151;595903;538358;172409;
2024-05-26T22:22:01.380;539956340273719983;519321;596912;539261;172392;
2024-05-26T22:22:01.398;539956340291875382;520430;597977;540305;172396;
2024-05-26T22:22:01.417;539956340310030781;521584;599015;541301;172438;
2024-05-26T22:22:01.435;539956340328186180;522645;600109;542319;172426;
2024-05-26T22:22:01.453;539956340346341579;523615;601040;543141;172426;
2024-05-26T22:22:01.471;539956340364496978;524385;601896;543889;172424;
2024-05-26T22:22:01.489;539956340382652377;525017;602545;544538;172409;
2024-05-26T22:22:01.507;539956340400807776;525578;603109;545039;172403;
2024-05-26T22:22:01.526;539956340418963175;526251;603730;545654;172424;
2024-05-26T22:22:01.544;539956340437118574;527046;604542;546373;172511;
2024-05-26T22:22:01.562;539956340455273973;527754;605225;547059;172448;
2024-05-26T22:22:01.580;539956340473429372;528442;605950;547684;172421;
2024-05-26T22:22:01.598;539956340491584771;529011;606610;548294;172406;
2024-05-26T22:22:01.616;539956340509740170;529536;607147;548822;172408;
2024-05-26T22:22:01.634;539956340527895569;530012;607737;549299;172362;
2024-05-26T22:22:01.653;539956340546050968;530519;608352;549783;172402;
2024-05-26T22:22:01.671;539956340564206367;531020;608817;550282;172403;
2024-05-26T22:22:01.689;539956340582361766;531456;609318;550707;172436;
2024-05-26T22:22:01.707;539956340600517165;531722;609543;550968;172384;
2024-05-26T22:22:01.725;539956340618672564;531765;609481;550984;172478;
2024-05-26T22:22:01.743;539956340636827963;531559;609176;550699;172464;
2024-05-26T22:22:01.762;539956340654983362;531124;608656;550242;172420;
2024-05-26T22:22:01.780;539956340673138761;530706;608187;549818;172424;
2024-05-26T22:22:01.798;539956340691294160;530258;607634;549408;172417;
2024-05-26T22:22:01.816;539956340709449559;529882;607250;549045;172390;
2024-05-26T22:22:01.834;539956340727604958;529694;607037;548739;172391;
2024-05-26T22:22:01.852;539956340745760357;529600;606923;548603;172404;
2024-05-26T22:22:01.870;539956340763915756;529652;606979;548633;172455;
2024-05-26T22:22:01.889;539956340782071155;529780;607081;548700;172400;
2024-05-26T22:22:01.907;539956340800226554;529981;607303;548986;172426;
2024-05-26T22:22:01.925;539956340818381961;530248;607661;549216;172360;
2024-05-26T22:22:01.943;539956340836537360;530532;608064;549476;172424;
2024-05-26T22:22:01.961;539956340854692759;530921;608489;549876;172436;
2024-05-26T22:22:01.979;539956340872848158;531259;608924;550278;172461;
2024-05-26T22:22:01.998;539956340891003557;531526;609195;550619;172370;
2024-05-26T22:22:02.016;539956340909158956;531729;609528;550804;172370;
2024-05-26T22:22:02.034;539956340927314355;531993;609825;551091;172450;
2024-05-26T22:22:02.052;539956340945469754;532123;610052;551273;172365;
2024-05-26T22:22:02.070;539956340963625153;532254;610202;551416;172390;
2024-05-26T22:22:02.088;539956340981780552;532458;610423;551596;172361;
2024-05-26T22:22:02.106;539956340999935951;532684;610538;551751;172394;
2024-05-26T22:22:02.125;539956341018091350;532797;610737;551911;172430;
2024-05-26T22:22:02.143;539956341036246749;532959;610889;552063;172395;
2024-05-26T22:22:02.161;539956341054402148;533043;611012;552144;172445;
2024-05-26T22:22:02.179;539956341072557547;533216;611205;552293;172434;
2024-05-26T22:22:02.197;539956341090712946;533352;611336;552411;172422;
2024-05-26T22:22:02.215;539956341108868345;533540;611591;552582;172438;
2024-05-26T22:22:02.234;539956341127023744;533678;611736;552753;172417;
2024-05-26T22:22:02.252;539956341145179143;533868;612011;552961;172410;
2024-05-26T22:22:02.270;539956341163334542;534078;612225;553186;172435;
2024-05-26T22:22:02.288;539956341181489941;534230;612485;553428;172450;
2024-05-26T22:22:02.306;539956341199645340;534473;612687;553604;172468;
2024-05-26T22:22:02.324;539956341217800739;534644;612975;553742;172403;
2024-05-26T22:22:02.343;539956341235956138;534913;613198;553958;172425;
2024-05-26T22:22:02.361;539956341254111537;535091;613388;554162;172448;
2024-05-26T22:22:02.379;539956341272266936;535187;613468;554302;172442;
2024-05-26T22:22:02.397;539956341290422335;535000;613290;554144;172406;
2024-05-26T22:22:02.415;539956341308577734;534717;612860;553827;172385;
2024-05-26T22:22:02.433;539956341326733133;534318;612273;553362;172426;
2024-05-26T22:22:02.451;539956341344888532;533965;611733;552886;172417;
2024-05-26T22:22:02.470;539956341363043931;533501;611222;552442;172490;
2024-05-26T22:22:02.488;539956341381199330;533093;610786;551949;172421;
2024-05-26T22:22:02.506;539956341399354729;532841;610439;551705;172410;
2024-05-26T22:22:02.524;539956341417510128;532730;610261;551514;172420;
2024-05-26T22:22:02.542;539956341435665527;532682;610166;551446;172452;
2024-05-26T22:22:02.560;539956341453820926;532678;610170;551452;172392;
2024-05-26T22:22:02.579;539956341471976325;532797;610343;551575;172416;
2024-05-26T22:22:02.597;539956341490131724;532903;610532;551671;172392;
2024-05-26T22:22:02.615;539956341508289934;533047;610727;551781;172379;
2024-05-26T22:22:02.633;539956341526448144;533213;610931;551975;172355;
2024-05-26T22:22:02.651;539956341544606354;533482;611170;552190;172414;
2024-05-26T22:22:02.669;539956341562764564;533603;611420;552371;172425;
2024-05-26T22:22:02.687;539956341580922774;533761;611567;552490;172436;
2024-05-26T22:22:02.706;539956341599080984;533807;611619;552574;172390;
2024-05-26T22:22:02.724;539956341617239194;533879;611719;552651;172473;
2024-05-26T22:22:02.742;539956341635397404;533870;611712;552712;172393;
2024-05-26T22:22:02.760;539956341653555614;533937;611782;552747;172425;
2024-05-26T22:22:02.778;539956341671713824;533980;611795;552788;172435;
2024-05-26T22:22:02.796;539956341689872034;533996;611846;552891;172443;
2024-05-26T22:22:02.815;539956341708030244;534136;611998;552946;172447;
2024-05-26T22:22:02.833;539956341726188454;534215;612124;553006;172496;
2024-05-26T22:22:02.851;539956341744346664;534385;612178;553160;172470;
2024-05-26T22:22:02.869;539956341762504874;534544;612266;553304;172461;
2024-05-26T22:22:02.887;539956341780663084;534631;612442;553485;172409;
2024-05-26T22:22:02.905;539956341798821294;534827;612670;553645;172414;
2024-05-26T22:22:02.924;539956341816979504;535005;612797;553756;172395;
2024-05-26T22:22:02.942;539956341835137714;535322;613030;553939;172369;
2024-05-26T22:22:02.960;539956341853295924;535561;613288;554212;172395;
2024-05-26T22:22:02.978;539956341871454134;535814;613561;554473;172435;
2024-05-26T22:22:02.996;539956341889612344;535998;613837;554686;172437;
2024-05-26T22:22:03.014;539956341907770554;536217;614074;554942;172409;
2024-05-26T22:22:03.032;539956341925928764;536312;614120;554969;172436;
2024-05-26T22:22:03.051;539956341944086974;536207;613923;554868;172448;
2024-05-26T22:22:03.069;539956341962245184;535916;613518;554577;172406;
2024-05-26T22:22:03.087;539956341980403394;535661;613079;554162;172438;
2024-05-26T22:22:03.105;539956341998561604;535367;612638;553863;172404;
2024-05-26T22:22:03.123;539956342016719814;535142;612224;553602;172437;
2024-05-26T22:22:03.141;539956342034878024;534957;611978;553339;172435;
2024-05-26T22:22:03.160;539956342053036234;534830;611749;553215;172447;
2024-05-26T22:22:03.178;539956342071194444;534867;611737;553237;172412;
2024-05-26T22:22:03.196;539956342089352654;534963;611769;553234;172457;
2024-05-26T22:22:03.214;539956342107510864;535080;611906;553270;172380;
2024-05-26T22:22:03.232;539956342125669074;535247;612144;553521;172391;
2024-05-26T22:22:03.250;539956342143827284;535545;612454;553793;172405;
2024-05-26T22:22:03.269;539956342161985494;535867;612824;554070;172401;
2024-05-26T22:22:03.287;539956342180143704;536190;613113;554347;172429;
2024-05-26T22:22:03.305;539956342198301914;536323;613318;554590;172421;
2024-05-26T22:22:03.323;539956342216460124;536647;613606;554842;172371;
2024-05-26T22:22:03.341;539956342234618334;536822;613752;555053;172405;
2024-05-26T22:22:03.359;539956342252776544;537037;613906;555226;172440;
2024-05-26T22:22:03.377;539956342270932910;537200;614089;555369;172409;
2024-05-26T22:22:03.396;539956342289089241;537278;614188;555565;172402;
2024-05-26T22:22:03.414;539956342307245572;537457;614413;555687;172423;
2024-05-26T22:22:03.432;539956342325401903;537606;614500;555834;172425;
2024-05-26T22:22:03.450;539956342343558234;537717;614653;555934;172417;
2024-05-26T22:22:03.468;539956342361714565;537829;614774;556070;172438;
2024-05-26T22:22:03.486;539956342379870896;538022;614915;556228;172435;
2024-05-26T22:22:03.505;539956342398027227;538206;615087;556462;172497;
2024-05-26T22:22:03.523;539956342416183558;538343;615283;556629;172457;
2024-05-26T22:22:03.541;539956342434339889;538602;615498;556784;172433;
2024-05-26T22:22:03.559;539956342452496220;538708;615693;557032;172375;
2024-05-26T22:22:03.577;539956342470652551;538941;615878;557218;172388;
2024-05-26T22:22:03.595;539956342488808882;539196;616179;557478;172394;
2024-05-26T22:22:03.614;539956342506965213;539450;616442;557672;172397;
2024-05-26T22:22:03.632;539956342525121544;539683;616714;557905;172428;
2024-05-26T22:22:03.650;539956342543277875;539746;616777;557989;172411;
2024-05-26T22:22:03.668;539956342561434206;539801;616662;558016;172423;
2024-05-26T22:22:03.686;539956342579590537;539550;616325;557810;172422;
2024-05-26T22:22:03.704;539956342597746868;539336;615946;557493;172448;
2024-05-26T22:22:03.722;539956342615903199;538922;615399;557118;172414;
2024-05-26T22:22:03.741;539956342634059530;538640;614922;556774;172421;
2024-05-26T22:22:03.759;539956342652215861;538419;614551;556550;172410;
2024-05-26T22:22:03.777;539956342670372192;538124;614267;556295;172465;
2024-05-26T22:22:03.795;539956342688528523;538077;614113;556165;172473;
2024-05-26T22:22:03.813;539956342706684854;538034;613982;556074;172426;
2024-05-26T22:22:03.831;539956342724841185;538043;614011;556029;172437;
2024-05-26T22:22:03.850;539956342742997516;538106;614046;556163;172455;
2024-05-26T22:22:03.868;539956342761153847;538249;614185;556284;172428;
2024-05-26T22:22:03.886;539956342779310178;538499;614397;556511;172488;
2024-05-26T22:22:03.904;539956342797466509;538591;614630;556702;172458;
2024-05-26T22:22:03.922;539956342815622840;538695;614773;556834;172412;
2024-05-26T22:22:03.940;539956342833779171;538888;614994;557058;172439;
2024-05-26T22:22:03.958;539956342851935502;539010;615165;557196;172389;
2024-05-26T22:22:03.977;539956342870091833;539183;615362;557307;172469;
2024-05-26T22:22:03.995;539956342888248164;539201;615419;557381;172454;
2024-05-26T22:22:04.013;539956342906404495;539358;615521;557508;172452;
2024-05-26T22:22:04.031;539956342924560826;539463;615610;557658;172416;
2024-05-26T22:22:04.049;539956342942717157;539560;615706;557764;172428;
2024-05-26T22:22:04.067;539956342960873488;539662;615895;557854;172414;
2024-05-26T22:22:04.086;539956342979031266;539841;616025;557983;172390;
2024-05-26T22:22:04.104;539956342997189040;539999;616173;558146;172397;
2024-05-26T22:22:04.122;539956343015346814;540118;616331;558227;172394;
2024-05-26T22:22:04.140;539956343033504588;540316;616553;558456;172392;
2024-05-26T22:22:04.158;539956343051662362;540420;616695;558683;172417;
2024-05-26T22:22:04.176;539956343069820136;540625;616871;558776;172394;
2024-05-26T22:22:04.195;539956343087977910;540778;617066;558976;172360;
2024-05-26T22:22:04.213;539956343106135684;540953;617282;559162;172397;
2024-05-26T22:22:04.231;539956343124293458;541145;617533;559365;172445;
2024-05-26T22:22:04.249;539956343142451232;541301;617707;559588;172426;
2024-05-26T22:22:04.267;539956343160609006;541489;617867;559834;172406;
2024-05-26T22:22:04.285;539956343178766780;541670;618130;559944;172395;
2024-05-26T22:22:04.303;539956343196924554;541677;618237;560019;172402;
2024-05-26T22:22:04.322;539956343215082328;541607;618128;559969;172394;
2024-05-26T22:22:04.340;539956343233240102;541446;617705;559791;172465;
2024-05-26T22:22:04.358;539956343251397876;541108;617290;559467;172392;
2024-05-26T22:22:04.376;539956343269555650;540762;616780;559104;172414;
2024-05-26T22:22:04.394;539956343287713424;540420;616329;558781;172383;
2024-05-26T22:22:04.412;539956343305871198;540230;615976;558533;172387;
2024-05-26T22:22:04.431;539956343324028972;540060;615749;558388;172434;
2024-05-26T22:22:04.449;539956343342186746;540002;615577;558231;172436;
2024-05-26T22:22:04.467;539956343360344520;540019;615618;558235;172389;
2024-05-26T22:22:04.485;539956343378502294;540067;615681;558348;172368;
2024-05-26T22:22:04.503;539956343396660068;540276;615841;558477;172444;
2024-05-26T22:22:04.521;539956343414817842;540424;616094;558609;172406;
2024-05-26T22:22:04.540;539956343432975616;540562;616231;558849;172363;
2024-05-26T22:22:04.558;539956343451133390;540774;616533;559100;172392;
2024-05-26T22:22:04.576;539956343469291164;540947;616847;559311;172397;
2024-05-26T22:22:04.594;539956343487448938;541152;617094;559554;172405;
2024-05-26T22:22:04.612;539956343505606712;541333;617220;559690;172421;
2024-05-26T22:22:04.630;539956343523764486;541429;617368;559840;172429;
2024-05-26T22:22:04.648;539956343541922260;541607;617517;560012;172362;
2024-05-26T22:22:04.667;539956343560080034;541683;617629;560141;172378;
2024-05-26T22:22:04.685;539956343578237808;541858;617754;560231;172413;
2024-05-26T22:22:04.703;539956343596395582;542042;617967;560345;172413;
2024-05-26T22:22:04.721;539956343614553356;542131;618129;560498;172385;
2024-05-26T22:22:04.739;539956343632711130;542295;618303;560644;172403;
2024-05-26T22:22:04.757;539956343650868904;542356;618477;560738;172409;
2024-05-26T22:22:04.776;539956343669026678;542505;618627;560921;172371;
2024-05-26T22:22:04.794;539956343687184452;542645;618792;561094;172357;
2024-05-26T22:22:04.812;539956343705342226;542827;619052;561345;172417;
2024-05-26T22:22:04.830;539956343723500000;543008;619246;561462;172380;
2024-05-26T22:22:04.848;539956343741658210;543190;619494;561672;172452;
2024-05-26T22:22:04.866;539956343759816420;543400;619722;561928;172412;
2024-05-26T22:22:04.885;539956343777974630;543495;619918;562046;172436;
2024-05-26T22:22:04.903;539956343796132840;543778;620197;562337;172439;
2024-05-26T22:22:04.921;539956343814291050;543952;620355;562441;172424;
2024-05-26T22:22:04.939;539956343832449260;544146;620683;562671;172408;
2024-05-26T22:22:04.957;539956343850607470;544342;620854;562895;172412;
2024-05-26T22:22:04.975;539956343868765680;544513;621098;563116;172422;
2024-05-26T22:22:04.993;539956343886923890;544673;621334;563296;172426;
2024-05-26T22:22:05.012;539956343905082100;544826;621484;563441;172407;
2024-05-26T22:22:05.030;539956343923240310;544970;621723;563638;172426;
2024-05-26T22:22:05.048;539956343941398520;545204;621914;563817;172384;
2024-05-26T22:22:05.066;539956343959556730;545439;622141;564097;172425;
2024-05-26T22:22:05.084;539956343977714940;545518;622227;564169;172413;
2024-05-26T22:22:05.102;539956343995873150;545417;622121;564144;172389;
2024-05-26T22:22:05.121;539956344014031360;545250;621827;563986;172404;
2024-05-26T22:22:05.139;539956344032189570;544898;621322;563656;172464;
2024-05-26T22:22:05.157;539956344050347780;544645;620879;563355;172402;
2024-05-26T22:22:05.175;539956344068505990;544310;620429;563035;172414;
2024-05-26T22:22:05.193;539956344086664200;544073;620099;562909;172418;
2024-05-26T22:22:05.211;539956344104822410;543994;619876;562708;172419;
2024-05-26T22:22:05.230;539956344122980620;543825;619727;562626;172403;
2024-05-26T22:22:05.248;539956344141138830;543857;619663;562690;172427;
2024-05-26T22:22:05.266;539956344159297040;543929;619718;562706;172439;
2024-05-26T22:22:05.284;539956344177455250;544069;619912;562905;172417;
2024-05-26T22:22:05.302;539956344195613460;544154;620078;563014;172402;
2024-05-26T22:22:05.320;539956344213771670;544335;620288;563213;172395;
2024-05-26T22:22:05.338;539956344231929880;544543;620466;563370;172450;
2024-05-26T22:22:05.357;539956344250088090;544683;620745;563566;172407;
2024-05-26T22:22:05.375;539956344268246300;544831;620962;563719;172438;
2024-05-26T22:22:05.393;539956344286404510;544948;621116;563875;172482;
2024-05-26T22:22:05.411;539956344304562720;545102;621293;564015;172410;
2024-05-26T22:22:05.429;539956344322720930;545181;621406;564120;172456;
2024-05-26T22:22:05.447;539956344340879140;545264;621487;564145;172420;
2024-05-26T22:22:05.466;539956344359037350;545270;621565;564227;172385;
2024-05-26T22:22:05.484;539956344377195560;545375;621667;564325;172400;
2024-05-26T22:22:05.502;539956344395353770;545373;621842;564461;172361;
2024-05-26T22:22:05.520;539956344413511980;545474;621935;564587;172410;
2024-05-26T22:22:05.538;539956344431670190;545596;622045;564650;172414;
2024-05-26T22:22:05.556;539956344449828400;545719;622128;564774;172424;
2024-05-26T22:22:05.575;539956344467986610;545875;622375;564948;172435;
2024-05-26T22:22:05.593;539956344486144820;545992;622446;565026;172457;
2024-05-26T22:22:05.611;539956344504303030;546047;622607;565129;172377;
2024-05-26T22:22:05.629;539956344522461240;546210;622819;565280;172375;
2024-05-26T22:22:05.647;539956344540619450;546252;622934;565425;172328;
2024-05-26T22:22:05.665;539956344558777660;546409;623139;565601;172343;
2024-05-26T22:22:05.683;539956344576935870;546701;623403;565835;172441;
2024-05-26T22:22:05.702;539956344595094080;546750;623588;566018;172356;
2024-05-26T22:22:05.720;539956344613252290;546926;623799;566215;172365;
2024-05-26T22:22:05.738;539956344631410500;547131;624035;566350;172414;
2024-05-26T22:22:05.756;539956344649568710;547275;624174;566554;172414;
2024-05-26T22:22:05.774;539956344667726920;547510;624444;566759;172405;
2024-05-26T22:22:05.792;539956344685885130;547712;624690;566894;172390;
2024-05-26T22:22:05.811;539956344704043340;547789;624935;567025;172386;
2024-05-26T22:22:05.829;539956344722201550;548051;625191;567260;172437;
2024-05-26T22:22:05.847;539956344740359760;548222;625376;567456;172392;
2024-05-26T22:22:05.865;539956344758517970;548384;625632;567671;172411;
2024-05-26T22:22:05.883;539956344776676180;548547;625797;567801;172379;
2024-05-26T22:22:05.901;539956344794834390;548722;625948;568006;172441;
2024-05-26T22:22:05.920;539956344812992600;548880;626188;568201;172410;
2024-05-26T22:22:05.938;539956344831150810;549045;626428;568324;172434;
2024-05-26T22:22:05.956;539956344849309020;549160;626530;568477;172429;
2024-05-26T22:22:05.974;539956344867467230;549301;626768;568684;172462;
2024-05-26T22:22:05.992;539956344885625440;549525;626971;568874;172430;
2024-05-26T22:22:06.010;539956344903783650;549497;627022;568963;172475;
2024-05-26T22:22:06.028;539956344921941860;549387;626862;568928;172454;
2024-05-26T22:22:06.047;539956344940100070;549128;626509;568665;172407;
2024-05-26T22:22:06.065;539956344958258280;548783;626012;568239;172392;
2024-05-26T22:22:06.083;539956344976416490;548348;625385;567914;172409;
2024-05-26T22:22:06.101;539956344994574700;547972;624863;567503;172390;
2024-05-26T22:22:06.119;539956345012732910;547669;624455;567216;172475;
2024-05-26T22:22:06.137;539956345030891120;547384;624149;567026;172430;
2024-05-26T22:22:06.156;539956345049049330;547189;623977;566874;172397;
2024-05-26T22:22:06.174;539956345067207540;547170;623794;566805;172417;
2024-05-26T22:22:06.192;539956345085365750;547206;623901;566923;172370;
2024-05-26T22:22:06.210;539956345103523960;547286;624016;567038;172433;
2024-05-26T22:22:06.228;539956345121682170;547374;624141;567113;172337;
2024-05-26T22:22:06.246;539956345139840380;547524;624336;567249;172425;
2024-05-26T22:22:06.265;539956345157998590;547635;624433;567419;172407;
2024-05-26T22:22:06.283;539956345176156800;547761;624627;567570;172395;
2024-05-26T22:22:06.301;539956345194315010;547888;624841;567665;172387;
2024-05-26T22:22:06.319;539956345212473220;547952;625013;567832;172442;
2024-05-26T22:22:06.337;539956345230631430;548011;625001;567896;172378;
2024-05-26T22:22:06.355;539956345248789640;548007;625076;567896;172362;
2024-05-26T22:22:06.374;539956345266947850;548075;625177;568019;172411;
2024-05-26T22:22:06.392;539956345285106060;548141;625180;568040;172436;
2024-05-26T22:22:06.410;539956345303264270;548178;625246;568107;172417;
2024-05-26T22:22:06.428;539956345321422480;548203;625262;568142;172454;
2024-05-26T22:22:06.446;539956345339580690;548173;625369;568181;172401;
2024-05-26T22:22:06.464;539956345357738900;548296;625394;568268;172401;
2024-05-26T22:22:06.482;539956345375897110;548406;625530;568392;172453;
2024-05-26T22:22:06.501;539956345394055320;548382;625572;568394;172440;
2024-05-26T22:22:06.519;539956345412213530;548449;625673;568536;172433;
2024-05-26T22:22:06.537;539956345430371740;548588;625720;568648;172424;
2024-05-26T22:22:06.555;539956345448529950;548686;625883;568803;172423;
2024-05-26T22:22:06.573;539956345466688160;548804;625958;568871;172389;
2024-05-26T22:22:06.591;539956345484846370;548854;626120;568964;172426;
2024-05-26T22:22:06.610;539956345503004580;548993;626311;569123;172434;
2024-05-26T22:22:06.628;539956345521162790;549081;626462;569247;172455;
2024-05-26T22:22:06.646;539956345539321000;549241;626622;569336;172422;
2024-05-26T22:22:06.664;539956345557479210;549288;626707;569475;172420;
2024-05-26T22:22:06.682;539956345575637420;549399;626851;569600;172400;
2024-05-26T22:22:06.700;539956345593795630;549487;627008;569759;172358;
2024-05-26T22:22:06.719;539956345611953840;549629;627118;569858;172400;
2024-05-26T22:22:06.737;539956345630112050;549685;627208;569891;172390;
2024-05-26T22:22:06.755;539956345648270260;549789;627341;570067;172426;
2024-05-26T22:22:06.773;539956345666428470;549867;627424;570126;172461;
2024-05-26T22:22:06.791;539956345684586680;549898;627524;570170;172417;
2024-05-26T22:22:06.809;539956345702744890;549977;627664;570279;172426;
2024-05-26T22:22:06.827;539956345720903100;549986;627721;570322;172389;
2024-05-26T22:22:06.846;539956345739061310;550010;627820;570438;172375;
2024-05-26T22:22:06.864;539956345757219520;550043;627868;570440;172399;
2024-05-26T22:22:06.882;539956345775377730;550066;627934;570464;172450;
2024-05-26T22:22:06.900;539956345793535940;549775;627621;570260;172440;
2024-05-26T22:22:06.918;539956345811694150;549459;627126;569989;172425;
2024-05-26T22:22:06.936;539956345829852360;548928;626490;569469;172437;
2024-05-26T22:22:06.955;539956345848010570;548352;625710;568912;172454;
2024-05-26T22:22:06.973;539956345866168780;547783;625022;568339;172423;
2024-05-26T22:22:06.991;539956345884326990;547270;624444;567855;172435;
2024-05-26T22:22:07.009;539956345902485200;546833;623963;567455;172411;
2024-05-26T22:22:07.027;539956345920643410;546499;623541;567161;172378;
2024-05-26T22:22:07.045;539956345938801620;546235;623253;566913;172405;
2024-05-26T22:22:07.064;539956345956959830;546145;623103;566810;172409;
2024-05-26T22:22:07.082;539956345975118040;546068;623114;566762;172368;
2024-05-26T22:22:07.100;539956345993276250;546087;623184;566836;172389;
2024-05-26T22:22:07.118;539956346011434460;546206;623357;566925;172394;
2024-05-26T22:22:07.136;539956346029592670;546294;623366;566965;172439;
2024-05-26T22:22:07.154;539956346047750880;546359;623506;567055;172408;
2024-05-26T22:22:07.172;539956346065909090;546479;623659;567219;172454;
2024-05-26T22:22:07.191;539956346084067300;546512;623761;567267;172446;
2024-05-26T22:22:07.209;539956346102225510;546524;623776;567255;172420;
2024-05-26T22:22:07.227;539956346120383720;546472;623706;567226;172397;
2024-05-26T22:22:07.245;539956346138541930;546473;623711;567215;172429;
2024-05-26T22:22:07.263;539956346156700140;546366;623733;567189;172441;
2024-05-26T22:22:07.281;539956346174858350;546311;623680;567151;172410;
2024-05-26T22:22:07.300;539956346193016560;546317;623702;567166;172418;
2024-05-26T22:22:07.318;539956346211174770;546248;623655;567120;172427;
2024-05-26T22:22:07.336;539956346229332980;546222;623664;567131;172430;
2024-05-26T22:22:07.354;539956346247491190;546205;623649;567097;172417;
2024-05-26T22:22:07.372;539956346265649400;546178;623687;567067;172384;
2024-05-26T22:22:07.390;539956346283807610;546301;623781;567181;172396;
2024-05-26T22:22:07.409;539956346301965820;546229;623746;567186;172409;
2024-05-26T22:22:07.427;539956346320124030;546281;623812;567208;172446;
2024-05-26T22:22:07.445;539956346338282240;546341;623869;567294;172412;
2024-05-26T22:22:07.463;539956346356440450;546415;623912;567323;172437;
2024-05-26T22:22:07.481;539956346374598660;546410;624054;567410;172393;
2024-05-26T22:22:07.499;539956346392756870;546583;624142;567510;172366;
2024-05-26T22:22:07.517;539956346410915080;546643;624305;567619;172416;
2024-05-26T22:22:07.536;539956346429073290;546767;624330;567682;172412;
2024-05-26T22:22:07.554;539956346447231500;546839;624462;567723;172419;
2024-05-26T22:22:07.572;539956346465389710;546918;624632;567823;172425;
2024-05-26T22:22:07.590;539956346483547920;546998;624686;567894;172436;
2024-05-26T22:22:07.608;539956346501706130;547075;624804;568022;172363;
2024-05-26T22:22:07.626;539956346519864340;547134;624984;568115;172424;
2024-05-26T22:22:07.645;539956346538022550;547196;625121;568219;172400;
2024-05-26T22:22:07.663;539956346556180760;547292;625154;568273;172403;
2024-05-26T22:22:07.681;539956346574338970;547336;625242;568310;172402;
2024-05-26T22:22:07.699;539956346592497180;547431;625337;568359;172400;
2024-05-26T22:22:07.717;539956346610655390;547506;625464;568461;172437;
2024-05-26T22:22:07.735;539956346628813600;547468;625498;568548;172406;
2024-05-26T22:22:07.754;539956346646971810;547606;625625;568636;172435;
2024-05-26T22:22:07.772;539956346665130020;547675;625701;568662;172440;
2024-05-26T22:22:07.790;539956346683289796;547628;625756;568684;172389;
2024-05-26T22:22:07.808;539956346701449571;547530;625636;568591;172411;
2024-05-26T22:22:07.826;539956346719609346;547239;625221;568370;172427;
2024-05-26T22:22:07.844;539956346737769121;546671;624521;567800;172431;
2024-05-26T22:22:07.862;539956346755928896;545871;623587;567010;172418;
2024-05-26T22:22:07.881;539956346774088671;545101;622664;566213;172401;
2024-05-26T22:22:07.899;539956346792248446;544268;621704;565447;172441;
2024-05-26T22:22:07.917;539956346810408221;543539;620871;564723;172435;
2024-05-26T22:22:07.935;539956346828567996;542931;620104;564101;172388;
2024-05-26T22:22:07.953;539956346846727771;542468;619581;563640;172396;
2024-05-26T22:22:07.971;539956346864887546;542152;619207;563305;172394;
2024-05-26T22:22:07.990;539956346883047321;541885;618887;563028;172358;
2024-05-26T22:22:08.008;539956346901207096;541874;618842;562934;172447;
2024-05-26T22:22:08.026;539956346919366871;541793;618841;562820;172434;
2024-05-26T22:22:08.044;539956346937526646;541893;618912;562978;172396;
2024-05-26T22:22:08.062;539956346955686421;541898;618995;563014;172423;
2024-05-26T22:22:08.080;539956346973846196;542003;619121;563087;172408;
2024-05-26T22:22:08.099;539956346992005971;542045;619225;563122;172459;
2024-05-26T22:22:08.117;539956347010165746;542054;619272;563155;172337;
2024-05-26T22:22:08.135;539956347028325521;542009;619301;563127;172385;
2024-05-26T22:22:08.153;539956347046485296;542015;619190;563071;172409;
2024-05-26T22:22:08.171;539956347064645071;541946;619215;562967;172424;
2024-05-26T22:22:08.189;539956347082804846;541870;619123;562893;172372;
2024-05-26T22:22:08.208;539956347100964621;541861;619076;562829;172399;
2024-05-26T22:22:08.226;539956347119124396;541800;618989;562777;172430;
2024-05-26T22:22:08.244;539956347137284171;541778;618962;562672;172458;
2024-05-26T22:22:08.262;539956347155443946;541671;618888;562647;172424;
2024-05-26T22:22:08.280;539956347173603721;541605;618861;562618;172404;
2024-05-26T22:22:08.298;539956347191763496;541635;618800;562620;172450;
2024-05-26T22:22:08.316;539956347209923271;541705;618903;562596;172423;
2024-05-26T22:22:08.335;539956347228083046;541640;618808;562553;172400;
2024-05-26T22:22:08.353;539956347246242821;541653;618877;562633;172458;
2024-05-26T22:22:08.371;539956347264402596;541669;618896;562666;172446;
2024-05-26T22:22:08.389;539956347282562371;541706;618959;562741;172456;
2024-05-26T22:22:08.407;539956347300722146;541843;618999;562697;172451;
2024-05-26T22:22:08.425;539956347318881921;541854;619138;562780;172452;
2024-05-26T22:22:08.444;539956347337041696;541953;619239;562842;172442;
2024-05-26T22:22:08.462;539956347355201471;542077;619442;563011;172434;
2024-05-26T22:22:08.480;539956347373361246;542095;619454;563057;172436;
2024-05-26T22:22:08.498;539956347391519456;542241;619581;563184;172387;
2024-05-26T22:22:08.516;539956347409677666;542318;619727;563239;172376;
2024-05-26T22:22:08.534;539956347427835876;542412;619857;563386;172411;
2024-05-26T22:22:08.553;539956347445994086;542591;619998;563446;172413;
2024-05-26T22:22:08.571;539956347464152296;542686;620136;563528;172448;
2024-05-26T22:22:08.589;539956347482310506;542769;620265;563563;172433;
2024-05-26T22:22:08.607;539956347500468716;542897;620368;563733;172417;
2024-05-26T22:22:08.625;539956347518626926;542920;620532;563853;172439;
2024-05-26T22:22:08.643;539956347536785136;543059;620669;563947;172477;
2024-05-26T22:22:08.662;539956347554943346;543118;620750;564060;172448;
2024-05-26T22:22:08.680;539956347573101556;543249;620921;564177;172461;
2024-05-26T22:22:08.698;539956347591259766;543340;621033;564276;172442;
2024-05-26T22:22:08.716;539956347609417976;543393;621143;564259;172444;
2024-05-26T22:22:08.734;539956347627576186;543233;620908;564162;172524;
2024-05-26T22:22:08.752;539956347645734396;542853;620438;563769;172474;
2024-05-26T22:22:08.770;539956347663892606;542216;619663;563115;172434;
2024-05-26T22:22:08.789;539956347682050816;541475;618680;562386;172407;
2024-05-26T22:22:08.807;539956347700209026;540564;617628;561473;172470;
2024-05-26T22:22:08.825;539956347718367236;539726;616608;560566;172528;
2024-05-26T22:22:08.843;539956347736525446;538944;615671;559810;172487;
2024-05-26T22:22:08.861;539956347754683656;538326;614882;559126;172434;
2024-05-26T22:22:08.879;539956347772841866;537839;614303;558553;172413;
2024-05-26T22:22:08.898;539956347791000076;537487;613964;558233;172434;
2024-05-26T22:22:08.916;539956347809158286;537271;613682;557946;172472;
2024-05-26T22:22:08.934;539956347827316496;537102;613535;557784;172397;
2024-05-26T22:22:08.952;539956347845474706;537097;613560;557861;172421;
2024-05-26T22:22:08.970;539956347863632916;537195;613630;557882;172394;
2024-05-26T22:22:08.988;539956347881791126;537253;613725;558025;172373;
2024-05-26T22:22:09.007;539956347899949336;537293;613831;558071;172430;
2024-05-26T22:22:09.025;539956347918107546;537386;613979;558170;172369;
2024-05-26T22:22:09.043;539956347936265756;537444;614081;558238;172418;
2024-05-26T22:22:09.061;539956347954423966;537458;614055;558244;172391;
2024-05-26T22:22:09.079;539956347972582176;537407;613942;558049;172402;
2024-05-26T22:22:09.097;539956347990740386;537321;613879;558034;172425;
2024-05-26T22:22:09.115;539956348008898596;537248;613867;557940;172385;
2024-05-26T22:22:09.134;539956348027056806;537166;613705;557921;172371;
2024-05-26T22:22:09.152;539956348045215016;537040;613565;557804;172375;
2024-05-26T22:22:09.170;539956348063373226;536985;613531;557717;172431;
2024-05-26T22:22:09.188;539956348081531436;536933;613474;557620;172445;
2024-05-26T22:22:09.206;539956348099690500;536867;613472;557565;172416;
2024-05-26T22:22:09.224;539956348117849534;536815;613398;557545;172416;
2024-05-26T22:22:09.243;539956348136008568;536851;613403;557546;172475;
2024-05-26T22:22:09.261;539956348154167602;536830;613409;557495;172438;
2024-05-26T22:22:09.279;539956348172326636;536872;613424;557553;172445;
2024-05-26T22:22:09.297;539956348190485670;536818;613545;557535;172421;
2024-05-26T22:22:09.315;539956348208644704;536892;613557;557557;172399;
2024-05-26T22:22:09.333;539956348226803738;536910;613640;557608;172419;
2024-05-26T22:22:09.352;539956348244962772;536928;613673;557725;172453;
2024-05-26T22:22:09.370;539956348263121806;536976;613782;557736;172421;
2024-05-26T22:22:09.388;539956348281280840;537107;613797;557801;172410;
2024-05-26T22:22:09.406;539956348299439874;537145;613965;557877;172434;
2024-05-26T22:22:09.424;539956348317598908;537222;614026;557899;172384;
2024-05-26T22:22:09.442;539956348335757942;537312;614127;558016;172402;
2024-05-26T22:22:09.460;539956348353916976;537395;614262;558093;172452;
2024-05-26T22:22:09.479;539956348372076010;537455;614366;558167;172421;
2024-05-26T22:22:09.497;539956348390235044;537520;614478;558316;172418;
2024-05-26T22:22:09.515;539956348408394078;537585;614551;558325;172417;
2024-05-26T22:22:09.533;539956348426553112;537721;614619;558387;172430;
2024-05-26T22:22:09.551;539956348444712146;537719;614688;558448;172386;
2024-05-26T22:22:09.569;539956348462871180;537787;614818;558479;172392;
2024-05-26T22:22:09.588;539956348481030214;537682;614700;558389;172349;
2024-05-26T22:22:09.606;539956348499189248;537392;614399;558176;172373;
2024-05-26T22:22:09.624;539956348517348282;536848;613621;557538;172385;
2024-05-26T22:22:09.642;539956348535507316;535926;612490;556650;172363;
2024-05-26T22:22:09.660;539956348553666350;534981;611411;555752;172383;
2024-05-26T22:22:09.678;539956348571825384;533967;610187;554731;172431;
2024-05-26T22:22:09.697;539956348589984418;532969;609021;553717;172396;
2024-05-26T22:22:09.715;539956348608143452;532251;608051;552862;172425;
2024-05-26T22:22:09.733;539956348626302486;531569;607231;552183;172392;
2024-05-26T22:22:09.751;539956348644461520;531040;606613;551608;172454;
2024-05-26T22:22:09.769;539956348662620554;530789;606254;551308;172439;
2024-05-26T22:22:09.787;539956348680779588;530496;606008;551068;172369;
2024-05-26T22:22:09.805;539956348698938622;530409;605993;550991;172411;
2024-05-26T22:22:09.824;539956348717097656;530481;605951;550919;172428;
2024-05-26T22:22:09.842;539956348735256690;530556;606085;550988;172439;
2024-05-26T22:22:09.860;539956348753415724;530607;606206;551128;172402;
2024-05-26T22:22:09.878;539956348771574284;530715;606289;551182;172462;
2024-05-26T22:22:09.896;539956348789732806;530776;606375;551236;172406;
2024-05-26T22:22:09.914;539956348807891328;530789;606450;551245;172450;
2024-05-26T22:22:09.933;539956348826049850;530727;606390;551225;172458;
2024-05-26T22:22:09.951;539956348844208372;530639;606285;551094;172403;
2024-05-26T22:22:09.969;539956348862366894;530626;606225;551093;172450;
2024-05-26T22:22:09.987;539956348880525416;530487;606063;550916;172443;
2024-05-26T22:22:10.005;539956348898683938;530360;605957;550753;172454;
2024-05-26T22:22:10.023;539956348916842460;530286;605822;550695;172420;
2024-05-26T22:22:10.042;539956348935000982;530193;605712;550604;172413;
2024-05-26T22:22:10.060;539956348953159504;530139;605676;550517;172405;
2024-05-26T22:22:10.078;539956348971318026;529997;605622;550448;172357;
2024-05-26T22:22:10.096;539956348989476548;529974;605554;550369;172388;
2024-05-26T22:22:10.114;539956349007635070;529974;605544;550374;172423;
2024-05-26T22:22:10.132;539956349025793592;529999;605535;550362;172480;
2024-05-26T22:22:10.151;539956349043952114;530067;605505;550376;172446;
2024-05-26T22:22:10.169;539956349062110636;530020;605577;550380;172450;
2024-05-26T22:22:10.187;539956349080269158;530104;605652;550443;172434;
2024-05-26T22:22:10.205;539956349098427680;530098;605709;550434;172423;
2024-05-26T22:22:10.223;539956349116586202;530248;605835;550524;172433;
2024-05-26T22:22:10.241;539956349134744724;530273;605946;550577;172383;
2024-05-26T22:22:10.259;539956349152903246;530377;606075;550654;172437;
2024-05-26T22:22:10.278;539956349171061768;530431;606139;550705;172403;
2024-05-26T22:22:10.296;539956349189220290;530544;606215;550769;172422;
2024-05-26T22:22:10.314;539956349207378812;530594;606341;550808;172410;
2024-05-26T22:22:10.332;539956349225537334;530621;606428;550897;172418;
2024-05-26T22:22:10.350;539956349243695856;530801;606529;551019;172390;
2024-05-26T22:22:10.368;539956349261854378;530883;606734;551175;172404;
2024-05-26T22:22:10.387;539956349280012900;530970;606870;551213;172400;
2024-05-26T22:22:10.405;539956349298171422;531046;606858;551308;172362;
2024-05-26T22:22:10.423;539956349316329944;530841;606700;551128;172380;
2024-05-26T22:22:10.441;539956349334488466;530434;606153;550715;172408;
2024-05-26T22:22:10.459;539956349352646988;529742;605221;549927;172397;
2024-05-26T22:22:10.477;539956349370805510;528857;604075;548973;172417;
2024-05-26T22:22:10.496;539956349388964032;527801;602721;547907;172407;
2024-05-26T22:22:10.514;539956349407122554;526796;601508;546810;172372;
2024-05-26T22:22:10.532;539956349425281076;525805;600294;545846;172412;
2024-05-26T22:22:10.550;539956349443439598;525069;599419;545063;172440;
2024-05-26T22:22:10.568;539956349461598120;524498;598761;544476;172436;
2024-05-26T22:22:10.586;539956349479757267;524089;598214;544028;172396;
2024-05-26T22:22:10.604;539956349497916407;523940;597942;543781;172417;
2024-05-26T22:22:10.623;539956349516075547;523822;597791;543575;172402;
2024-05-26T22:22:10.641;539956349534234687;523770;597818;543590;172392;
2024-05-26T22:22:10.659;539956349552393827;523870;597967;543719;172380;
2024-05-26T22:22:10.677;539956349570552967;523994;598122;543851;172370;
2024-05-26T22:22:10.695;539956349588712107;524189;598324;544093;172444;
2024-05-26T22:22:10.713;539956349606871247;524321;598586;544118;172393;
2024-05-26T22:22:10.732;539956349625030387;524369;598604;544210;172392;
2024-05-26T22:22:10.750;539956349643189527;524502;598725;544248;172411;
2024-05-26T22:22:10.768;539956349661348667;524475;598799;544291;172393;
2024-05-26T22:22:10.786;539956349679507807;524490;598761;544247;172393;
2024-05-26T22:22:10.804;539956349697666947;524411;598676;544154;172409;
2024-05-26T22:22:10.822;539956349715826087;524333;598590;544121;172384;
2024-05-26T22:22:10.841;539956349733985227;524321;598544;544043;172394;
2024-05-26T22:22:10.859;539956349752144367;524306;598549;544052;172426;
2024-05-26T22:22:10.877;539956349770303507;524207;598451;543976;172431;
2024-05-26T22:22:10.895;539956349788462647;524268;598478;543971;172434;
2024-05-26T22:22:10.913;539956349806621787;524259;598484;543973;172443;
2024-05-26T22:22:10.931;539956349824780927;524311;598454;544010;172428;
2024-05-26T22:22:10.949;539956349842940067;524321;598553;544072;172358;
2024-05-26T22:22:10.968;539956349861099207;524352;598662;544090;172338;
2024-05-26T22:22:10.986;539956349879258347;524433;598710;544118;172388;
2024-05-26T22:22:11.004;539956349897417487;524588;598819;544217;172401;
2024-05-26T22:22:11.022;539956349915576627;524719;599006;544338;172426;
2024-05-26T22:22:11.040;539956349933735767;524789;599146;544492;172369;
2024-05-26T22:22:11.058;539956349951894907;524939;599291;544563;172406;
2024-05-26T22:22:11.077;539956349970054047;525067;599376;544730;172384;
2024-05-26T22:22:11.095;539956349988213187;525187;599536;544810;172338;
2024-05-26T22:22:11.113;539956350006372327;525414;599783;545039;172418;
2024-05-26T22:22:11.131;539956350024531467;525543;599922;545099;172351;
2024-05-26T22:22:11.149;539956350042690607;525708;600129;545325;172457;
2024-05-26T22:22:11.167;539956350060849747;525884;600290;545522;172413;
2024-05-26T22:22:11.186;539956350079008887;526083;600527;545705;172443;
2024-05-26T22:22:11.204;539956350097168027;526180;600687;545770;172424;
2024-05-26T22:22:11.222;539956350115327167;526341;600900;545894;172425;
2024-05-26T22:22:11.240;539956350133486307;526467;600967;546004;172379;
2024-05-26T22:22:11.258;539956350151645447;526426;600969;545961;172386;
2024-05-26T22:22:11.276;539956350169804587;526054;600442;545595;172421;
2024-05-26T22:22:11.295;539956350187963727;525378;599606;544922;172427;
2024-05-26T22:22:11.313;539956350206122867;524514;598524;544046;172446;
2024-05-26T22:22:11.331;539956350224282220;523618;597290;543042;172372;
2024-05-26T22:22:11.349;539956350242441543;522750;596273;542149;172410;
2024-05-26T22:22:11.367;539956350260600866;521841;595162;541214;172413;
2024-05-26T22:22:11.385;539956350278760189;521178;594376;540557;172426;
2024-05-26T22:22:11.403;539956350296919512;520714;593778;540025;172402;
2024-05-26T22:22:11.422;539956350315078835;520400;593297;539680;172361;
2024-05-26T22:22:11.440;539956350333238158;520254;593212;539504;172442;
2024-05-26T22:22:11.458;539956350351397481;520213;593166;539418;172409;
2024-05-26T22:22:11.476;539956350369556804;520361;593232;539579;172406;
2024-05-26T22:22:11.494;539956350387716127;520516;593551;539747;172487;
2024-05-26T22:22:11.512;539956350405875450;520702;593741;539905;172397;
2024-05-26T22:22:11.531;539956350424034773;520903;594001;540143;172357;
2024-05-26T22:22:11.549;539956350442194096;521044;594250;540291;172361;
2024-05-26T22:22:11.567;539956350460353419;521189;594464;540476;172397;
2024-05-26T22:22:11.585;539956350478512742;521387;594562;540606;172440;
2024-05-26T22:22:11.603;539956350496672065;521460;594623;540637;172386;
2024-05-26T22:22:11.621;539956350514831388;521499;594665;540717;172392;
2024-05-26T22:22:11.640;539956350532990711;521518;594670;540755;172433;
2024-05-26T22:22:11.658;539956350551150034;521569;594710;540779;172429;
2024-05-26T22:22:11.676;539956350569309357;521584;594721;540769;172382;
2024-05-26T22:22:11.694;539956350587468680;521573;594693;540785;172481;
2024-05-26T22:22:11.712;539956350605628003;521662;594731;540815;172411;
2024-05-26T22:22:11.730;539956350623787326;521726;594739;540830;172420;
2024-05-26T22:22:11.749;539956350641946649;521765;594828;540867;172461;
2024-05-26T22:22:11.767;539956350660105972;521848;594932;540951;172461;
2024-05-26T22:22:11.785;539956350678265295;521947;595062;541074;172410;
2024-05-26T22:22:11.803;539956350696424618;522018;595131;541146;172427;
2024-05-26T22:22:11.821;539956350714583941;522160;595295;541345;172425;
2024-05-26T22:22:11.839;539956350732743264;522252;595441;541415;172393;
2024-05-26T22:22:11.857;539956350750902587;522410;595612;541551;172356;
2024-05-26T22:22:11.876;539956350769061910;522576;595882;541721;172355;
2024-05-26T22:22:11.894;539956350787221233;522715;596024;541820;172385;
2024-05-26T22:22:11.912;539956350805380556;522934;596157;542003;172419;
2024-05-26T22:22:11.930;539956350823539879;523088;596423;542244;172380;
2024-05-26T22:22:11.948;539956350841699202;523273;596568;542373;172363;
2024-05-26T22:22:11.966;539956350859858525;523438;596803;542581;172394;
2024-05-26T22:22:11.985;539956350878017848;523603;597089;542805;172356;
2024-05-26T22:22:12.003;539956350896176058;523782;597278;542949;172399;
2024-05-26T22:22:12.021;539956350914334268;524008;597458;543134;172417;
2024-05-26T22:22:12.039;539956350932492478;524081;597590;543294;172401;
2024-05-26T22:22:12.057;539956350950650688;524232;597741;543446;172420;
2024-05-26T22:22:12.075;539956350968808898;524203;597676;543326;172406;
2024-05-26T22:22:12.094;539956350986967108;523814;597224;542982;172399;
2024-05-26T22:22:12.112;539956351005125318;523185;596424;542390;172386;
2024-05-26T22:22:12.130;539956351023283528;522431;595421;541626;172426;
2024-05-26T22:22:12.148;539956351041441738;521679;594450;540722;172377;
2024-05-26T22:22:12.166;539956351059599948;520899;593425;539919;172414;
2024-05-26T22:22:12.184;539956351077758158;520172;592597;539201;172358;
2024-05-26T22:22:12.202;539956351095916368;519662;591924;538582;172387;
2024-05-26T22:22:12.221;539956351114074578;519224;591490;538204;172402;
2024-05-26T22:22:12.239;539956351132232788;518986;591182;537949;172393;
2024-05-26T22:22:12.257;539956351150390998;518894;591116;537836;172424;
2024-05-26T22:22:12.275;539956351168549208;518913;591202;537852;172361;
2024-05-26T22:22:12.293;539956351186707418;518995;591301;538027;172354;
2024-05-26T22:22:12.311;539956351204865628;519231;591562;538138;172402;
2024-05-26T22:22:12.330;539956351223023838;519468;591751;538388;172383;
2024-05-26T22:22:12.348;539956351241182048;519631;592055;538570;172408;
2024-05-26T22:22:12.366;539956351259340258;519839;592284;538772;172421;
2024-05-26T22:22:12.384;539956351277498468;519952;592437;538908;172434;
2024-05-26T22:22:12.402;539956351295656678;520047;592583;539009;172378;
2024-05-26T22:22:12.420;539956351313814888;520127;592649;539070;172401;
2024-05-26T22:22:12.439;539956351331973098;520134;592680;539094;172419;
2024-05-26T22:22:12.457;539956351350131308;520082;592612;539157;172399;
2024-05-26T22:22:12.475;539956351368289518;520140;592671;539125;172372;
2024-05-26T22:22:12.493;539956351386447728;520168;592722;539186;172430;
2024-05-26T22:22:12.511;539956351404605938;520233;592753;539141;172421;
2024-05-26T22:22:12.529;539956351422764148;520220;592792;539189;172409;
2024-05-26T22:22:12.547;539956351440922358;520282;592877;539333;172412;
2024-05-26T22:22:12.566;539956351459080568;520384;592977;539363;172447;
2024-05-26T22:22:12.584;539956351477238778;520445;593116;539460;172393;
2024-05-26T22:22:12.602;539956351495396988;520561;593255;539511;172395;
2024-05-26T22:22:12.620;539956351513555198;520617;593348;539601;172377;
2024-05-26T22:22:12.638;539956351531714312;520858;593462;539769;172417;
2024-05-26T22:22:12.656;539956351549873393;520993;593680;539929;172421;
2024-05-26T22:22:12.675;539956351568032474;521122;593868;540136;172425;
2024-05-26T22:22:12.693;539956351586191555;521266;594104;540289;172434;
2024-05-26T22:22:12.711;539956351604350636;521520;594326;540448;172455;
2024-05-26T22:22:12.729;539956351622509717;521706;594519;540666;172436;
2024-05-26T22:22:12.747;539956351640668798;521811;594732;540892;172473;
2024-05-26T22:22:12.765;539956351658827879;522007;594993;541063;172401;
2024-05-26T22:22:12.784;539956351676986960;522144;595146;541228;172448;
2024-05-26T22:22:12.802;539956351695146041;522314;595397;541412;172420;
2024-05-26T22:22:12.820;539956351713305122;522468;595555;541543;172399;
2024-05-26T22:22:12.838;539956351731464203;522356;595439;541526;172413;
2024-05-26T22:22:12.856;539956351749623284;522008;594965;541142;172389;
2024-05-26T22:22:12.874;539956351767782365;521382;594207;540547;172411;
2024-05-26T22:22:12.892;539956351785941446;520632;593299;539731;172377;
2024-05-26T22:22:12.911;539956351804100527;519785;592288;538921;172365;
2024-05-26T22:22:12.929;539956351822259608;518999;591361;538129;172384;
2024-05-26T22:22:12.947;539956351840418689;518364;590508;537452;172352;
2024-05-26T22:22:12.965;539956351858577770;517864;589946;536924;172401;
2024-05-26T22:22:12.983;539956351876736851;517509;589482;536472;172405;
2024-05-26T22:22:13.001;539956351894895932;517200;589240;536254;172309;
2024-05-26T22:22:13.020;539956351913055013;517176;589165;536212;172354;
2024-05-26T22:22:13.038;539956351931214094;517274;589264;536257;172385;
2024-05-26T22:22:13.056;539956351949373175;517461;589485;536352;172395;
2024-05-26T22:22:13.074;539956351967532256;517653;589757;536532;172354;
2024-05-26T22:22:13.092;539956351985691337;517802;590065;536788;172366;
2024-05-26T22:22:13.110;539956352003850418;518051;590316;537019;172408;
2024-05-26T22:22:13.129;539956352022009499;518194;590513;537198;172368;
2024-05-26T22:22:13.147;539956352040168580;518367;590789;537321;172401;
2024-05-26T22:22:13.165;539956352058327661;518471;590844;537453;172377;
2024-05-26T22:22:13.183;539956352076486742;518565;590947;537531;172422;
2024-05-26T22:22:13.201;539956352094645823;518554;590944;537551;172435;
2024-05-26T22:22:13.219;539956352112804904;518576;591006;537586;172407;
2024-05-26T22:22:13.238;539956352130963985;518657;591050;537610;172414;
2024-05-26T22:22:13.256;539956352149123066;518729;591185;537661;172412;
2024-05-26T22:22:13.274;539956352167281276;518730;591179;537715;172446;
2024-05-26T22:22:13.292;539956352185439486;518798;591281;537769;172442;
2024-05-26T22:22:13.310;539956352203597696;518807;591375;537836;172464;
2024-05-26T22:22:13.328;539956352221755906;518939;591448;537865;172423;
2024-05-26T22:22:13.346;539956352239914116;519016;591646;538040;172447;
2024-05-26T22:22:13.365;539956352258072326;519149;591770;538169;172400;
2024-05-26T22:22:13.383;539956352276230536;519148;591884;538228;172396;
2024-05-26T22:22:13.401;539956352294388746;519417;592143;538401;172404;
2024-05-26T22:22:13.419;539956352312546956;519544;592287;538577;172372;
2024-05-26T22:22:13.437;539956352330705166;519695;592461;538718;172401;
2024-05-26T22:22:13.455;539956352348863376;519946;592661;538949;172480;
2024-05-26T22:22:13.474;539956352367021586;520031;592899;539096;172419;
2024-05-26T22:22:13.492;539956352385179796;520292;593218;539325;172459;
2024-05-26T22:22:13.510;539956352403338006;520416;593459;539467;172382;
2024-05-26T22:22:13.528;539956352421496216;520628;593633;539691;172438;
2024-05-26T22:22:13.546;539956352439654426;520804;593866;539881;172402;
2024-05-26T22:22:13.564;539956352457812636;521029;594108;540152;172455;
2024-05-26T22:22:13.583;539956352475970846;521171;594346;540319;172414;
2024-05-26T22:22:13.601;539956352494129056;521393;594570;540495;172451;
2024-05-26T22:22:13.619;539956352512287266;521379;594509;540455;172423;
2024-05-26T22:22:13.637;539956352530445476;521126;594153;540166;172391;
2024-05-26T22:22:13.655;539956352548603686;520638;593582;539687;172442;
2024-05-26T22:22:13.673;539956352566761896;520006;592799;539062;172477;
2024-05-26T22:22:13.691;539956352584920106;519175;591887;538240;172429;
2024-05-26T22:22:13.710;539956352603078316;518461;591025;537558;172442;
2024-05-26T22:22:13.728;539956352621236526;517841;590321;536840;172423;
2024-05-26T22:22:13.746;539956352639394736;517380;589722;536327;172378;
2024-05-26T22:22:13.764;539956352657552946;517062;589319;535971;172446;
2024-05-26T22:22:13.782;539956352675711156;516860;589075;535814;172437;
2024-05-26T22:22:13.800;539956352693869366;516800;589052;535720;172363;
2024-05-26T22:22:13.819;539956352712027576;516864;589092;535733;172362;
2024-05-26T22:22:13.837;539956352730185786;517033;589268;535848;172353;
2024-05-26T22:22:13.855;539956352748343996;517176;589532;536054;172345;
2024-05-26T22:22:13.873;539956352766502206;517401;589858;536312;172354;
2024-05-26T22:22:13.891;539956352784660416;517685;590113;536510;172352;
2024-05-26T22:22:13.909;539956352802818626;517941;590403;536737;172397;
2024-05-26T22:22:13.928;539956352820976836;518071;590699;536954;172444;
2024-05-26T22:22:13.946;539956352839135046;518258;590887;537102;172461;
2024-05-26T22:22:13.964;539956352857292631;518319;591011;537240;172413;
2024-05-26T22:22:13.982;539956352875450198;518480;591171;537367;172442;
2024-05-26T22:22:14.000;539956352893607765;518580;591301;537459;172445;
2024-05-26T22:22:14.018;539956352911765332;518583;591366;537466;172402;
2024-05-26T22:22:14.036;539956352929922899;518636;591401;537564;172392;
2024-05-26T22:22:14.055;539956352948080466;518734;591528;537610;172376;
2024-05-26T22:22:14.073;539956352966238033;518833;591670;537770;172366;
2024-05-26T22:22:14.091;539956352984395600;518910;591772;537909;172382;
2024-05-26T22:22:14.109;539956353002553167;519049;591904;538026;172389;
2024-05-26T22:22:14.127;539956353020710734;519188;592077;538110;172389;
2024-05-26T22:22:14.145;539956353038868301;519339;592241;538246;172418;
2024-05-26T22:22:14.164;539956353057025868;519511;592505;538417;172405;
2024-05-26T22:22:14.182;539956353075183435;519725;592758;538629;172428;
2024-05-26T22:22:14.200;539956353093341002;519897;593012;538830;172425;
2024-05-26T22:22:14.218;539956353111498569;520129;593241;539023;172411;
2024-05-26T22:22:14.236;539956353129656136;520328;593536;539258;172434;
2024-05-26T22:22:14.254;539956353147813703;520533;593816;539520;172386;
2024-05-26T22:22:14.273;539956353165971270;520798;594014;539744;172386;
2024-05-26T22:22:14.291;539956353184128837;521027;594408;539996;172395;
2024-05-26T22:22:14.309;539956353202286404;521263;594605;540238;172401;
2024-05-26T22:22:14.327;539956353220443971;521489;594908;540498;172407;
2024-05-26T22:22:14.345;539956353238601538;521739;595204;540706;172437;
2024-05-26T22:22:14.363;539956353256759105;521938;595492;540946;172393;
2024-05-26T22:22:14.381;539956353274916672;522224;595814;541233;172423;
2024-05-26T22:22:14.400;539956353293074239;522467;596019;541433;172414;
2024-05-26T22:22:14.418;539956353311231806;522662;596296;541608;172380;
2024-05-26T22:22:14.436;539956353329389373;522844;596554;541797;172374;
2024-05-26T22:22:14.454;539956353347546940;522958;596693;541925;172379;
2024-05-26T22:22:14.472;539956353365704507;522902;596585;541908;172410;
2024-05-26T22:22:14.490;539956353383862074;522630;596222;541686;172439;
2024-05-26T22:22:14.509;539956353402019641;522050;595640;541168;172441;
2024-05-26T22:22:14.527;539956353420177208;521590;594892;540550;172452;
2024-05-26T22:22:14.545;539956353438334775;520872;594104;539882;172356;
2024-05-26T22:22:14.563;539956353456492342;520327;593458;539321;172405;
2024-05-26T22:22:14.581;539956353474649909;519822;592975;538853;172395;
2024-05-26T22:22:14.599;539956353492807476;519548;592608;538449;172371;
2024-05-26T22:22:14.618;539956353510965043;519436;592485;538315;172444;
2024-05-26T22:22:14.636;539956353529122610;519373;592334;538232;172442;
2024-05-26T22:22:14.654;539956353547280685;519470;592501;538358;172473;
2024-05-26T22:22:14.672;539956353565438742;519610;592641;538467;172437;
2024-05-26T22:22:14.690;539956353583596799;519797;592853;538682;172441;
2024-05-26T22:22:14.708;539956353601754856;520076;593178;538914;172422;
2024-05-26T22:22:14.726;539956353619912913;520346;593580;539168;172421;
2024-05-26T22:22:14.745;539956353638070970;520559;593801;539362;172389;
2024-05-26T22:22:14.763;539956353656229027;520800;594113;539601;172400;
2024-05-26T22:22:14.781;539956353674387084;520992;594372;539825;172426;
2024-05-26T22:22:14.799;539956353692545141;521145;594498;539986;172433;
2024-05-26T22:22:14.817;539956353710703198;521236;594669;540083;172431;
2024-05-26T22:22:14.835;539956353728861255;521294;594782;540183;172399;
2024-05-26T22:22:14.854;539956353747019312;521469;594921;540291;172441;
2024-05-26T22:22:14.872;539956353765177369;521438;594982;540382;172374;
2024-05-26T22:22:14.890;539956353783335426;521588;595106;540430;172358;
2024-05-26T22:22:14.908;539956353801493483;521726;595223;540564;172402;
2024-05-26T22:22:14.926;539956353819651540;521809;595289;540636;172414;
2024-05-26T22:22:14.944;539956353837809597;521977;595504;540796;172404;
2024-05-26T22:22:14.963;539956353855967654;522130;595732;540952;172453;
2024-05-26T22:22:14.981;539956353874125711;522255;595947;541206;172416;
2024-05-26T22:22:14.999;539956353892283768;522426;596070;541299;172401;
2024-05-26T22:22:15.017;539956353910441825;522574;596359;541535;172404;
2024-05-26T22:22:15.035;539956353928599882;522789;596556;541711;172434;
2024-05-26T22:22:15.053;539956353946757939;523008;596850;541919;172377;
2024-05-26T22:22:15.071;539956353964915996;523243;597090;542120;172428;
2024-05-26T22:22:15.090;539956353983074053;523480;597341;542350;172436;
2024-05-26T22:22:15.108;539956354001232110;523708;597667;542581;172443;
2024-05-26T22:22:15.126;539956354019390167;523866;597955;542789;172369;
2024-05-26T22:22:15.144;539956354037548224;524145;598208;543026;172393;
2024-05-26T22:22:15.162;539956354055706281;524299;598429;543258;172384;
2024-05-26T22:22:15.180;539956354073864338;524595;598676;543519;172356;
2024-05-26T22:22:15.199;539956354092022395;524872;598977;543768;172472;
2024-05-26T22:22:15.217;539956354110180452;525049;599242;543970;172455;
2024-05-26T22:22:15.235;539956354128338509;525299;599528;544202;172438;
2024-05-26T22:22:15.253;539956354146496566;525474;599759;544449;172394;
2024-05-26T22:22:15.271;539956354164654623;525693;600086;544665;172394;
2024-05-26T22:22:15.289;539956354182812680;525942;600334;544869;172402;
2024-05-26T22:22:15.308;539956354200970737;526129;600603;545086;172366;
2024-05-26T22:22:15.326;539956354219128794;526332;600834;545286;172393;
2024-05-26T22:22:15.344;539956354237286851;526390;600969;545412;172414;
2024-05-26T22:22:15.362;539956354255444908;526315;600876;545324;172379;
2024-05-26T22:22:15.380;539956354273603118;526041;600550;545073;172467;
2024-05-26T22:22:15.398;539956354291761328;525624;599999;544608;172408;
2024-05-26T22:22:15.416;539956354309919538;525125;599327;544148;172422;
2024-05-26T22:22:15.435;539956354328077748;524583;598690;543638;172434;
2024-05-26T22:22:15.453;539956354346235958;524103;598095;543090;172407;
2024-05-26T22:22:15.471;539956354364394168;523751;597728;542732;172442;
2024-05-26T22:22:15.489;539956354382552378;523462;597402;542385;172378;
2024-05-26T22:22:15.507;539956354400710588;523316;597263;542232;172400;
2024-05-26T22:22:15.525;539956354418868798;523276;597279;542216;172460;
2024-05-26T22:22:15.544;539956354437027008;523217;597366;542269;172394;
2024-05-26T22:22:15.562;539956354455185218;523402;597552;542387;172376;
2024-05-26T22:22:15.580;539956354473343428;523594;597765;542572;172340;
2024-05-26T22:22:15.598;539956354491501638;523900;598078;542821;172380;
2024-05-26T22:22:15.616;539956354509659848;524139;598406;543105;172363;
2024-05-26T22:22:15.634;539956354527818058;524359;598642;543311;172358;
2024-05-26T22:22:15.653;539956354545976268;524516;598844;543483;172368;
2024-05-26T22:22:15.671;539956354564134478;524689;599067;543655;172428;
2024-05-26T22:22:15.689;539956354582292688;524813;599221;543762;172380;
2024-05-26T22:22:15.707;539956354600450898;524914;599351;543932;172379;
2024-05-26T22:22:15.725;539956354618609108;525023;599459;543984;172437;
2024-05-26T22:22:15.743;539956354636767318;525104;599535;544066;172409;
2024-05-26T22:22:15.761;539956354654925528;525167;599687;544114;172396;
2024-05-26T22:22:15.780;539956354673083738;525315;599893;544230;172399;
2024-05-26T22:22:15.798;539956354691241948;525369;600026;544356;172397;
2024-05-26T22:22:15.816;539956354709400158;525467;600196;544454;172401;
2024-05-26T22:22:15.834;539956354727558368;525565;600324;544549;172376;
2024-05-26T22:22:15.852;539956354745716578;525690;600424;544690;172320;
2024-05-26T22:22:15.870;539956354763874788;525845;600624;544828;172383;
2024-05-26T22:22:15.889;539956354782032998;525977;600797;545087;172411;
2024-05-26T22:22:15.907;539956354800191208;526116;601026;545219;172390;
2024-05-26T22:22:15.925;539956354818349418;526255;601245;545386;172362;
2024-05-26T22:22:15.943;539956354836507628;526448;601490;545548;172350;
2024-05-26T22:22:15.961;539956354854665838;526591;601731;545715;172334;
2024-05-26T22:22:15.979;539956354872824048;526887;601943;545948;172431;
2024-05-26T22:22:15.998;539956354890982258;526977;602102;546104;172372;
2024-05-26T22:22:16.016;539956354909140468;527185;602324;546354;172406;
2024-05-26T22:22:16.034;539956354927298678;527344;602568;546475;172401;
2024-05-26T22:22:16.052;539956354945456888;527573;602788;546628;172419;
2024-05-26T22:22:16.070;539956354963615098;527802;603062;546916;172419;
2024-05-26T22:22:16.088;539956354981773308;527917;603285;547084;172400;
2024-05-26T22:22:16.106;539956354999931518;528077;603514;547234;172416;
2024-05-26T22:22:16.125;539956355018089728;528273;603743;547424;172416;
2024-05-26T22:22:16.143;539956355036247938;528361;603963;547589;172384;
2024-05-26T22:22:16.161;539956355054406148;528529;604175;547735;172379;
2024-05-26T22:22:16.179;539956355072564358;528754;604340;547899;172396;
2024-05-26T22:22:16.197;539956355090722568;528874;604585;548027;172356;
2024-05-26T22:22:16.215;539956355108880778;528960;604674;548135;172418;
2024-05-26T22:22:16.234;539956355127038988;528690;604480;548015;172325;
2024-05-26T22:22:16.252;539956355145197198;528455;604137;547712;172401;
2024-05-26T22:22:16.270;539956355163355408;527985;603564;547269;172382;
2024-05-26T22:22:16.288;539956355181513618;527429;602935;546710;172335;
2024-05-26T22:22:16.306;539956355199671828;526838;602307;546143;172396;
2024-05-26T22:22:16.324;539956355217830038;526302;601717;545571;172372;
2024-05-26T22:22:16.343;539956355235988248;525902;601252;545176;172348;
2024-05-26T22:22:16.361;539956355254146458;525656;600992;544867;172402;
2024-05-26T22:22:16.379;539956355272304668;525417;600819;544733;172410;
2024-05-26T22:22:16.397;539956355290462878;525367;600744;544628;172367;
2024-05-26T22:22:16.415;539956355308621088;525451;600843;544684;172433;
2024-05-26T22:22:16.433;539956355326779298;525493;601040;544735;172392;
2024-05-26T22:22:16.451;539956355344937508;525653;601220;544876;172339;
2024-05-26T22:22:16.470;539956355363095718;525864;601505;545063;172404;
2024-05-26T22:22:16.488;539956355381253928;526030;601733;545247;172404;
2024-05-26T22:22:16.506;539956355399412138;526220;602033;545508;172450;
2024-05-26T22:22:16.524;539956355417570348;526406;602298;545692;172401;
2024-05-26T22:22:16.542;539956355435728558;526546;602396;545802;172419;
2024-05-26T22:22:16.560;539956355453886768;526720;602592;545946;172389;
2024-05-26T22:22:16.579;539956355472044978;526877;602750;546057;172450;
2024-05-26T22:22:16.597;539956355490203188;526880;602754;546077;172386;
2024-05-26T22:22:16.615;539956355508361398;526911;602850;546065;172423;
2024-05-26T22:22:16.633;539956355526519608;526943;602951;546178;172373;
2024-05-26T22:22:16.651;539956355544677818;527132;603046;546279;172410;
2024-05-26T22:22:16.669;539956355562836028;527108;603172;546371;172408;
2024-05-26T22:22:16.688;539956355580994238;527195;603259;546446;172443;
2024-05-26T22:22:16.706;539956355599152448;527309;603406;546448;172403;
2024-05-26T22:22:16.724;539956355617310658;527462;603525;546622;172392;
2024-05-26T22:22:16.742;539956355635468868;527547;603686;546738;172412;
2024-05-26T22:22:16.760;539956355653627078;527672;603870;546941;172419;
2024-05-26T22:22:16.778;539956355671785288;527850;604111;547088;172401;
2024-05-26T22:22:16.797;539956355689943498;527977;604222;547268;172374;
2024-05-26T22:22:16.815;539956355708101708;528156;604496;547435;172414;
2024-05-26T22:22:16.833;539956355726259918;528310;604704;547549;172431;
2024-05-26T22:22:16.851;539956355744418128;528489;604931;547788;172448;
2024-05-26T22:22:16.869;539956355762576338;528652;605158;547988;172408;
2024-05-26T22:22:16.887;539956355780734548;528852;605307;548117;172389;
2024-05-26T22:22:16.905;539956355798892758;529024;605576;548309;172402;
2024-05-26T22:22:16.924;539956355817050968;529177;605827;548465;172388;
2024-05-26T22:22:16.942;539956355835209178;529342;606062;548645;172371;
2024-05-26T22:22:16.960;539956355853367388;529520;606242;548841;172418;
2024-05-26T22:22:16.978;539956355871525598;529728;606557;549047;172397;
2024-05-26T22:22:16.996;539956355889683808;529930;606762;549244;172378;
2024-05-26T22:22:17.014;539956355907842018;530100;606919;549459;172395;
2024-05-26T22:22:17.033;539956355926000228;530282;607159;549558;172389;
2024-05-26T22:22:17.051;539956355944158438;530483;607361;549762;172396;
2024-05-26T22:22:17.069;539956355962316648;530647;607564;549948;172378;
2024-05-26T22:22:17.087;539956355980474858;530753;607781;550051;172390;
2024-05-26T22:22:17.105;539956355998633068;530933;608033;550285;172448;
2024-05-26T22:22:17.123;539956356016791278;531043;608142;550400;172428;
2024-05-26T22:22:17.142;539956356034949488;530996;608075;550380;172356;
2024-05-26T22:22:17.160;539956356053107698;530777;607722;550141;172407;
2024-05-26T22:22:17.178;539956356071265908;530281;607229;549766;172384;
2024-05-26T22:22:17.196;539956356089424118;529775;606746;549268;172469;
2024-05-26T22:22:17.214;539956356107582328;529166;606132;548623;172441;
2024-05-26T22:22:17.232;539956356125740538;528589;605526;548078;172447;
2024-05-26T22:22:17.250;539956356143898748;528102;604979;547592;172456;
2024-05-26T22:22:17.269;539956356162056958;527717;604605;547276;172384;
2024-05-26T22:22:17.287;539956356180215168;527499;604402;547027;172351;
2024-05-26T22:22:17.305;539956356198373378;527362;604312;546907;172407;
2024-05-26T22:22:17.323;539956356216531588;527286;604338;546842;172396;
2024-05-26T22:22:17.341;539956356234689798;527408;604453;546932;172420;
2024-05-26T22:22:17.359;539956356252848008;527549;604593;547014;172383;
2024-05-26T22:22:17.378;539956356271006218;527701;604821;547186;172391;
2024-05-26T22:22:17.396;539956356289164428;527902;605108;547360;172363;
2024-05-26T22:22:17.414;539956356307322638;528125;605284;547597;172361;
2024-05-26T22:22:17.432;539956356325479320;528264;605546;547833;172419;
2024-05-26T22:22:17.450;539956356343635964;528391;605691;548002;172419;
2024-05-26T22:22:17.468;539956356361792608;528476;605752;548024;172383;
2024-05-26T22:22:17.487;539956356379949252;528634;605996;548149;172413;
2024-05-26T22:22:17.505;539956356398105896;528709;606067;548295;172372;
2024-05-26T22:22:17.523;539956356416262540;528729;606147;548305;172411;
2024-05-26T22:22:17.541;539956356434419184;528835;606222;548424;172414;
2024-05-26T22:22:17.559;539956356452575828;528848;606329;548394;172405;
2024-05-26T22:22:17.577;539956356470732472;528960;606407;548459;172375;
2024-05-26T22:22:17.595;539956356488889116;529049;606543;548538;172404;
2024-05-26T22:22:17.614;539956356507045760;529119;606659;548620;172376;
2024-05-26T22:22:17.632;539956356525202404;529228;606847;548720;172451;
2024-05-26T22:22:17.650;539956356543359048;529353;606952;548891;172435;
2024-05-26T22:22:17.668;539956356561515692;529491;607049;549009;172375;
2024-05-26T22:22:17.686;539956356579672336;529593;607217;549161;172392;
2024-05-26T22:22:17.704;539956356597828980;529773;607479;549378;172423;
2024-05-26T22:22:17.723;539956356615985624;529939;607648;549539;172368;
2024-05-26T22:22:17.741;539956356634142268;530121;607853;549639;172345;
2024-05-26T22:22:17.759;539956356652298912;530244;608090;549880;172349;
2024-05-26T22:22:17.777;539956356670455556;530436;608278;550037;172336;
2024-05-26T22:22:17.795;539956356688612200;530620;608528;550216;172403;
2024-05-26T22:22:17.813;539956356706768844;530877;608794;550450;172412;
2024-05-26T22:22:17.831;539956356724925488;531075;609040;550633;172366;
2024-05-26T22:22:17.850;539956356743082132;531176;609228;550804;172369;
2024-05-26T22:22:17.868;539956356761238776;531466;609428;550990;172353;
2024-05-26T22:22:17.886;539956356779395420;531608;609734;551215;172442;
2024-05-26T22:22:17.904;539956356797552064;531828;609916;551397;172465;
2024-05-26T22:22:17.922;539956356815708708;532079;610170;551583;172406;
2024-05-26T22:22:17.940;539956356833865352;532237;610328;551757;172379;
2024-05-26T22:22:17.959;539956356852021996;532374;610541;551926;172371;
2024-05-26T22:22:17.977;539956356870178640;532549;610808;552111;172359;
2024-05-26T22:22:17.995;539956356888335284;532765;610966;552308;172382;
2024-05-26T22:22:18.013;539956356906491928;532948;611210;552495;172362;
2024-05-26T22:22:18.031;539956356924648572;533193;611495;552726;172421;
2024-05-26T22:22:18.049;539956356942805216;533344;611619;552869;172419;
2024-05-26T22:22:18.068;539956356960961860;533506;611835;553027;172387;
2024-05-26T22:22:18.086;539956356979118504;533529;611931;553108;172384;
2024-05-26T22:22:18.104;539956356997275148;533324;611770;552965;172380;
2024-05-26T22:22:18.122;539956357015431792;533079;611380;552642;172423;
2024-05-26T22:22:18.140;539956357033590002;532551;610791;552127;172406;
2024-05-26T22:22:18.158;539956357051748212;531979;610112;551596;172434;
2024-05-26T22:22:18.176;539956357069906422;531397;609498;551099;172443;
2024-05-26T22:22:18.195;539956357088064632;530897;608982;550566;172448;
2024-05-26T22:22:18.213;539956357106222842;530372;608420;550074;172421;
2024-05-26T22:22:18.231;539956357124381052;530082;608164;549840;172410;
2024-05-26T22:22:18.249;539956357142539262;529903;607941;549566;172403;
2024-05-26T22:22:18.267;539956357160697472;529851;607898;549529;172388;
2024-05-26T22:22:18.285;539956357178855682;529851;607943;549539;172426;
2024-05-26T22:22:18.304;539956357197013892;529949;607999;549611;172399;
2024-05-26T22:22:18.322;539956357215172102;530051;608235;549808;172377;
2024-05-26T22:22:18.340;539956357233330312;530251;608390;549958;172399;
2024-05-26T22:22:18.358;539956357251488522;530401;608545;550110;172380;
2024-05-26T22:22:18.376;539956357269646732;530589;608802;550364;172392;
2024-05-26T22:22:18.394;539956357287804942;530680;608945;550509;172403;
2024-05-26T22:22:18.413;539956357305963152;530827;609033;550548;172387;
2024-05-26T22:22:18.431;539956357324121362;530929;609045;550632;172453;
2024-05-26T22:22:18.449;539956357342279572;530877;609151;550646;172419;
2024-05-26T22:22:18.467;539956357360437782;530896;609138;550612;172374;
2024-05-26T22:22:18.485;539956357378595992;530944;609118;550623;172412;
2024-05-26T22:22:18.503;539956357396754202;530997;609133;550675;172444;
2024-05-26T22:22:18.521;539956357414912412;530965;609139;550656;172451;
2024-05-26T22:22:18.540;539956357433070622;531012;609191;550765;172365;
2024-05-26T22:22:18.558;539956357451228832;531016;609247;550744;172439;
2024-05-26T22:22:18.576;539956357469387042;531039;609264;550764;172393;
2024-05-26T22:22:18.594;539956357487545252;531085;609322;550777;172420;
2024-05-26T22:22:18.612;539956357505703462;531206;609406;550923;172428;
2024-05-26T22:22:18.630;539956357523861672;531218;609496;550978;172395;
2024-05-26T22:22:18.649;539956357542019882;531368;609644;551075;172405;
2024-05-26T22:22:18.667;539956357560178092;531455;609755;551219;172407;
2024-05-26T22:22:18.685;539956357578336302;531513;609894;551284;172397;
2024-05-26T22:22:18.703;539956357596494512;531694;610088;551433;172419;
2024-05-26T22:22:18.721;539956357614652722;531842;610163;551534;172456;
2024-05-26T22:22:18.739;539956357632810932;532010;610376;551718;172465;
2024-05-26T22:22:18.758;539956357650969142;532081;610447;551778;172396;
2024-05-26T22:22:18.776;539956357669127352;532211;610667;551942;172442;
2024-05-26T22:22:18.794;539956357687285562;532393;610847;552119;172366;
2024-05-26T22:22:18.812;539956357705443772;532606;611103;552262;172389;
2024-05-26T22:22:18.830;539956357723601982;532661;611183;552426;172349;
2024-05-26T22:22:18.848;539956357741759274;532829;611313;552486;172367;
2024-05-26T22:22:18.866;539956357759916559;532984;611460;552646;172377;
2024-05-26T22:22:18.885;539956357778073844;533230;611651;552781;172404;
2024-05-26T22:22:18.903;539956357796231129;533317;611803;552985;172357;
2024-05-26T22:22:18.921;539956357814388414;533443;612004;553095;172349;
2024-05-26T22:22:18.939;539956357832545699;533654;612147;553262;172454;
2024-05-26T22:22:18.957;539956357850702984;533739;612214;553345;172403;
2024-05-26T22:22:18.975;539956357868860269;533718;612175;553321;172441;
2024-05-26T22:22:18.994;539956357887017554;533486;611900;553116;172439;
2024-05-26T22:22:19.012;539956357905174839;532975;611300;552680;172427;
2024-05-26T22:22:19.030;539956357923332124;532360;610573;552051;172395;
2024-05-26T22:22:19.048;539956357941489409;531678;609722;551394;172437;
2024-05-26T22:22:19.066;539956357959646694;530985;608829;550651;172446;
2024-05-26T22:22:19.084;539956357977803979;530366;608206;550129;172430;
2024-05-26T22:22:19.103;539956357995961264;529908;607682;549580;172481;
2024-05-26T22:22:19.121;539956358014118549;529566;607139;549126;172401;
2024-05-26T22:22:19.139;539956358032275834;529372;606813;548842;172427;
2024-05-26T22:22:19.157;539956358050433119;529253;606647;548693;172404;
2024-05-26T22:22:19.175;539956358068590404;529248;606654;548722;172387;
2024-05-26T22:22:19.193;539956358086747689;529255;606659;548712;172434;
2024-05-26T22:22:19.211;539956358104904974;529429;606884;548867;172453;
2024-05-26T22:22:19.230;539956358123062259;529579;607002;549005;172410;
2024-05-26T22:22:19.248;539956358141219544;529713;607148;549057;172427;
2024-05-26T22:22:19.266;539956358159376829;529845;607283;549265;172459;
2024-05-26T22:22:19.284;539956358177534114;529847;607305;549256;172395;
2024-05-26T22:22:19.302;539956358195691399;529927;607298;549332;172436;
2024-05-26T22:22:19.320;539956358213848684;529944;607288;549378;172374;
2024-05-26T22:22:19.339;539956358232005969;529879;607228;549303;172388;
2024-05-26T22:22:19.357;539956358250163254;529794;607209;549293;172416;
2024-05-26T22:22:19.375;539956358268320539;529776;607179;549285;172450;
2024-05-26T22:22:19.393;539956358286477824;529758;607072;549248;172502;
2024-05-26T22:22:19.411;539956358304635109;529703;607030;549171;172463;
2024-05-26T22:22:19.429;539956358322792394;529744;606909;549098;172390;
2024-05-26T22:22:19.448;539956358340949887;529701;606868;549073;172389;
2024-05-26T22:22:19.466;539956358359107374;529665;606901;549094;172450;
2024-05-26T22:22:19.484;539956358377264861;529731;606864;549113;172472;
2024-05-26T22:22:19.502;539956358395422348;529744;606982;549167;172455;
2024-05-26T22:22:19.520;539956358413579835;529758;607035;549210;172414;
2024-05-26T22:22:19.538;539956358431737322;529815;607053;549227;172360;
2024-05-26T22:22:19.556;539956358449894809;529910;607110;549282;172377;
2024-05-26T22:22:19.575;539956358468052296;529968;607165;549423;172427;
2024-05-26T22:22:19.593;539956358486209783;530088;607242;549459;172394;
2024-05-26T22:22:19.611;539956358504367270;530206;607299;549537;172425;
2024-05-26T22:22:19.629;539956358522524757;530309;607395;549648;172439;
2024-05-26T22:22:19.647;539956358540682244;530366;607569;549755;172375;
2024-05-26T22:22:19.665;539956358558839731;530502;607669;549829;172413;
2024-05-26T22:22:19.684;539956358576997218;530530;607719;549918;172360;
2024-05-26T22:22:19.702;539956358595154705;530718;607869;550066;172427;
2024-05-26T22:22:19.720;539956358613312192;530866;607949;550138;172476;
2024-05-26T22:22:19.738;539956358631469679;530924;608062;550204;172421;
2024-05-26T22:22:19.756;539956358649627166;531017;608217;550362;172410;
2024-05-26T22:22:19.774;539956358667784653;531104;608344;550462;172467;
2024-05-26T22:22:19.792;539956358685942140;531176;608487;550563;172425;
2024-05-26T22:22:19.811;539956358704099627;531245;608367;550515;172411;
2024-05-26T22:22:19.829;539956358722257114;530956;608074;550270;172388;
2024-05-26T22:22:19.847;539956358740414601;530445;607434;549843;172378;
2024-05-26T22:22:19.865;539956358758572088;529858;606613;549120;172411;
2024-05-26T22:22:19.883;539956358776729575;529115;605626;548346;172426;
2024-05-26T22:22:19.901;539956358794887062;528318;604537;547533;172453;
2024-05-26T22:22:19.920;539956358813044549;527543;603552;546747;172444;
2024-05-26T22:22:19.938;539956358831202036;526924;602672;546029;172387;
2024-05-26T22:22:19.956;539956358849359523;526437;602019;545481;172480;
2024-05-26T22:22:19.974;539956358867517010;526041;601515;545063;172439;
2024-05-26T22:22:19.992;539956358885674497;525804;601161;544792;172417;
2024-05-26T22:22:20.010;539956358903831984;525712;601088;544710;172423;
2024-05-26T22:22:20.029;539956358921989471;525725;601065;544606;172354;
2024-05-26T22:22:20.047;539956358940146958;525780;601066;544686;172336;
2024-05-26T22:22:20.065;539956358958304445;525919;601261;544832;172369;
2024-05-26T22:22:20.083;539956358976461932;526068;601396;544930;172357;
2024-05-26T22:22:20.101;539956358994619419;526282;601594;545091;172350;
2024-05-26T22:22:20.119;539956359012776906;526425;601746;545228;172431;
2024-05-26T22:22:20.137;539956359030935870;526402;601723;545266;172362;
2024-05-26T22:22:20.156;539956359049094802;526558;601696;545332;172420;
2024-05-26T22:22:20.174;539956359067253734;526511;601755;545364;172405;
2024-05-26T22:22:20.192;539956359085412666;526493;601683;545300;172407;
2024-05-26T22:22:20.210;539956359103571598;526438;601555;545239;172351;
2024-05-26T22:22:20.228;539956359121730530;526459;601539;545242;172363;
2024-05-26T22:22:20.246;539956359139889462;526415;601496;545204;172389;
2024-05-26T22:22:20.265;539956359158048394;526466;601490;545229;172410;
2024-05-26T22:22:20.283;539956359176207326;526464;601425;545188;172408;
2024-05-26T22:22:20.301;539956359194366258;526488;601395;545198;172387;
2024-05-26T22:22:20.319;539956359212525190;526549;601432;545202;172390;
2024-05-26T22:22:20.337;539956359230684122;526583;601489;545228;172409;
2024-05-26T22:22:20.355;539956359248843054;526665;601618;545298;172368;
2024-05-26T22:22:20.374;539956359267001986;526759;601699;545395;172372;
2024-05-26T22:22:20.392;539956359285160918;526839;601715;545461;172369;
2024-05-26T22:22:20.410;539956359303319850;526983;601825;545584;172312;
2024-05-26T22:22:20.428;539956359321478782;527047;601987;545728;172384;
2024-05-26T22:22:20.446;539956359339637714;527224;602109;545788;172371;
2024-05-26T22:22:20.464;539956359357796646;527414;602226;546025;172374;
2024-05-26T22:22:20.483;539956359375955578;527567;602403;546154;172401;
2024-05-26T22:22:20.501;539956359394114510;527693;602631;546335;172442;
2024-05-26T22:22:20.519;539956359412273442;527802;602708;546427;172408;
2024-05-26T22:22:20.537;539956359430432374;527974;602853;546614;172448;
2024-05-26T22:22:20.555;539956359448591306;528156;603043;546723;172405;
2024-05-26T22:22:20.573;539956359466750238;528234;603156;546842;172393;
2024-05-26T22:22:20.591;539956359484909170;528423;603369;547032;172403;
2024-05-26T22:22:20.610;539956359503068102;528516;603457;547121;172429;
2024-05-26T22:22:20.628;539956359521227034;528662;603479;547191;172401;
2024-05-26T22:22:20.646;539956359539385966;528650;603477;547212;172421;
2024-05-26T22:22:20.664;539956359557544898;528451;603100;546924;172442;
2024-05-26T22:22:20.682;539956359575703830;527948;602443;546381;172455;
2024-05-26T22:22:20.700;539956359593862762;527215;601442;545686;172441;
2024-05-26T22:22:20.719;539956359612021694;526416;600391;544854;172414;
2024-05-26T22:22:20.737;539956359630180626;525654;599255;543930;172359;
2024-05-26T22:22:20.755;539956359648339558;524949;598324;543192;172386;
2024-05-26T22:22:20.773;539956359666498490;524491;597627;542587;172388;
2024-05-26T22:22:20.791;539956359684657422;524043;596971;542087;172390;
2024-05-26T22:22:20.809;539956359702816354;523767;596627;541766;172434;
2024-05-26T22:22:20.828;539956359720975174;523583;596410;541564;172402;
2024-05-26T22:22:20.846;539956359739133994;523583;596323;541508;172456;
2024-05-26T22:22:20.864;539956359757292814;523583;596376;541587;172417;
2024-05-26T22:22:20.882;539956359775451634;523750;596508;541693;172419;
2024-05-26T22:22:20.900;539956359793610454;523922;596712;541876;172413;
2024-05-26T22:22:20.918;539956359811769274;524137;596926;542025;172445;
2024-05-26T22:22:20.936;539956359829928094;524275;597081;542261;172433;
2024-05-26T22:22:20.955;539956359848086914;524394;597255;542358;172439;
2024-05-26T22:22:20.973;539956359866245734;524510;597381;542452;172444;
2024-05-26T22:22:20.991;539956359884404554;524561;597480;542515;172434;
2024-05-26T22:22:21.009;539956359902563374;524611;597458;542520;172423;
2024-05-26T22:22:21.027;539956359920722194;524607;597468;542557;172445;
2024-05-26T22:22:21.045;539956359938881014;524505;597380;542402;172383;
2024-05-26T22:22:21.064;539956359957039834;524533;597338;542399;172426;
2024-05-26T22:22:21.082;539956359975198654;524603;597355;542422;172430;
2024-05-26T22:22:21.100;539956359993357474;524600;597299;542494;172391;
2024-05-26T22:22:21.118;539956360011516294;524675;597412;542549;172462;
2024-05-26T22:22:21.136;539956360029675114;524691;597395;542542;172451;
2024-05-26T22:22:21.154;539956360047833934;524750;597433;542610;172477;
2024-05-26T22:22:21.173;539956360065992754;524825;597495;542628;172526;
2024-05-26T22:22:21.191;539956360084151574;524913;597634;542769;172431;
2024-05-26T22:22:21.209;539956360102310394;525007;597693;542880;172426;
2024-05-26T22:22:21.227;539956360120469214;525150;597872;542960;172448;
2024-05-26T22:22:21.245;539956360138628034;525284;598016;543059;172405;
2024-05-26T22:22:21.263;539956360156786854;525332;598175;543190;172454;
2024-05-26T22:22:21.282;539956360174945674;525516;598331;543373;172405;
2024-05-26T22:22:21.300;539956360193104494;525713;598482;543516;172446;
2024-05-26T22:22:21.318;539956360211263314;525807;598646;543659;172428;
2024-05-26T22:22:21.336;539956360229422134;525934;598827;543837;172445;
2024-05-26T22:22:21.354;539956360247580954;526058;598985;543928;172441;
2024-05-26T22:22:21.372;539956360265739774;526244;599204;544074;172441;
2024-05-26T22:22:21.390;539956360283898594;526380;599244;544205;172399;
2024-05-26T22:22:21.409;539956360302057414;526507;599512;544370;172365;
2024-05-26T22:22:21.427;539956360320216234;526669;599604;544505;172399;
2024-05-26T22:22:21.445;539956360338375054;526747;599723;544612;172410;
2024-05-26T22:22:21.463;539956360356533874;526689;599567;544508;172413;
2024-05-26T22:22:21.481;539956360374692694;526322;599028;544171;172435;
2024-05-26T22:22:21.499;539956360392851514;525743;598267;543535;172365;
2024-05-26T22:22:21.518;539956360411010334;525037;597350;542772;172419;
2024-05-26T22:22:21.536;539956360429169154;524341;596366;541985;172431;
2024-05-26T22:22:21.554;539956360447329689;523621;595418;541239;172406;
2024-05-26T22:22:21.572;539956360465490207;523088;594604;540636;172485;
2024-05-26T22:22:21.590;539956360483650725;522616;593981;540132;172411;
2024-05-26T22:22:21.608;539956360501811243;522281;593607;539804;172408;
2024-05-26T22:22:21.627;539956360519971761;522129;593424;539590;172437;
2024-05-26T22:22:21.645;539956360538132279;522093;593375;539537;172481;
2024-05-26T22:22:21.663;539956360556292797;522062;593375;539574;172431;
2024-05-26T22:22:21.681;539956360574453315;522252;593541;539671;172405;
2024-05-26T22:22:21.699;539956360592613833;522369;593754;539897;172406;
2024-05-26T22:22:21.717;539956360610774351;522579;594037;540090;172454;
2024-05-26T22:22:21.735;539956360628934869;522694;594281;540242;172397;
2024-05-26T22:22:21.754;539956360647095387;522814;594401;540435;172391;
2024-05-26T22:22:21.772;539956360665255905;523002;594650;540579;172444;
2024-05-26T22:22:21.790;539956360683416423;523017;594659;540618;172424;
2024-05-26T22:22:21.808;539956360701576941;523010;594739;540690;172479;
2024-05-26T22:22:21.826;539956360719737459;523078;594708;540684;172428;
2024-05-26T22:22:21.844;539956360737897977;523090;594767;540681;172380;
2024-05-26T22:22:21.863;539956360756058495;523089;594800;540733;172428;
2024-05-26T22:22:21.881;539956360774219013;523163;594766;540734;172413;
2024-05-26T22:22:21.899;539956360792379531;523157;594853;540765;172382;
2024-05-26T22:22:21.917;539956360810540049;523108;594906;540808;172380;
2024-05-26T22:22:21.935;539956360828700567;523221;594913;540821;172406;
2024-05-26T22:22:21.953;539956360846861085;523336;594994;540917;172383;
2024-05-26T22:22:21.972;539956360865021603;523404;595108;541023;172380;
2024-05-26T22:22:21.990;539956360883182121;523423;595219;541117;172429;
2024-05-26T22:22:22.008;539956360901342639;523570;595300;541191;172434;
2024-05-26T22:22:22.026;539956360919503157;523667;595427;541296;172414;
2024-05-26T22:22:22.044;539956360937663675;523789;595596;541383;172412;
2024-05-26T22:22:22.062;539956360955824193;523897;595723;541464;172361;
2024-05-26T22:22:22.081;539956360973984711;523960;595900;541651;172377;
2024-05-26T22:22:22.099;539956360992145229;524131;596108;541878;172441;
2024-05-26T22:22:22.117;539956361010305747;524229;596166;541927;172320;
2024-05-26T22:22:22.135;539956361028466265;524350;596395;542083;172374;
2024-05-26T22:22:22.153;539956361046626783;524498;596653;542239;172445;
2024-05-26T22:22:22.171;539956361064787301;524686;596758;542390;172423;
2024-05-26T22:22:22.190;539956361082947819;524635;596770;542373;172427;
2024-05-26T22:22:22.208;539956361101108337;524454;596406;542112;172420;
2024-05-26T22:22:22.226;539956361119268855;523946;595859;541638;172387;
2024-05-26T22:22:22.244;539956361137429373;523460;595080;541059;172456;
2024-05-26T22:22:22.262;539956361155588580;522777;594207;540443;172418;
2024-05-26T22:22:22.280;539956361173747768;522229;593497;539733;172399;
2024-05-26T22:22:22.298;539956361191906956;521773;592826;539237;172390;
2024-05-26T22:22:22.317;539956361210066144;521365;592312;538857;172417;
2024-05-26T22:22:22.335;539956361228225332;521128;591997;538608;172413;
2024-05-26T22:22:22.353;539956361246384520;520950;591840;538486;172370;
2024-05-26T22:22:22.371;539956361264543708;520950;591859;538503;172367;
2024-05-26T22:22:22.389;539956361282702896;521044;591985;538536;172362;
2024-05-26T22:22:22.407;539956361300862084;521248;592314;538775;172402;
2024-05-26T22:22:22.426;539956361319021272;521445;592591;538975;172428;
2024-05-26T22:22:22.444;539956361337180460;521648;592844;539238;172405;
2024-05-26T22:22:22.462;539956361355339648;521895;593121;539491;172456;
2024-05-26T22:22:22.480;539956361373498836;522067;593361;539683;172407;
2024-05-26T22:22:22.498;539956361391658024;522225;593598;539845;172431;
2024-05-26T22:22:22.516;539956361409817212;522330;593796;540033;172407;
2024-05-26T22:22:22.535;539956361427976400;522399;593908;540132;172373;
2024-05-26T22:22:22.553;539956361446135588;522448;593965;540224;172374;
2024-05-26T22:22:22.571;539956361464294776;522498;594085;540257;172343;
2024-05-26T22:22:22.589;539956361482453964;522556;594103;540340;172384;
2024-05-26T22:22:22.607;539956361500613152;522660;594232;540383;172405;
2024-05-26T22:22:22.625;539956361518772340;522655;594341;540473;172348;
2024-05-26T22:22:22.643;539956361536931528;522801;594494;540602;172378;
2024-05-26T22:22:22.662;539956361555090716;522912;594674;540689;172393;
2024-05-26T22:22:22.680;539956361573249904;523103;594821;540860;172412;
2024-05-26T22:22:22.698;539956361591409092;523157;594969;540971;172403;
2024-05-26T22:22:22.716;539956361609568280;523324;595176;541116;172407;
2024-05-26T22:22:22.734;539956361627727468;523449;595370;541271;172434;
2024-05-26T22:22:22.752;539956361645886656;523642;595546;541499;172446;
2024-05-26T22:22:22.771;539956361664045844;523791;595849;541663;172439;
2024-05-26T22:22:22.789;539956361682205032;523977;595980;541826;172478;
2024-05-26T22:22:22.807;539956361700364220;524131;596238;541999;172396;
2024-05-26T22:22:22.825;539956361718523408;524327;596446;542232;172403;
2024-05-26T22:22:22.843;539956361736682596;524493;596699;542386;172391;
2024-05-26T22:22:22.861;539956361754841784;524554;596833;542463;172402;
2024-05-26T22:22:22.880;539956361773000972;524399;596686;542355;172433;
2024-05-26T22:22:22.898;539956361791160160;524043;596144;542072;172410;
2024-05-26T22:22:22.916;539956361809319348;523553;595470;541466;172419;
2024-05-26T22:22:22.934;539956361827478536;522948;594743;540804;172387;
2024-05-26T22:22:22.952;539956361845637724;522281;593855;540108;172380;
2024-05-26T22:22:22.970;539956361863796401;521746;593165;539537;172384;
2024-05-26T22:22:22.989;539956361881955064;521277;592553;539040;172368;
2024-05-26T22:22:23.007;539956361900113727;520884;592087;538714;172427;
2024-05-26T22:22:23.025;539956361918272390;520693;591860;538476;172389;
2024-05-26T22:22:23.043;539956361936431053;520628;591768;538386;172471;
2024-05-26T22:22:23.061;539956361954589716;520540;591844;538319;172388;
2024-05-26T22:22:23.079;539956361972748379;520631;592019;538436;172441;
2024-05-26T22:22:23.097;539956361990907042;520756;592332;538675;172431;
2024-05-26T22:22:23.116;539956362009065705;521061;592585;538922;172440;
2024-05-26T22:22:23.134;539956362027224368;521288;592875;539159;172411;
2024-05-26T22:22:23.152;539956362045383031;521451;593194;539417;172400;
2024-05-26T22:22:23.170;539956362063541694;521638;593376;539626;172428;
2024-05-26T22:22:23.188;539956362081700357;521813;593686;539797;172354;
2024-05-26T22:22:23.206;539956362099859020;521947;593845;539991;172436;
2024-05-26T22:22:23.225;539956362118017683;522034;594100;540082;172443;
2024-05-26T22:22:23.243;539956362136176346;522121;594246;540267;172430;
2024-05-26T22:22:23.261;539956362154335009;522200;594266;540316;172407;
2024-05-26T22:22:23.279;539956362172493672;522269;594363;540391;172323;
2024-05-26T22:22:23.297;539956362190652335;522330;594510;540499;172322;
2024-05-26T22:22:23.315;539956362208810998;522482;594650;540642;172383;
2024-05-26T22:22:23.334;539956362226969661;522515;594824;540688;172304;
2024-05-26T22:22:23.352;539956362245128324;522695;594944;540868;172370;
2024-05-26T22:22:23.370;539956362263286987;522858;595196;541053;172412;
2024-05-26T22:22:23.388;539956362281445650;523030;595367;541202;172352;
2024-05-26T22:22:23.406;539956362299604313;523181;595600;541461;172387;
2024-05-26T22:22:23.424;539956362317762976;523364;595810;541675;172393;
2024-05-26T22:22:23.442;539956362335921639;523552;596072;541847;172343;
2024-05-26T22:22:23.461;539956362354080302;523743;596323;542017;172355;
2024-05-26T22:22:23.479;539956362372238965;523908;596669;542218;172356;
2024-05-26T22:22:23.497;539956362390397628;524152;596986;542550;172355;
2024-05-26T22:22:23.515;539956362408556291;524282;597200;542696;172380;
2024-05-26T22:22:23.533;539956362426714954;524146;597064;542686;172334;
2024-05-26T22:22:23.551;539956362444873617;523823;596716;542395;172366;
2024-05-26T22:22:23.570;539956362463032280;523454;596225;541957;172361;
2024-05-26T22:22:23.588;539956362481190943;522967;595464;541437;172410;
2024-05-26T22:22:23.606;539956362499349606;522438;594875;540957;172395;
2024-05-26T22:22:23.624;539956362517508269;521871;594258;540403;172437;
2024-05-26T22:22:23.642;539956362535667288;521505;593763;539953;172429;
2024-05-26T22:22:23.660;539956362553826297;521252;593431;539669;172388;
2024-05-26T22:22:23.679;539956362571985306;521047;593300;539534;172393;
2024-05-26T22:22:23.697;539956362590144315;520983;593248;539480;172384;
2024-05-26T22:22:23.715;539956362608303324;521001;593392;539531;172429;
2024-05-26T22:22:23.733;539956362626462333;521131;593610;539683;172416;
2024-05-26T22:22:23.751;539956362644621342;521342;593819;539911;172427;
2024-05-26T22:22:23.769;539956362662780351;521597;594172;540179;172450;
2024-05-26T22:22:23.787;539956362680939360;521864;594604;540497;172453;
2024-05-26T22:22:23.806;539956362699098369;522129;594943;540744;172446;
2024-05-26T22:22:23.824;539956362717257378;522335;595280;540980;172433;
2024-05-26T22:22:23.842;539956362735416387;522566;595466;541179;172412;
2024-05-26T22:22:23.860;539956362753575396;522773;595732;541394;172392;
2024-05-26T22:22:23.878;539956362771734405;522817;595936;541544;172420;
2024-05-26T22:22:23.896;539956362789893414;522957;596176;541780;172397;
2024-05-26T22:22:23.915;539956362808052423;523082;596389;541963;172392;
2024-05-26T22:22:23.933;539956362826211432;523210;596515;542085;172376;
2024-05-26T22:22:23.951;539956362844370441;523324;596739;542232;172430;
2024-05-26T22:22:23.969;539956362862529450;523482;596963;542386;172456;
2024-05-26T22:22:23.987;539956362880688459;523669;597155;542565;172448;
2024-05-26T22:22:24.005;539956362898847468;523781;597365;542769;172412;
2024-05-26T22:22:24.024;539956362917006477;523901;597589;542864;172409;
2024-05-26T22:22:24.042;539956362935165486;524134;597826;543135;172397;
2024-05-26T22:22:24.060;539956362953324495;524335;598108;543326;172369;
2024-05-26T22:22:24.078;539956362971483504;524617;598493;543594;172394;
2024-05-26T22:22:24.096;539956362989642513;524806;598737;543829;172375;
2024-05-26T22:22:24.114;539956363007801522;524992;599018;544106;172379;
2024-05-26T22:22:24.133;539956363025960531;525044;599191;544227;172402;
2024-05-26T22:22:24.151;539956363044119540;524915;599060;544150;172388;
2024-05-26T22:22:24.169;539956363062278549;524693;598742;543961;172439;
2024-05-26T22:22:24.187;539956363080437558;524378;598320;543647;172443;
2024-05-26T22:22:24.205;539956363098596567;523995;597845;543242;172433;
2024-05-26T22:22:24.223;539956363116755576;523618;597440;542861;172395;
2024-05-26T22:22:24.241;539956363134914585;523244;597072;542545;172433;
2024-05-26T22:22:24.260;539956363153073594;523070;596851;542424;172395;
2024-05-26T22:22:24.278;539956363171232603;522912;596764;542265;172413;
2024-05-26T22:22:24.296;539956363189391612;522858;596836;542308;172424;
2024-05-26T22:22:24.314;539956363207550621;522948;596914;542375;172410;
2024-05-26T22:22:24.332;539956363225709630;523128;597143;542546;172494;
2024-05-26T22:22:24.350;539956363243868639;523331;597396;542743;172461;
2024-05-26T22:22:24.369;539956363262027648;523584;597771;543035;172410;
2024-05-26T22:22:24.387;539956363280186657;523914;598166;543329;172420;
2024-05-26T22:22:24.405;539956363298345146;524100;598588;543611;172385;
2024-05-26T22:22:24.423;539956363316503610;524438;598908;543857;172427;
2024-05-26T22:22:24.441;539956363334662074;524651;599222;544136;172386;
2024-05-26T22:22:24.459;539956363352820538;524815;599526;544403;172417;
2024-05-26T22:22:24.478;539956363370979002;525076;599806;544593;172427;
2024-05-26T22:22:24.496;539956363389137466;525266;600033;544814;172380;
2024-05-26T22:22:24.514;539956363407295930;525436;600201;545006;172477;
2024-05-26T22:22:24.532;539956363425454394;525574;600495;545143;172443;
2024-05-26T22:22:24.550;539956363443612858;525670;600724;545361;172399;
2024-05-26T22:22:24.568;539956363461771322;525881;600941;545486;172402;
2024-05-26T22:22:24.586;539956363479929786;526135;601136;545696;172377;
2024-05-26T22:22:24.605;539956363498088250;526281;601389;545940;172392;
2024-05-26T22:22:24.623;539956363516246714;526526;601616;546154;172370;
2024-05-26T22:22:24.641;539956363534405178;526624;601961;546361;172403;
2024-05-26T22:22:24.659;539956363552563642;526844;602214;546626;172376;
2024-05-26T22:22:24.677;539956363570722106;527115;602584;546804;172390;
2024-05-26T22:22:24.695;539956363588880570;527375;602823;547138;172373;
2024-05-26T22:22:24.714;539956363607039034;527593;603145;547418;172394;
2024-05-26T22:22:24.732;539956363625197498;527703;603206;547477;172433;
2024-05-26T22:22:24.750;539956363643355962;527617;603133;547359;172370;
2024-05-26T22:22:24.768;539956363661514426;527363;602859;547208;172379;
2024-05-26T22:22:24.786;539956363679672890;527096;602543;546986;172421;
2024-05-26T22:22:24.804;539956363697831354;526775;602238;546684;172429;
2024-05-26T22:22:24.823;539956363715989818;526575;601967;546501;172430;
2024-05-26T22:22:24.841;539956363734148282;526344;601789;546300;172390;
2024-05-26T22:22:24.859;539956363752306746;526254;601712;546242;172400;
2024-05-26T22:22:24.877;539956363770465210;526297;601755;546293;172425;
2024-05-26T22:22:24.895;539956363788623674;526443;601880;546404;172417;
2024-05-26T22:22:24.913;539956363806782138;526570;602131;546519;172414;
2024-05-26T22:22:24.931;539956363824940602;526755;602362;546752;172435;
2024-05-26T22:22:24.950;539956363843099066;527082;602806;547001;172408;
2024-05-26T22:22:24.968;539956363861257530;527374;603201;547314;172410;
2024-05-26T22:22:24.986;539956363879415994;527635;603518;547640;172421;
2024-05-26T22:22:25.004;539956363897574458;527869;603900;547952;172404;
2024-05-26T22:22:25.022;539956363915732922;528194;604193;548244;172387;
2024-05-26T22:22:25.040;539956363933891386;528357;604451;548501;172406;
2024-05-26T22:22:25.059;539956363952049850;528679;604737;548771;172400;
2024-05-26T22:22:25.077;539956363970208314;528822;604997;548908;172399;
2024-05-26T22:22:25.095;539956363988366778;528969;605266;549156;172428;
2024-05-26T22:22:25.113;539956364006525242;529271;605542;549361;172410;
2024-05-26T22:22:25.131;539956364024683706;529436;605800;549563;172390;
2024-05-26T22:22:25.149;539956364042842170;529587;606042;549758;172427;
2024-05-26T22:22:25.168;539956364061000380;529827;606269;550043;172427;
2024-05-26T22:22:25.186;539956364079158590;530061;606510;550295;172408;
2024-05-26T22:22:25.204;539956364097316800;530285;606868;550519;172439;
2024-05-26T22:22:25.222;539956364115475010;530536;607098;550732;172390;
2024-05-26T22:22:25.240;539956364133633220;530687;607358;550937;172386;
2024-05-26T22:22:25.258;539956364151791430;530953;607675;551241;172404;
2024-05-26T22:22:25.277;539956364169949640;531212;608116;551597;172475;
2024-05-26T22:22:25.295;539956364188107850;531472;608355;551764;172394;
2024-05-26T22:22:25.313;539956364206266060;531760;608668;552065;172412;
2024-05-26T22:22:25.331;539956364224424270;532043;609048;552334;172487;
2024-05-26T22:22:25.349;539956364242582480;532199;609229;552527;172457;
2024-05-26T22:22:25.367;539956364260740690;532325;609331;552663;172419;
2024-05-26T22:22:25.385;539956364278898900;532244;609273;552575;172454;
2024-05-26T22:22:25.404;539956364297057110;532073;609094;552406;172463;
2024-05-26T22:22:25.422;539956364315215320;531805;608812;552164;172445;
2024-05-26T22:22:25.440;539956364333373530;531630;608543;552053;172496;
2024-05-26T22:22:25.458;539956364351531740;531398;608359;551888;172414;
2024-05-26T22:22:25.476;539956364369689950;531314;608169;551836;172411;
2024-05-26T22:22:25.494;539956364387848160;531249;608169;551786;172356;
2024-05-26T22:22:25.513;539956364406006370;531368;608339;551946;172428;
2024-05-26T22:22:25.531;539956364424164580;531464;608445;552048;172442;
2024-05-26T22:22:25.549;539956364442322790;531635;608631;552215;172405;
2024-05-26T22:22:25.567;539956364460481000;531953;608996;552525;172433;
2024-05-26T22:22:25.585;539956364478639210;532172;609327;552726;172395;
2024-05-26T22:22:25.603;539956364496797420;532523;609651;553015;172475;
2024-05-26T22:22:25.622;539956364514955630;532751;610046;553332;172427;
2024-05-26T22:22:25.640;539956364533113840;532987;610293;553600;172440;
2024-05-26T22:22:25.658;539956364551272050;533222;610569;553829;172440;
2024-05-26T22:22:25.676;539956364569430260;533470;610841;553986;172439;
2024-05-26T22:22:25.694;539956364587588470;533636;611115;554214;172450;
2024-05-26T22:22:25.712;539956364605746680;533824;611303;554428;172446;
2024-05-26T22:22:25.730;539956364623904890;533977;611446;554563;172448;
2024-05-26T22:22:25.749;539956364642063100;534131;611720;554737;172472;
2024-05-26T22:22:25.767;539956364660221310;534301;611915;554898;172414;
2024-05-26T22:22:25.785;539956364678379520;534456;612156;555116;172413;
2024-05-26T22:22:25.803;539956364696537730;534662;612401;555307;172451;
2024-05-26T22:22:25.821;539956364714695940;534850;612639;555499;172506;
2024-05-26T22:22:25.839;539956364732854150;535032;612829;555702;172478;
2024-05-26T22:22:25.858;539956364751012360;535260;613052;555942;172444;
2024-05-26T22:22:25.876;539956364769170570;535456;613319;556156;172462;
2024-05-26T22:22:25.894;539956364787328780;535633;613527;556388;172433;
2024-05-26T22:22:25.912;539956364805486990;535873;613758;556547;172394;
2024-05-26T22:22:25.930;539956364823643785;536062;614098;556752;172450;
2024-05-26T22:22:25.948;539956364841800578;536394;614401;557030;172441;
2024-05-26T22:22:25.967;539956364859957371;536675;614737;557316;172467;
2024-05-26T22:22:25.985;539956364878114164;536835;614970;557557;172450;
2024-05-26T22:22:26.003;539956364896270957;537044;615280;557791;172460;
2024-05-26T22:22:26.021;539956364914427750;537238;615561;558008;172414;
2024-05-26T22:22:26.039;539956364932584543;537521;615810;558229;172479;
2024-05-26T22:22:26.057;539956364950741336;537674;616012;558379;172479;
2024-05-26T22:22:26.075;539956364968898129;537933;616344;558681;172402;
2024-05-26T22:22:26.094;539956364987054922;538216;616679;559008;172460;
2024-05-26T22:22:26.112;539956365005211715;538420;616931;559140;172429;
2024-05-26T22:22:26.130;539956365023368508;538654;617197;559449;172422;
2024-05-26T22:22:26.148;539956365041525301;538959;617494;559640;172427;
2024-05-26T22:22:26.166;539956365059682094;539109;617687;559832;172459;
2024-05-26T22:22:26.184;539956365077838887;539254;617846;559991;172419;
2024-05-26T22:22:26.203;539956365095995680;539326;617932;560124;172452;
2024-05-26T22:22:26.221;539956365114152473;539133;617781;559983;172468;
2024-05-26T22:22:26.239;539956365132309266;538946;617486;559732;172455;
2024-05-26T22:22:26.257;539956365150466059;538686;617056;559488;172448;
2024-05-26T22:22:26.275;539956365168622852;538385;616717;559215;172397;
2024-05-26T22:22:26.293;539956365186779645;538104;616517;558956;172457;
2024-05-26T22:22:26.311;539956365204936438;537984;616329;558822;172451;
2024-05-26T22:22:26.330;539956365223093231;537915;616288;558756;172446;
2024-05-26T22:22:26.348;539956365241250024;537939;616300;558819;172468;
2024-05-26T22:22:26.366;539956365259406817;537948;616377;558893;172458;
2024-05-26T22:22:26.384;539956365277563610;538085;616587;559032;172385;
2024-05-26T22:22:26.402;539956365295720403;538262;616847;559226;172436;
2024-05-26T22:22:26.420;539956365313877196;538443;617089;559390;172431;
2024-05-26T22:22:26.439;539956365332033989;538738;617410;559675;172477;
2024-05-26T22:22:26.457;539956365350190782;538998;617649;559972;172465;
2024-05-26T22:22:26.475;539956365368347575;539131;617947;560081;172429;
2024-05-26T22:22:26.493;539956365386504368;539358;618178;560256;172468;
2024-05-26T22:22:26.511;539956365404661161;539488;618372;560448;172434;
2024-05-26T22:22:26.529;539956365422817954;539619;618515;560580;172429;
2024-05-26T22:22:26.548;539956365440974747;539797;618672;560720;172405;
2024-05-26T22:22:26.566;539956365459131540;539934;618767;560819;172473;
2024-05-26T22:22:26.584;539956365477288333;539986;618886;560959;172430;
2024-05-26T22:22:26.602;539956365495445126;540136;619044;561051;172496;
2024-05-26T22:22:26.620;539956365513601919;540282;619142;561228;172442;
2024-05-26T22:22:26.638;539956365531758712;540362;619334;561335;172505;
2024-05-26T22:22:26.656;539956365549915505;540454;619479;561503;172477;
2024-05-26T22:22:26.675;539956365568072298;540683;619729;561674;172467;
2024-05-26T22:22:26.693;539956365586229690;540750;619874;561811;172451;
2024-05-26T22:22:26.711;539956365604387064;540953;620110;561940;172404;
2024-05-26T22:22:26.729;539956365622544438;541073;620313;562118;172410;
2024-05-26T22:22:26.747;539956365640701812;541364;620550;562316;172429;
2024-05-26T22:22:26.765;539956365658859186;541599;620792;562589;172452;
2024-05-26T22:22:26.784;539956365677016560;541829;620990;562772;172469;
2024-05-26T22:22:26.802;539956365695173934;542030;621263;562987;172476;
2024-05-26T22:22:26.820;539956365713331308;542201;621522;563173;172513;
2024-05-26T22:22:26.838;539956365731488682;542332;621715;563354;172473;
2024-05-26T22:22:26.856;539956365749646056;542558;621951;563508;172438;
2024-05-26T22:22:26.874;539956365767803430;542761;622213;563677;172427;
2024-05-26T22:22:26.893;539956365785960804;542969;622455;563925;172434;
2024-05-26T22:22:26.911;539956365804118178;543145;622664;564088;172436;
2024-05-26T22:22:26.929;539956365822275552;543391;622889;564283;172482;
2024-05-26T22:22:26.947;539956365840432926;543589;623149;564526;172469;
2024-05-26T22:22:26.965;539956365858590300;543760;623334;564702;172442;
2024-05-26T22:22:26.983;539956365876747674;543938;623588;564888;172420;
2024-05-26T22:22:27.001;539956365894905048;544187;623766;565130;172465;
2024-05-26T22:22:27.020;539956365913062422;544321;623995;565343;172443;
2024-05-26T22:22:27.038;539956365931219796;544507;624160;565406;172403;
2024-05-26T22:22:27.056;539956365949377170;544748;624447;565666;172394;
2024-05-26T22:22:27.074;539956365967534544;544826;624609;565827;172403;
2024-05-26T22:22:27.092;539956365985691918;544806;624545;565815;172407;
2024-05-26T22:22:27.110;539956366003849292;544674;624443;565763;172440;
2024-05-26T22:22:27.129;539956366022006666;544488;624147;565563;172439;
2024-05-26T22:22:27.147;539956366040164040;544149;623737;565226;172455;
2024-05-26T22:22:27.165;539956366058321414;543824;623384;564914;172493;
2024-05-26T22:22:27.183;539956366076478788;543469;623014;564621;172484;
2024-05-26T22:22:27.201;539956366094636162;543304;622792;564357;172439;
2024-05-26T22:22:27.219;539956366112793536;543192;622686;564262;172448;
2024-05-26T22:22:27.238;539956366130950910;543164;622648;564259;172430;
2024-05-26T22:22:27.256;539956366149108284;543181;622743;564270;172424;
2024-05-26T22:22:27.274;539956366167265658;543270;622880;564376;172446;
2024-05-26T22:22:27.292;539956366185423032;543365;623055;564455;172402;
2024-05-26T22:22:27.310;539956366203580406;543562;623162;564660;172479;
2024-05-26T22:22:27.328;539956366221737780;543671;623396;564790;172471;
2024-05-26T22:22:27.346;539956366239895154;543846;623634;564937;172489;
2024-05-26T22:22:27.365;539956366258052528;543997;623720;565116;172495;
2024-05-26T22:22:27.383;539956366276209902;544133;623865;565192;172464;
2024-05-26T22:22:27.401;539956366294367276;544185;624067;565316;172463;
2024-05-26T22:22:27.419;539956366312524650;544305;624157;565395;172502;
2024-05-26T22:22:27.437;539956366330682024;544262;624125;565443;172448;
2024-05-26T22:22:27.455;539956366348837992;544392;624215;565565;172462;
2024-05-26T22:22:27.474;539956366366993932;544376;624219;565568;172426;
2024-05-26T22:22:27.492;539956366385149872;544476;624314;565664;172457;
2024-05-26T22:22:27.510;539956366403305812;544566;624440;565721;172503;
2024-05-26T22:22:27.528;539956366421461752;544614;624553;565750;172533;
2024-05-26T22:22:27.546;539956366439617692;544677;624617;565806;172468;
2024-05-26T22:22:27.564;539956366457773632;544765;624741;565995;172480;
2024-05-26T22:22:27.582;539956366475929572;544866;624855;566031;172446;
2024-05-26T22:22:27.601;539956366494085512;544951;624936;566031;172404;
2024-05-26T22:22:27.619;539956366512241452;545102;625075;566135;172433;
2024-05-26T22:22:27.637;539956366530397392;545200;625191;566287;172495;
2024-05-26T22:22:27.655;539956366548553332;545371;625422;566428;172510;
2024-05-26T22:22:27.673;539956366566709272;545463;625480;566515;172460;
2024-05-26T22:22:27.691;539956366584865212;545636;625746;566733;172482;
2024-05-26T22:22:27.710;539956366603021152;545716;625910;566861;172497;
2024-05-26T22:22:27.728;539956366621177092;545923;626006;567003;172499;
2024-05-26T22:22:27.746;539956366639333032;546125;626166;567177;172495;
2024-05-26T22:22:27.764;539956366657488972;546246;626298;567210;172428;
2024-05-26T22:22:27.782;539956366675644912;546344;626471;567439;172499;
2024-05-26T22:22:27.800;539956366693800852;546482;626647;567551;172488;
2024-05-26T22:22:27.819;539956366711956792;546590;626770;567630;172478;
2024-05-26T22:22:27.837;539956366730112732;546690;626966;567767;172411;
2024-05-26T22:22:27.855;539956366748268672;546858;627058;567882;172405;
2024-05-26T22:22:27.873;539956366766424612;546982;627253;568068;172473;
2024-05-26T22:22:27.891;539956366784580552;547088;627388;568130;172477;
2024-05-26T22:22:27.909;539956366802736492;547231;627537;568261;172497;
2024-05-26T22:22:27.927;539956366820892432;547283;627605;568338;172479;
2024-05-26T22:22:27.946;539956366839048372;547225;627560;568332;172528;
2024-05-26T22:22:27.964;539956366857204312;546978;627159;568091;172502;
2024-05-26T22:22:27.982;539956366875360252;546569;626729;567680;172539;
2024-05-26T22:22:28.000;539956366893516192;546072;626036;567159;172476;
2024-05-26T22:22:28.018;539956366911672132;545579;625412;566646;172518;
2024-05-26T22:22:28.036;539956366929828072;545052;624761;566104;172491;
2024-05-26T22:22:28.055;539956366947984012;544592;624239;565616;172473;
2024-05-26T22:22:28.073;539956366966139952;544357;623836;565281;172436;
2024-05-26T22:22:28.091;539956366984295892;544044;623489;564906;172460;
2024-05-26T22:22:28.109;539956367002451832;543874;623287;564780;172403;
2024-05-26T22:22:28.127;539956367020607772;543793;623235;564751;172419;
2024-05-26T22:22:28.145;539956367038763712;543844;623260;564766;172502;
2024-05-26T22:22:28.163;539956367056920398;543910;623307;564789;172436;
2024-05-26T22:22:28.182;539956367075077082;543960;623432;564871;172426;
2024-05-26T22:22:28.200;539956367093233766;544132;623538;564971;172453;
2024-05-26T22:22:28.218;539956367111390450;544096;623654;565002;172430;
2024-05-26T22:22:28.236;539956367129547134;544242;623772;565096;172474;
2024-05-26T22:22:28.254;539956367147703818;544216;623756;565087;172452;
2024-05-26T22:22:28.272;539956367165860502;544230;623751;565112;172465;
2024-05-26T22:22:28.291;539956367184017186;544229;623659;565076;172455;
2024-05-26T22:22:28.309;539956367202173870;544182;623660;565086;172465;
2024-05-26T22:22:28.327;539956367220330554;544169;623558;564992;172441;
2024-05-26T22:22:28.345;539956367238487238;544121;623506;564905;172454;
2024-05-26T22:22:28.363;539956367256643922;544099;623474;564875;172480;
2024-05-26T22:22:28.381;539956367274800606;544104;623440;564838;172457;
2024-05-26T22:22:28.400;539956367292957290;544091;623391;564807;172445;
2024-05-26T22:22:28.418;539956367311113974;544143;623340;564757;172460;
2024-05-26T22:22:28.436;539956367329270658;544082;623370;564761;172473;
2024-05-26T22:22:28.454;539956367347427342;544072;623399;564815;172455;
2024-05-26T22:22:28.472;539956367365584026;544146;623446;564772;172451;
2024-05-26T22:22:28.490;539956367383740710;544223;623490;564860;172447;
2024-05-26T22:22:28.508;539956367401897394;544249;623506;564846;172439;
2024-05-26T22:22:28.527;539956367420054078;544265;623587;564933;172451;
2024-05-26T22:22:28.545;539956367438210762;544384;623612;564932;172436;
2024-05-26T22:22:28.563;539956367456367446;544441;623675;565019;172423;
2024-05-26T22:22:28.581;539956367474524130;544512;623800;565099;172418;
2024-05-26T22:22:28.599;539956367492680814;544645;623920;565218;172462;
2024-05-26T22:22:28.617;539956367510837498;544687;624045;565237;172457;
2024-05-26T22:22:28.636;539956367528994182;544750;624041;565316;172440;
2024-05-26T22:22:28.654;539956367547150866;544833;624190;565423;172430;
2024-05-26T22:22:28.672;539956367565307550;544931;624236;565500;172502;
2024-05-26T22:22:28.690;539956367583464234;544990;624303;565524;172435;
2024-05-26T22:22:28.708;539956367601620918;545149;624491;565703;172474;
2024-05-26T22:22:28.726;539956367619777602;545199;624513;565698;172448;
2024-05-26T22:22:28.744;539956367637934286;545366;624642;565855;172492;
2024-05-26T22:22:28.763;539956367656090970;545436;624676;565844;172396;
2024-05-26T22:22:28.781;539956367674247654;545451;624721;565959;172389;
2024-05-26T22:22:28.799;539956367692404338;545517;624864;566067;172443;
2024-05-26T22:22:28.817;539956367710561022;545553;624832;565964;172414;
2024-05-26T22:22:28.835;539956367728717706;545243;624506;565809;172402;
2024-05-26T22:22:28.853;539956367746874390;544845;623959;565342;172433;
2024-05-26T22:22:28.872;539956367765032588;544233;623199;564745;172416;
2024-05-26T22:22:28.890;539956367783190756;543482;622171;563945;172401;
2024-05-26T22:22:28.908;539956367801348924;542792;621186;563083;172485;
2024-05-26T22:22:28.926;539956367819507092;542000;620240;562270;172470;
2024-05-26T22:22:28.944;539956367837665260;541231;619351;561497;172440;
2024-05-26T22:22:28.962;539956367855823428;540655;618698;560890;172453;
2024-05-26T22:22:28.981;539956367873981596;540276;618150;560532;172429;
2024-05-26T22:22:28.999;539956367892139764;540031;617814;560243;172437;
2024-05-26T22:22:29.017;539956367910297932;539868;617560;560000;172477;
2024-05-26T22:22:29.035;539956367928456100;539715;617491;559892;172461;
2024-05-26T22:22:29.053;539956367946614268;539740;617518;559947;172455;
2024-05-26T22:22:29.071;539956367964772436;539835;617582;560000;172383;
2024-05-26T22:22:29.089;539956367982930604;539850;617646;560119;172417;
2024-05-26T22:22:29.108;539956368001088772;539939;617738;560225;172452;
2024-05-26T22:22:29.126;539956368019246940;540002;617777;560189;172484;
2024-05-26T22:22:29.144;539956368037405108;539956;617737;560204;172443;
2024-05-26T22:22:29.162;539956368055563276;539977;617683;560223;172431;
2024-05-26T22:22:29.180;539956368073721444;539903;617621;560104;172444;
2024-05-26T22:22:29.198;539956368091879612;539807;617511;559991;172474;
2024-05-26T22:22:29.217;539956368110037780;539699;617330;559908;172454;
2024-05-26T22:22:29.235;539956368128195948;539602;617226;559754;172464;
2024-05-26T22:22:29.253;539956368146354116;539562;617071;559630;172475;
2024-05-26T22:22:29.271;539956368164512284;539440;616942;559582;172418;
2024-05-26T22:22:29.289;539956368182670452;539362;616822;559520;172401;
2024-05-26T22:22:29.307;539956368200828620;539301;616762;559465;172485;
2024-05-26T22:22:29.326;539956368218986788;539203;616703;559455;172440;
2024-05-26T22:22:29.344;539956368237144956;539220;616709;559432;172437;
2024-05-26T22:22:29.362;539956368255303124;539226;616662;559370;172459;
2024-05-26T22:22:29.380;539956368273461292;539270;616718;559418;172479;
2024-05-26T22:22:29.398;539956368291619460;539286;616652;559334;172475;
2024-05-26T22:22:29.416;539956368309777628;539324;616677;559430;172418;
2024-05-26T22:22:29.434;539956368327935796;539318;616670;559421;172417;
2024-05-26T22:22:29.453;539956368346093964;539370;616794;559582;172418;
2024-05-26T22:22:29.471;539956368364252132;539469;616860;559559;172497;
2024-05-26T22:22:29.489;539956368382410300;539535;616973;559572;172386;
2024-05-26T22:22:29.507;539956368400568468;539610;617046;559703;172453;
2024-05-26T22:22:29.525;539956368418726636;539672;617068;559743;172423;
2024-05-26T22:22:29.543;539956368436886229;539746;617116;559828;172411;
2024-05-26T22:22:29.562;539956368455045799;539846;617158;559854;172457;
2024-05-26T22:22:29.580;539956368473205369;539866;617273;559954;172439;
2024-05-26T22:22:29.598;539956368491364939;539973;617339;560020;172437;
2024-05-26T22:22:29.616;539956368509524509;540056;617445;560094;172430;
2024-05-26T22:22:29.634;539956368527684079;540110;617532;560117;172462;
2024-05-26T22:22:29.652;539956368545843649;540223;617538;560226;172467;
2024-05-26T22:22:29.671;539956368564003219;540282;617731;560326;172497;
2024-05-26T22:22:29.689;539956368582162789;540241;617727;560428;172460;
2024-05-26T22:22:29.707;539956368600322359;540225;617632;560326;172447;
2024-05-26T22:22:29.725;539956368618481929;539984;617368;560086;172493;
2024-05-26T22:22:29.743;539956368636641499;539452;616579;559483;172447;
2024-05-26T22:22:29.761;539956368654801069;538654;615663;558752;172458;
2024-05-26T22:22:29.780;539956368672960639;537766;614510;557783;172440;
2024-05-26T22:22:29.798;539956368691120209;536788;613210;556668;172377;
2024-05-26T22:22:29.816;539956368709279779;535807;612135;555720;172427;
2024-05-26T22:22:29.834;539956368727439349;534960;611098;554954;172424;
2024-05-26T22:22:29.852;539956368745598919;534268;610249;554194;172375;
2024-05-26T22:22:29.870;539956368763758489;533827;609574;553706;172426;
2024-05-26T22:22:29.888;539956368781918059;533454;609166;553364;172435;
2024-05-26T22:22:29.907;539956368800077629;533326;608970;553200;172374;
2024-05-26T22:22:29.925;539956368818237199;533277;608897;553130;172395;
2024-05-26T22:22:29.943;539956368836396769;533266;608923;553163;172439;
2024-05-26T22:22:29.961;539956368854556339;533378;609052;553223;172450;
2024-05-26T22:22:29.979;539956368872715909;533493;609177;553373;172473;
2024-05-26T22:22:29.997;539956368890875479;533583;609267;553478;172436;
2024-05-26T22:22:30.016;539956368909035049;533669;609328;553578;172475;
2024-05-26T22:22:30.034;539956368927194619;533687;609413;553596;172525;
2024-05-26T22:22:30.052;539956368945354189;533655;609354;553571;172410;
2024-05-26T22:22:30.070;539956368963513759;533568;609341;553507;172414;
2024-05-26T22:22:30.088;539956368981673329;533571;609189;553408;172451;
2024-05-26T22:22:30.106;539956368999832899;533382;609065;553297;172368;
2024-05-26T22:22:30.125;539956369017992469;533329;608940;553225;172491;
2024-05-26T22:22:30.143;539956369036152039;533201;608814;553070;172456;
2024-05-26T22:22:30.161;539956369054311609;533241;608749;553064;172467;
2024-05-26T22:22:30.179;539956369072471179;533155;608660;552980;172438;
2024-05-26T22:22:30.197;539956369090630749;533040;608588;552900;172437;
2024-05-26T22:22:30.215;539956369108789248;533034;608525;552870;172478;
2024-05-26T22:22:30.234;539956369126947747;532989;608505;552797;172460;
2024-05-26T22:22:30.252;539956369145106246;533037;608462;552829;172492;
2024-05-26T22:22:30.270;539956369163264745;533062;608512;552866;172471;
2024-05-26T22:22:30.288;539956369181423244;533078;608590;552844;172472;
2024-05-26T22:22:30.306;539956369199581743;533056;608570;552854;172437;
2024-05-26T22:22:30.324;539956369217740242;533130;608710;552946;172482;
2024-05-26T22:22:30.342;539956369235898741;533297;608825;553091;172450;
2024-05-26T22:22:30.361;539956369254057240;533327;608948;553071;172419;
2024-05-26T22:22:30.379;539956369272215739;533447;609030;553178;172459;
2024-05-26T22:22:30.397;539956369290374238;533502;609084;553276;172525;
2024-05-26T22:22:30.415;539956369308532737;533607;609183;553403;172471;
2024-05-26T22:22:30.433;539956369326691236;533663;609256;553381;172399;
2024-05-26T22:22:30.451;539956369344849735;533775;609433;553629;172425;
2024-05-26T22:22:30.470;539956369363008234;533874;609526;553692;172422;
2024-05-26T22:22:30.488;539956369381166733;534032;609622;553798;172453;
2024-05-26T22:22:30.506;539956369399325232;534112;609738;553893;172412;
2024-05-26T22:22:30.524;539956369417483731;534215;609824;554030;172444;
2024-05-26T22:22:30.542;539956369435642230;534333;610019;554067;172463;
2024-05-26T22:22:30.560;539956369453800729;534400;610165;554181;172456;
2024-05-26T22:22:30.579;539956369471959228;534535;610183;554273;172448;
2024-05-26T22:22:30.597;539956369490117727;534406;610072;554199;172456;
2024-05-26T22:22:30.615;539956369508276226;534027;609638;553836;172384;
2024-05-26T22:22:30.633;539956369526434725;533445;608836;553230;172418;
2024-05-26T22:22:30.651;539956369544593224;532581;607810;552357;172369;
2024-05-26T22:22:30.669;539956369562751723;531602;606580;551318;172411;
2024-05-26T22:22:30.687;539956369580910222;530630;605370;550331;172413;
2024-05-26T22:22:30.706;539956369599068721;529610;604210;549310;172421;
2024-05-26T22:22:30.724;539956369617227220;528867;603364;548525;172405;
2024-05-26T22:22:30.742;539956369635385719;528265;602579;547914;172406;
2024-05-26T22:22:30.760;539956369653544218;527857;602148;547441;172426;
2024-05-26T22:22:30.778;539956369671702717;527594;601806;547162;172430;
2024-05-26T22:22:30.796;539956369689861216;527430;601630;547031;172387;
2024-05-26T22:22:30.815;539956369708019715;527437;601714;547060;172443;
2024-05-26T22:22:30.833;539956369726178214;527509;601786;547137;172380;
2024-05-26T22:22:30.851;539956369744336713;527615;601968;547267;172425;
2024-05-26T22:22:30.869;539956369762495212;527760;602093;547372;172457;
2024-05-26T22:22:30.887;539956369780653422;527865;602274;547463;172426;
2024-05-26T22:22:30.905;539956369798811632;527992;602366;547576;172383;
2024-05-26T22:22:30.924;539956369816969842;527969;602377;547587;172399;
2024-05-26T22:22:30.942;539956369835128052;527902;602298;547527;172395;
2024-05-26T22:22:30.960;539956369853286262;527825;602195;547468;172410;
2024-05-26T22:22:30.978;539956369871444472;527747;602105;547404;172435;
2024-05-26T22:22:30.996;539956369889602682;527660;601993;547280;172417;
2024-05-26T22:22:31.014;539956369907760892;527547;601928;547205;172406;
2024-05-26T22:22:31.032;539956369925919102;527445;601837;547141;172472;
2024-05-26T22:22:31.051;539956369944077312;527416;601752;546983;172448;
2024-05-26T22:22:31.069;539956369962235522;527296;601638;546959;172436;
2024-05-26T22:22:31.087;539956369980393732;527254;601559;546845;172354;
